"type","name","time_units","begin_time","frequency","count","units"
"signal","Ultium EMG-EXT.DIG. RT","s",439.98000,2000,22000,"uV"

"time","value"
439.98000,2.631748878
439.98050,2.631748878
439.98100,7.209664994
439.98150,8.125248217
439.98200,-2.251361645
439.98250,-15.37472118
439.98300,-14.45913795
439.98350,-1.64097283
439.98400,6.29408177
439.98450,3.852526509
439.98500,1.716165655
439.98550,5.683692955
439.98600,8.430442624
439.98650,6.599276178
439.98700,6.599276178
439.98750,9.346025847
439.98800,8.735637032
439.98850,5.378498547
439.98900,7.514859401
439.98950,12.09277552
439.99000,4.157720917
439.99050,-17.51108203
439.99100,-39.79027379
439.99150,-53.82921655
439.99200,-63.59543759
439.99250,-71.53049219
439.99300,-75.49801949
439.99350,-82.21229646
439.99400,-94.42007277
439.99450,-87.09540699
439.99500,-33.68638564
439.99550,42.30702188
439.99600,82.28748929
439.99650,68.85893535
439.99700,52.07324293
439.99750,74.9628235
439.99800,112.5017357
439.99850,113.4173189
439.99900,75.57321232
439.99950,38.94988339
440.00000,23.69016301
440.00050,16.36549722
440.00100,5.378498547
440.00150,-1.335778422
440.00200,-1.335778422
440.00250,-2.556556053
440.00300,-8.965638615
440.00350,-12.3227771
440.00400,-6.829277761
440.00450,4.462915324
440.00500,17.89146926
440.00550,27.65769031
440.00600,28.87846794
440.00650,20.33302452
440.00700,9.956414663
440.00750,2.631748878
440.00800,-5.60850013
440.00850,-18.12147085
440.00900,-25.75133104
440.00950,-20.2578317
440.01000,-8.355249799
440.01050,-2.861750461
440.01100,-4.387722499
440.01150,-5.60850013
440.01200,-3.777333684
440.01250,-2.861750461
440.01300,-4.082528091
440.01350,-4.998111315
440.01400,-5.913694538
440.01450,-10.18641625
440.01500,-16.59549881
440.01550,-20.56302611
440.01600,-21.47860933
440.01650,-20.86822052
440.01700,-19.34224848
440.01750,-16.90069321
440.01800,-14.45913795
440.01850,-11.40719388
440.01900,-4.387722499
440.01950,8.125248217
440.02000,19.4174413
440.02050,20.94341334
440.02100,13.00835874
440.02150,3.852526509
440.02200,-0.1150007913
440.02250,-0.1150007913
440.02300,-1.335778422
440.02350,-3.472139276
440.02400,-3.777333684
440.02450,-2.556556053
440.02500,-0.7253896067
440.02550,0.8005824318
440.02600,1.410971247
440.02650,-0.1150007913
440.02700,-2.861750461
440.02750,-4.387722499
440.02800,-0.7253896067
440.02850,5.378498547
440.02900,10.26160907
440.02950,11.17719229
440.03000,10.87199789
440.03050,11.78758111
440.03100,13.61874756
440.03150,14.83952519
440.03200,14.22913637
440.03250,9.956414663
440.03300,1.105776839
440.03350,-10.49161065
440.03400,-22.39419255
440.03450,-30.02405275
440.03500,-30.93963597
440.03550,-25.14094222
440.03600,-17.20588762
440.03650,-13.84874914
440.03700,-15.98510999
440.03750,-18.73185966
440.03800,-17.81627644
440.03850,-15.06952677
440.03900,-12.93316591
440.03950,-5.60850013
440.04000,8.430442624
440.04050,20.02783012
440.04100,14.83952519
440.04150,-3.166944868
440.04200,-15.67991558
440.04250,-12.3227771
440.04300,-2.556556053
440.04350,0.1901936164
440.04400,-1.64097283
440.04450,-1.335778422
440.04500,0.8005824318
440.04550,-0.1150007913
440.04600,-4.387722499
440.04650,-7.439666576
440.04700,-6.524083353
440.04750,-4.998111315
440.04800,-4.387722499
440.04850,-3.166944868
440.04900,-0.420195199
440.04950,1.410971247
440.05000,1.410971247
440.05050,0.1901936164
440.05100,-0.1150007913
440.05150,0.4953880241
440.05200,3.242137693
440.05250,7.514859401
440.05300,11.78758111
440.05350,13.31355315
440.05400,12.09277552
440.05450,9.651220255
440.05500,8.125248217
440.05550,7.820053809
440.05600,7.209664994
440.05650,5.07330414
440.05700,1.716165655
440.05750,-0.1150007913
440.05800,-0.420195199
440.05850,-1.335778422
440.05900,-3.472139276
440.05950,-5.60850013
440.06000,-5.60850013
440.06050,-5.60850013
440.06100,-7.134472168
440.06150,-8.050055392
440.06200,-4.998111315
440.06250,-0.1150007913
440.06300,-0.1150007913
440.06350,-5.60850013
440.06400,-7.439666576
440.06450,-1.030584014
440.06500,7.209664994
440.06550,9.04083144
440.06600,5.378498547
440.06650,2.021360063
440.06700,1.105776839
440.06750,0.8005824318
440.06800,1.410971247
440.06850,4.157720917
440.06900,7.209664994
440.06950,6.904470586
440.07000,4.157720917
440.07050,3.242137693
440.07100,3.852526509
440.07150,4.157720917
440.07200,3.852526509
440.07250,4.462915324
440.07300,5.378498547
440.07350,5.378498547
440.07400,5.378498547
440.07450,6.29408177
440.07500,6.599276178
440.07550,4.462915324
440.07600,2.021360063
440.07650,1.716165655
440.07700,3.242137693
440.07750,3.242137693
440.07800,2.021360063
440.07850,1.716165655
440.07900,1.716165655
440.07950,0.8005824318
440.08000,0.4953880241
440.08050,4.462915324
440.08100,10.26160907
440.08150,11.4823867
440.08200,8.125248217
440.08250,5.683692955
440.08300,6.904470586
440.08350,5.683692955
440.08400,-3.472139276
440.08450,-15.06952677
440.08500,-15.98510999
440.08550,-5.60850013
440.08600,4.157720917
440.08650,3.852526509
440.08700,-1.030584014
440.08750,-0.420195199
440.08800,5.988887363
440.08850,8.735637032
440.08900,3.242137693
440.08950,-2.556556053
440.09000,-3.166944868
440.09050,-3.777333684
440.09100,-12.3227771
440.09150,-28.49808071
440.09200,-43.45260668
440.09250,-48.33571721
440.09300,-37.65391294
440.09350,-14.15394355
440.09400,5.683692955
440.09450,6.904470586
440.09500,-4.082528091
440.09550,1.716165655
440.09600,38.64468899
440.09650,78.6251564
440.09700,83.20307251
440.09750,52.37843733
440.09800,22.77457979
440.09850,16.06030282
440.09900,18.50185808
440.09950,10.87199789
440.10000,-1.64097283
440.10050,-4.692916907
440.10100,-0.1150007913
440.10150,1.410971247
440.10200,-2.251361645
440.10250,-4.387722499
440.10300,-2.556556053
440.10350,-1.335778422
440.10400,-2.861750461
440.10450,-3.472139276
440.10500,-2.861750461
440.10550,-3.166944868
440.10600,-4.387722499
440.10650,-4.387722499
440.10700,-3.472139276
440.10750,-3.777333684
440.10800,-4.998111315
440.10850,-5.60850013
440.10900,-5.60850013
440.10950,-5.303305722
440.11000,-4.692916907
440.11050,-3.472139276
440.11100,-2.861750461
440.11150,-3.472139276
440.11200,-4.082528091
440.11250,-4.082528091
440.11300,-4.387722499
440.11350,-5.913694538
440.11400,-7.439666576
440.11450,-7.439666576
440.11500,-6.218888945
440.11550,-4.998111315
440.11600,-4.692916907
440.11650,-4.387722499
440.11700,-2.861750461
440.11750,-1.030584014
440.11800,-0.1150007913
440.11850,-0.420195199
440.11900,-2.251361645
440.11950,-4.387722499
440.12000,-5.60850013
440.12050,-6.218888945
440.12100,-7.134472168
440.12150,-7.439666576
440.12200,-5.60850013
440.12250,-4.387722499
440.12300,-5.913694538
440.12350,-10.49161065
440.12400,-12.3227771
440.12450,-8.660444207
440.12500,-3.777333684
440.12550,-5.303305722
440.12600,-11.71238828
440.12650,-16.2903044
440.12700,-13.84874914
440.12750,-9.57602743
440.12800,-11.10199947
440.12850,-20.86822052
440.12900,-33.99158005
440.12950,-43.75780109
440.13000,-42.23182905
440.13050,-27.58249748
440.13100,-9.57602743
440.13150,-3.166944868
440.13200,-8.965638615
440.13250,-5.60850013
440.13300,24.91094064
440.13350,69.77451857
440.13400,96.32643204
440.13450,87.47579422
440.13500,57.56674226
440.13550,29.79405116
440.13600,12.09277552
440.13650,-0.1150007913
440.13700,-8.660444207
440.13750,-9.881221838
440.13800,-5.913694538
440.13850,-3.777333684
440.13900,-8.355249799
440.13950,-13.84874914
440.14000,-13.54355473
440.14050,-9.270833022
440.14100,-8.050055392
440.14150,-8.660444207
440.14200,-2.251361645
440.14250,13.92394196
440.14300,26.13171827
440.14350,17.89146926
440.14400,-4.998111315
440.14450,-21.17341492
440.14500,-17.81627644
440.14550,-4.692916907
440.14600,2.021360063
440.14650,0.8005824318
440.14700,-0.1150007913
440.14750,2.021360063
440.14800,3.852526509
440.14850,-0.1150007913
440.14900,-7.439666576
440.14950,-11.10199947
440.15000,-5.303305722
440.15050,6.904470586
440.15100,13.00835874
440.15150,5.683692955
440.15200,-7.439666576
440.15250,-13.23836032
440.15300,-8.660444207
440.15350,-3.166944868
440.15400,-2.861750461
440.15450,-2.251361645
440.15500,3.242137693
440.15550,9.04083144
440.15600,7.820053809
440.15650,2.021360063
440.15700,-0.420195199
440.15750,0.1901936164
440.15800,-1.335778422
440.15850,-9.270833022
440.15900,-18.42666525
440.15950,-18.73185966
440.16000,-7.744860984
440.16050,3.242137693
440.16100,3.242137693
440.16150,-7.439666576
440.16200,-15.98510999
440.16250,-13.54355473
440.16300,-5.913694538
440.16350,-4.082528091
440.16400,-7.744860984
440.16450,-8.660444207
440.16500,-3.472139276
440.16550,1.716165655
440.16600,2.32655447
440.16650,0.1901936164
440.16700,0.4953880241
440.16750,2.32655447
440.16800,2.32655447
440.16850,-0.420195199
440.16900,-3.166944868
440.16950,-2.556556053
440.17000,-0.7253896067
440.17050,-0.7253896067
440.17100,-1.64097283
440.17150,-1.946167238
440.17200,-1.64097283
440.17250,-1.946167238
440.17300,-3.166944868
440.17350,-4.387722499
440.17400,-7.744860984
440.17450,-12.62797151
440.17500,-14.45913795
440.17550,-12.01758269
440.17600,-11.71238828
440.17650,-17.20588762
440.17700,-21.47860933
440.17750,-15.67991558
440.17800,-2.861750461
440.17850,5.07330414
440.17900,6.29408177
440.17950,6.29408177
440.18000,4.462915324
440.18050,-3.166944868
440.18100,-12.01758269
440.18150,-14.45913795
440.18200,-15.37472118
440.18250,-22.08899815
440.18300,-21.17341492
440.18350,9.956414663
440.18400,61.83946397
440.18450,93.88487678
440.18500,84.72904455
440.18550,57.87193667
440.18600,43.52779951
440.18650,40.47585543
440.18700,32.23560643
440.18750,20.94341334
440.18800,20.63821893
440.18850,27.04730149
440.18900,24.60574623
440.18950,13.61874756
440.19000,8.735637032
440.19050,10.56680348
440.19100,4.157720917
440.19150,-14.45913795
440.19200,-30.63444156
440.19250,-31.24483038
440.19300,-22.39419255
440.19350,-15.67991558
440.19400,-13.54355473
440.19450,-11.10199947
440.19500,-8.050055392
440.19550,-7.439666576
440.19600,-9.57602743
440.19650,-10.79680506
440.19700,-9.57602743
440.19750,-8.355249799
440.19800,-8.660444207
440.19850,-9.57602743
440.19900,-8.660444207
440.19950,-5.913694538
440.20000,-4.082528091
440.20050,-3.166944868
440.20100,-0.7253896067
440.20150,4.157720917
440.20200,8.125248217
440.20250,6.904470586
440.20300,2.936943286
440.20350,0.4953880241
440.20400,1.105776839
440.20450,1.105776839
440.20500,-1.64097283
440.20550,-5.303305722
440.20600,-6.524083353
440.20650,-5.60850013
440.20700,-4.692916907
440.20750,-5.60850013
440.20800,-7.439666576
440.20850,-9.57602743
440.20900,-10.79680506
440.20950,-10.79680506
440.21000,-8.965638615
440.21050,-6.829277761
440.21100,-5.913694538
440.21150,-5.303305722
440.21200,-4.998111315
440.21250,-4.387722499
440.21300,-3.472139276
440.21350,-2.861750461
440.21400,-1.64097283
440.21450,-0.1150007913
440.21500,0.8005824318
440.21550,-0.1150007913
440.21600,-1.335778422
440.21650,-1.946167238
440.21700,-1.030584014
440.21750,-0.1150007913
440.21800,-0.7253896067
440.21850,-1.335778422
440.21900,-0.7253896067
440.21950,-0.1150007913
440.22000,-0.1150007913
440.22050,1.105776839
440.22100,4.768109732
440.22150,9.04083144
440.22200,10.56680348
440.22250,10.26160907
440.22300,10.26160907
440.22350,9.04083144
440.22400,3.242137693
440.22450,-4.692916907
440.22500,-8.355249799
440.22550,-4.692916907
440.22600,0.1901936164
440.22650,1.410971247
440.22700,0.4953880241
440.22750,1.105776839
440.22800,2.631748878
440.22850,2.631748878
440.22900,1.716165655
440.22950,3.242137693
440.23000,5.683692955
440.23050,5.683692955
440.23100,1.716165655
440.23150,-1.946167238
440.23200,-2.556556053
440.23250,-1.030584014
440.23300,0.8005824318
440.23350,0.8005824318
440.23400,-0.420195199
440.23450,-0.420195199
440.23500,2.936943286
440.23550,7.209664994
440.23600,5.683692955
440.23650,-0.420195199
440.23700,-3.777333684
440.23750,-1.030584014
440.23800,-0.420195199
440.23850,-10.79680506
440.23900,-25.75133104
440.23950,-32.46560801
440.24000,-27.27730308
440.24050,-17.20588762
440.24100,-7.134472168
440.24150,6.29408177
440.24200,22.46938538
440.24250,31.3200232
440.24300,26.74210709
440.24350,15.449914
440.24400,7.820053809
440.24450,5.07330414
440.24500,0.4953880241
440.24550,-12.3227771
440.24600,-33.38119123
440.24650,-54.74479977
440.24700,-62.37465996
440.24750,-50.47207806
440.24800,-30.63444156
440.24850,-20.86822052
440.24900,-22.39419255
440.24950,-13.23836032
440.25000,22.77457979
440.25050,72.52126824
440.25100,104.5666811
440.25150,101.2095426
440.25200,74.04724028
440.25250,46.27454918
440.25300,32.54080083
440.25350,28.26807912
440.25400,23.69016301
440.25450,16.67069163
440.25500,12.70316433
440.25550,11.4823867
440.25600,5.07330414
440.25650,-10.18641625
440.25700,-23.92016459
440.25750,-23.61497018
440.25800,-12.3227771
440.25850,-4.082528091
440.25900,-4.082528091
440.25950,-6.218888945
440.26000,-6.829277761
440.26050,-8.660444207
440.26100,-10.79680506
440.26150,-9.270833022
440.26200,-5.60850013
440.26250,-8.050055392
440.26300,-16.90069321
440.26350,-18.73185966
440.26400,-7.439666576
440.26450,6.29408177
440.26500,8.430442624
440.26550,-0.1150007913
440.26600,-8.050055392
440.26650,-9.270833022
440.26700,-8.050055392
440.26750,-7.439666576
440.26800,-6.218888945
440.26850,-3.472139276
440.26900,-2.556556053
440.26950,-4.387722499
440.27000,-5.913694538
440.27050,-4.692916907
440.27100,-2.556556053
440.27150,-2.251361645
440.27200,-4.082528091
440.27250,-4.692916907
440.27300,-3.472139276
440.27350,-2.556556053
440.27400,-2.556556053
440.27450,-1.946167238
440.27500,-0.1150007913
440.27550,-0.420195199
440.27600,-6.524083353
440.27650,-18.42666525
440.27700,-31.85521919
440.27750,-40.40066261
440.27800,-39.17988498
440.27850,-30.63444156
440.27900,-24.53055341
440.27950,-26.66691426
440.28000,-24.53055341
440.28050,1.716165655
440.28100,49.93688207
440.28150,86.560211
440.28200,83.20307251
440.28250,52.37843733
440.28300,29.18366235
440.28350,27.04730149
440.28400,25.21613505
440.28450,9.346025847
440.28500,-5.303305722
440.28550,-1.946167238
440.28600,7.209664994
440.28650,-1.030584014
440.28700,-27.88769189
440.28750,-46.50455076
440.28800,-41.62144024
440.28850,-24.225359
440.28900,-12.62797151
440.28950,-11.10199947
440.29000,-12.62797151
440.29050,-13.84874914
440.29100,-10.49161065
440.29150,1.716165655
440.29200,20.33302452
440.29250,29.48885676
440.29300,19.4174413
440.29350,-0.1150007913
440.29400,-8.355249799
440.29450,-1.946167238
440.29500,4.157720917
440.29550,-3.777333684
440.29600,-20.56302611
440.29650,-28.1928863
440.29700,-18.12147085
440.29750,1.410971247
440.29800,16.06030282
440.29850,19.11224689
440.29900,14.83952519
440.29950,9.956414663
440.30000,6.599276178
440.30050,3.547332101
440.30100,-0.1150007913
440.30150,-1.335778422
440.30200,-0.7253896067
440.30250,-0.1150007913
440.30300,-1.64097283
440.30350,-2.861750461
440.30400,-1.64097283
440.30450,-0.1150007913
440.30500,-0.1150007913
440.30550,-1.64097283
440.30600,-3.472139276
440.30650,-4.692916907
440.30700,-4.387722499
440.30750,-3.166944868
440.30800,-1.335778422
440.30850,-0.420195199
440.30900,-0.7253896067
440.30950,-0.1150007913
440.31000,1.105776839
440.31050,2.021360063
440.31100,1.105776839
440.31150,0.1901936164
440.31200,-0.1150007913
440.31250,0.1901936164
440.31300,0.4953880241
440.31350,1.105776839
440.31400,1.105776839
440.31450,-0.1150007913
440.31500,-2.861750461
440.31550,-3.777333684
440.31600,-2.251361645
440.31650,-0.7253896067
440.31700,-0.420195199
440.31750,-0.420195199
440.31800,0.1901936164
440.31850,2.021360063
440.31900,5.683692955
440.31950,11.78758111
440.32000,17.58627486
440.32050,19.4174413
440.32100,17.28108045
440.32150,14.83952519
440.32200,12.39796992
440.32250,9.346025847
440.32300,6.29408177
440.32350,5.378498547
440.32400,4.157720917
440.32450,0.1901936164
440.32500,-4.692916907
440.32550,-8.050055392
440.32600,-11.40719388
440.32650,-19.34224848
440.32700,-28.1928863
440.32750,-29.41366393
440.32800,-23.30977578
440.32850,-19.34224848
440.32900,-21.17341492
440.32950,-21.78380374
440.33000,-17.81627644
440.33050,-14.45913795
440.33100,-12.01758269
440.33150,-1.946167238
440.33200,16.06030282
440.33250,27.65769031
440.33300,20.94341334
440.33350,4.462915324
440.33400,-6.524083353
440.33450,-12.93316591
440.33500,-20.2578317
440.33550,-25.14094222
440.33600,-19.64744288
440.33650,-8.355249799
440.33700,-4.082528091
440.33750,-6.829277761
440.33800,-7.134472168
440.33850,-0.420195199
440.33900,6.599276178
440.33950,9.651220255
440.34000,11.17719229
440.34050,13.00835874
440.34100,12.70316433
440.34150,11.17719229
440.34200,10.26160907
440.34250,9.651220255
440.34300,7.820053809
440.34350,6.904470586
440.34400,10.26160907
440.34450,14.22913637
440.34500,14.22913637
440.34550,12.70316433
440.34600,14.83952519
440.34650,18.80705249
440.34700,17.28108045
440.34750,9.04083144
440.34800,1.410971247
440.34850,-0.7253896067
440.34900,-1.030584014
440.34950,-1.64097283
440.35000,-1.946167238
440.35050,-3.166944868
440.35100,-8.050055392
440.35150,-13.84874914
440.35200,-14.45913795
440.35250,-8.965638615
440.35300,-3.777333684
440.35350,-1.335778422
440.35400,1.105776839
440.35450,5.378498547
440.35500,7.820053809
440.35550,5.683692955
440.35600,3.242137693
440.35650,4.768109732
440.35700,8.430442624
440.35750,9.04083144
440.35800,7.820053809
440.35850,7.209664994
440.35900,7.209664994
440.35950,4.462915324
440.36000,-1.64097283
440.36050,-8.660444207
440.36100,-12.3227771
440.36150,-11.10199947
440.36200,-6.829277761
440.36250,-2.861750461
440.36300,-1.64097283
440.36350,-1.946167238
440.36400,-1.335778422
440.36450,0.4953880241
440.36500,0.4953880241
440.36550,-1.335778422
440.36600,-1.030584014
440.36650,1.410971247
440.36700,2.631748878
440.36750,0.1901936164
440.36800,-2.861750461
440.36850,-4.692916907
440.36900,-6.829277761
440.36950,-8.355249799
440.37000,-4.998111315
440.37050,1.410971247
440.37100,2.32655447
440.37150,-6.829277761
440.37200,-20.56302611
440.37250,-31.55002478
440.37300,-37.95910735
440.37350,-39.17988498
440.37400,-32.46560801
440.37450,-24.83574782
440.37500,-26.97210867
440.37550,-33.38119123
440.37600,-20.56302611
440.37650,16.97588604
440.37700,51.1576597
440.37750,50.24207648
440.37800,20.02783012
440.37850,-8.355249799
440.37900,-17.20588762
440.37950,-7.134472168
440.38000,19.4174413
440.38050,60.00829753
440.38100,92.35890474
440.38150,89.61215507
440.38200,57.56674226
440.38250,28.57327353
440.38300,19.11224689
440.38350,14.22913637
440.38400,0.1901936164
440.38450,-11.40719388
440.38500,-6.829277761
440.38550,5.988887363
440.38600,10.26160907
440.38650,2.936943286
440.38700,-5.60850013
440.38750,-11.71238828
440.38800,-17.81627644
440.38850,-22.08899815
440.38900,-20.56302611
440.38950,-15.06952677
440.39000,-10.79680506
440.39050,-6.829277761
440.39100,3.242137693
440.39150,16.97588604
440.39200,24.30055182
440.39250,21.24860775
440.39300,13.61874756
440.39350,8.430442624
440.39400,4.768109732
440.39450,-1.030584014
440.39500,-8.660444207
440.39550,-14.15394355
440.39600,-16.2903044
440.39650,-15.67991558
440.39700,-13.84874914
440.39750,-13.23836032
440.39800,-13.54355473
440.39850,-11.71238828
440.39900,-4.387722499
440.39950,5.378498547
440.40000,9.651220255
440.40050,4.462915324
440.40100,-4.387722499
440.40150,-9.57602743
440.40200,-9.881221838
440.40250,-9.270833022
440.40300,-9.270833022
440.40350,-8.660444207
440.40400,-8.355249799
440.40450,-9.270833022
440.40500,-10.49161065
440.40550,-9.57602743
440.40600,-7.134472168
440.40650,-6.218888945
440.40700,-6.524083353
440.40750,-5.303305722
440.40800,-3.472139276
440.40850,-3.472139276
440.40900,-3.472139276
440.40950,0.4953880241
440.41000,8.125248217
440.41050,12.09277552
440.41100,8.125248217
440.41150,2.021360063
440.41200,-0.1150007913
440.41250,1.105776839
440.41300,1.105776839
440.41350,-0.1150007913
440.41400,-0.7253896067
440.41450,-0.1150007913
440.41500,0.1901936164
440.41550,0.4953880241
440.41600,0.4953880241
440.41650,0.4953880241
440.41700,0.4953880241
440.41750,0.8005824318
440.41800,1.410971247
440.41850,1.105776839
440.41900,-0.420195199
440.41950,-2.556556053
440.42000,-3.777333684
440.42050,-4.387722499
440.42100,-4.692916907
440.42150,-4.387722499
440.42200,-4.082528091
440.42250,-4.692916907
440.42300,-5.60850013
440.42350,-5.303305722
440.42400,-4.692916907
440.42450,-4.692916907
440.42500,-4.692916907
440.42550,-3.777333684
440.42600,-3.166944868
440.42650,-2.861750461
440.42700,-0.420195199
440.42750,5.07330414
440.42800,9.04083144
440.42850,7.209664994
440.42900,4.462915324
440.42950,7.209664994
440.43000,11.17719229
440.43050,6.904470586
440.43100,-5.60850013
440.43150,-16.2903044
440.43200,-18.12147085
440.43250,-13.54355473
440.43300,-7.744860984
440.43350,-1.64097283
440.43400,2.32655447
440.43450,2.021360063
440.43500,-1.946167238
440.43550,-6.829277761
440.43600,-14.76433236
440.43650,-27.58249748
440.43700,-37.04352412
440.43750,-31.24483038
440.43800,-13.84874914
440.43850,-1.64097283
440.43900,-1.335778422
440.43950,-0.420195199
440.44000,9.956414663
440.44050,21.55380216
440.44100,21.24860775
440.44150,10.56680348
440.44200,1.105776839
440.44250,-1.335778422
440.44300,-1.946167238
440.44350,-3.777333684
440.44400,-4.998111315
440.44450,-4.082528091
440.44500,-0.1150007913
440.44550,6.904470586
440.44600,17.28108045
440.44650,26.13171827
440.44700,28.57327353
440.44750,26.43691268
440.44800,24.30055182
440.44850,23.99535742
440.44900,22.77457979
440.44950,19.11224689
440.45000,16.06030282
440.45050,13.92394196
440.45100,6.599276178
440.45150,-11.10199947
440.45200,-35.51755208
440.45250,-50.77727247
440.45300,-47.42013399
440.45350,-31.24483038
440.45400,-18.12147085
440.45450,-14.45913795
440.45500,-15.37472118
440.45550,-12.93316591
440.45600,-8.355249799
440.45650,-4.692916907
440.45700,-1.64097283
440.45750,2.936943286
440.45800,7.820053809
440.45850,9.651220255
440.45900,10.56680348
440.45950,14.83952519
440.46000,19.72263571
440.46050,18.80705249
440.46100,9.651220255
440.46150,-1.335778422
440.46200,-8.050055392
440.46250,-8.965638615
440.46300,-5.913694538
440.46350,-0.7253896067
440.46400,3.242137693
440.46450,5.07330414
440.46500,5.07330414
440.46550,5.378498547
440.46600,5.988887363
440.46650,5.378498547
440.46700,4.768109732
440.46750,6.29408177
440.46800,7.209664994
440.46850,5.683692955
440.46900,3.547332101
440.46950,5.07330414
440.47000,7.209664994
440.47050,5.683692955
440.47100,2.631748878
440.47150,3.242137693
440.47200,5.683692955
440.47250,1.105776839
440.47300,-11.10199947
440.47350,-23.92016459
440.47400,-31.55002478
440.47450,-33.68638564
440.47500,-32.46560801
440.47550,-29.71885834
440.47600,-29.71885834
440.47650,-30.32924715
440.47700,-14.45913795
440.47750,29.18366235
440.47800,80.45632284
440.47850,100.9043482
440.47900,78.6251564
440.47950,42.91741069
440.48000,24.60574623
440.48050,21.85899656
440.48100,17.58627486
440.48150,8.430442624
440.48200,4.768109732
440.48250,6.904470586
440.48300,7.209664994
440.48350,3.852526509
440.48400,1.716165655
440.48450,1.410971247
440.48500,-1.030584014
440.48550,-6.218888945
440.48600,-10.79680506
440.48650,-15.37472118
440.48700,-20.56302611
440.48750,-22.08899815
440.48800,-16.59549881
440.48850,-7.134472168
440.48900,-0.7253896067
440.48950,1.410971247
440.49000,-0.420195199
440.49050,-8.355249799
440.49100,-16.2903044
440.49150,-11.71238828
440.49200,7.514859401
440.49250,24.91094064
440.49300,23.07977419
440.49350,8.125248217
440.49400,-1.64097283
440.49450,-3.472139276
440.49500,-8.660444207
440.49550,-22.08899815
440.49600,-34.60196886
440.49650,-38.26430175
440.49700,-36.43313531
440.49750,-35.21235768
440.49800,-37.04352412
440.49850,-41.31624583
440.49900,-42.23182905
440.49950,-27.27730308
440.50000,10.87199789
440.50050,56.34596463
440.50100,79.54073962
440.50150,70.6901018
440.50200,47.80052122
440.50250,32.84599524
440.50300,27.04730149
440.50350,19.72263571
440.50400,9.04083144
440.50450,2.32655447
440.50500,1.410971247
440.50550,0.4953880241
440.50600,-1.335778422
440.50650,-2.556556053
440.50700,-1.335778422
440.50750,-0.420195199
440.50800,-1.030584014
440.50850,-1.946167238
440.50900,-2.556556053
440.50950,-4.082528091
440.51000,-6.218888945
440.51050,-7.439666576
440.51100,-8.050055392
440.51150,-9.270833022
440.51200,-10.18641625
440.51250,-8.965638615
440.51300,-6.218888945
440.51350,-5.303305722
440.51400,-6.524083353
440.51450,-7.744860984
440.51500,-7.134472168
440.51550,-7.134472168
440.51600,-9.881221838
440.51650,-13.84874914
440.51700,-15.67991558
440.51750,-13.23836032
440.51800,-10.18641625
440.51850,-10.18641625
440.51900,-12.62797151
440.51950,-15.98510999
440.52000,-18.12147085
440.52050,-19.34224848
440.52100,-18.73185966
440.52150,-15.37472118
440.52200,-9.57602743
440.52250,-2.251361645
440.52300,7.514859401
440.52350,18.80705249
440.52400,23.3849686
440.52450,13.00835874
440.52500,-7.439666576
440.52550,-22.69938696
440.52600,-24.53055341
440.52650,-18.42666525
440.52700,-13.23836032
440.52750,-10.49161065
440.52800,-7.439666576
440.52850,-4.082528091
440.52900,-2.861750461
440.52950,-3.777333684
440.53000,-4.998111315
440.53050,-4.998111315
440.53100,-1.64097283
440.53150,4.462915324
440.53200,8.735637032
440.53250,7.820053809
440.53300,8.125248217
440.53350,18.19666367
440.53400,32.54080083
440.53450,34.06677287
440.53500,19.11224689
440.53550,3.242137693
440.53600,-1.030584014
440.53650,1.105776839
440.53700,1.716165655
440.53750,2.631748878
440.53800,5.378498547
440.53850,1.716165655
440.53900,-14.15394355
440.53950,-30.32924715
440.54000,-29.41366393
440.54050,-13.54355473
440.54100,-0.1150007913
440.54150,1.716165655
440.54200,-4.692916907
440.54250,-12.62797151
440.54300,-17.51108203
440.54350,-16.2903044
440.54400,-6.829277761
440.54450,3.852526509
440.54500,9.04083144
440.54550,8.125248217
440.54600,8.125248217
440.54650,9.956414663
440.54700,9.956414663
440.54750,7.514859401
440.54800,6.599276178
440.54850,8.430442624
440.54900,9.651220255
440.54950,8.735637032
440.55000,8.125248217
440.55050,9.346025847
440.55100,10.26160907
440.55150,9.651220255
440.55200,8.735637032
440.55250,7.514859401
440.55300,5.683692955
440.55350,3.852526509
440.55400,3.242137693
440.55450,4.157720917
440.55500,3.242137693
440.55550,0.4953880241
440.55600,-0.7253896067
440.55650,-0.7253896067
440.55700,-0.420195199
440.55750,-1.030584014
440.55800,-0.7253896067
440.55850,1.410971247
440.55900,5.07330414
440.55950,5.988887363
440.56000,5.07330414
440.56050,4.462915324
440.56100,4.768109732
440.56150,2.631748878
440.56200,-3.472139276
440.56250,-10.18641625
440.56300,-11.10199947
440.56350,-6.524083353
440.56400,-1.030584014
440.56450,1.410971247
440.56500,2.021360063
440.56550,1.410971247
440.56600,-0.1150007913
440.56650,-1.335778422
440.56700,-0.7253896067
440.56750,1.105776839
440.56800,1.716165655
440.56850,0.4953880241
440.56900,1.105776839
440.56950,3.547332101
440.57000,4.462915324
440.57050,4.157720917
440.57100,5.378498547
440.57150,7.209664994
440.57200,6.29408177
440.57250,3.547332101
440.57300,3.547332101
440.57350,5.07330414
440.57400,2.631748878
440.57450,-2.251361645
440.57500,-3.166944868
440.57550,0.1901936164
440.57600,0.1901936164
440.57650,-3.777333684
440.57700,-3.166944868
440.57750,3.547332101
440.57800,5.988887363
440.57850,-2.861750461
440.57900,-15.98510999
440.57950,-26.66691426
440.58000,-36.1279409
440.58050,-41.62144024
440.58100,-35.51755208
440.58150,-22.08899815
440.58200,-15.67991558
440.58250,-14.45913795
440.58300,5.07330414
440.58350,50.54727089
440.58400,90.5277383
440.58450,92.66409915
440.58500,63.97582483
440.58550,37.11871695
440.58600,26.43691268
440.58650,21.85899656
440.58700,16.67069163
440.58750,12.70316433
440.58800,9.04083144
440.58850,-0.7253896067
440.58900,-13.54355473
440.58950,-19.03705407
440.59000,-14.76433236
440.59050,-7.744860984
440.59100,-1.335778422
440.59150,5.07330414
440.59200,8.735637032
440.59250,5.683692955
440.59300,0.8005824318
440.59350,-0.1150007913
440.59400,2.021360063
440.59450,-0.1150007913
440.59500,-7.134472168
440.59550,-12.93316591
440.59600,-15.06952677
440.59650,-15.06952677
440.59700,-14.76433236
440.59750,-13.84874914
440.59800,-14.15394355
440.59850,-16.59549881
440.59900,-17.51108203
440.59950,-13.84874914
440.60000,-8.355249799
440.60050,-4.998111315
440.60100,-3.777333684
440.60150,-2.861750461
440.60200,-2.251361645
440.60250,-2.556556053
440.60300,-2.861750461
440.60350,-0.7253896067
440.60400,1.410971247
440.60450,1.410971247
440.60500,-0.420195199
440.60550,-2.251361645
440.60600,-2.251361645
440.60650,-2.251361645
440.60700,-2.556556053
440.60750,-2.556556053
440.60800,-2.556556053
440.60850,-3.166944868
440.60900,-3.472139276
440.60950,-2.556556053
440.61000,-1.64097283
440.61050,-1.64097283
440.61100,-1.64097283
440.61150,-0.7253896067
440.61200,-0.1150007913
440.61250,-1.64097283
440.61300,-4.998111315
440.61350,-5.60850013
440.61400,-1.030584014
440.61450,3.852526509
440.61500,4.157720917
440.61550,-0.1150007913
440.61600,-5.303305722
440.61650,-7.439666576
440.61700,-8.965638615
440.61750,-11.40719388
440.61800,-13.84874914
440.61850,-15.67991558
440.61900,-19.34224848
440.61950,-23.00458137
440.62000,-18.73185966
440.62050,-1.64097283
440.62100,20.33302452
440.62150,33.76157846
440.62200,31.3200232
440.62250,20.33302452
440.62300,10.87199789
440.62350,6.599276178
440.62400,4.768109732
440.62450,2.936943286
440.62500,0.8005824318
440.62550,-0.1150007913
440.62600,-0.7253896067
440.62650,-0.1150007913
440.62700,3.242137693
440.62750,7.820053809
440.62800,10.56680348
440.62850,9.956414663
440.62900,7.820053809
440.62950,7.820053809
440.63000,8.430442624
440.63050,2.936943286
440.63100,-10.49161065
440.63150,-23.61497018
440.63200,-25.75133104
440.63250,-16.90069321
440.63300,-7.439666576
440.63350,-4.998111315
440.63400,-5.913694538
440.63450,-4.082528091
440.63500,-0.7253896067
440.63550,-0.7253896067
440.63600,-3.472139276
440.63650,-4.692916907
440.63700,-4.082528091
440.63750,-4.998111315
440.63800,-7.744860984
440.63850,-9.57602743
440.63900,-9.881221838
440.63950,-10.18641625
440.64000,-11.71238828
440.64050,-12.01758269
440.64100,-12.01758269
440.64150,-13.23836032
440.64200,-15.37472118
440.64250,-14.76433236
440.64300,-11.10199947
440.64350,-7.744860984
440.64400,-3.472139276
440.64450,5.07330414
440.64500,17.58627486
440.64550,27.3524959
440.64600,28.87846794
440.64650,23.07977419
440.64700,14.22913637
440.64750,5.988887363
440.64800,0.8005824318
440.64850,0.1901936164
440.64900,2.631748878
440.64950,5.07330414
440.65000,7.820053809
440.65050,10.26160907
440.65100,8.430442624
440.65150,-1.030584014
440.65200,-15.98510999
440.65250,-28.80327512
440.65300,-34.29677445
440.65350,-33.07599682
440.65400,-27.88769189
440.65450,-24.225359
440.65500,-25.14094222
440.65550,-19.64744288
440.65600,9.956414663
440.65650,60.92388075
440.65700,96.93682086
440.65750,85.64462777
440.65800,42.00182747
440.65850,10.56680348
440.65900,9.956414663
440.65950,16.06030282
440.66000,4.768109732
440.66050,-13.23836032
440.66100,-17.51108203
440.66150,-10.18641625
440.66200,-7.744860984
440.66250,-13.54355473
440.66300,-18.42666525
440.66350,-19.03705407
440.66400,-20.2578317
440.66450,-20.56302611
440.66500,-12.62797151
440.66550,3.547332101
440.66600,16.97588604
440.66650,19.72263571
440.66700,13.92394196
440.66750,6.599276178
440.66800,2.021360063
440.66850,0.1901936164
440.66900,0.8005824318
440.66950,2.631748878
440.67000,3.852526509
440.67050,3.852526509
440.67100,2.936943286
440.67150,1.105776839
440.67200,-1.030584014
440.67250,-2.251361645
440.67300,-2.251361645
440.67350,-1.335778422
440.67400,-0.7253896067
440.67450,-1.030584014
440.67500,-2.251361645
440.67550,-3.472139276
440.67600,-4.387722499
440.67650,-4.692916907
440.67700,-4.082528091
440.67750,-2.861750461
440.67800,-3.777333684
440.67850,-9.881221838
440.67900,-17.81627644
440.67950,-20.56302611
440.68000,-15.67991558
440.68050,-9.881221838
440.68100,-9.270833022
440.68150,-9.881221838
440.68200,-6.218888945
440.68250,-0.7253896067
440.68300,0.4953880241
440.68350,2.936943286
440.68400,12.70316433
440.68450,22.16419097
440.68500,17.89146926
440.68550,-0.7253896067
440.68600,-21.47860933
440.68650,-36.43313531
440.68700,-49.25130043
440.68750,-59.9331047
440.68800,-61.45907674
440.68850,-50.47207806
440.68900,-27.58249748
440.68950,9.04083144
440.69000,58.17713108
440.69050,96.93682086
440.69100,96.93682086
440.69150,59.70310312
440.69200,22.77457979
440.69250,16.97588604
440.69300,32.84599524
440.69350,42.00182747
440.69400,34.06677287
440.69450,20.33302452
440.69500,9.04083144
440.69550,-2.251361645
440.69600,-14.45913795
440.69650,-23.00458137
440.69700,-26.05652545
440.69750,-26.36171985
440.69800,-26.05652545
440.69850,-23.00458137
440.69900,-17.81627644
440.69950,-13.54355473
440.70000,-11.71238828
440.70050,-10.18641625
440.70100,-8.050055392
440.70150,-5.913694538
440.70200,-4.082528091
440.70250,-2.556556053
440.70300,-1.335778422
440.70350,-1.030584014
440.70400,-0.7253896067
440.70450,0.1901936164
440.70500,1.716165655
440.70550,3.547332101
440.70600,5.683692955
440.70650,7.514859401
440.70700,8.125248217
440.70750,6.904470586
440.70800,4.157720917
440.70850,-0.1150007913
440.70900,-5.60850013
440.70950,-10.79680506
440.71000,-14.45913795
440.71050,-14.76433236
440.71100,-11.71238828
440.71150,-7.134472168
440.71200,-3.777333684
440.71250,-2.556556053
440.71300,-1.030584014
440.71350,1.410971247
440.71400,4.157720917
440.71450,4.157720917
440.71500,2.631748878
440.71550,2.936943286
440.71600,5.378498547
440.71650,6.904470586
440.71700,4.768109732
440.71750,0.4953880241
440.71800,-1.946167238
440.71850,0.1901936164
440.71900,6.29408177
440.71950,9.956414663
440.72000,4.462915324
440.72050,-8.965638615
440.72100,-23.92016459
440.72150,-31.24483038
440.72200,-28.49808071
440.72250,-19.03705407
440.72300,-9.270833022
440.72350,-2.251361645
440.72400,5.378498547
440.72450,16.36549722
440.72500,22.77457979
440.72550,13.00835874
440.72600,-7.744860984
440.72650,-16.90069321
440.72700,-1.030584014
440.72750,22.77457979
440.72800,29.48885676
440.72850,16.06030282
440.72900,1.410971247
440.72950,-3.166944868
440.73000,-5.60850013
440.73050,-11.71238828
440.73100,-16.2903044
440.73150,-15.37472118
440.73200,-11.40719388
440.73250,-6.829277761
440.73300,0.4953880241
440.73350,10.87199789
440.73400,18.80705249
440.73450,23.07977419
440.73500,28.57327353
440.73550,34.67716169
440.73600,34.37196728
440.73650,23.99535742
440.73700,10.87199789
440.73750,2.936943286
440.73800,-0.1150007913
440.73850,-0.1150007913
440.73900,2.021360063
440.73950,5.07330414
440.74000,5.683692955
440.74050,3.242137693
440.74100,1.410971247
440.74150,2.32655447
440.74200,4.462915324
440.74250,5.683692955
440.74300,3.852526509
440.74350,-2.251361645
440.74400,-11.10199947
440.74450,-15.67991558
440.74500,-11.40719388
440.74550,-2.556556053
440.74600,2.021360063
440.74650,1.105776839
440.74700,-0.1150007913
440.74750,-0.1150007913
440.74800,-0.1150007913
440.74850,-0.1150007913
440.74900,0.4953880241
440.74950,1.105776839
440.75000,1.410971247
440.75050,2.631748878
440.75100,4.768109732
440.75150,4.768109732
440.75200,3.242137693
440.75250,3.852526509
440.75300,5.378498547
440.75350,-0.1150007913
440.75400,-12.93316591
440.75450,-21.78380374
440.75500,-17.51108203
440.75550,-6.829277761
440.75600,-1.946167238
440.75650,-4.387722499
440.75700,-5.913694538
440.75750,-4.387722499
440.75800,-3.472139276
440.75850,-3.777333684
440.75900,-1.335778422
440.75950,2.32655447
440.76000,2.631748878
440.76050,-0.1150007913
440.76100,-1.946167238
440.76150,-1.64097283
440.76200,-1.335778422
440.76250,-1.64097283
440.76300,-1.030584014
440.76350,-0.420195199
440.76400,-2.251361645
440.76450,-4.387722499
440.76500,-4.082528091
440.76550,-2.556556053
440.76600,-3.166944868
440.76650,-4.998111315
440.76700,-5.913694538
440.76750,-6.218888945
440.76800,-6.829277761
440.76850,-4.998111315
440.76900,-0.1150007913
440.76950,1.410971247
440.77000,-6.524083353
440.77050,-21.17341492
440.77100,-31.24483038
440.77150,-31.24483038
440.77200,-25.44613663
440.77250,-21.78380374
440.77300,-22.08899815
440.77350,-19.64744288
440.77400,-1.030584014
440.77450,35.89793932
440.77500,74.04724028
440.77550,86.25501659
440.77600,65.80699127
440.77650,33.15118965
440.77700,12.09277552
440.77750,4.462915324
440.77800,-0.420195199
440.77850,-5.913694538
440.77900,-5.913694538
440.77950,-0.1150007913
440.78000,3.852526509
440.78050,2.936943286
440.78100,0.8005824318
440.78150,-0.1150007913
440.78200,-1.335778422
440.78250,-2.861750461
440.78300,-3.166944868
440.78350,-2.861750461
440.78400,-3.166944868
440.78450,-1.946167238
440.78500,0.8005824318
440.78550,2.021360063
440.78600,0.1901936164
440.78650,-1.335778422
440.78700,-0.1150007913
440.78750,0.4953880241
440.78800,-1.030584014
440.78850,-1.335778422
440.78900,1.716165655
440.78950,2.631748878
440.79000,-5.60850013
440.79050,-19.64744288
440.79100,-30.32924715
440.79150,-35.21235768
440.79200,-34.90716327
440.79250,-30.93963597
440.79300,-27.58249748
440.79350,-29.10846952
440.79400,-25.75133104
440.79450,0.4953880241
440.79500,49.63168766
440.79550,89.00176626
440.79600,87.17059981
440.79650,52.98882615
440.79700,21.85899656
440.79750,12.39796992
440.79800,12.70316433
440.79850,8.735637032
440.79900,2.021360063
440.79950,-0.420195199
440.80000,-1.64097283
440.80050,-5.60850013
440.80100,-8.660444207
440.80150,-7.439666576
440.80200,-5.303305722
440.80250,-6.524083353
440.80300,-8.050055392
440.80350,-7.744860984
440.80400,-8.355249799
440.80450,-12.01758269
440.80500,-15.67991558
440.80550,-14.76433236
440.80600,-10.79680506
440.80650,-8.050055392
440.80700,-4.692916907
440.80750,0.4953880241
440.80800,3.852526509
440.80850,2.021360063
440.80900,-2.251361645
440.80950,-4.082528091
440.81000,-5.303305722
440.81050,-9.270833022
440.81100,-12.3227771
440.81150,-7.744860984
440.81200,0.4953880241
440.81250,0.8005824318
440.81300,-8.965638615
440.81350,-16.2903044
440.81400,-11.10199947
440.81450,-0.1150007913
440.81500,3.852526509
440.81550,-0.1150007913
440.81600,-4.082528091
440.81650,-3.166944868
440.81700,-1.64097283
440.81750,-2.556556053
440.81800,-4.387722499
440.81850,-4.998111315
440.81900,-5.303305722
440.81950,-6.218888945
440.82000,-9.270833022
440.82050,-14.15394355
440.82100,-16.59549881
440.82150,-12.3227771
440.82200,-0.420195199
440.82250,9.956414663
440.82300,12.09277552
440.82350,8.430442624
440.82400,6.904470586
440.82450,8.125248217
440.82500,6.29408177
440.82550,-0.420195199
440.82600,-6.218888945
440.82650,-6.218888945
440.82700,-3.166944868
440.82750,-1.946167238
440.82800,-1.64097283
440.82850,-0.420195199
440.82900,1.716165655
440.82950,4.157720917
440.83000,7.209664994
440.83050,10.26160907
440.83100,10.87199789
440.83150,9.346025847
440.83200,8.735637032
440.83250,10.56680348
440.83300,8.125248217
440.83350,-2.556556053
440.83400,-14.76433236
440.83450,-15.98510999
440.83500,-6.524083353
440.83550,-0.1150007913
440.83600,-5.303305722
440.83650,-14.76433236
440.83700,-16.2903044
440.83750,-11.71238828
440.83800,-12.93316591
440.83850,-23.00458137
440.83900,-31.85521919
440.83950,-30.63444156
440.84000,-20.86822052
440.84050,-8.660444207
440.84100,3.242137693
440.84150,13.00835874
440.84200,16.97588604
440.84250,17.28108045
440.84300,21.55380216
440.84350,30.70963439
440.84400,35.2875505
440.84450,27.65769031
440.84500,15.14471959
440.84550,8.125248217
440.84600,5.988887363
440.84650,0.8005824318
440.84700,-7.134472168
440.84750,-12.3227771
440.84800,-11.40719388
440.84850,-9.270833022
440.84900,-7.439666576
440.84950,-3.472139276
440.85000,0.8005824318
440.85050,2.631748878
440.85100,2.936943286
440.85150,5.683692955
440.85200,11.4823867
440.85250,16.67069163
440.85300,20.02783012
440.85350,22.77457979
440.85400,22.16419097
440.85450,16.97588604
440.85500,13.92394196
440.85550,16.36549722
440.85600,12.09277552
440.85650,-10.49161065
440.85700,-39.79027379
440.85750,-49.25130043
440.85800,-36.73832972
440.85850,-28.80327512
440.85900,-39.17988498
440.85950,-48.33571721
440.86000,-36.1279409
440.86050,-11.71238828
440.86100,1.105776839
440.86150,0.8005824318
440.86200,1.716165655
440.86250,7.514859401
440.86300,8.125248217
440.86350,1.410971247
440.86400,-4.082528091
440.86450,-4.692916907
440.86500,-5.913694538
440.86550,-10.18641625
440.86600,-12.3227771
440.86650,-9.881221838
440.86700,-6.524083353
440.86750,-2.861750461
440.86800,5.07330414
440.86850,18.80705249
440.86900,30.40443998
440.86950,33.76157846
440.87000,29.79405116
440.87050,22.77457979
440.87100,15.75510841
440.87150,9.346025847
440.87200,3.852526509
440.87250,-0.1150007913
440.87300,-1.946167238
440.87350,-1.64097283
440.87400,-1.64097283
440.87450,-3.166944868
440.87500,-0.7253896067
440.87550,9.956414663
440.87600,26.43691268
440.87650,36.20313373
440.87700,32.84599524
440.87750,23.07977419
440.87800,16.97588604
440.87850,15.14471959
440.87900,13.31355315
440.87950,9.346025847
440.88000,5.378498547
440.88050,3.852526509
440.88100,3.547332101
440.88150,3.242137693
440.88200,2.021360063
440.88250,0.4953880241
440.88300,-0.1150007913
440.88350,-0.420195199
440.88400,-0.7253896067
440.88450,-2.251361645
440.88500,-3.472139276
440.88550,-2.861750461
440.88600,-1.64097283
440.88650,-1.64097283
440.88700,-1.64097283
440.88750,-1.030584014
440.88800,-0.7253896067
440.88850,-1.335778422
440.88900,-0.7253896067
440.88950,1.105776839
440.89000,0.8005824318
440.89050,-2.861750461
440.89100,-4.692916907
440.89150,-2.556556053
440.89200,-2.861750461
440.89250,-12.62797151
440.89300,-27.27730308
440.89350,-37.95910735
440.89400,-42.23182905
440.89450,-44.0629955
440.89500,-43.75780109
440.89550,-41.62144024
440.89600,-39.79027379
440.89650,-30.32924715
440.89700,0.1901936164
440.89750,49.93688207
440.89800,87.47579422
440.89850,87.17059981
440.89900,61.83946397
440.89950,42.30702188
440.90000,34.37196728
440.90050,21.24860775
440.90100,0.4953880241
440.90150,-10.79680506
440.90200,-8.965638615
440.90250,-10.18641625
440.90300,-24.53055341
440.90350,-40.0954682
440.90400,-45.58896754
440.90450,-44.0629955
440.90500,-41.01105142
440.90550,-35.51755208
440.90600,-29.71885834
440.90650,-26.36171985
440.90700,-12.93316591
440.90750,26.13171827
440.90800,76.48879554
440.90850,95.71604323
440.90900,65.80699127
440.90950,19.11224689
440.91000,-1.335778422
440.91050,6.29408177
440.91100,14.22913637
440.91150,8.735637032
440.91200,0.8005824318
440.91250,0.1901936164
440.91300,1.716165655
440.91350,-0.1150007913
440.91400,-3.472139276
440.91450,-4.387722499
440.91500,-4.387722499
440.91550,-4.692916907
440.91600,-4.998111315
440.91650,-4.692916907
440.91700,-5.60850013
440.91750,-7.134472168
440.91800,-7.134472168
440.91850,-6.218888945
440.91900,-6.524083353
440.91950,-8.355249799
440.92000,-9.881221838
440.92050,-10.49161065
440.92100,-11.40719388
440.92150,-13.23836032
440.92200,-12.93316591
440.92250,-10.79680506
440.92300,-8.660444207
440.92350,-8.050055392
440.92400,-7.744860984
440.92450,-7.134472168
440.92500,-5.60850013
440.92550,-3.472139276
440.92600,-0.7253896067
440.92650,0.8005824318
440.92700,-0.1150007913
440.92750,-2.251361645
440.92800,-4.082528091
440.92850,-4.692916907
440.92900,-5.913694538
440.92950,-7.439666576
440.93000,-7.134472168
440.93050,-4.692916907
440.93100,-2.556556053
440.93150,-0.420195199
440.93200,3.547332101
440.93250,8.735637032
440.93300,10.56680348
440.93350,7.514859401
440.93400,7.514859401
440.93450,13.61874756
440.93500,14.53433078
440.93550,-0.7253896067
440.93600,-24.53055341
440.93650,-34.29677445
440.93700,-23.61497018
440.93750,-9.270833022
440.93800,-7.744860984
440.93850,-14.45913795
440.93900,-15.67991558
440.93950,-9.881221838
440.94000,-5.913694538
440.94050,-9.270833022
440.94100,-15.37472118
440.94150,-20.86822052
440.94200,-24.225359
440.94250,-22.08899815
440.94300,-10.79680506
440.94350,5.07330414
440.94400,19.11224689
440.94450,27.04730149
440.94500,31.3200232
440.94550,33.15118965
440.94600,29.79405116
440.94650,19.72263571
440.94700,7.209664994
440.94750,-1.335778422
440.94800,-3.472139276
440.94850,-0.7253896067
440.94900,1.716165655
440.94950,-0.420195199
440.95000,-7.439666576
440.95050,-14.15394355
440.95100,-15.67991558
440.95150,-10.79680506
440.95200,-0.7253896067
440.95250,10.26160907
440.95300,15.75510841
440.95350,12.39796992
440.95400,6.904470586
440.95450,9.04083144
440.95500,16.36549722
440.95550,15.75510841
440.95600,2.936943286
440.95650,-11.40719388
440.95700,-15.67991558
440.95750,-12.93316591
440.95800,-11.10199947
440.95850,-11.40719388
440.95900,-9.270833022
440.95950,-5.303305722
440.96000,-2.861750461
440.96050,-0.420195199
440.96100,4.768109732
440.96150,11.4823867
440.96200,14.53433078
440.96250,13.92394196
440.96300,13.61874756
440.96350,13.61874756
440.96400,11.17719229
440.96450,9.04083144
440.96500,9.956414663
440.96550,12.39796992
440.96600,12.39796992
440.96650,10.26160907
440.96700,8.735637032
440.96750,5.683692955
440.96800,-0.1150007913
440.96850,-5.303305722
440.96900,-5.60850013
440.96950,-5.303305722
440.97000,-11.71238828
440.97050,-20.2578317
440.97100,-20.86822052
440.97150,-12.01758269
440.97200,-4.998111315
440.97250,-4.387722499
440.97300,-3.777333684
440.97350,1.716165655
440.97400,8.430442624
440.97450,9.651220255
440.97500,6.29408177
440.97550,3.242137693
440.97600,2.021360063
440.97650,0.8005824318
440.97700,-0.1150007913
440.97750,0.4953880241
440.97800,2.32655447
440.97850,4.157720917
440.97900,5.378498547
440.97950,5.07330414
440.98000,2.631748878
440.98050,-0.1150007913
440.98100,-2.251361645
440.98150,-3.777333684
440.98200,-6.218888945
440.98250,-9.881221838
440.98300,-13.23836032
440.98350,-14.15394355
440.98400,-9.881221838
440.98450,0.4953880241
440.98500,12.39796992
440.98550,16.97588604
440.98600,15.75510841
440.98650,18.80705249
440.98700,28.26807912
440.98750,29.18366235
440.98800,7.820053809
440.98850,-30.02405275
440.98900,-60.23829911
440.98950,-65.42660404
440.99000,-49.55649484
440.99050,-33.07599682
440.99100,-27.88769189
440.99150,-25.14094222
440.99200,-2.556556053
440.99250,44.74857714
440.99300,90.5277383
440.99350,100.2939593
440.99400,71.60568502
440.99450,36.20313373
440.99500,20.94341334
440.99550,20.63821893
440.99600,16.06030282
440.99650,4.462915324
440.99700,-2.861750461
440.99750,-4.387722499
440.99800,-8.965638615
440.99850,-18.42666525
440.99900,-23.61497018
440.99950,-19.03705407
441.00000,-11.71238828
441.00050,-8.965638615
441.00100,-9.881221838
441.00150,-10.18641625
441.00200,-9.270833022
441.00250,-9.57602743
441.00300,-10.79680506
441.00350,-10.79680506
441.00400,-10.18641625
441.00450,-9.881221838
441.00500,-10.18641625
441.00550,-9.881221838
441.00600,-7.744860984
441.00650,-5.60850013
441.00700,-4.998111315
441.00750,-5.303305722
441.00800,-3.472139276
441.00850,-0.1150007913
441.00900,2.936943286
441.00950,3.242137693
441.01000,1.105776839
441.01050,-0.1150007913
441.01100,-0.420195199
441.01150,-1.030584014
441.01200,-1.946167238
441.01250,-2.251361645
441.01300,-2.251361645
441.01350,-2.861750461
441.01400,-3.472139276
441.01450,-3.166944868
441.01500,-1.946167238
441.01550,-1.64097283
441.01600,-1.64097283
441.01650,-1.030584014
441.01700,-0.420195199
441.01750,-1.030584014
441.01800,-1.64097283
441.01850,-1.030584014
441.01900,-0.420195199
441.01950,-0.7253896067
441.02000,-1.030584014
441.02050,-0.1150007913
441.02100,0.8005824318
441.02150,-0.7253896067
441.02200,-3.777333684
441.02250,-4.387722499
441.02300,-4.082528091
441.02350,-6.829277761
441.02400,-12.3227771
441.02450,-16.59549881
441.02500,-18.12147085
441.02550,-19.03705407
441.02600,-18.12147085
441.02650,-10.49161065
441.02700,2.631748878
441.02750,12.70316433
441.02800,10.87199789
441.02850,0.4953880241
441.02900,-5.913694538
441.02950,-0.7253896067
441.03000,13.92394196
441.03050,27.96288472
441.03100,31.01482879
441.03150,21.85899656
441.03200,9.651220255
441.03250,4.768109732
441.03300,5.683692955
441.03350,1.410971247
441.03400,-10.49161065
441.03450,-20.2578317
441.03500,-14.76433236
441.03550,1.410971247
441.03600,13.00835874
441.03650,9.346025847
441.03700,-1.030584014
441.03750,-4.998111315
441.03800,-0.420195199
441.03850,2.936943286
441.03900,3.547332101
441.03950,9.346025847
441.04000,24.91094064
441.04050,38.33949458
441.04100,32.23560643
441.04150,10.87199789
441.04200,-6.218888945
441.04250,-8.355249799
441.04300,-5.913694538
441.04350,-12.62797151
441.04400,-26.66691426
441.04450,-37.34871853
441.04500,-39.48507938
441.04550,-35.21235768
441.04600,-30.63444156
441.04650,-29.41366393
441.04700,-29.71885834
441.04750,-19.03705407
441.04800,14.83952519
441.04850,63.67063042
441.04900,94.80046
441.04950,87.17059981
441.05000,53.90440937
441.05050,25.82652386
441.05100,14.53433078
441.05150,9.346025847
441.05200,0.8005824318
441.05250,-8.050055392
441.05300,-12.62797151
441.05350,-13.54355473
441.05400,-11.71238828
441.05450,-4.387722499
441.05500,7.514859401
441.05550,16.67069163
441.05600,17.28108045
441.05650,10.87199789
441.05700,4.462915324
441.05750,0.4953880241
441.05800,-1.64097283
441.05850,-3.472139276
441.05900,-5.60850013
441.05950,-6.524083353
441.06000,-6.218888945
441.06050,-4.387722499
441.06100,-2.251361645
441.06150,-1.030584014
441.06200,-1.335778422
441.06250,-2.556556053
441.06300,-4.082528091
441.06350,-4.998111315
441.06400,-6.829277761
441.06450,-9.881221838
441.06500,-13.84874914
441.06550,-16.90069321
441.06600,-16.2903044
441.06650,-12.62797151
441.06700,-8.660444207
441.06750,-6.524083353
441.06800,-4.998111315
441.06850,-3.777333684
441.06900,-2.251361645
441.06950,-1.335778422
441.07000,-1.030584014
441.07050,-0.7253896067
441.07100,-1.335778422
441.07150,-2.861750461
441.07200,-5.60850013
441.07250,-8.050055392
441.07300,-8.660444207
441.07350,-8.355249799
441.07400,-6.829277761
441.07450,-4.082528091
441.07500,-1.030584014
441.07550,0.4953880241
441.07600,-0.1150007913
441.07650,-0.1150007913
441.07700,2.32655447
441.07750,3.852526509
441.07800,-3.777333684
441.07850,-19.34224848
441.07900,-30.63444156
441.07950,-27.88769189
441.08000,-16.2903044
441.08050,-7.744860984
441.08100,-4.998111315
441.08150,-1.030584014
441.08200,7.820053809
441.08250,16.67069163
441.08300,18.50185808
441.08350,14.83952519
441.08400,11.17719229
441.08450,10.87199789
441.08500,10.87199789
441.08550,6.29408177
441.08600,-2.251361645
441.08650,-9.270833022
441.08700,-6.524083353
441.08750,4.768109732
441.08800,14.53433078
441.08850,14.22913637
441.08900,9.956414663
441.08950,11.78758111
441.09000,16.06030282
441.09050,12.39796992
441.09100,3.242137693
441.09150,0.1901936164
441.09200,2.631748878
441.09250,-4.082528091
441.09300,-23.00458137
441.09350,-35.82274649
441.09400,-27.88769189
441.09450,-8.965638615
441.09500,3.852526509
441.09550,7.514859401
441.09600,8.735637032
441.09650,8.430442624
441.09700,5.683692955
441.09750,5.988887363
441.09800,10.56680348
441.09850,7.514859401
441.09900,-12.3227771
441.09950,-38.26430175
441.10000,-51.9980501
441.10050,-50.47207806
441.10100,-44.36818991
441.10150,-41.01105142
441.10200,-38.56949616
441.10250,-34.90716327
441.10300,-22.08899815
441.10350,11.17719229
441.10400,60.00829753
441.10450,93.57968237
441.10500,85.94982218
441.10550,50.54727089
441.10600,23.07977419
441.10650,17.58627486
441.10700,18.80705249
441.10750,13.92394196
441.10800,8.125248217
441.10850,8.125248217
441.10900,8.430442624
441.10950,4.768109732
441.11000,1.105776839
441.11050,1.105776839
441.11100,1.105776839
441.11150,-0.7253896067
441.11200,-0.1150007913
441.11250,2.936943286
441.11300,3.547332101
441.11350,-0.1150007913
441.11400,-2.861750461
441.11450,-0.7253896067
441.11500,0.8005824318
441.11550,-1.030584014
441.11600,-3.777333684
441.11650,-3.777333684
441.11700,-3.472139276
441.11750,-4.998111315
441.11800,-5.60850013
441.11850,-3.472139276
441.11900,-1.64097283
441.11950,-2.251361645
441.12000,-2.861750461
441.12050,-1.64097283
441.12100,-1.335778422
441.12150,-3.166944868
441.12200,-4.387722499
441.12250,-3.166944868
441.12300,-2.556556053
441.12350,-4.387722499
441.12400,-6.218888945
441.12450,-4.692916907
441.12500,-1.64097283
441.12550,-0.1150007913
441.12600,1.105776839
441.12650,2.631748878
441.12700,4.157720917
441.12750,5.988887363
441.12800,9.346025847
441.12850,11.17719229
441.12900,6.599276178
441.12950,-3.166944868
441.13000,-11.40719388
441.13050,-14.76433236
441.13100,-19.03705407
441.13150,-26.66691426
441.13200,-29.71885834
441.13250,-20.56302611
441.13300,-7.134472168
441.13350,-3.166944868
441.13400,-8.660444207
441.13450,-13.23836032
441.13500,-13.23836032
441.13550,-13.84874914
441.13600,-16.59549881
441.13650,-12.93316591
441.13700,0.1901936164
441.13750,14.83952519
441.13800,19.11224689
441.13850,12.39796992
441.13900,3.242137693
441.13950,-1.64097283
441.14000,-2.861750461
441.14050,-3.472139276
441.14100,-3.777333684
441.14150,-1.64097283
441.14200,7.209664994
441.14250,23.07977419
441.14300,37.72910576
441.14350,40.17066103
441.14400,29.18366235
441.14450,15.14471959
441.14500,9.956414663
441.14550,12.39796992
441.14600,11.17719229
441.14650,-0.1150007913
441.14700,-14.76433236
441.14750,-21.78380374
441.14800,-17.51108203
441.14850,-8.355249799
441.14900,-2.861750461
441.14950,-1.64097283
441.15000,-1.64097283
441.15050,-0.1150007913
441.15100,0.8005824318
441.15150,-0.1150007913
441.15200,-2.861750461
441.15250,-4.387722499
441.15300,-3.777333684
441.15350,-2.556556053
441.15400,-2.861750461
441.15450,-4.387722499
441.15500,-5.913694538
441.15550,-5.913694538
441.15600,-4.387722499
441.15650,-2.861750461
441.15700,-1.946167238
441.15750,-1.030584014
441.15800,0.1901936164
441.15850,2.32655447
441.15900,3.547332101
441.15950,3.852526509
441.16000,2.936943286
441.16050,2.021360063
441.16100,2.32655447
441.16150,2.936943286
441.16200,2.021360063
441.16250,-2.861750461
441.16300,-10.79680506
441.16350,-16.2903044
441.16400,-13.23836032
441.16450,-1.64097283
441.16500,12.09277552
441.16550,20.63821893
441.16600,21.24860775
441.16650,16.97588604
441.16700,12.70316433
441.16750,10.26160907
441.16800,8.430442624
441.16850,6.29408177
441.16900,4.462915324
441.16950,3.852526509
441.17000,4.768109732
441.17050,5.988887363
441.17100,4.768109732
441.17150,-1.030584014
441.17200,-9.270833022
441.17250,-14.15394355
441.17300,-11.71238828
441.17350,-5.303305722
441.17400,-1.335778422
441.17450,-0.1150007913
441.17500,0.8005824318
441.17550,3.547332101
441.17600,5.07330414
441.17650,3.547332101
441.17700,2.021360063
441.17750,2.32655447
441.17800,2.631748878
441.17850,0.4953880241
441.17900,-1.335778422
441.17950,-0.420195199
441.18000,2.32655447
441.18050,4.462915324
441.18100,4.768109732
441.18150,5.07330414
441.18200,3.547332101
441.18250,-4.387722499
441.18300,-18.12147085
441.18350,-27.27730308
441.18400,-23.92016459
441.18450,-12.93316591
441.18500,-6.524083353
441.18550,-8.050055392
441.18600,-8.660444207
441.18650,-0.420195199
441.18700,10.56680348
441.18750,14.53433078
441.18800,9.346025847
441.18850,2.32655447
441.18900,-1.946167238
441.18950,-6.218888945
441.19000,-11.40719388
441.19050,-13.54355473
441.19100,-11.40719388
441.19150,-8.355249799
441.19200,-6.829277761
441.19250,-4.387722499
441.19300,0.8005824318
441.19350,5.378498547
441.19400,7.209664994
441.19450,7.514859401
441.19500,7.514859401
441.19550,5.683692955
441.19600,2.936943286
441.19650,4.462915324
441.19700,8.735637032
441.19750,3.547332101
441.19800,-15.67991558
441.19850,-38.87469057
441.19900,-50.16688365
441.19950,-46.50455076
441.20000,-37.04352412
441.20050,-30.63444156
441.20100,-30.32924715
441.20150,-31.24483038
441.20200,-19.95263729
441.20250,15.449914
441.20300,65.50179686
441.20350,96.02123763
441.20400,84.72904455
441.20450,47.49532681
441.20500,19.11224689
441.20550,12.09277552
441.20600,12.09277552
441.20650,7.820053809
441.20700,3.242137693
441.20750,4.157720917
441.20800,5.988887363
441.20850,2.936943286
441.20900,-2.251361645
441.20950,-4.387722499
441.21000,-3.472139276
441.21050,-0.7253896067
441.21100,2.936943286
441.21150,5.988887363
441.21200,5.988887363
441.21250,3.852526509
441.21300,2.32655447
441.21350,1.105776839
441.21400,-1.946167238
441.21450,-6.829277761
441.21500,-8.355249799
441.21550,-7.744860984
441.21600,-8.355249799
441.21650,-8.965638615
441.21700,-5.303305722
441.21750,-0.420195199
441.21800,-2.861750461
441.21850,-14.45913795
441.21900,-27.88769189
441.21950,-36.43313531
441.22000,-38.87469057
441.22050,-35.82274649
441.22100,-31.85521919
441.22150,-32.46560801
441.22200,-34.90716327
441.22250,-23.30977578
441.22300,11.78758111
441.22350,53.59921496
441.22400,70.38490739
441.22450,54.81999259
441.22500,29.79405116
441.22550,18.19666367
441.22600,20.02783012
441.22650,25.21613505
441.22700,27.96288472
441.22750,25.52132946
441.22800,12.70316433
441.22850,-8.050055392
441.22900,-25.44613663
441.22950,-31.55002478
441.23000,-31.85521919
441.23050,-30.93963597
441.23100,-24.225359
441.23150,-8.050055392
441.23200,10.87199789
441.23250,26.74210709
441.23300,39.86546662
441.23350,51.46285411
441.23400,56.04077023
441.23450,49.93688207
441.23500,38.94988339
441.23550,28.57327353
441.23600,16.06030282
441.23650,-1.030584014
441.23700,-17.20588762
441.23750,-23.92016459
441.23800,-22.69938696
441.23850,-19.64744288
441.23900,-16.59549881
441.23950,-12.3227771
441.24000,-8.355249799
441.24050,-5.913694538
441.24100,-1.64097283
441.24150,2.936943286
441.24200,1.410971247
441.24250,-8.965638615
441.24300,-19.64744288
441.24350,-21.17341492
441.24400,-15.06952677
441.24450,-10.18641625
441.24500,-8.965638615
441.24550,-7.744860984
441.24600,-5.913694538
441.24650,-5.913694538
441.24700,-7.134472168
441.24750,-5.60850013
441.24800,-3.166944868
441.24850,-2.861750461
441.24900,-4.082528091
441.24950,-1.335778422
441.25000,4.768109732
441.25050,9.04083144
441.25100,7.820053809
441.25150,5.683692955
441.25200,6.904470586
441.25250,8.125248217
441.25300,2.32655447
441.25350,-11.71238828
441.25400,-24.83574782
441.25450,-27.27730308
441.25500,-19.34224848
441.25550,-10.49161065
441.25600,-7.439666576
441.25650,-8.965638615
441.25700,-9.57602743
441.25750,-9.57602743
441.25800,-11.10199947
441.25850,-14.76433236
441.25900,-17.51108203
441.25950,-18.42666525
441.26000,-19.64744288
441.26050,-21.78380374
441.26100,-20.56302611
441.26150,-10.49161065
441.26200,8.430442624
441.26250,28.26807912
441.26300,38.03430017
441.26350,31.3200232
441.26400,12.70316433
441.26450,-5.303305722
441.26500,-14.15394355
441.26550,-13.23836032
441.26600,-9.57602743
441.26650,-8.355249799
441.26700,-8.355249799
441.26750,-4.998111315
441.26800,1.716165655
441.26850,8.735637032
441.26900,12.70316433
441.26950,14.22913637
441.27000,13.92394196
441.27050,10.87199789
441.27100,6.599276178
441.27150,3.852526509
441.27200,3.242137693
441.27250,2.021360063
441.27300,-0.420195199
441.27350,-0.1150007913
441.27400,4.768109732
441.27450,9.346025847
441.27500,8.735637032
441.27550,7.209664994
441.27600,10.87199789
441.27650,15.14471959
441.27700,9.956414663
441.27750,-3.166944868
441.27800,-11.40719388
441.27850,-8.050055392
441.27900,-1.030584014
441.27950,-0.7253896067
441.28000,-4.387722499
441.28050,-4.998111315
441.28100,-1.946167238
441.28150,-0.7253896067
441.28200,-3.472139276
441.28250,-6.218888945
441.28300,-7.134472168
441.28350,-8.050055392
441.28400,-7.439666576
441.28450,-3.166944868
441.28500,4.157720917
441.28550,9.346025847
441.28600,9.346025847
441.28650,6.29408177
441.28700,5.378498547
441.28750,5.988887363
441.28800,3.852526509
441.28850,-2.861750461
441.28900,-10.79680506
441.28950,-14.45913795
441.29000,-12.93316591
441.29050,-10.18641625
441.29100,-8.050055392
441.29150,-6.218888945
441.29200,-2.861750461
441.29250,0.1901936164
441.29300,0.4953880241
441.29350,-0.420195199
441.29400,0.4953880241
441.29450,5.683692955
441.29500,9.346025847
441.29550,8.125248217
441.29600,2.631748878
441.29650,-0.420195199
441.29700,-0.1150007913
441.29750,1.410971247
441.29800,0.8005824318
441.29850,-1.335778422
441.29900,-1.64097283
441.29950,-0.1150007913
441.30000,0.8005824318
441.30050,-0.1150007913
441.30100,-0.1150007913
441.30150,0.8005824318
441.30200,2.32655447
441.30250,2.631748878
441.30300,2.32655447
441.30350,2.936943286
441.30400,2.631748878
441.30450,1.716165655
441.30500,2.32655447
441.30550,5.378498547
441.30600,9.04083144
441.30650,10.26160907
441.30700,9.651220255
441.30750,9.04083144
441.30800,8.125248217
441.30850,7.514859401
441.30900,9.04083144
441.30950,10.56680348
441.31000,6.904470586
441.31050,-2.861750461
441.31100,-11.40719388
441.31150,-11.71238828
441.31200,-5.913694538
441.31250,-1.64097283
441.31300,-0.7253896067
441.31350,-0.420195199
441.31400,1.410971247
441.31450,2.631748878
441.31500,1.410971247
441.31550,-0.1150007913
441.31600,-0.1150007913
441.31650,1.716165655
441.31700,3.547332101
441.31750,3.852526509
441.31800,3.242137693
441.31850,2.32655447
441.31900,2.021360063
441.31950,2.32655447
441.32000,2.631748878
441.32050,2.021360063
441.32100,1.410971247
441.32150,1.105776839
441.32200,1.105776839
441.32250,0.8005824318
441.32300,1.716165655
441.32350,3.852526509
441.32400,5.378498547
441.32450,4.462915324
441.32500,3.242137693
441.32550,2.936943286
441.32600,2.021360063
441.32650,0.8005824318
441.32700,0.4953880241
441.32750,1.716165655
441.32800,0.4953880241
441.32850,-3.472139276
441.32900,-8.050055392
441.32950,-9.270833022
441.33000,-9.881221838
441.33050,-11.71238828
441.33100,-11.71238828
441.33150,-6.524083353
441.33200,-1.64097283
441.33250,-1.946167238
441.33300,-3.472139276
441.33350,0.1901936164
441.33400,5.07330414
441.33450,-0.1150007913
441.33500,-15.06952677
441.33550,-29.41366393
441.33600,-33.99158005
441.33650,-31.55002478
441.33700,-26.97210867
441.33750,-24.225359
441.33800,-24.83574782
441.33850,-24.225359
441.33900,-11.10199947
441.33950,18.19666367
441.34000,45.96935477
441.34050,45.96935477
441.34100,16.67069163
441.34150,-15.37472118
441.34200,-30.32924715
441.34250,-33.68638564
441.34300,-34.90716327
441.34350,-21.78380374
441.34400,19.11224689
441.34450,74.6576291
441.34500,107.6186251
441.34550,98.7679873
441.34600,66.41738009
441.34650,39.56027221
441.34700,28.26807912
441.34750,20.94341334
441.34800,9.651220255
441.34850,-1.64097283
441.34900,-5.60850013
441.34950,-2.556556053
441.35000,1.410971247
441.35050,3.547332101
441.35100,3.242137693
441.35150,3.242137693
441.35200,5.988887363
441.35250,10.87199789
441.35300,13.00835874
441.35350,8.735637032
441.35400,2.631748878
441.35450,-0.1150007913
441.35500,-2.556556053
441.35550,-14.76433236
441.35600,-32.77080242
441.35650,-39.79027379
441.35700,-27.58249748
441.35750,-8.660444207
441.35800,-0.1150007913
441.35850,0.1901936164
441.35900,2.021360063
441.35950,2.021360063
441.36000,-9.270833022
441.36050,-27.27730308
441.36100,-34.60196886
441.36150,-26.66691426
441.36200,-15.98510999
441.36250,-11.10199947
441.36300,-6.829277761
441.36350,1.105776839
441.36400,7.209664994
441.36450,4.462915324
441.36500,-1.030584014
441.36550,-3.166944868
441.36600,-2.251361645
441.36650,-4.082528091
441.36700,-6.524083353
441.36750,-6.524083353
441.36800,-6.524083353
441.36850,-12.93316591
441.36900,-25.44613663
441.36950,-36.73832972
441.37000,-41.01105142
441.37050,-39.48507938
441.37100,-35.82274649
441.37150,-30.02405275
441.37200,-19.34224848
441.37250,-3.166944868
441.37300,11.78758111
441.37350,17.89146926
441.37400,14.22913637
441.37450,7.514859401
441.37500,3.852526509
441.37550,2.631748878
441.37600,1.105776839
441.37650,0.4953880241
441.37700,1.716165655
441.37750,2.32655447
441.37800,2.32655447
441.37850,5.378498547
441.37900,10.26160907
441.37950,7.820053809
441.38000,-3.472139276
441.38050,-10.49161065
441.38100,-2.861750461
441.38150,8.125248217
441.38200,5.07330414
441.38250,-10.79680506
441.38300,-21.47860933
441.38350,-19.95263729
441.38400,-16.90069321
441.38450,-17.51108203
441.38500,-15.06952677
441.38550,-7.439666576
441.38600,-4.082528091
441.38650,-8.660444207
441.38700,-9.57602743
441.38750,1.716165655
441.38800,15.14471959
441.38850,17.89146926
441.38900,12.70316433
441.38950,10.56680348
441.39000,13.31355315
441.39050,13.61874756
441.39100,11.17719229
441.39150,9.04083144
441.39200,6.29408177
441.39250,-0.1150007913
441.39300,-7.134472168
441.39350,-8.660444207
441.39400,-6.218888945
441.39450,-5.60850013
441.39500,-8.355249799
441.39550,-8.355249799
441.39600,-0.1150007913
441.39650,12.70316433
441.39700,23.99535742
441.39750,27.3524959
441.39800,22.46938538
441.39850,15.449914
441.39900,10.87199789
441.39950,9.346025847
441.40000,7.820053809
441.40050,5.683692955
441.40100,5.988887363
441.40150,8.430442624
441.40200,9.346025847
441.40250,7.820053809
441.40300,5.378498547
441.40350,4.157720917
441.40400,3.852526509
441.40450,4.157720917
441.40500,5.07330414
441.40550,5.683692955
441.40600,5.988887363
441.40650,6.904470586
441.40700,7.820053809
441.40750,6.904470586
441.40800,4.768109732
441.40850,6.29408177
441.40900,10.56680348
441.40950,9.651220255
441.41000,-1.64097283
441.41050,-15.06952677
441.41100,-18.42666525
441.41150,-11.40719388
441.41200,-4.082528091
441.41250,-1.946167238
441.41300,-1.946167238
441.41350,-1.64097283
441.41400,-1.64097283
441.41450,-2.556556053
441.41500,-1.946167238
441.41550,-0.1150007913
441.41600,0.1901936164
441.41650,-1.030584014
441.41700,-1.946167238
441.41750,-1.335778422
441.41800,0.1901936164
441.41850,3.547332101
441.41900,8.735637032
441.41950,12.09277552
441.42000,11.4823867
441.42050,9.04083144
441.42100,7.209664994
441.42150,5.683692955
441.42200,3.242137693
441.42250,1.410971247
441.42300,-0.1150007913
441.42350,-5.913694538
441.42400,-14.76433236
441.42450,-18.42666525
441.42500,-10.18641625
441.42550,2.631748878
441.42600,9.346025847
441.42650,8.125248217
441.42700,5.988887363
441.42750,5.988887363
441.42800,5.07330414
441.42850,2.631748878
441.42900,0.8005824318
441.42950,0.1901936164
441.43000,-1.030584014
441.43050,-2.556556053
441.43100,-2.556556053
441.43150,-1.030584014
441.43200,-1.030584014
441.43250,-2.251361645
441.43300,-2.861750461
441.43350,-2.556556053
441.43400,-3.472139276
441.43450,-6.524083353
441.43500,-8.660444207
441.43550,-7.134472168
441.43600,-1.335778422
441.43650,6.599276178
441.43700,13.31355315
441.43750,15.449914
441.43800,12.09277552
441.43850,6.599276178
441.43900,1.410971247
441.43950,-1.335778422
441.44000,-1.030584014
441.44050,1.410971247
441.44100,1.716165655
441.44150,-2.251361645
441.44200,-4.998111315
441.44250,-1.64097283
441.44300,2.936943286
441.44350,-0.420195199
441.44400,-14.76433236
441.44450,-30.93963597
441.44500,-38.87469057
441.44550,-37.34871853
441.44600,-30.93963597
441.44650,-26.66691426
441.44700,-27.58249748
441.44750,-26.66691426
441.44800,-6.829277761
441.44850,37.11871695
441.44900,81.67710047
441.44950,89.91734948
441.45000,55.73557582
441.45050,11.78758111
441.45100,-9.270833022
441.45150,-9.57602743
441.45200,-11.10199947
441.45250,-19.03705407
441.45300,-19.03705407
441.45350,-4.387722499
441.45400,12.39796992
441.45450,20.94341334
441.45500,25.82652386
441.45550,32.23560643
441.45600,33.45638406
441.45650,20.02783012
441.45700,-2.861750461
441.45750,-23.30977578
441.45800,-34.90716327
441.45850,-37.34871853
441.45900,-34.60196886
441.45950,-31.85521919
441.46000,-32.1604136
441.46050,-24.83574782
441.46100,8.125248217
441.46150,61.83946397
441.46200,99.37837612
441.46250,93.27448797
441.46300,59.70310312
441.46350,34.98235609
441.46400,26.13171827
441.46450,11.4823867
441.46500,-16.90069321
441.46550,-38.87469057
441.46600,-37.04352412
441.46650,-21.47860933
441.46700,-10.79680506
441.46750,-7.744860984
441.46800,-5.303305722
441.46850,-1.64097283
441.46900,-0.420195199
441.46950,-3.777333684
441.47000,-13.23836032
441.47050,-27.88769189
441.47100,-40.40066261
441.47150,-40.70585702
441.47200,-30.32924715
441.47250,-19.03705407
441.47300,-11.10199947
441.47350,-1.335778422
441.47400,6.599276178
441.47450,2.631748878
441.47500,-11.40719388
441.47550,-19.95263729
441.47600,-13.54355473
441.47650,-3.777333684
441.47700,-3.166944868
441.47750,-8.050055392
441.47800,-8.050055392
441.47850,-4.387722499
441.47900,-4.082528091
441.47950,-7.744860984
441.48000,-8.355249799
441.48050,-5.303305722
441.48100,-3.472139276
441.48150,-4.692916907
441.48200,-5.60850013
441.48250,-4.998111315
441.48300,-4.998111315
441.48350,-7.134472168
441.48400,-8.965638615
441.48450,-8.965638615
441.48500,-8.050055392
441.48550,-7.134472168
441.48600,-6.218888945
441.48650,-4.082528091
441.48700,-1.335778422
441.48750,1.105776839
441.48800,2.32655447
441.48850,1.410971247
441.48900,-0.420195199
441.48950,-2.251361645
441.49000,-2.251361645
441.49050,-1.335778422
441.49100,-0.7253896067
441.49150,-0.7253896067
441.49200,0.1901936164
441.49250,2.021360063
441.49300,2.32655447
441.49350,0.4953880241
441.49400,-1.64097283
441.49450,-3.472139276
441.49500,-4.387722499
441.49550,-4.998111315
441.49600,-5.303305722
441.49650,-5.303305722
441.49700,-6.524083353
441.49750,-9.270833022
441.49800,-11.10199947
441.49850,-9.57602743
441.49900,-6.524083353
441.49950,-4.692916907
441.50000,-3.166944868
441.50050,-0.7253896067
441.50100,1.105776839
441.50150,-1.030584014
441.50200,-7.134472168
441.50250,-12.3227771
441.50300,-13.23836032
441.50350,-11.10199947
441.50400,-8.660444207
441.50450,-7.744860984
441.50500,-6.829277761
441.50550,-4.998111315
441.50600,-1.335778422
441.50650,1.716165655
441.50700,2.021360063
441.50750,0.4953880241
441.50800,1.716165655
441.50850,6.599276178
441.50900,8.125248217
441.50950,3.242137693
441.51000,-1.946167238
441.51050,1.410971247
441.51100,13.61874756
441.51150,23.07977419
441.51200,23.69016301
441.51250,19.4174413
441.51300,17.28108045
441.51350,18.19666367
441.51400,19.4174413
441.51450,18.80705249
441.51500,16.06030282
441.51550,11.78758111
441.51600,4.768109732
441.51650,-4.387722499
441.51700,-12.93316591
441.51750,-16.59549881
441.51800,-13.54355473
441.51850,-6.524083353
441.51900,-1.946167238
441.51950,-1.64097283
441.52000,-3.472139276
441.52050,-4.082528091
441.52100,-3.472139276
441.52150,-1.64097283
441.52200,2.936943286
441.52250,12.09277552
441.52300,21.85899656
441.52350,25.82652386
441.52400,20.94341334
441.52450,10.87199789
441.52500,2.631748878
441.52550,-0.420195199
441.52600,-0.1150007913
441.52650,1.105776839
441.52700,2.936943286
441.52750,5.683692955
441.52800,9.651220255
441.52850,13.00835874
441.52900,15.75510841
441.52950,16.97588604
441.53000,14.83952519
441.53050,10.26160907
441.53100,7.820053809
441.53150,9.651220255
441.53200,10.26160907
441.53250,4.157720917
441.53300,-6.524083353
441.53350,-13.23836032
441.53400,-11.10199947
441.53450,-4.082528091
441.53500,0.4953880241
441.53550,1.716165655
441.53600,1.105776839
441.53650,0.8005824318
441.53700,0.8005824318
441.53750,1.716165655
441.53800,3.242137693
441.53850,4.768109732
441.53900,5.07330414
441.53950,4.157720917
441.54000,2.32655447
441.54050,-0.1150007913
441.54100,-2.251361645
441.54150,-4.692916907
441.54200,-6.524083353
441.54250,-6.524083353
441.54300,-4.082528091
441.54350,-0.1150007913
441.54400,2.32655447
441.54450,3.547332101
441.54500,4.462915324
441.54550,4.462915324
441.54600,2.631748878
441.54650,0.1901936164
441.54700,-0.7253896067
441.54750,-2.556556053
441.54800,-8.355249799
441.54850,-17.51108203
441.54900,-27.27730308
441.54950,-34.90716327
441.55000,-37.65391294
441.55050,-35.21235768
441.55100,-31.85521919
441.55150,-33.38119123
441.55200,-32.77080242
441.55250,-11.40719388
441.55300,36.20313373
441.55350,83.81346133
441.55400,95.41084882
441.55450,66.7225745
441.55500,28.26807912
441.55550,7.820053809
441.55600,3.242137693
441.55650,0.1901936164
441.55700,-5.303305722
441.55750,-9.57602743
441.55800,-11.40719388
441.55850,-12.01758269
441.55900,-6.524083353
441.55950,5.683692955
441.56000,17.28108045
441.56050,18.80705249
441.56100,11.78758111
441.56150,5.683692955
441.56200,2.936943286
441.56250,0.4953880241
441.56300,-0.7253896067
441.56350,2.021360063
441.56400,8.125248217
441.56450,10.26160907
441.56500,6.29408177
441.56550,1.410971247
441.56600,0.1901936164
441.56650,-0.1150007913
441.56700,-1.946167238
441.56750,-2.556556053
441.56800,0.4953880241
441.56850,4.157720917
441.56900,2.936943286
441.56950,-0.7253896067
441.57000,-0.420195199
441.57050,2.936943286
441.57100,-0.420195199
441.57150,-13.84874914
441.57200,-26.05652545
441.57250,-24.83574782
441.57300,-12.3227771
441.57350,-2.251361645
441.57400,-1.946167238
441.57450,-6.524083353
441.57500,-8.660444207
441.57550,-8.965638615
441.57600,-10.18641625
441.57650,-12.93316591
441.57700,-13.84874914
441.57750,-10.49161065
441.57800,-1.64097283
441.57850,9.651220255
441.57900,15.14471959
441.57950,7.209664994
441.58000,-11.10199947
441.58050,-26.97210867
441.58100,-30.93963597
441.58150,-27.88769189
441.58200,-27.27730308
441.58250,-28.49808071
441.58300,-21.78380374
441.58350,-4.998111315
441.58400,12.09277552
441.58450,19.72263571
441.58500,18.80705249
441.58550,15.449914
441.58600,13.31355315
441.58650,12.09277552
441.58700,12.39796992
441.58750,13.00835874
441.58800,9.651220255
441.58850,-2.861750461
441.58900,-23.92016459
441.58950,-43.75780109
441.59000,-52.91363332
441.59050,-51.08246688
441.59100,-46.80974517
441.59150,-47.42013399
441.59200,-49.25130043
441.59250,-37.34871853
441.59300,-2.861750461
441.59350,42.91741069
441.59400,75.26801791
441.59450,78.9303508
441.59500,62.14465838
441.59550,43.2226051
441.59600,33.15118965
441.59650,29.48885676
441.59700,25.82652386
441.59750,19.72263571
441.59800,12.70316433
441.59850,6.904470586
441.59900,2.631748878
441.59950,-0.1150007913
441.60000,-0.420195199
441.60050,2.021360063
441.60100,4.157720917
441.60150,2.021360063
441.60200,-1.946167238
441.60250,-1.335778422
441.60300,2.32655447
441.60350,-0.1150007913
441.60400,-13.23836032
441.60450,-25.44613663
441.60500,-23.92016459
441.60550,-11.71238828
441.60600,-1.335778422
441.60650,1.410971247
441.60700,2.631748878
441.60750,4.768109732
441.60800,3.852526509
441.60850,-1.030584014
441.60900,-4.998111315
441.60950,-4.387722499
441.61000,-2.251361645
441.61050,-2.251361645
441.61100,-2.861750461
441.61150,-1.335778422
441.61200,-0.1150007913
441.61250,-0.1150007913
441.61300,-1.64097283
441.61350,-1.946167238
441.61400,-0.420195199
441.61450,1.410971247
441.61500,2.631748878
441.61550,2.936943286
441.61600,1.716165655
441.61650,0.8005824318
441.61700,1.105776839
441.61750,2.936943286
441.61800,4.462915324
441.61850,5.378498547
441.61900,4.462915324
441.61950,2.631748878
441.62000,0.4953880241
441.62050,0.4953880241
441.62100,2.32655447
441.62150,3.852526509
441.62200,0.8005824318
441.62250,-5.60850013
441.62300,-10.49161065
441.62350,-7.439666576
441.62400,-0.7253896067
441.62450,-0.1150007913
441.62500,-8.965638615
441.62550,-19.03705407
441.62600,-19.64744288
441.62650,-12.01758269
441.62700,-5.303305722
441.62750,-3.777333684
441.62800,-3.166944868
441.62850,-1.64097283
441.62900,0.1901936164
441.62950,2.936943286
441.63000,7.820053809
441.63050,9.956414663
441.63100,2.631748878
441.63150,-8.660444207
441.63200,-12.01758269
441.63250,-4.998111315
441.63300,-0.420195199
441.63350,-7.134472168
441.63400,-15.98510999
441.63450,-14.76433236
441.63500,-6.524083353
441.63550,-1.946167238
441.63600,-3.777333684
441.63650,-5.913694538
441.63700,-5.913694538
441.63750,-5.303305722
441.63800,-4.387722499
441.63850,-2.556556053
441.63900,-0.7253896067
441.63950,-0.1150007913
441.64000,-0.1150007913
441.64050,2.021360063
441.64100,4.462915324
441.64150,4.768109732
441.64200,4.462915324
441.64250,4.462915324
441.64300,3.852526509
441.64350,2.021360063
441.64400,0.1901936164
441.64450,-0.1150007913
441.64500,-0.420195199
441.64550,-0.420195199
441.64600,0.8005824318
441.64650,2.021360063
441.64700,1.716165655
441.64750,1.410971247
441.64800,4.768109732
441.64850,8.430442624
441.64900,8.125248217
441.64950,5.683692955
441.65000,5.988887363
441.65050,7.209664994
441.65100,3.852526509
441.65150,-0.1150007913
441.65200,1.716165655
441.65250,3.852526509
441.65300,-5.60850013
441.65350,-23.61497018
441.65400,-33.38119123
441.65450,-30.32924715
441.65500,-27.88769189
441.65550,-32.1604136
441.65600,-32.77080242
441.65650,-22.69938696
441.65700,-9.270833022
441.65750,4.462915324
441.65800,31.01482879
441.65850,70.6901018
441.65900,96.93682086
441.65950,85.94982218
441.66000,49.63168766
441.66050,18.80705249
441.66100,6.29408177
441.66150,2.32655447
441.66200,-1.946167238
441.66250,-4.998111315
441.66300,-5.303305722
441.66350,-7.744860984
441.66400,-12.62797151
441.66450,-15.67991558
441.66500,-14.45913795
441.66550,-11.71238828
441.66600,-7.134472168
441.66650,1.716165655
441.66700,13.00835874
441.66750,21.24860775
441.66800,25.21613505
441.66850,26.13171827
441.66900,22.77457979
441.66950,15.75510841
441.67000,9.651220255
441.67050,8.430442624
441.67100,8.430442624
441.67150,5.07330414
441.67200,-0.1150007913
441.67250,-2.251361645
441.67300,-3.472139276
441.67350,-8.355249799
441.67400,-17.81627644
441.67450,-26.05652545
441.67500,-29.10846952
441.67550,-26.36171985
441.67600,-20.56302611
441.67650,-14.45913795
441.67700,-10.79680506
441.67750,-10.18641625
441.67800,-10.18641625
441.67850,-8.660444207
441.67900,-7.744860984
441.67950,-8.660444207
441.68000,-10.79680506
441.68050,-11.40719388
441.68100,-12.3227771
441.68150,-14.45913795
441.68200,-16.90069321
441.68250,-17.20588762
441.68300,-15.37472118
441.68350,-13.54355473
441.68400,-12.62797151
441.68450,-11.10199947
441.68500,-6.524083353
441.68550,2.021360063
441.68600,13.61874756
441.68650,23.69016301
441.68700,25.82652386
441.68750,19.72263571
441.68800,11.4823867
441.68850,7.514859401
441.68900,7.209664994
441.68950,7.209664994
441.69000,5.683692955
441.69050,5.378498547
441.69100,6.29408177
441.69150,5.988887363
441.69200,3.547332101
441.69250,1.410971247
441.69300,1.105776839
441.69350,0.8005824318
441.69400,-0.1150007913
441.69450,-0.7253896067
441.69500,-0.420195199
441.69550,-0.1150007913
441.69600,-0.1150007913
441.69650,0.4953880241
441.69700,4.462915324
441.69750,9.956414663
441.69800,12.39796992
441.69850,9.346025847
441.69900,3.852526509
441.69950,0.1901936164
441.70000,0.1901936164
441.70050,0.4953880241
441.70100,-1.946167238
441.70150,-5.60850013
441.70200,-5.303305722
441.70250,-0.1150007913
441.70300,5.378498547
441.70350,5.683692955
441.70400,0.8005824318
441.70450,-4.692916907
441.70500,-7.439666576
441.70550,-6.829277761
441.70600,-4.692916907
441.70650,-4.082528091
441.70700,-5.60850013
441.70750,-6.829277761
441.70800,-3.472139276
441.70850,1.716165655
441.70900,1.410971247
441.70950,-7.439666576
441.71000,-15.37472118
441.71050,-11.10199947
441.71100,0.8005824318
441.71150,6.29408177
441.71200,-1.946167238
441.71250,-18.42666525
441.71300,-35.51755208
441.71350,-51.38766129
441.71400,-60.23829911
441.71450,-55.35518859
441.71500,-41.92663465
441.71550,-34.29677445
441.71600,-32.1604136
441.71650,-15.06952677
441.71700,27.65769031
441.71750,73.74204587
441.71800,89.91734948
441.71850,72.21607383
441.71900,45.96935477
441.71950,30.40443998
441.72000,22.46938538
441.72050,15.14471959
441.72100,11.4823867
441.72150,13.00835874
441.72200,11.4823867
441.72250,-0.1150007913
441.72300,-13.84874914
441.72350,-17.81627644
441.72400,-12.01758269
441.72450,-5.913694538
441.72500,-4.692916907
441.72550,-4.692916907
441.72600,-3.777333684
441.72650,-2.251361645
441.72700,-0.420195199
441.72750,1.410971247
441.72800,1.716165655
441.72850,-1.64097283
441.72900,-9.270833022
441.72950,-17.51108203
441.73000,-21.78380374
441.73050,-21.47860933
441.73100,-20.2578317
441.73150,-20.2578317
441.73200,-16.59549881
441.73250,-0.420195199
441.73300,26.43691268
441.73350,48.71610444
441.73400,50.54727089
441.73450,36.20313373
441.73500,22.16419097
441.73550,16.67069163
441.73600,15.14471959
441.73650,12.09277552
441.73700,10.26160907
441.73750,11.17719229
441.73800,10.56680348
441.73850,6.599276178
441.73900,3.242137693
441.73950,3.852526509
441.74000,4.462915324
441.74050,1.716165655
441.74100,-1.335778422
441.74150,-3.777333684
441.74200,-6.524083353
441.74250,-7.439666576
441.74300,-1.946167238
441.74350,6.599276178
441.74400,6.599276178
441.74450,-6.218888945
441.74500,-22.08899815
441.74550,-29.71885834
441.74600,-30.93963597
441.74650,-32.77080242
441.74700,-35.21235768
441.74750,-33.07599682
441.74800,-25.14094222
441.74850,-13.84874914
441.74900,-4.998111315
441.74950,-4.387722499
441.75000,-12.62797151
441.75050,-20.56302611
441.75100,-20.56302611
441.75150,-21.17341492
441.75200,-31.55002478
441.75250,-37.65391294
441.75300,-11.10199947
441.75350,45.35896596
441.75400,89.00176626
441.75450,82.8978781
441.75500,42.91741069
441.75550,12.09277552
441.75600,8.125248217
441.75650,11.17719229
441.75700,2.32655447
441.75750,-12.93316591
441.75800,-18.73185966
441.75850,-8.355249799
441.75900,10.26160907
441.75950,23.99535742
441.76000,25.52132946
441.76050,19.11224689
441.76100,13.61874756
441.76150,12.70316433
441.76200,11.78758111
441.76250,8.735637032
441.76300,7.820053809
441.76350,8.430442624
441.76400,2.32655447
441.76450,-12.62797151
441.76500,-25.14094222
441.76550,-23.61497018
441.76600,-13.23836032
441.76650,-5.60850013
441.76700,-4.692916907
441.76750,-4.387722499
441.76800,-1.946167238
441.76850,-0.1150007913
441.76900,-1.335778422
441.76950,-2.861750461
441.77000,-2.251361645
441.77050,-0.1150007913
441.77100,1.105776839
441.77150,0.8005824318
441.77200,-0.1150007913
441.77250,-1.335778422
441.77300,-1.030584014
441.77350,-0.1150007913
441.77400,0.1901936164
441.77450,-0.420195199
441.77500,-0.7253896067
441.77550,-0.1150007913
441.77600,1.105776839
441.77650,0.8005824318
441.77700,-0.420195199
441.77750,-1.946167238
441.77800,-3.472139276
441.77850,-3.777333684
441.77900,-2.251361645
441.77950,-0.1150007913
441.78000,0.1901936164
441.78050,-0.7253896067
441.78100,-1.64097283
441.78150,-1.64097283
441.78200,-0.7253896067
441.78250,-1.030584014
441.78300,-1.64097283
441.78350,-2.251361645
441.78400,-2.251361645
441.78450,-1.946167238
441.78500,-2.251361645
441.78550,-2.556556053
441.78600,-1.335778422
441.78650,1.105776839
441.78700,3.547332101
441.78750,3.852526509
441.78800,2.936943286
441.78850,2.936943286
441.78900,2.631748878
441.78950,-0.1150007913
441.79000,-4.082528091
441.79050,-7.439666576
441.79100,-9.881221838
441.79150,-13.23836032
441.79200,-13.84874914
441.79250,-4.998111315
441.79300,10.26160907
441.79350,20.02783012
441.79400,16.97588604
441.79450,8.430442624
441.79500,2.936943286
441.79550,-1.030584014
441.79600,-8.660444207
441.79650,-15.06952677
441.79700,-13.84874914
441.79750,-7.744860984
441.79800,-5.913694538
441.79850,-8.355249799
441.79900,-8.660444207
441.79950,-4.998111315
441.80000,-4.692916907
441.80050,-9.57602743
441.80100,-12.3227771
441.80150,-7.439666576
441.80200,0.4953880241
441.80250,3.852526509
441.80300,1.410971247
441.80350,-1.030584014
441.80400,-0.420195199
441.80450,2.021360063
441.80500,3.242137693
441.80550,2.936943286
441.80600,5.07330414
441.80650,8.430442624
441.80700,4.768109732
441.80750,-8.965638615
441.80800,-23.61497018
441.80850,-24.53055341
441.80900,-11.71238828
441.80950,-2.556556053
441.81000,-5.913694538
441.81050,-12.3227771
441.81100,-8.050055392
441.81150,3.547332101
441.81200,11.17719229
441.81250,9.651220255
441.81300,5.378498547
441.81350,2.021360063
441.81400,-0.1150007913
441.81450,-0.420195199
441.81500,2.021360063
441.81550,4.157720917
441.81600,3.852526509
441.81650,3.852526509
441.81700,7.514859401
441.81750,9.04083144
441.81800,0.1901936164
441.81850,-13.84874914
441.81900,-19.34224848
441.81950,-10.79680506
441.82000,0.4953880241
441.82050,3.852526509
441.82100,1.716165655
441.82150,1.105776839
441.82200,3.242137693
441.82250,4.157720917
441.82300,3.242137693
441.82350,3.852526509
441.82400,5.988887363
441.82450,6.904470586
441.82500,5.683692955
441.82550,5.07330414
441.82600,5.988887363
441.82650,6.599276178
441.82700,5.988887363
441.82750,4.462915324
441.82800,3.242137693
441.82850,3.547332101
441.82900,5.07330414
441.82950,6.29408177
441.83000,5.378498547
441.83050,2.936943286
441.83100,2.021360063
441.83150,3.242137693
441.83200,4.157720917
441.83250,3.547332101
441.83300,3.242137693
441.83350,3.852526509
441.83400,4.157720917
441.83450,3.547332101
441.83500,3.547332101
441.83550,3.852526509
441.83600,2.936943286
441.83650,1.410971247
441.83700,1.410971247
441.83750,1.716165655
441.83800,-0.1150007913
441.83850,-2.251361645
441.83900,-0.7253896067
441.83950,2.021360063
441.84000,2.021360063
441.84050,3.242137693
441.84100,12.39796992
441.84150,23.07977419
441.84200,22.46938538
441.84250,11.17719229
441.84300,5.07330414
441.84350,10.56680348
441.84400,12.09277552
441.84450,-8.050055392
441.84500,-44.67338432
441.84550,-77.02399153
441.84600,-90.45254547
441.84650,-87.09540699
441.84700,-81.60190765
441.84750,-84.65385172
441.84800,-87.7057958
441.84850,-66.34218726
441.84900,-10.79680506
441.84950,49.93688207
441.85000,78.31996199
441.85050,74.9628235
441.85100,76.18360113
441.85150,93.88487678
441.85200,98.15759849
441.85250,65.19660246
441.85300,17.89146926
441.85350,-6.524083353
441.85400,-6.829277761
441.85450,-7.134472168
441.85500,-12.62797151
441.85550,-5.913694538
441.85600,18.80705249
441.85650,44.44338273
441.85700,52.68363174
441.85750,44.13818833
441.85800,28.26807912
441.85850,13.61874756
441.85900,4.157720917
441.85950,0.1901936164
441.86000,-3.166944868
441.86050,-9.270833022
441.86100,-13.84874914
441.86150,-11.10199947
441.86200,-4.692916907
441.86250,-1.946167238
441.86300,-3.777333684
441.86350,-4.692916907
441.86400,-3.777333684
441.86450,-3.777333684
441.86500,-4.998111315
441.86550,-4.692916907
441.86600,-1.946167238
441.86650,-1.946167238
441.86700,-4.998111315
441.86750,-8.050055392
441.86800,-7.439666576
441.86850,-5.303305722
441.86900,-3.777333684
441.86950,-3.777333684
441.87000,-3.777333684
441.87050,-2.861750461
441.87100,-2.556556053
441.87150,-2.861750461
441.87200,-4.387722499
441.87250,-5.303305722
441.87300,-5.303305722
441.87350,-4.998111315
441.87400,-5.303305722
441.87450,-6.218888945
441.87500,-7.439666576
441.87550,-7.439666576
441.87600,-5.913694538
441.87650,-4.692916907
441.87700,-4.692916907
441.87750,-5.913694538
441.87800,-6.829277761
441.87850,-5.913694538
441.87900,-4.692916907
441.87950,-4.082528091
441.88000,-4.082528091
441.88050,-4.082528091
441.88100,-4.082528091
441.88150,-4.387722499
441.88200,-4.692916907
441.88250,-4.387722499
441.88300,-3.777333684
441.88350,-3.472139276
441.88400,-3.166944868
441.88450,-2.861750461
441.88500,-2.556556053
441.88550,-0.1150007913
441.88600,3.852526509
441.88650,7.209664994
441.88700,7.209664994
441.88750,5.378498547
441.88800,6.599276178
441.88850,9.04083144
441.88900,5.07330414
441.88950,-8.050055392
441.89000,-21.78380374
441.89050,-23.92016459
441.89100,-12.93316591
441.89150,0.4953880241
441.89200,7.209664994
441.89250,5.683692955
441.89300,0.4953880241
441.89350,-3.777333684
441.89400,-5.913694538
441.89450,-9.57602743
441.89500,-17.51108203
441.89550,-28.1928863
441.89600,-33.07599682
441.89650,-24.53055341
441.89700,-6.218888945
441.89750,9.346025847
441.89800,13.61874756
441.89850,9.651220255
441.89900,7.820053809
441.89950,13.61874756
441.90000,20.94341334
441.90050,17.89146926
441.90100,3.852526509
441.90150,-9.270833022
441.90200,-11.40719388
441.90250,-5.60850013
441.90300,-4.692916907
441.90350,-11.71238828
441.90400,-14.15394355
441.90450,-3.777333684
441.90500,11.17719229
441.90550,17.89146926
441.90600,15.449914
441.90650,13.31355315
441.90700,15.449914
441.90750,16.67069163
441.90800,11.78758111
441.90850,5.683692955
441.90900,3.852526509
441.90950,5.07330414
441.91000,5.07330414
441.91050,1.716165655
441.91100,-1.030584014
441.91150,-2.251361645
441.91200,-2.251361645
441.91250,-2.251361645
441.91300,-1.64097283
441.91350,-1.335778422
441.91400,-1.64097283
441.91450,-2.251361645
441.91500,-2.556556053
441.91550,-1.335778422
441.91600,-0.1150007913
441.91650,0.1901936164
441.91700,-0.1150007913
441.91750,-0.7253896067
441.91800,-0.420195199
441.91850,-0.1150007913
441.91900,-0.1150007913
441.91950,-0.1150007913
441.92000,-0.1150007913
441.92050,0.8005824318
441.92100,0.8005824318
441.92150,0.4953880241
441.92200,0.4953880241
441.92250,1.716165655
441.92300,2.32655447
441.92350,1.716165655
441.92400,0.8005824318
441.92450,0.8005824318
441.92500,1.105776839
441.92550,1.410971247
441.92600,1.105776839
441.92650,1.105776839
441.92700,1.105776839
441.92750,0.1901936164
441.92800,-0.420195199
441.92850,-0.7253896067
441.92900,0.1901936164
441.92950,1.410971247
441.93000,1.410971247
441.93050,1.105776839
441.93100,1.105776839
441.93150,1.716165655
441.93200,1.716165655
441.93250,1.716165655
441.93300,1.716165655
441.93350,2.32655447
441.93400,2.936943286
441.93450,3.852526509
441.93500,5.378498547
441.93550,5.378498547
441.93600,4.462915324
441.93650,3.547332101
441.93700,3.852526509
441.93750,3.852526509
441.93800,2.936943286
441.93850,1.716165655
441.93900,2.021360063
441.93950,1.716165655
441.94000,0.1901936164
441.94050,-1.030584014
441.94100,0.1901936164
441.94150,2.32655447
441.94200,2.631748878
441.94250,1.105776839
441.94300,1.716165655
441.94350,4.462915324
441.94400,4.768109732
441.94450,-1.64097283
441.94500,-12.3227771
441.94550,-19.34224848
441.94600,-20.2578317
441.94650,-20.56302611
441.94700,-26.97210867
441.94750,-36.43313531
441.94800,-38.56949616
441.94850,-30.93963597
441.94900,-25.75133104
441.94950,-32.1604136
441.95000,-35.21235768
441.95050,-12.01758269
441.95100,34.98235609
441.95150,73.13165706
441.95200,74.35243469
441.95250,45.66416036
441.95300,14.53433078
441.95350,-1.335778422
441.95400,-4.692916907
441.95450,-2.861750461
441.95500,-1.64097283
441.95550,-4.387722499
441.95600,-8.355249799
441.95650,-6.829277761
441.95700,1.105776839
441.95750,6.599276178
441.95800,2.936943286
441.95850,-3.777333684
441.95900,-4.692916907
441.95950,-1.335778422
441.96000,-0.1150007913
441.96050,-0.1150007913
441.96100,4.157720917
441.96150,10.56680348
441.96200,11.4823867
441.96250,6.29408177
441.96300,0.4953880241
441.96350,-1.030584014
441.96400,-0.7253896067
441.96450,-1.335778422
441.96500,-2.251361645
441.96550,-2.251361645
441.96600,-0.420195199
441.96650,2.021360063
441.96700,3.852526509
441.96750,4.157720917
441.96800,5.683692955
441.96850,9.346025847
441.96900,11.17719229
441.96950,7.514859401
441.97000,1.105776839
441.97050,-0.7253896067
441.97100,2.021360063
441.97150,4.157720917
441.97200,3.242137693
441.97250,1.410971247
441.97300,1.410971247
441.97350,0.8005824318
441.97400,-0.1150007913
441.97450,-0.1150007913
441.97500,0.8005824318
441.97550,0.4953880241
441.97600,-1.030584014
441.97650,-1.946167238
441.97700,-1.64097283
441.97750,-1.64097283
441.97800,-2.556556053
441.97850,-2.251361645
441.97900,-1.030584014
441.97950,-0.7253896067
441.98000,-1.335778422
441.98050,-2.556556053
441.98100,-3.472139276
441.98150,-2.556556053
441.98200,1.105776839
441.98250,4.768109732
441.98300,2.936943286
441.98350,-2.861750461
441.98400,-4.998111315
441.98450,-0.7253896067
441.98500,3.852526509
441.98550,4.768109732
441.98600,7.514859401
441.98650,13.00835874
441.98700,10.87199789
441.98750,-4.387722499
441.98800,-20.56302611
441.98850,-22.39419255
441.98900,-15.37472118
441.98950,-16.2903044
441.99000,-26.97210867
441.99050,-34.90716327
441.99100,-34.90716327
441.99150,-35.51755208
441.99200,-41.62144024
441.99250,-47.11493958
441.99300,-47.11493958
441.99350,-42.23182905
441.99400,-31.55002478
441.99450,-15.37472118
441.99500,-0.1150007913
441.99550,8.735637032
441.99600,20.02783012
441.99650,44.44338273
441.99700,72.82646265
441.99750,80.76151725
441.99800,60.31349193
441.99850,32.23560643
441.99900,18.19666367
441.99950,16.06030282
442.00000,12.39796992
442.00050,5.378498547
442.00100,1.716165655
442.00150,2.631748878
442.00200,3.547332101
442.00250,2.32655447
442.00300,1.410971247
442.00350,1.410971247
442.00400,-0.1150007913
442.00450,-1.335778422
442.00500,-1.030584014
442.00550,-0.1150007913
442.00600,-1.946167238
442.00650,-6.218888945
442.00700,-7.744860984
442.00750,-5.60850013
442.00800,-3.472139276
442.00850,-3.166944868
442.00900,-2.861750461
442.00950,-1.030584014
442.01000,0.4953880241
442.01050,0.1901936164
442.01100,-0.1150007913
442.01150,0.1901936164
442.01200,1.105776839
442.01250,0.1901936164
442.01300,-1.64097283
442.01350,-2.556556053
442.01400,-2.251361645
442.01450,-1.335778422
442.01500,0.4953880241
442.01550,2.936943286
442.01600,3.852526509
442.01650,1.716165655
442.01700,-0.1150007913
442.01750,-1.335778422
442.01800,-6.524083353
442.01850,-19.64744288
442.01900,-35.21235768
442.01950,-40.0954682
442.02000,-31.55002478
442.02050,-19.64744288
442.02100,-11.71238828
442.02150,-3.166944868
442.02200,11.78758111
442.02250,27.04730149
442.02300,30.09924557
442.02350,21.55380216
442.02400,13.31355315
442.02450,11.78758111
442.02500,11.78758111
442.02550,8.430442624
442.02600,4.157720917
442.02650,3.547332101
442.02700,4.462915324
442.02750,2.631748878
442.02800,0.1901936164
442.02850,0.4953880241
442.02900,2.631748878
442.02950,2.32655447
442.03000,-0.420195199
442.03050,-3.472139276
442.03100,-5.303305722
442.03150,-8.050055392
442.03200,-10.49161065
442.03250,-10.49161065
442.03300,-7.134472168
442.03350,-2.556556053
442.03400,1.410971247
442.03450,4.768109732
442.03500,5.683692955
442.03550,3.242137693
442.03600,-1.64097283
442.03650,-10.49161065
442.03700,-26.36171985
442.03750,-48.94610602
442.03800,-65.42660404
442.03850,-65.73179845
442.03900,-55.9655774
442.03950,-53.21882773
442.04000,-57.18635503
442.04050,-46.19935635
442.04100,-4.082528091
442.04150,53.59921496
442.04200,94.4952656
442.04250,102.7355146
442.04300,89.61215507
442.04350,70.6901018
442.04400,49.63168766
442.04450,26.43691268
442.04500,7.514859401
442.04550,1.410971247
442.04600,6.599276178
442.04650,11.4823867
442.04700,7.820053809
442.04750,-1.64097283
442.04800,-7.439666576
442.04850,-4.998111315
442.04900,0.8005824318
442.04950,3.547332101
442.05000,1.716165655
442.05050,-1.030584014
442.05100,-1.64097283
442.05150,-0.7253896067
442.05200,-0.1150007913
442.05250,0.4953880241
442.05300,1.105776839
442.05350,1.410971247
442.05400,1.105776839
442.05450,0.4953880241
442.05500,-0.1150007913
442.05550,-1.030584014
442.05600,-0.420195199
442.05650,1.716165655
442.05700,3.547332101
442.05750,2.631748878
442.05800,0.1901936164
442.05850,-0.7253896067
442.05900,-0.7253896067
442.05950,-1.64097283
442.06000,-3.166944868
442.06050,-4.692916907
442.06100,-4.998111315
442.06150,-4.387722499
442.06200,-4.082528091
442.06250,-4.692916907
442.06300,-4.998111315
442.06350,-4.082528091
442.06400,-2.251361645
442.06450,-0.7253896067
442.06500,-1.64097283
442.06550,-4.082528091
442.06600,-5.303305722
442.06650,-5.303305722
442.06700,-4.692916907
442.06750,-4.082528091
442.06800,-2.556556053
442.06850,0.4953880241
442.06900,2.021360063
442.06950,0.8005824318
442.07000,-0.7253896067
442.07050,-0.1150007913
442.07100,2.631748878
442.07150,4.462915324
442.07200,3.852526509
442.07250,2.631748878
442.07300,2.936943286
442.07350,3.852526509
442.07400,4.462915324
442.07450,4.157720917
442.07500,3.242137693
442.07550,2.631748878
442.07600,3.242137693
442.07650,4.157720917
442.07700,5.07330414
442.07750,5.07330414
442.07800,3.852526509
442.07850,1.716165655
442.07900,-1.030584014
442.07950,-4.387722499
442.08000,-6.218888945
442.08050,-6.829277761
442.08100,-7.744860984
442.08150,-9.270833022
442.08200,-9.270833022
442.08250,-6.524083353
442.08300,-2.251361645
442.08350,0.1901936164
442.08400,-0.1150007913
442.08450,-1.335778422
442.08500,0.1901936164
442.08550,5.988887363
442.08600,10.56680348
442.08650,9.346025847
442.08700,2.936943286
442.08750,-1.946167238
442.08800,-2.251361645
442.08850,0.8005824318
442.08900,4.462915324
442.08950,6.904470586
442.09000,8.125248217
442.09050,6.29408177
442.09100,0.1901936164
442.09150,-9.270833022
442.09200,-19.95263729
442.09250,-27.88769189
442.09300,-29.41366393
442.09350,-23.92016459
442.09400,-14.15394355
442.09450,-4.998111315
442.09500,-0.1150007913
442.09550,0.8005824318
442.09600,-1.64097283
442.09650,-4.082528091
442.09700,0.1901936164
442.09750,11.17719229
442.09800,18.80705249
442.09850,11.4823867
442.09900,-8.660444207
442.09950,-29.71885834
442.10000,-41.92663465
442.10050,-44.97857872
442.10100,-41.01105142
442.10150,-32.46560801
442.10200,-22.69938696
442.10250,-9.881221838
442.10300,13.61874756
442.10350,51.1576597
442.10400,85.03423896
442.10450,91.44332152
442.10500,67.0277689
442.10550,35.59274491
442.10600,19.4174413
442.10650,16.97588604
442.10700,14.53433078
442.10750,8.125248217
442.10800,4.157720917
442.10850,4.768109732
442.10900,5.378498547
442.10950,2.936943286
442.11000,1.410971247
442.11050,3.242137693
442.11100,5.378498547
442.11150,3.547332101
442.11200,-0.1150007913
442.11250,-1.64097283
442.11300,-1.946167238
442.11350,-3.166944868
442.11400,-4.387722499
442.11450,-2.861750461
442.11500,0.4953880241
442.11550,1.716165655
442.11600,-1.030584014
442.11650,-2.251361645
442.11700,1.105776839
442.11750,2.936943286
442.11800,-3.166944868
442.11850,-12.93316591
442.11900,-14.45913795
442.11950,-6.218888945
442.12000,-0.1150007913
442.12050,-1.335778422
442.12100,-5.303305722
442.12150,-4.082528091
442.12200,-0.7253896067
442.12250,-0.420195199
442.12300,-2.861750461
442.12350,-4.082528091
442.12400,-4.692916907
442.12450,-8.965638615
442.12500,-14.76433236
442.12550,-15.67991558
442.12600,-11.10199947
442.12650,-8.660444207
442.12700,-12.62797151
442.12750,-15.98510999
442.12800,-12.3227771
442.12850,-6.829277761
442.12900,-10.49161065
442.12950,-20.2578317
442.13000,-22.08899815
442.13050,-9.881221838
442.13100,2.32655447
442.13150,3.547332101
442.13200,2.631748878
442.13250,11.17719229
442.13300,21.55380216
442.13350,15.449914
442.13400,-4.082528091
442.13450,-15.67991558
442.13500,-9.881221838
442.13550,-4.082528091
442.13600,-13.84874914
442.13650,-33.38119123
442.13700,-46.50455076
442.13750,-50.77727247
442.13800,-52.60843892
442.13850,-55.04999418
442.13900,-51.38766129
442.13950,-32.1604136
442.14000,5.683692955
442.14050,52.07324293
442.14100,82.28748929
442.14150,76.48879554
442.14200,44.13818833
442.14250,15.449914
442.14300,8.430442624
442.14350,12.09277552
442.14400,10.87199789
442.14450,10.56680348
442.14500,23.07977419
442.14550,40.47585543
442.14600,42.00182747
442.14650,23.99535742
442.14700,4.768109732
442.14750,-1.335778422
442.14800,-1.335778422
442.14850,-7.744860984
442.14900,-19.64744288
442.14950,-26.97210867
442.15000,-26.05652545
442.15050,-23.00458137
442.15100,-23.30977578
442.15150,-24.53055341
442.15200,-20.56302611
442.15250,-11.10199947
442.15300,-1.946167238
442.15350,4.462915324
442.15400,11.4823867
442.15450,21.24860775
442.15500,28.57327353
442.15550,27.04730149
442.15600,18.19666367
442.15650,9.651220255
442.15700,5.988887363
442.15750,4.157720917
442.15800,1.716165655
442.15850,-0.7253896067
442.15900,-1.64097283
442.15950,-1.335778422
442.16000,-1.030584014
442.16050,-0.1150007913
442.16100,0.1901936164
442.16150,-0.1150007913
442.16200,-1.335778422
442.16250,-1.64097283
442.16300,-0.420195199
442.16350,-0.1150007913
442.16400,-1.030584014
442.16450,-1.64097283
442.16500,-0.1150007913
442.16550,1.105776839
442.16600,0.8005824318
442.16650,0.1901936164
442.16700,0.4953880241
442.16750,1.410971247
442.16800,1.716165655
442.16850,1.716165655
442.16900,2.021360063
442.16950,2.021360063
442.17000,1.716165655
442.17050,0.8005824318
442.17100,0.4953880241
442.17150,0.4953880241
442.17200,0.8005824318
442.17250,0.4953880241
442.17300,-0.420195199
442.17350,-2.251361645
442.17400,-3.777333684
442.17450,-3.472139276
442.17500,-2.251361645
442.17550,-1.946167238
442.17600,-2.556556053
442.17650,-3.166944868
442.17700,-4.082528091
442.17750,-5.60850013
442.17800,-7.134472168
442.17850,-7.134472168
442.17900,-6.218888945
442.17950,-6.218888945
442.18000,-6.218888945
442.18050,-4.387722499
442.18100,-2.251361645
442.18150,-2.251361645
442.18200,-2.861750461
442.18250,-1.335778422
442.18300,0.4953880241
442.18350,-2.251361645
442.18400,-10.79680506
442.18450,-17.81627644
442.18500,-15.67991558
442.18550,-7.134472168
442.18600,-2.251361645
442.18650,-4.692916907
442.18700,-9.57602743
442.18750,-9.270833022
442.18800,-3.166944868
442.18850,1.105776839
442.18900,-0.1150007913
442.18950,-5.60850013
442.19000,-8.965638615
442.19050,-6.524083353
442.19100,-2.556556053
442.19150,-1.030584014
442.19200,-3.777333684
442.19250,-8.050055392
442.19300,-12.3227771
442.19350,-16.59549881
442.19400,-20.56302611
442.19450,-23.92016459
442.19500,-25.14094222
442.19550,-20.86822052
442.19600,-8.965638615
442.19650,7.514859401
442.19700,20.33302452
442.19750,22.16419097
442.19800,14.83952519
442.19850,7.820053809
442.19900,6.29408177
442.19950,10.56680348
442.20000,18.19666367
442.20050,26.74210709
442.20100,33.45638406
442.20150,34.67716169
442.20200,30.09924557
442.20250,23.3849686
442.20300,17.89146926
442.20350,14.22913637
442.20400,10.56680348
442.20450,8.430442624
442.20500,8.430442624
442.20550,9.346025847
442.20600,9.956414663
442.20650,9.651220255
442.20700,9.651220255
442.20750,9.651220255
442.20800,9.651220255
442.20850,9.346025847
442.20900,8.430442624
442.20950,6.29408177
442.21000,3.852526509
442.21050,2.021360063
442.21100,1.105776839
442.21150,0.1901936164
442.21200,-0.420195199
442.21250,-0.1150007913
442.21300,0.8005824318
442.21350,1.716165655
442.21400,1.105776839
442.21450,-0.1150007913
442.21500,0.1901936164
442.21550,0.8005824318
442.21600,0.4953880241
442.21650,-0.420195199
442.21700,-1.030584014
442.21750,-0.1150007913
442.21800,0.1901936164
442.21850,0.4953880241
442.21900,0.8005824318
442.21950,0.8005824318
442.22000,-0.1150007913
442.22050,-1.335778422
442.22100,-2.556556053
442.22150,-3.777333684
442.22200,-4.998111315
442.22250,-5.60850013
442.22300,-4.998111315
442.22350,-5.303305722
442.22400,-8.050055392
442.22450,-11.10199947
442.22500,-11.10199947
442.22550,-8.965638615
442.22600,-8.355249799
442.22650,-9.270833022
442.22700,-9.881221838
442.22750,-9.270833022
442.22800,-9.57602743
442.22850,-9.881221838
442.22900,-7.439666576
442.22950,-2.556556053
442.23000,0.1901936164
442.23050,-0.1150007913
442.23100,-1.335778422
442.23150,-1.335778422
442.23200,-1.030584014
442.23250,-0.7253896067
442.23300,0.4953880241
442.23350,1.410971247
442.23400,-0.1150007913
442.23450,-0.7253896067
442.23500,4.157720917
442.23550,12.39796992
442.23600,14.83952519
442.23650,11.4823867
442.23700,13.00835874
442.23750,20.33302452
442.23800,15.75510841
442.23850,-15.37472118
442.23900,-62.37465996
442.23950,-99.6083777
442.24000,-113.0369316
442.24050,-108.7642099
442.24100,-101.4395441
442.24150,-98.99798889
442.24200,-95.33565599
442.24250,-68.17335371
442.24300,1.410971247
442.24350,96.02123763
442.24400,160.1120633
442.24450,152.7873975
442.24500,96.32643204
442.24550,49.63168766
442.24600,42.91741069
442.24650,54.51479819
442.24700,53.59921496
442.24750,40.78104984
442.24800,31.62521761
442.24850,27.96288472
442.24900,19.72263571
442.24950,5.378498547
442.25000,-5.303305722
442.25050,-8.050055392
442.25100,-5.913694538
442.25150,-3.166944868
442.25200,-1.64097283
442.25250,-1.030584014
442.25300,-1.030584014
442.25350,-1.030584014
442.25400,-0.420195199
442.25450,-0.1150007913
442.25500,-1.030584014
442.25550,-3.166944868
442.25600,-3.777333684
442.25650,-3.472139276
442.25700,-3.472139276
442.25750,-4.082528091
442.25800,-4.692916907
442.25850,-6.524083353
442.25900,-9.270833022
442.25950,-10.49161065
442.26000,-8.965638615
442.26050,-6.524083353
442.26100,-5.60850013
442.26150,-6.218888945
442.26200,-6.829277761
442.26250,-6.218888945
442.26300,-4.692916907
442.26350,-3.166944868
442.26400,-1.946167238
442.26450,-1.030584014
442.26500,-1.335778422
442.26550,-2.251361645
442.26600,-2.861750461
442.26650,-2.251361645
442.26700,-1.64097283
442.26750,-1.335778422
442.26800,-1.335778422
442.26850,-0.7253896067
442.26900,0.4953880241
442.26950,1.410971247
442.27000,1.105776839
442.27050,-0.1150007913
442.27100,-0.1150007913
442.27150,0.8005824318
442.27200,1.716165655
442.27250,2.32655447
442.27300,2.32655447
442.27350,0.4953880241
442.27400,-3.166944868
442.27450,-7.439666576
442.27500,-10.18641625
442.27550,-11.71238828
442.27600,-12.01758269
442.27650,-10.18641625
442.27700,-6.524083353
442.27750,-3.472139276
442.27800,-3.777333684
442.27850,-5.303305722
442.27900,-4.692916907
442.27950,-2.251361645
442.28000,-1.030584014
442.28050,-0.1150007913
442.28100,3.547332101
442.28150,5.683692955
442.28200,3.242137693
442.28250,-0.1150007913
442.28300,2.631748878
442.28350,8.125248217
442.28400,5.378498547
442.28450,-6.829277761
442.28500,-15.37472118
442.28550,-8.965638615
442.28600,4.462915324
442.28650,7.514859401
442.28700,-5.60850013
442.28750,-24.83574782
442.28800,-36.1279409
442.28850,-32.1604136
442.28900,-15.37472118
442.28950,5.07330414
442.29000,19.72263571
442.29050,23.07977419
442.29100,17.28108045
442.29150,8.430442624
442.29200,-0.1150007913
442.29250,-6.524083353
442.29300,-8.660444207
442.29350,-5.60850013
442.29400,-0.7253896067
442.29450,1.716165655
442.29500,1.716165655
442.29550,2.631748878
442.29600,6.29408177
442.29650,11.17719229
442.29700,13.61874756
442.29750,11.17719229
442.29800,5.378498547
442.29850,-0.1150007913
442.29900,-2.251361645
442.29950,-1.030584014
442.30000,1.105776839
442.30050,2.631748878
442.30100,2.936943286
442.30150,2.936943286
442.30200,2.631748878
442.30250,2.936943286
442.30300,4.157720917
442.30350,4.768109732
442.30400,4.768109732
442.30450,4.157720917
442.30500,4.157720917
442.30550,4.462915324
442.30600,3.852526509
442.30650,2.631748878
442.30700,2.32655447
442.30750,2.631748878
442.30800,2.631748878
442.30850,1.716165655
442.30900,1.410971247
442.30950,2.021360063
442.31000,2.631748878
442.31050,2.936943286
442.31100,2.631748878
442.31150,2.631748878
442.31200,2.32655447
442.31250,1.410971247
442.31300,-0.1150007913
442.31350,-1.64097283
442.31400,-3.472139276
442.31450,-3.777333684
442.31500,-2.251361645
442.31550,-0.7253896067
442.31600,-0.7253896067
442.31650,-1.030584014
442.31700,-1.030584014
442.31750,-0.7253896067
442.31800,-1.030584014
442.31850,-1.335778422
442.31900,-0.7253896067
442.31950,0.4953880241
442.32000,0.8005824318
442.32050,0.4953880241
442.32100,0.4953880241
442.32150,-0.1150007913
442.32200,-2.861750461
442.32250,-4.998111315
442.32300,-3.777333684
442.32350,-2.251361645
442.32400,-2.861750461
442.32450,-3.777333684
442.32500,-2.556556053
442.32550,-1.946167238
442.32600,-4.998111315
442.32650,-8.660444207
442.32700,-6.829277761
442.32750,-3.472139276
442.32800,-5.913694538
442.32850,-12.3227771
442.32900,-14.76433236
442.32950,-10.79680506
442.33000,-5.60850013
442.33050,-0.420195199
442.33100,7.209664994
442.33150,14.53433078
442.33200,16.36549722
442.33250,15.14471959
442.33300,15.75510841
442.33350,13.00835874
442.33400,0.8005824318
442.33450,-12.01758269
442.33500,-10.79680506
442.33550,-0.1150007913
442.33600,-0.7253896067
442.33650,-20.56302611
442.33700,-43.14741228
442.33750,-54.13441095
442.33800,-55.9655774
442.33850,-53.82921655
442.33900,-47.72532839
442.33950,-36.73832972
442.34000,-21.78380374
442.34050,6.904470586
442.34100,58.17713108
442.34150,113.1121245
442.34200,132.6445666
442.34250,103.3459034
442.34300,58.17713108
442.34350,32.84599524
442.34400,27.04730149
442.34450,18.80705249
442.34500,4.157720917
442.34550,-1.335778422
442.34600,4.768109732
442.34650,11.78758111
442.34700,10.87199789
442.34750,4.768109732
442.34800,-4.082528091
442.34850,-18.12147085
442.34900,-32.77080242
442.34950,-36.73832972
442.35000,-29.10846952
442.35050,-25.75133104
442.35100,-37.65391294
442.35150,-49.55649484
442.35200,-32.1604136
442.35250,19.11224689
442.35300,73.74204587
442.35350,92.35890474
442.35400,69.46932416
442.35450,35.2875505
442.35500,17.28108045
442.35550,14.53433078
442.35600,10.87199789
442.35650,2.32655447
442.35700,-0.7253896067
442.35750,2.631748878
442.35800,3.242137693
442.35850,-6.829277761
442.35900,-22.08899815
442.35950,-32.77080242
442.36000,-36.1279409
442.36050,-36.1279409
442.36100,-34.90716327
442.36150,-33.07599682
442.36200,-31.55002478
442.36250,-28.1928863
442.36300,-18.42666525
442.36350,-2.251361645
442.36400,10.56680348
442.36450,11.4823867
442.36500,3.242137693
442.36550,-3.472139276
442.36600,-6.218888945
442.36650,-9.270833022
442.36700,-15.06952677
442.36750,-18.42666525
442.36800,-16.2903044
442.36850,-14.15394355
442.36900,-14.15394355
442.36950,-12.01758269
442.37000,-4.082528091
442.37050,5.07330414
442.37100,9.651220255
442.37150,9.651220255
442.37200,8.125248217
442.37250,5.07330414
442.37300,0.1901936164
442.37350,-4.387722499
442.37400,-5.913694538
442.37450,-7.744860984
442.37500,-12.93316591
442.37550,-19.03705407
442.37600,-19.34224848
442.37650,-13.23836032
442.37700,-8.050055392
442.37750,-8.355249799
442.37800,-10.49161065
442.37850,-8.965638615
442.37900,-4.082528091
442.37950,-1.030584014
442.38000,-1.030584014
442.38050,-0.1150007913
442.38100,4.768109732
442.38150,9.04083144
442.38200,7.514859401
442.38250,2.32655447
442.38300,-0.1150007913
442.38350,-1.64097283
442.38400,-11.10199947
442.38450,-30.63444156
442.38500,-49.25130043
442.38550,-55.04999418
442.38600,-44.97857872
442.38650,-22.69938696
442.38700,6.904470586
442.38750,34.06677287
442.38800,45.05377155
442.38850,36.20313373
442.38900,18.80705249
442.38950,8.735637032
442.39000,10.26160907
442.39050,17.28108045
442.39100,23.69016301
442.39150,26.13171827
442.39200,23.69016301
442.39250,17.89146926
442.39300,13.61874756
442.39350,13.61874756
442.39400,12.70316433
442.39450,6.29408177
442.39500,-0.7253896067
442.39550,-2.556556053
442.39600,1.105776839
442.39650,6.29408177
442.39700,9.04083144
442.39750,7.209664994
442.39800,-0.1150007913
442.39850,-9.881221838
442.39900,-13.84874914
442.39950,-9.270833022
442.40000,-2.251361645
442.40050,-0.1150007913
442.40100,-0.420195199
442.40150,0.4953880241
442.40200,3.242137693
442.40250,3.547332101
442.40300,-0.1150007913
442.40350,-4.082528091
442.40400,-5.60850013
442.40450,-4.998111315
442.40500,-4.998111315
442.40550,-6.218888945
442.40600,-6.829277761
442.40650,-5.913694538
442.40700,-3.777333684
442.40750,-2.861750461
442.40800,-4.387722499
442.40850,-4.692916907
442.40900,-1.335778422
442.40950,2.936943286
442.41000,5.07330414
442.41050,4.157720917
442.41100,2.32655447
442.41150,1.410971247
442.41200,2.32655447
442.41250,5.683692955
442.41300,10.56680348
442.41350,15.14471959
442.41400,17.28108045
442.41450,16.97588604
442.41500,12.09277552
442.41550,1.410971247
442.41600,-10.49161065
442.41650,-13.54355473
442.41700,-5.303305722
442.41750,3.547332101
442.41800,3.852526509
442.41850,-0.7253896067
442.41900,-2.251361645
442.41950,0.1901936164
442.42000,1.410971247
442.42050,0.1901936164
442.42100,0.1901936164
442.42150,2.021360063
442.42200,2.32655447
442.42250,1.105776839
442.42300,0.4953880241
442.42350,-0.1150007913
442.42400,-2.251361645
442.42450,-2.861750461
442.42500,-1.030584014
442.42550,-0.7253896067
442.42600,-5.60850013
442.42650,-10.18641625
442.42700,-8.050055392
442.42750,-0.7253896067
442.42800,3.242137693
442.42850,2.021360063
442.42900,-0.1150007913
442.42950,-0.1150007913
442.43000,1.105776839
442.43050,2.32655447
442.43100,3.547332101
442.43150,3.547332101
442.43200,2.32655447
442.43250,2.021360063
442.43300,3.242137693
442.43350,4.462915324
442.43400,3.852526509
442.43450,2.021360063
442.43500,0.4953880241
442.43550,-0.1150007913
442.43600,0.1901936164
442.43650,1.410971247
442.43700,0.8005824318
442.43750,-5.303305722
442.43800,-19.03705407
442.43850,-34.90716327
442.43900,-46.50455076
442.43950,-49.55649484
442.44000,-45.28377313
442.44050,-39.17988498
442.44100,-34.90716327
442.44150,-27.27730308
442.44200,-1.030584014
442.44250,47.49532681
442.44300,97.85240408
442.44350,116.469263
442.44400,92.66409915
442.44450,52.07324293
442.44500,25.52132946
442.44550,18.19666367
442.44600,13.31355315
442.44650,-0.420195199
442.44700,-15.37472118
442.44750,-18.73185966
442.44800,-10.79680506
442.44850,-1.64097283
442.44900,1.716165655
442.44950,0.4953880241
442.45000,-1.030584014
442.45050,-2.251361645
442.45100,-2.861750461
442.45150,-3.166944868
442.45200,-2.251361645
442.45250,-1.030584014
442.45300,-0.1150007913
442.45350,2.021360063
442.45400,4.157720917
442.45450,3.242137693
442.45500,-1.030584014
442.45550,-7.134472168
442.45600,-12.01758269
442.45650,-16.2903044
442.45700,-20.2578317
442.45750,-21.17341492
442.45800,-16.59549881
442.45850,-9.270833022
442.45900,-3.777333684
442.45950,-1.64097283
442.46000,-0.7253896067
442.46050,-0.420195199
442.46100,-1.335778422
442.46150,-2.556556053
442.46200,-1.946167238
442.46250,-0.7253896067
442.46300,-3.472139276
442.46350,-13.23836032
442.46400,-31.24483038
442.46450,-54.43960536
442.46500,-72.44607542
442.46550,-73.05646423
442.46600,-56.27077181
442.46650,-37.34871853
442.46700,-26.36171985
442.46750,-10.79680506
442.46800,25.21613505
442.46850,72.52126824
442.46900,98.7679873
442.46950,87.47579422
442.47000,56.34596463
442.47050,31.93041202
442.47100,21.24860775
442.47150,15.14471959
442.47200,9.04083144
442.47250,5.683692955
442.47300,5.683692955
442.47350,5.683692955
442.47400,3.547332101
442.47450,1.410971247
442.47500,0.8005824318
442.47550,0.1901936164
442.47600,-0.1150007913
442.47650,0.4953880241
442.47700,1.105776839
442.47750,-0.1150007913
442.47800,-1.946167238
442.47850,-3.166944868
442.47900,-3.777333684
442.47950,-4.387722499
442.48000,-5.303305722
442.48050,-7.744860984
442.48100,-12.62797151
442.48150,-18.73185966
442.48200,-21.47860933
442.48250,-19.64744288
442.48300,-15.98510999
442.48350,-10.18641625
442.48400,-0.1150007913
442.48450,12.39796992
442.48500,16.36549722
442.48550,5.378498547
442.48600,-12.3227771
442.48650,-21.17341492
442.48700,-15.98510999
442.48750,-5.60850013
442.48800,0.8005824318
442.48850,3.242137693
442.48900,4.157720917
442.48950,4.462915324
442.49000,2.936943286
442.49050,1.105776839
442.49100,1.716165655
442.49150,4.157720917
442.49200,6.904470586
442.49250,9.04083144
442.49300,11.4823867
442.49350,12.39796992
442.49400,9.956414663
442.49450,5.683692955
442.49500,3.547332101
442.49550,4.768109732
442.49600,4.157720917
442.49650,-4.082528091
442.49700,-18.12147085
442.49750,-28.1928863
442.49800,-26.66691426
442.49850,-16.90069321
442.49900,-8.965638615
442.49950,-7.134472168
442.50000,-6.829277761
442.50050,-2.861750461
442.50100,3.242137693
442.50150,8.735637032
442.50200,13.92394196
442.50250,20.33302452
442.50300,24.91094064
442.50350,22.77457979
442.50400,12.70316433
442.50450,-0.1150007913
442.50500,-11.10199947
442.50550,-17.20588762
442.50600,-16.90069321
442.50650,-10.79680506
442.50700,-3.777333684
442.50750,-0.7253896067
442.50800,-0.420195199
442.50850,0.8005824318
442.50900,3.852526509
442.50950,5.378498547
442.51000,4.157720917
442.51050,2.631748878
442.51100,-1.030584014
442.51150,-14.76433236
442.51200,-36.73832972
442.51250,-51.9980501
442.51300,-48.64091162
442.51350,-33.07599682
442.51400,-19.34224848
442.51450,-8.660444207
442.51500,7.514859401
442.51550,30.70963439
442.51600,46.88493799
442.51650,44.44338273
442.51700,28.87846794
442.51750,12.39796992
442.51800,2.021360063
442.51850,-2.861750461
442.51900,-1.64097283
442.51950,6.904470586
442.52000,20.63821893
442.52050,30.70963439
442.52100,31.01482879
442.52150,23.69016301
442.52200,14.53433078
442.52250,8.430442624
442.52300,6.29408177
442.52350,5.07330414
442.52400,3.242137693
442.52450,0.8005824318
442.52500,-1.335778422
442.52550,-3.777333684
442.52600,-7.134472168
442.52650,-11.10199947
442.52700,-13.23836032
442.52750,-12.93316591
442.52800,-11.10199947
442.52850,-9.270833022
442.52900,-6.829277761
442.52950,-3.777333684
442.53000,-0.7253896067
442.53050,0.8005824318
442.53100,1.105776839
442.53150,-0.420195199
442.53200,-2.861750461
442.53250,-4.387722499
442.53300,-3.472139276
442.53350,-1.946167238
442.53400,-1.030584014
442.53450,-1.030584014
442.53500,-1.030584014
442.53550,-0.7253896067
442.53600,-0.420195199
442.53650,-0.1150007913
442.53700,-0.1150007913
442.53750,-0.1150007913
442.53800,-0.420195199
442.53850,-1.030584014
442.53900,-1.030584014
442.53950,-1.030584014
442.54000,-0.7253896067
442.54050,-1.030584014
442.54100,-1.946167238
442.54150,-4.387722499
442.54200,-8.050055392
442.54250,-11.10199947
442.54300,-12.93316591
442.54350,-13.54355473
442.54400,-13.23836032
442.54450,-11.71238828
442.54500,-9.57602743
442.54550,-5.303305722
442.54600,4.157720917
442.54650,18.50185808
442.54700,29.18366235
442.54750,28.26807912
442.54800,17.89146926
442.54850,8.125248217
442.54900,5.07330414
442.54950,4.768109732
442.55000,2.32655447
442.55050,-0.1150007913
442.55100,-0.420195199
442.55150,0.8005824318
442.55200,2.021360063
442.55250,4.157720917
442.55300,6.599276178
442.55350,6.904470586
442.55400,5.683692955
442.55450,5.378498547
442.55500,5.988887363
442.55550,2.936943286
442.55600,-3.777333684
442.55650,-6.524083353
442.55700,-2.861750461
442.55750,-1.030584014
442.55800,-8.355249799
442.55850,-18.73185966
442.55900,-22.08899815
442.55950,-20.56302611
442.56000,-25.14094222
442.56050,-39.17988498
442.56100,-53.52402214
442.56150,-54.74479977
442.56200,-33.38119123
442.56250,12.09277552
442.56300,65.80699127
442.56350,96.32643204
442.56400,83.20307251
442.56450,40.17066103
442.56500,2.936943286
442.56550,-7.744860984
442.56600,-1.64097283
442.56650,2.631748878
442.56700,-0.420195199
442.56750,-4.998111315
442.56800,-6.218888945
442.56850,-4.387722499
442.56900,-1.030584014
442.56950,2.32655447
442.57000,2.631748878
442.57050,-0.1150007913
442.57100,-2.556556053
442.57150,-2.556556053
442.57200,-0.7253896067
442.57250,-0.1150007913
442.57300,0.4953880241
442.57350,1.716165655
442.57400,2.631748878
442.57450,2.021360063
442.57500,1.105776839
442.57550,1.105776839
442.57600,1.105776839
442.57650,-0.1150007913
442.57700,-3.472139276
442.57750,-8.050055392
442.57800,-13.54355473
442.57850,-16.59549881
442.57900,-14.45913795
442.57950,-5.60850013
442.58000,3.852526509
442.58050,7.820053809
442.58100,5.07330414
442.58150,0.8005824318
442.58200,-0.420195199
442.58250,-0.1150007913
442.58300,0.1901936164
442.58350,-0.420195199
442.58400,-1.64097283
442.58450,-2.251361645
442.58500,-2.251361645
442.58550,-1.946167238
442.58600,-0.7253896067
442.58650,0.1901936164
442.58700,-0.1150007913
442.58750,-1.030584014
442.58800,-0.1150007913
442.58850,3.852526509
442.58900,7.514859401
442.58950,5.988887363
442.59000,1.716165655
442.59050,-0.1150007913
442.59100,0.8005824318
442.59150,-0.7253896067
442.59200,-7.439666576
442.59250,-14.45913795
442.59300,-16.59549881
442.59350,-13.84874914
442.59400,-8.660444207
442.59450,-2.251361645
442.59500,2.936943286
442.59550,4.462915324
442.59600,2.936943286
442.59650,1.716165655
442.59700,-0.1150007913
442.59750,-7.744860984
442.59800,-22.69938696
442.59850,-37.65391294
442.59900,-43.45260668
442.59950,-40.70585702
442.60000,-36.43313531
442.60050,-35.82274649
442.60100,-37.65391294
442.60150,-31.85521919
442.60200,-5.913694538
442.60250,41.39143866
442.60300,88.39137744
442.60350,103.6510978
442.60400,80.45632284
442.60450,45.35896596
442.60500,25.82652386
442.60550,21.55380216
442.60600,17.58627486
442.60650,10.26160907
442.60700,8.735637032
442.60750,11.17719229
442.60800,3.852526509
442.60850,-15.37472118
442.60900,-30.32924715
442.60950,-26.97210867
442.61000,-12.01758269
442.61050,-1.946167238
442.61100,-1.030584014
442.61150,-3.166944868
442.61200,-2.861750461
442.61250,-1.335778422
442.61300,-0.7253896067
442.61350,-0.1150007913
442.61400,0.1901936164
442.61450,-0.1150007913
442.61500,-1.335778422
442.61550,-1.335778422
442.61600,-0.1150007913
442.61650,1.105776839
442.61700,1.410971247
442.61750,3.242137693
442.61800,7.820053809
442.61850,11.4823867
442.61900,11.17719229
442.61950,7.514859401
442.62000,5.683692955
442.62050,6.29408177
442.62100,3.852526509
442.62150,-5.60850013
442.62200,-17.51108203
442.62250,-21.47860933
442.62300,-16.2903044
442.62350,-8.965638615
442.62400,-4.692916907
442.62450,-2.556556053
442.62500,-0.420195199
442.62550,0.4953880241
442.62600,-0.1150007913
442.62650,1.105776839
442.62700,7.209664994
442.62750,13.61874756
442.62800,15.75510841
442.62850,14.22913637
442.62900,11.78758111
442.62950,7.209664994
442.63000,-0.1150007913
442.63050,-4.692916907
442.63100,-3.472139276
442.63150,-3.166944868
442.63200,-11.10199947
442.63250,-22.08899815
442.63300,-22.69938696
442.63350,-12.93316591
442.63400,-5.303305722
442.63450,-5.913694538
442.63500,-7.134472168
