"type","name","time_units","begin_time","frequency","count","units"
"signal","Ultium EMG-FLEX.CAPR.U RT","s",208.98000,2000,22000,"uV"

"time","value"
208.98000,5.839874401
208.98050,0.04118065471
208.98100,-6.673096315
208.98150,-10.33542921
208.98200,-7.28348513
208.98250,-0.8744025684
208.98300,4.61909677
208.98350,5.534679993
208.98400,0.6515694701
208.98450,-6.978290722
208.98500,-11.86140125
208.98550,-10.64062361
208.98600,-5.757513092
208.98650,-2.705569015
208.98700,-1.179596976
208.98750,2.482735916
208.98800,8.58662407
208.98850,10.11259611
208.98900,4.61909677
208.98950,-2.705569015
208.99000,-5.147124276
208.99050,-2.095180199
208.99100,2.177541509
208.99150,4.313902363
208.99200,2.482735916
208.99250,-1.789985791
208.99300,-4.841929869
208.99350,-2.400374607
208.99400,2.177541509
208.99450,2.787930324
208.99500,-2.095180199
208.99550,-8.809457169
208.99600,-12.47179006
208.99650,-13.08217888
208.99700,-12.77698447
208.99750,-12.47179006
208.99800,-11.25101243
208.99850,-7.893873946
208.99900,-3.010763422
208.99950,2.482735916
209.00000,8.281429663
209.00050,12.85934578
209.00100,14.69051222
209.00150,12.85934578
209.00200,8.281429663
209.00250,3.703513547
209.00300,2.177541509
209.00350,2.177541509
209.00400,1.872347101
209.00450,0.6515694701
209.00500,0.04118065471
209.00550,0.04118065471
209.00600,-0.5692081607
209.00650,-0.264013753
209.00700,2.177541509
209.00750,4.924291178
209.00800,4.313902363
209.00850,1.261958286
209.00900,0.04118065471
209.00950,0.3463750624
209.01000,0.04118065471
209.01050,-1.484791384
209.01100,-2.095180199
209.01150,-1.789985791
209.01200,-3.926346645
209.01250,-7.893873946
209.01300,-8.809457169
209.01350,-5.452318684
209.01400,-2.095180199
209.01450,-1.484791384
209.01500,-1.789985791
209.01550,-0.8744025684
209.01600,0.04118065471
209.01650,0.9567638778
209.01700,3.398319139
209.01750,6.450263216
209.01800,6.145068809
209.01850,2.482735916
209.01900,0.04118065471
209.01950,1.872347101
209.02000,4.008707955
209.02050,3.093124732
209.02100,0.3463750624
209.02150,0.04118065471
209.02200,1.261958286
209.02250,2.177541509
209.02300,1.872347101
209.02350,1.872347101
209.02400,2.482735916
209.02450,3.093124732
209.02500,3.398319139
209.02550,3.398319139
209.02600,3.398319139
209.02650,2.787930324
209.02700,2.177541509
209.02750,2.177541509
209.02800,1.567152693
209.02850,0.04118065471
209.02900,0.04118065471
209.02950,1.261958286
209.03000,2.787930324
209.03050,2.787930324
209.03100,2.177541509
209.03150,2.787930324
209.03200,4.61909677
209.03250,4.313902363
209.03300,-0.264013753
209.03350,-6.062707499
209.03400,-7.893873946
209.03450,-5.452318684
209.03500,-3.31595783
209.03550,-4.841929869
209.03600,-7.588679538
209.03650,-6.673096315
209.03700,-1.484791384
209.03750,3.398319139
209.03800,4.008707955
209.03850,0.9567638778
209.03900,-1.179596976
209.03950,-0.264013753
209.04000,2.787930324
209.04050,6.145068809
209.04100,9.197012886
209.04150,11.02817933
209.04200,10.41779052
209.04250,7.671040847
209.04300,5.534679993
209.04350,4.313902363
209.04400,3.398319139
209.04450,2.787930324
209.04500,4.61909677
209.04550,8.58662407
209.04600,9.197012886
209.04650,1.872347101
209.04700,-9.114651576
209.04750,-16.43931736
209.04800,-17.04970618
209.04850,-15.21853973
209.04900,-12.47179006
209.04950,-7.893873946
209.05000,-1.484791384
209.05050,1.872347101
209.05100,1.567152693
209.05150,0.04118065471
209.05200,-0.5692081607
209.05250,-1.789985791
209.05300,-4.231541053
209.05350,-5.147124276
209.05400,-3.621152238
209.05450,-2.705569015
209.05500,-5.147124276
209.05550,-8.199068353
209.05600,-8.199068353
209.05650,-5.757513092
209.05700,-3.31595783
209.05750,-1.179596976
209.05800,0.3463750624
209.05850,0.9567638778
209.05900,1.567152693
209.05950,4.008707955
209.06000,7.060652032
209.06050,7.976235255
209.06100,4.313902363
209.06150,0.04118065471
209.06200,-1.789985791
209.06250,-1.789985791
209.06300,-1.789985791
209.06350,-3.010763422
209.06400,-3.31595783
209.06450,-3.010763422
209.06500,-3.31595783
209.06550,-3.621152238
209.06600,-2.705569015
209.06650,-0.5692081607
209.06700,1.261958286
209.06750,2.482735916
209.06800,4.008707955
209.06850,6.450263216
209.06900,9.197012886
209.06950,10.41779052
209.07000,8.281429663
209.07050,3.398319139
209.07100,-0.5692081607
209.07150,-2.095180199
209.07200,-2.095180199
209.07250,-2.400374607
209.07300,-3.926346645
209.07350,-5.452318684
209.07400,-7.28348513
209.07450,-8.504262761
209.07500,-7.588679538
209.07550,-4.841929869
209.07600,-4.231541053
209.07650,-7.893873946
209.07700,-13.08217888
209.07750,-12.16659565
209.07800,-4.536735461
209.07850,1.872347101
209.07900,2.177541509
209.07950,-0.264013753
209.08000,-0.8744025684
209.08050,1.261958286
209.08100,2.482735916
209.08150,1.261958286
209.08200,0.9567638778
209.08250,3.703513547
209.08300,5.839874401
209.08350,4.313902363
209.08400,1.261958286
209.08450,0.04118065471
209.08500,2.177541509
209.08550,4.61909677
209.08600,5.229485586
209.08650,3.703513547
209.08700,1.567152693
209.08750,0.04118065471
209.08800,-2.095180199
209.08850,-3.926346645
209.08900,-3.926346645
209.08950,-1.484791384
209.09000,0.9567638778
209.09050,2.482735916
209.09100,2.177541509
209.09150,1.261958286
209.09200,0.04118065471
209.09250,-1.179596976
209.09300,-1.789985791
209.09350,-0.264013753
209.09400,2.177541509
209.09450,3.093124732
209.09500,2.177541509
209.09550,1.261958286
209.09600,3.093124732
209.09650,5.534679993
209.09700,4.924291178
209.09750,1.567152693
209.09800,-2.400374607
209.09850,-4.231541053
209.09900,-3.926346645
209.09950,-3.31595783
209.10000,-2.400374607
209.10050,-2.095180199
209.10100,-1.789985791
209.10150,-1.789985791
209.10200,-2.095180199
209.10250,-2.705569015
209.10300,-1.789985791
209.10350,1.872347101
209.10400,7.36584644
209.10450,11.02817933
209.10500,9.197012886
209.10550,4.008707955
209.10600,0.04118065471
209.10650,-1.179596976
209.10700,-2.095180199
209.10750,-3.621152238
209.10800,-4.841929869
209.10850,-4.536735461
209.10900,-2.705569015
209.10950,-1.789985791
209.11000,-2.095180199
209.11050,-2.400374607
209.11100,-0.8744025684
209.11150,1.872347101
209.11200,5.534679993
209.11250,7.36584644
209.11300,7.976235255
209.11350,7.671040847
209.11400,7.36584644
209.11450,5.839874401
209.11500,2.787930324
209.11550,0.3463750624
209.11600,0.04118065471
209.11650,0.3463750624
209.11700,0.04118065471
209.11750,-2.705569015
209.11800,-6.062707499
209.11850,-6.673096315
209.11900,-3.621152238
209.11950,1.872347101
209.12000,7.36584644
209.12050,9.197012886
209.12100,4.924291178
209.12150,-2.705569015
209.12200,-7.893873946
209.12250,-7.28348513
209.12300,-2.705569015
209.12350,0.9567638778
209.12400,3.093124732
209.12450,3.398319139
209.12500,2.177541509
209.12550,0.04118065471
209.12600,-0.8744025684
209.12650,0.3463750624
209.12700,2.787930324
209.12750,2.787930324
209.12800,0.6515694701
209.12850,-1.179596976
209.12900,-2.705569015
209.12950,-4.231541053
209.13000,-4.231541053
209.13050,-0.5692081607
209.13100,4.313902363
209.13150,7.36584644
209.13200,6.145068809
209.13250,4.008707955
209.13300,2.787930324
209.13350,0.04118065471
209.13400,-5.147124276
209.13450,-10.0302348
209.13500,-9.725040392
209.13550,-5.452318684
209.13600,-1.484791384
209.13650,-0.8744025684
209.13700,-1.789985791
209.13750,-3.010763422
209.13800,-3.926346645
209.13850,-3.926346645
209.13900,-2.095180199
209.13950,0.3463750624
209.14000,0.3463750624
209.14050,-1.484791384
209.14100,-2.705569015
209.14150,-0.8744025684
209.14200,1.872347101
209.14250,2.787930324
209.14300,1.567152693
209.14350,0.3463750624
209.14400,0.6515694701
209.14450,1.872347101
209.14500,3.398319139
209.14550,4.313902363
209.14600,4.313902363
209.14650,4.008707955
209.14700,4.008707955
209.14750,4.61909677
209.14800,4.61909677
209.14850,2.787930324
209.14900,0.9567638778
209.14950,1.261958286
209.15000,2.482735916
209.15050,3.398319139
209.15100,3.398319139
209.15150,3.093124732
209.15200,2.177541509
209.15250,1.567152693
209.15300,1.872347101
209.15350,2.787930324
209.15400,2.482735916
209.15450,0.04118065471
209.15500,-2.705569015
209.15550,-2.400374607
209.15600,0.04118065471
209.15650,1.261958286
209.15700,0.9567638778
209.15750,0.04118065471
209.15800,-1.179596976
209.15850,-2.705569015
209.15900,-1.789985791
209.15950,1.567152693
209.16000,4.008707955
209.16050,1.872347101
209.16100,-2.095180199
209.16150,-3.010763422
209.16200,-1.179596976
209.16250,-1.179596976
209.16300,-3.621152238
209.16350,-3.31595783
209.16400,1.567152693
209.16450,6.450263216
209.16500,6.145068809
209.16550,2.787930324
209.16600,0.6515694701
209.16650,0.3463750624
209.16700,1.261958286
209.16750,2.787930324
209.16800,3.703513547
209.16850,2.787930324
209.16900,0.6515694701
209.16950,0.3463750624
209.17000,1.872347101
209.17050,2.177541509
209.17100,0.04118065471
209.17150,-1.484791384
209.17200,-2.400374607
209.17250,-4.841929869
209.17300,-10.0302348
209.17350,-13.38737328
209.17400,-11.55620684
209.17450,-6.673096315
209.17500,-3.31595783
209.17550,-2.400374607
209.17600,-1.484791384
209.17650,0.6515694701
209.17700,4.008707955
209.17750,6.450263216
209.17800,6.755457624
209.17850,4.924291178
209.17900,2.787930324
209.17950,3.398319139
209.18000,5.534679993
209.18050,4.924291178
209.18100,1.567152693
209.18150,0.04118065471
209.18200,1.872347101
209.18250,4.924291178
209.18300,4.313902363
209.18350,0.9567638778
209.18400,-1.179596976
209.18450,-1.789985791
209.18500,-1.484791384
209.18550,-0.8744025684
209.18600,0.04118065471
209.18650,0.04118065471
209.18700,-1.484791384
209.18750,-3.010763422
209.18800,-2.400374607
209.18850,-0.8744025684
209.18900,0.04118065471
209.18950,0.9567638778
209.19000,1.567152693
209.19050,0.6515694701
209.19100,-1.789985791
209.19150,-3.621152238
209.19200,-1.789985791
209.19250,0.9567638778
209.19300,0.04118065471
209.19350,-4.536735461
209.19400,-8.809457169
209.19450,-7.588679538
209.19500,-2.095180199
209.19550,0.9567638778
209.19600,0.6515694701
209.19650,0.04118065471
209.19700,1.261958286
209.19750,4.924291178
209.19800,7.060652032
209.19850,6.145068809
209.19900,1.567152693
209.19950,-5.147124276
209.20000,-11.55620684
209.20050,-13.08217888
209.20100,-8.504262761
209.20150,-1.179596976
209.20200,3.398319139
209.20250,3.398319139
209.20300,0.3463750624
209.20350,-3.010763422
209.20400,-5.452318684
209.20450,-4.231541053
209.20500,0.04118065471
209.20550,4.008707955
209.20600,4.61909677
209.20650,2.787930324
209.20700,1.872347101
209.20750,3.093124732
209.20800,4.924291178
209.20850,4.924291178
209.20900,2.177541509
209.20950,-3.621152238
209.21000,-9.725040392
209.21050,-11.86140125
209.21100,-8.199068353
209.21150,-2.705569015
209.21200,-0.264013753
209.21250,0.04118065471
209.21300,0.9567638778
209.21350,2.482735916
209.21400,1.872347101
209.21450,0.04118065471
209.21500,0.3463750624
209.21550,2.177541509
209.21600,1.567152693
209.21650,-1.484791384
209.21700,-3.621152238
209.21750,-2.095180199
209.21800,0.04118065471
209.21850,0.04118065471
209.21900,-1.484791384
209.21950,-2.095180199
209.22000,-1.789985791
209.22050,-2.705569015
209.22100,-4.231541053
209.22150,-3.621152238
209.22200,-0.8744025684
209.22250,0.3463750624
209.22300,-1.484791384
209.22350,-4.536735461
209.22400,-4.841929869
209.22450,-3.010763422
209.22500,-1.179596976
209.22550,-0.264013753
209.22600,0.6515694701
209.22650,1.567152693
209.22700,0.3463750624
209.22750,-1.789985791
209.22800,-1.484791384
209.22850,3.093124732
209.22900,8.58662407
209.22950,10.11259611
209.23000,7.671040847
209.23050,4.61909677
209.23100,2.482735916
209.23150,1.567152693
209.23200,1.872347101
209.23250,2.482735916
209.23300,2.787930324
209.23350,2.787930324
209.23400,2.482735916
209.23450,2.787930324
209.23500,2.482735916
209.23550,1.872347101
209.23600,1.872347101
209.23650,3.703513547
209.23700,4.924291178
209.23750,4.008707955
209.23800,0.04118065471
209.23850,-6.367901907
209.23900,-12.47179006
209.23950,-14.30295651
209.24000,-9.725040392
209.24050,-1.789985791
209.24100,3.703513547
209.24150,4.924291178
209.24200,2.787930324
209.24250,0.6515694701
209.24300,0.04118065471
209.24350,-0.264013753
209.24400,-0.8744025684
209.24450,-1.789985791
209.24500,-3.31595783
209.24550,-4.536735461
209.24600,-3.926346645
209.24650,-1.179596976
209.24700,0.9567638778
209.24750,1.261958286
209.24800,0.04118065471
209.24850,-0.264013753
209.24900,1.567152693
209.24950,4.61909677
209.25000,4.313902363
209.25050,0.3463750624
209.25100,-3.621152238
209.25150,-3.621152238
209.25200,-1.179596976
209.25250,-0.264013753
209.25300,-2.400374607
209.25350,-3.31595783
209.25400,-0.5692081607
209.25450,2.787930324
209.25500,3.703513547
209.25550,2.787930324
209.25600,2.482735916
209.25650,3.093124732
209.25700,2.482735916
209.25750,0.3463750624
209.25800,-0.8744025684
209.25850,-1.484791384
209.25900,-2.400374607
209.25950,-2.705569015
209.26000,-1.789985791
209.26050,0.3463750624
209.26100,2.787930324
209.26150,3.398319139
209.26200,3.703513547
209.26250,4.61909677
209.26300,5.229485586
209.26350,4.61909677
209.26400,2.482735916
209.26450,0.3463750624
209.26500,0.04118065471
209.26550,1.261958286
209.26600,1.567152693
209.26650,0.04118065471
209.26700,-1.179596976
209.26750,0.04118065471
209.26800,2.482735916
209.26850,2.787930324
209.26900,0.04118065471
209.26950,-1.179596976
209.27000,-0.264013753
209.27050,0.04118065471
209.27100,-0.5692081607
209.27150,-1.179596976
209.27200,0.6515694701
209.27250,1.872347101
209.27300,-0.264013753
209.27350,-4.231541053
209.27400,-6.062707499
209.27450,-6.367901907
209.27500,-6.367901907
209.27550,-5.147124276
209.27600,-2.400374607
209.27650,-1.484791384
209.27700,-3.926346645
209.27750,-3.926346645
209.27800,1.872347101
209.27850,8.891818478
209.27900,9.197012886
209.27950,4.008707955
209.28000,0.9567638778
209.28050,2.482735916
209.28100,3.398319139
209.28150,0.3463750624
209.28200,-2.705569015
209.28250,-3.010763422
209.28300,-0.8744025684
209.28350,0.9567638778
209.28400,2.177541509
209.28450,0.9567638778
209.28500,-3.010763422
209.28550,-6.367901907
209.28600,-5.147124276
209.28650,-1.179596976
209.28700,0.04118065471
209.28750,-0.264013753
209.28800,0.3463750624
209.28850,4.008707955
209.28900,6.755457624
209.28950,6.145068809
209.29000,4.008707955
209.29050,1.567152693
209.29100,-0.264013753
209.29150,-1.484791384
209.29200,0.04118065471
209.29250,2.177541509
209.29300,2.177541509
209.29350,-1.179596976
209.29400,-4.231541053
209.29450,-3.621152238
209.29500,-1.789985791
209.29550,-2.095180199
209.29600,-4.536735461
209.29650,-6.062707499
209.29700,-3.31595783
209.29750,2.787930324
209.29800,7.976235255
209.29850,7.976235255
209.29900,4.313902363
209.29950,1.261958286
209.30000,0.9567638778
209.30050,0.9567638778
209.30100,-0.5692081607
209.30150,-2.095180199
209.30200,-0.8744025684
209.30250,2.177541509
209.30300,4.61909677
209.30350,4.924291178
209.30400,4.313902363
209.30450,3.093124732
209.30500,0.9567638778
209.30550,-0.8744025684
209.30600,-1.789985791
209.30650,-1.484791384
209.30700,-1.484791384
209.30750,-2.705569015
209.30800,-3.926346645
209.30850,-4.536735461
209.30900,-3.621152238
209.30950,-0.8744025684
209.31000,3.093124732
209.31050,6.450263216
209.31100,6.755457624
209.31150,4.924291178
209.31200,3.093124732
209.31250,2.482735916
209.31300,1.567152693
209.31350,0.3463750624
209.31400,0.3463750624
209.31450,1.872347101
209.31500,1.872347101
209.31550,-1.179596976
209.31600,-5.452318684
209.31650,-7.28348513
209.31700,-5.452318684
209.31750,-2.705569015
209.31800,-1.179596976
209.31850,-0.5692081607
209.31900,-0.264013753
209.31950,-0.264013753
209.32000,0.04118065471
209.32050,0.6515694701
209.32100,0.3463750624
209.32150,-0.264013753
209.32200,-1.179596976
209.32250,-1.179596976
209.32300,-1.484791384
209.32350,-2.705569015
209.32400,-4.536735461
209.32450,-4.536735461
209.32500,-2.400374607
209.32550,0.3463750624
209.32600,2.482735916
209.32650,3.398319139
209.32700,3.398319139
209.32750,3.398319139
209.32800,3.703513547
209.32850,3.398319139
209.32900,0.9567638778
209.32950,-1.179596976
209.33000,-1.789985791
209.33050,-0.8744025684
209.33100,-1.179596976
209.33150,-2.705569015
209.33200,-3.621152238
209.33250,-3.621152238
209.33300,-3.621152238
209.33350,-3.31595783
209.33400,-1.789985791
209.33450,-0.264013753
209.33500,-0.8744025684
209.33550,-3.621152238
209.33600,-4.231541053
209.33650,-1.484791384
209.33700,0.3463750624
209.33750,1.567152693
209.33800,4.008707955
209.33850,7.976235255
209.33900,8.58662407
209.33950,4.924291178
209.34000,2.177541509
209.34050,3.398319139
209.34100,5.534679993
209.34150,3.093124732
209.34200,-2.095180199
209.34250,-5.147124276
209.34300,-4.841929869
209.34350,-4.536735461
209.34400,-4.841929869
209.34450,-2.095180199
209.34500,3.398319139
209.34550,7.976235255
209.34600,7.976235255
209.34650,4.924291178
209.34700,2.482735916
209.34750,0.9567638778
209.34800,-0.264013753
209.34850,-0.264013753
209.34900,3.398319139
209.34950,7.976235255
209.35000,7.976235255
209.35050,0.6515694701
209.35100,-7.28348513
209.35150,-9.419845984
209.35200,-3.926346645
209.35250,2.482735916
209.35300,4.313902363
209.35350,2.177541509
209.35400,-0.5692081607
209.35450,-2.095180199
209.35500,-2.095180199
209.35550,-1.484791384
209.35600,-2.095180199
209.35650,-4.841929869
209.35700,-8.504262761
209.35750,-8.504262761
209.35800,-3.010763422
209.35850,4.924291178
209.35900,9.502207293
209.35950,7.671040847
209.36000,3.093124732
209.36050,0.3463750624
209.36100,-0.5692081607
209.36150,-2.400374607
209.36200,-4.536735461
209.36250,-4.231541053
209.36300,-0.8744025684
209.36350,1.872347101
209.36400,1.567152693
209.36450,0.04118065471
209.36500,2.177541509
209.36550,5.839874401
209.36600,5.839874401
209.36650,0.6515694701
209.36700,-3.621152238
209.36750,-3.31595783
209.36800,-0.5692081607
209.36850,0.04118065471
209.36900,-0.264013753
209.36950,1.261958286
209.37000,3.398319139
209.37050,2.787930324
209.37100,0.3463750624
209.37150,0.04118065471
209.37200,2.787930324
209.37250,4.008707955
209.37300,1.567152693
209.37350,-2.400374607
209.37400,-4.841929869
209.37450,-5.147124276
209.37500,-3.621152238
209.37550,-1.179596976
209.37600,0.6515694701
209.37650,1.567152693
209.37700,2.177541509
209.37750,1.872347101
209.37800,0.6515694701
209.37850,-2.095180199
209.37900,-5.452318684
209.37950,-6.978290722
209.38000,-6.062707499
209.38050,-4.536735461
209.38100,-2.400374607
209.38150,0.04118065471
209.38200,2.177541509
209.38250,2.177541509
209.38300,0.6515694701
209.38350,0.6515694701
209.38400,2.482735916
209.38450,3.398319139
209.38500,2.787930324
209.38550,2.177541509
209.38600,3.093124732
209.38650,5.839874401
209.38700,8.891818478
209.38750,9.807401701
209.38800,7.36584644
209.38850,0.9567638778
209.38900,-5.147124276
209.38950,-7.28348513
209.39000,-5.452318684
209.39050,-2.705569015
209.39100,-1.789985791
209.39150,-1.789985791
209.39200,-2.400374607
209.39250,-3.926346645
209.39300,-6.673096315
209.39350,-8.809457169
209.39400,-8.199068353
209.39450,-5.452318684
209.39500,-3.621152238
209.39550,-2.705569015
209.39600,-1.179596976
209.39650,1.567152693
209.39700,4.313902363
209.39750,4.61909677
209.39800,3.093124732
209.39850,1.872347101
209.39900,2.177541509
209.39950,2.787930324
209.40000,1.872347101
209.40050,0.04118065471
209.40100,-1.789985791
209.40150,-4.231541053
209.40200,-6.062707499
209.40250,-3.926346645
209.40300,2.482735916
209.40350,8.281429663
209.40400,7.976235255
209.40450,3.093124732
209.40500,0.04118065471
209.40550,0.04118065471
209.40600,0.04118065471
209.40650,-1.179596976
209.40700,-0.8744025684
209.40750,0.9567638778
209.40800,0.6515694701
209.40850,-2.705569015
209.40900,-6.673096315
209.40950,-6.673096315
209.41000,-5.147124276
209.41050,-5.147124276
209.41100,-5.757513092
209.41150,-3.926346645
209.41200,0.04118065471
209.41250,3.703513547
209.41300,5.229485586
209.41350,6.145068809
209.41400,6.755457624
209.41450,5.839874401
209.41500,2.177541509
209.41550,-2.705569015
209.41600,-6.673096315
209.41650,-8.199068353
209.41700,-8.504262761
209.41750,-7.588679538
209.41800,-5.147124276
209.41850,-0.5692081607
209.41900,4.008707955
209.41950,6.450263216
209.42000,6.145068809
209.42050,4.924291178
209.42100,5.229485586
209.42150,5.534679993
209.42200,4.61909677
209.42250,4.313902363
209.42300,4.924291178
209.42350,4.924291178
209.42400,1.261958286
209.42450,-4.231541053
209.42500,-7.28348513
209.42550,-6.062707499
209.42600,-4.231541053
209.42650,-5.147124276
209.42700,-5.757513092
209.42750,-3.010763422
209.42800,1.261958286
209.42850,2.482735916
209.42900,-1.484791384
209.42950,-7.28348513
209.43000,-8.809457169
209.43050,-4.841929869
209.43100,-0.264013753
209.43150,0.9567638778
209.43200,-0.264013753
209.43250,-2.400374607
209.43300,-3.926346645
209.43350,-4.841929869
209.43400,-5.147124276
209.43450,-2.400374607
209.43500,1.567152693
209.43550,4.924291178
209.43600,5.534679993
209.43650,5.534679993
209.43700,5.229485586
209.43750,4.008707955
209.43800,1.261958286
209.43850,0.04118065471
209.43900,0.9567638778
209.43950,1.567152693
209.44000,0.3463750624
209.44050,0.04118065471
209.44100,1.872347101
209.44150,4.008707955
209.44200,2.482735916
209.44250,-1.789985791
209.44300,-4.231541053
209.44350,-2.095180199
209.44400,0.9567638778
209.44450,2.177541509
209.44500,1.261958286
209.44550,0.04118065471
209.44600,-0.5692081607
209.44650,0.04118065471
209.44700,1.567152693
209.44750,1.567152693
209.44800,-0.264013753
209.44850,-2.705569015
209.44900,-1.179596976
209.44950,3.093124732
209.45000,7.671040847
209.45050,9.502207293
209.45100,7.976235255
209.45150,4.924291178
209.45200,1.872347101
209.45250,0.6515694701
209.45300,1.567152693
209.45350,2.177541509
209.45400,0.3463750624
209.45450,-0.8744025684
209.45500,0.04118065471
209.45550,2.787930324
209.45600,4.313902363
209.45650,4.313902363
209.45700,4.313902363
209.45750,4.924291178
209.45800,3.398319139
209.45850,0.9567638778
209.45900,0.6515694701
209.45950,2.482735916
209.46000,2.787930324
209.46050,0.6515694701
209.46100,-1.484791384
209.46150,-2.095180199
209.46200,-1.789985791
209.46250,-2.095180199
209.46300,-2.705569015
209.46350,-2.705569015
209.46400,-2.400374607
209.46450,-2.095180199
209.46500,-1.179596976
209.46550,0.04118065471
209.46600,0.04118065471
209.46650,0.04118065471
209.46700,2.177541509
209.46750,5.534679993
209.46800,5.229485586
209.46850,0.04118065471
209.46900,-4.536735461
209.46950,-5.757513092
209.47000,-5.757513092
209.47050,-6.673096315
209.47100,-4.841929869
209.47150,1.567152693
209.47200,7.976235255
209.47250,8.891818478
209.47300,6.450263216
209.47350,4.924291178
209.47400,3.093124732
209.47450,-1.484791384
209.47500,-5.757513092
209.47550,-4.841929869
209.47600,-1.789985791
209.47650,-3.010763422
209.47700,-5.757513092
209.47750,-3.621152238
209.47800,2.482735916
209.47850,5.229485586
209.47900,0.6515694701
209.47950,-3.926346645
209.48000,-3.926346645
209.48050,-1.179596976
209.48100,0.9567638778
209.48150,2.787930324
209.48200,3.703513547
209.48250,0.3463750624
209.48300,-5.147124276
209.48350,-8.504262761
209.48400,-6.673096315
209.48450,-4.536735461
209.48500,-5.147124276
209.48550,-7.28348513
209.48600,-9.114651576
209.48650,-9.725040392
209.48700,-9.114651576
209.48750,-4.536735461
209.48800,1.872347101
209.48850,5.839874401
209.48900,4.924291178
209.48950,4.008707955
209.49000,7.060652032
209.49050,10.41779052
209.49100,8.281429663
209.49150,3.703513547
209.49200,1.872347101
209.49250,3.703513547
209.49300,4.61909677
209.49350,2.177541509
209.49400,0.04118065471
209.49450,0.9567638778
209.49500,2.787930324
209.49550,3.398319139
209.49600,2.787930324
209.49650,0.04118065471
209.49700,-4.231541053
209.49750,-9.419845984
209.49800,-11.55620684
209.49850,-8.199068353
209.49900,-2.095180199
209.49950,2.177541509
209.50000,2.787930324
209.50050,1.872347101
209.50100,2.787930324
209.50150,5.229485586
209.50200,6.450263216
209.50250,5.229485586
209.50300,1.567152693
209.50350,-1.179596976
209.50400,-1.789985791
209.50450,0.04118065471
209.50500,4.008707955
209.50550,7.671040847
209.50600,8.891818478
209.50650,6.755457624
209.50700,1.872347101
209.50750,-3.010763422
209.50800,-5.147124276
209.50850,-3.621152238
209.50900,-1.179596976
209.50950,-1.179596976
209.51000,-2.705569015
209.51050,-2.705569015
209.51100,0.04118065471
209.51150,2.787930324
209.51200,3.398319139
209.51250,2.482735916
209.51300,2.787930324
209.51350,3.703513547
209.51400,2.787930324
209.51450,0.3463750624
209.51500,-0.5692081607
209.51550,0.04118065471
209.51600,1.261958286
209.51650,0.6515694701
209.51700,0.04118065471
209.51750,0.9567638778
209.51800,3.703513547
209.51850,5.534679993
209.51900,4.924291178
209.51950,2.787930324
209.52000,0.9567638778
209.52050,0.04118065471
209.52100,-1.789985791
209.52150,-5.147124276
209.52200,-7.893873946
209.52250,-7.893873946
209.52300,-4.841929869
209.52350,-0.8744025684
209.52400,0.04118065471
209.52450,-1.179596976
209.52500,-2.705569015
209.52550,-2.095180199
209.52600,-0.264013753
209.52650,-0.264013753
209.52700,-2.095180199
209.52750,-3.621152238
209.52800,-3.621152238
209.52850,-2.705569015
209.52900,-3.010763422
209.52950,-3.926346645
209.53000,-4.231541053
209.53050,-4.231541053
209.53100,-5.757513092
209.53150,-7.588679538
209.53200,-6.978290722
209.53250,-3.926346645
209.53300,-0.8744025684
209.53350,-0.5692081607
209.53400,-1.789985791
209.53450,-2.705569015
209.53500,-3.31595783
209.53550,-2.705569015
209.53600,0.04118065471
209.53650,2.787930324
209.53700,2.177541509
209.53750,-2.095180199
209.53800,-5.147124276
209.53850,-2.095180199
209.53900,3.398319139
209.53950,6.755457624
209.54000,6.755457624
209.54050,7.060652032
209.54100,7.36584644
209.54150,6.145068809
209.54200,4.008707955
209.54250,2.177541509
209.54300,0.6515694701
209.54350,-2.095180199
209.54400,-4.841929869
209.54450,-4.231541053
209.54500,-2.095180199
209.54550,-1.789985791
209.54600,-3.31595783
209.54650,-3.31595783
209.54700,-0.8744025684
209.54750,0.04118065471
209.54800,-1.484791384
209.54850,-2.705569015
209.54900,-1.484791384
209.54950,1.261958286
209.55000,2.482735916
209.55050,1.872347101
209.55100,0.6515694701
209.55150,0.04118065471
209.55200,0.04118065471
209.55250,1.261958286
209.55300,2.482735916
209.55350,2.177541509
209.55400,0.04118065471
209.55450,-1.484791384
209.55500,-0.264013753
209.55550,2.482735916
209.55600,4.313902363
209.55650,3.093124732
209.55700,0.6515694701
209.55750,0.04118065471
209.55800,1.872347101
209.55850,4.313902363
209.55900,4.61909677
209.55950,3.093124732
209.56000,2.482735916
209.56050,3.398319139
209.56100,4.008707955
209.56150,3.093124732
209.56200,1.261958286
209.56250,0.04118065471
209.56300,-1.789985791
209.56350,-3.010763422
209.56400,-4.231541053
209.56450,-5.757513092
209.56500,-9.114651576
209.56550,-10.94581802
209.56600,-7.893873946
209.56650,-0.264013753
209.56700,4.313902363
209.56750,3.703513547
209.56800,0.6515694701
209.56850,2.177541509
209.56900,7.671040847
209.56950,11.33337374
209.57000,8.281429663
209.57050,0.04118065471
209.57100,-7.893873946
209.57150,-12.16659565
209.57200,-10.64062361
209.57250,-6.062707499
209.57300,-2.400374607
209.57350,-1.179596976
209.57400,-1.179596976
209.57450,0.3463750624
209.57500,3.703513547
209.57550,5.839874401
209.57600,4.61909677
209.57650,1.261958286
209.57700,-0.8744025684
209.57750,-1.179596976
209.57800,0.04118065471
209.57850,0.3463750624
209.57900,-1.179596976
209.57950,-5.757513092
209.58000,-10.0302348
209.58050,-9.725040392
209.58100,-4.231541053
209.58150,2.482735916
209.58200,6.145068809
209.58250,5.839874401
209.58300,3.703513547
209.58350,1.261958286
209.58400,-1.179596976
209.58450,-3.621152238
209.58500,-3.621152238
209.58550,-0.264013753
209.58600,3.398319139
209.58650,5.839874401
209.58700,7.976235255
209.58750,10.72298492
209.58800,12.55415137
209.58850,10.72298492
209.58900,7.36584644
209.58950,5.839874401
209.59000,5.534679993
209.59050,4.313902363
209.59100,2.177541509
209.59150,1.872347101
209.59200,2.787930324
209.59250,0.3463750624
209.59300,-5.147124276
209.59350,-7.893873946
209.59400,-3.010763422
209.59450,3.398319139
209.59500,4.313902363
209.59550,0.04118065471
209.59600,-3.010763422
209.59650,-3.31595783
209.59700,-3.621152238
209.59750,-4.841929869
209.59800,-4.841929869
209.59850,-1.789985791
209.59900,2.177541509
209.59950,4.008707955
209.60000,3.703513547
209.60050,2.177541509
209.60100,0.9567638778
209.60150,0.04118065471
209.60200,-2.095180199
209.60250,-5.147124276
209.60300,-6.062707499
209.60350,-3.010763422
209.60400,2.787930324
209.60450,7.060652032
209.60500,6.145068809
209.60550,2.177541509
209.60600,-1.484791384
209.60650,-2.705569015
209.60700,-2.400374607
209.60750,-1.179596976
209.60800,-0.264013753
209.60850,0.3463750624
209.60900,1.567152693
209.60950,2.177541509
209.61000,0.6515694701
209.61050,-2.705569015
209.61100,-5.147124276
209.61150,-3.31595783
209.61200,-0.5692081607
209.61250,-0.5692081607
209.61300,-2.400374607
209.61350,-1.789985791
209.61400,1.567152693
209.61450,4.008707955
209.61500,2.787930324
209.61550,1.872347101
209.61600,2.482735916
209.61650,2.177541509
209.61700,-0.5692081607
209.61750,-2.705569015
209.61800,-0.8744025684
209.61850,1.872347101
209.61900,2.482735916
209.61950,1.872347101
209.62000,2.482735916
209.62050,3.398319139
209.62100,1.567152693
209.62150,-1.484791384
209.62200,-2.400374607
209.62250,0.3463750624
209.62300,3.398319139
209.62350,2.177541509
209.62400,-1.484791384
209.62450,-4.536735461
209.62500,-3.621152238
209.62550,0.04118065471
209.62600,4.008707955
209.62650,5.229485586
209.62700,4.008707955
209.62750,1.567152693
209.62800,0.04118065471
209.62850,0.6515694701
209.62900,3.703513547
209.62950,6.145068809
209.63000,3.703513547
209.63050,-3.621152238
209.63100,-10.33542921
209.63150,-10.94581802
209.63200,-6.673096315
209.63250,-3.010763422
209.63300,-2.095180199
209.63350,-1.789985791
209.63400,0.04118065471
209.63450,3.398319139
209.63500,4.924291178
209.63550,2.787930324
209.63600,-1.179596976
209.63650,-3.010763422
209.63700,-0.5692081607
209.63750,1.872347101
209.63800,0.04118065471
209.63850,-6.062707499
209.63900,-10.0302348
209.63950,-9.725040392
209.64000,-8.504262761
209.64050,-9.725040392
209.64100,-8.809457169
209.64150,-3.010763422
209.64200,3.703513547
209.64250,5.229485586
209.64300,2.787930324
209.64350,2.482735916
209.64400,6.450263216
209.64450,9.197012886
209.64500,7.36584644
209.64550,2.787930324
209.64600,-0.264013753
209.64650,-2.400374607
209.64700,-3.926346645
209.64750,-4.841929869
209.64800,-3.621152238
209.64850,-2.095180199
209.64900,-1.789985791
209.64950,-2.705569015
209.65000,-3.010763422
209.65050,-1.484791384
209.65100,1.261958286
209.65150,3.398319139
209.65200,3.093124732
209.65250,0.9567638778
209.65300,0.04118065471
209.65350,1.261958286
209.65400,3.093124732
209.65450,2.177541509
209.65500,-0.264013753
209.65550,-1.179596976
209.65600,0.6515694701
209.65650,4.313902363
209.65700,6.145068809
209.65750,5.839874401
209.65800,3.398319139
209.65850,-0.264013753
209.65900,-4.536735461
209.65950,-7.28348513
209.66000,-7.893873946
209.66050,-7.588679538
209.66100,-6.367901907
209.66150,-5.147124276
209.66200,-3.31595783
209.66250,-1.484791384
209.66300,0.04118065471
209.66350,0.6515694701
209.66400,0.3463750624
209.66450,0.04118065471
209.66500,0.9567638778
209.66550,4.313902363
209.66600,6.450263216
209.66650,4.313902363
209.66700,0.6515694701
209.66750,0.04118065471
209.66800,2.787930324
209.66850,4.61909677
209.66900,4.313902363
209.66950,4.313902363
209.67000,5.839874401
209.67050,5.839874401
209.67100,2.787930324
209.67150,0.3463750624
209.67200,0.6515694701
209.67250,0.04118065471
209.67300,-4.536735461
209.67350,-9.114651576
209.67400,-7.588679538
209.67450,-1.179596976
209.67500,3.093124732
209.67550,1.872347101
209.67600,-1.789985791
209.67650,-4.231541053
209.67700,-5.147124276
209.67750,-5.147124276
209.67800,-5.452318684
209.67850,-5.147124276
209.67900,-4.536735461
209.67950,-3.31595783
209.68000,-2.705569015
209.68050,-2.400374607
209.68100,-2.705569015
209.68150,-2.705569015
209.68200,-2.400374607
209.68250,-1.484791384
209.68300,0.04118065471
209.68350,2.787930324
209.68400,5.229485586
209.68450,6.450263216
209.68500,7.671040847
209.68550,10.11259611
209.68600,12.24895696
209.68650,11.63856815
209.68700,7.976235255
209.68750,3.703513547
209.68800,0.04118065471
209.68850,-3.010763422
209.68900,-4.536735461
209.68950,-3.31595783
209.69000,-0.264013753
209.69050,0.04118065471
209.69100,-0.8744025684
209.69150,-0.8744025684
209.69200,0.04118065471
209.69250,-0.8744025684
209.69300,-4.231541053
209.69350,-5.757513092
209.69400,-4.536735461
209.69450,-2.400374607
209.69500,-0.8744025684
209.69550,2.787930324
209.69600,8.281429663
209.69650,10.11259611
209.69700,5.534679993
209.69750,0.04118065471
209.69800,-2.095180199
209.69850,-1.484791384
209.69900,-2.095180199
209.69950,-1.484791384
209.70000,0.9567638778
209.70050,4.008707955
209.70100,4.008707955
209.70150,4.313902363
209.70200,7.060652032
209.70250,9.502207293
209.70300,6.755457624
209.70350,1.567152693
209.70400,-1.179596976
209.70450,-1.789985791
209.70500,-3.621152238
209.70550,-4.841929869
209.70600,-1.179596976
209.70650,4.924291178
209.70700,7.36584644
209.70750,4.61909677
209.70800,0.9567638778
209.70850,0.04118065471
209.70900,-0.8744025684
209.70950,-3.010763422
209.71000,-3.621152238
209.71050,-1.789985791
209.71100,0.3463750624
209.71150,0.3463750624
209.71200,-0.5692081607
209.71250,-0.5692081607
209.71300,0.3463750624
209.71350,0.3463750624
209.71400,0.04118065471
209.71450,0.6515694701
209.71500,4.008707955
209.71550,5.839874401
209.71600,2.177541509
209.71650,-3.31595783
209.71700,-5.452318684
209.71750,-1.789985791
209.71800,1.872347101
209.71850,2.482735916
209.71900,0.9567638778
209.71950,0.04118065471
209.72000,-1.484791384
209.72050,-6.367901907
209.72100,-10.33542921
209.72150,-7.893873946
209.72200,-1.179596976
209.72250,2.177541509
209.72300,0.6515694701
209.72350,-0.8744025684
209.72400,-0.5692081607
209.72450,0.04118065471
209.72500,0.3463750624
209.72550,2.177541509
209.72600,4.924291178
209.72650,5.839874401
209.72700,4.313902363
209.72750,3.703513547
209.72800,4.008707955
209.72850,1.872347101
209.72900,-3.31595783
209.72950,-6.673096315
209.73000,-4.536735461
209.73050,-0.264013753
209.73100,0.6515694701
209.73150,0.04118065471
209.73200,-0.8744025684
209.73250,-2.705569015
209.73300,-6.673096315
209.73350,-10.64062361
209.73400,-10.64062361
209.73450,-7.893873946
209.73500,-4.841929869
209.73550,-3.010763422
209.73600,-1.179596976
209.73650,-0.5692081607
209.73700,-2.705569015
209.73750,-4.841929869
209.73800,-3.621152238
209.73850,0.04118065471
209.73900,1.567152693
209.73950,0.6515694701
209.74000,-0.264013753
209.74050,-0.264013753
209.74100,-0.264013753
209.74150,-0.264013753
209.74200,2.482735916
209.74250,7.976235255
209.74300,12.24895696
209.74350,11.63856815
209.74400,7.36584644
209.74450,3.093124732
209.74500,-0.5692081607
209.74550,-5.147124276
209.74600,-8.199068353
209.74650,-7.588679538
209.74700,-4.536735461
209.74750,-1.789985791
209.74800,0.04118065471
209.74850,2.482735916
209.74900,4.924291178
209.74950,4.313902363
209.75000,0.9567638778
209.75050,-1.179596976
209.75100,-1.484791384
209.75150,-1.179596976
209.75200,-2.095180199
209.75250,-3.31595783
209.75300,-3.926346645
209.75350,-4.536735461
209.75400,-4.231541053
209.75450,-1.789985791
209.75500,1.872347101
209.75550,4.008707955
209.75600,2.482735916
209.75650,0.04118065471
209.75700,-0.264013753
209.75750,0.04118065471
209.75800,0.3463750624
209.75850,0.9567638778
209.75900,3.398319139
209.75950,4.924291178
209.76000,2.787930324
209.76050,-0.8744025684
209.76100,-1.484791384
209.76150,1.261958286
209.76200,3.703513547
209.76250,2.787930324
209.76300,1.261958286
209.76350,2.482735916
209.76400,4.008707955
209.76450,3.093124732
209.76500,0.3463750624
209.76550,0.04118065471
209.76600,3.093124732
209.76650,6.145068809
209.76700,6.450263216
209.76750,4.924291178
209.76800,4.313902363
209.76850,5.229485586
209.76900,5.534679993
209.76950,4.008707955
209.77000,1.567152693
209.77050,-1.789985791
209.77100,-6.062707499
209.77150,-9.725040392
209.77200,-9.725040392
209.77250,-6.062707499
209.77300,-2.705569015
209.77350,-3.926346645
209.77400,-7.28348513
209.77450,-8.809457169
209.77500,-7.893873946
209.77550,-8.199068353
209.77600,-9.725040392
209.77650,-9.725040392
209.77700,-6.062707499
209.77750,-1.484791384
209.77800,0.6515694701
209.77850,0.9567638778
209.77900,1.567152693
209.77950,3.093124732
209.78000,3.703513547
209.78050,2.787930324
209.78100,0.3463750624
209.78150,-1.789985791
209.78200,-3.010763422
209.78250,-2.095180199
209.78300,-0.8744025684
209.78350,-0.264013753
209.78400,1.261958286
209.78450,5.534679993
209.78500,10.41779052
209.78550,11.94376256
209.78600,9.197012886
209.78650,4.924291178
209.78700,0.9567638778
209.78750,-3.010763422
209.78800,-6.978290722
209.78850,-9.114651576
209.78900,-7.588679538
209.78950,-4.231541053
209.79000,-2.400374607
209.79050,-1.179596976
209.79100,0.6515694701
209.79150,4.313902363
209.79200,7.36584644
209.79250,7.36584644
209.79300,3.093124732
209.79350,-1.789985791
209.79400,-3.31595783
209.79450,-0.264013753
209.79500,2.482735916
209.79550,1.261958286
209.79600,-1.179596976
209.79650,-0.5692081607
209.79700,3.398319139
209.79750,5.229485586
209.79800,3.093124732
209.79850,2.177541509
209.79900,4.313902363
209.79950,5.229485586
209.80000,1.567152693
209.80050,-1.179596976
209.80100,3.398319139
209.80150,13.16454019
209.80200,17.7424563
209.80250,13.16454019
209.80300,4.924291178
209.80350,-0.5692081607
209.80400,-2.400374607
209.80450,-2.095180199
209.80500,0.04118065471
209.80550,5.229485586
209.80600,9.502207293
209.80650,7.976235255
209.80700,0.3463750624
209.80750,-8.199068353
209.80800,-11.86140125
209.80850,-10.0302348
209.80900,-6.978290722
209.80950,-5.452318684
209.81000,-3.621152238
209.81050,0.04118065471
209.81100,3.703513547
209.81150,4.313902363
209.81200,0.9567638778
209.81250,-3.31595783
209.81300,-6.367901907
209.81350,-7.28348513
209.81400,-7.28348513
209.81450,-7.893873946
209.81500,-8.199068353
209.81550,-6.978290722
209.81600,-3.926346645
209.81650,-0.8744025684
209.81700,0.9567638778
209.81750,1.567152693
209.81800,1.261958286
209.81850,0.6515694701
209.81900,0.04118065471
209.81950,-0.264013753
209.82000,-0.264013753
209.82050,-0.5692081607
209.82100,-0.5692081607
209.82150,0.9567638778
209.82200,4.313902363
209.82250,6.145068809
209.82300,4.313902363
209.82350,2.177541509
209.82400,2.482735916
209.82450,4.313902363
209.82500,4.313902363
209.82550,2.482735916
209.82600,1.872347101
209.82650,1.567152693
209.82700,-0.264013753
209.82750,-3.31595783
209.82800,-4.231541053
209.82850,-2.400374607
209.82900,-0.8744025684
209.82950,-2.095180199
209.83000,-3.926346645
209.83050,-3.926346645
209.83100,-2.095180199
209.83150,-0.5692081607
209.83200,0.04118065471
209.83250,0.04118065471
209.83300,-2.095180199
209.83350,-4.536735461
209.83400,-4.841929869
209.83450,-3.010763422
209.83500,-0.8744025684
209.83550,0.04118065471
209.83600,0.6515694701
209.83650,0.9567638778
209.83700,0.3463750624
209.83750,-0.264013753
209.83800,0.6515694701
209.83850,5.229485586
209.83900,8.58662407
209.83950,7.060652032
209.84000,1.567152693
209.84050,-3.010763422
209.84100,-4.536735461
209.84150,-4.841929869
209.84200,-5.147124276
209.84250,-3.926346645
209.84300,0.04118065471
209.84350,4.924291178
209.84400,7.36584644
209.84450,6.755457624
209.84500,5.229485586
209.84550,2.787930324
209.84600,-1.179596976
209.84650,-5.147124276
209.84700,-6.673096315
209.84750,-5.757513092
209.84800,-5.757513092
209.84850,-6.367901907
209.84900,-4.841929869
209.84950,0.04118065471
209.85000,3.398319139
209.85050,3.703513547
209.85100,2.177541509
209.85150,1.872347101
209.85200,2.177541509
209.85250,1.567152693
209.85300,-0.264013753
209.85350,-2.095180199
209.85400,-3.621152238
209.85450,-3.926346645
209.85500,-2.705569015
209.85550,0.3463750624
209.85600,3.093124732
209.85650,4.008707955
209.85700,3.703513547
209.85750,3.703513547
209.85800,3.703513547
209.85850,3.398319139
209.85900,2.787930324
209.85950,1.872347101
209.86000,0.3463750624
209.86050,-1.484791384
209.86100,-1.484791384
209.86150,0.3463750624
209.86200,2.177541509
209.86250,1.872347101
209.86300,1.261958286
209.86350,1.261958286
209.86400,1.261958286
209.86450,0.04118065471
209.86500,-0.5692081607
209.86550,-0.5692081607
209.86600,0.04118065471
209.86650,0.3463750624
209.86700,0.3463750624
209.86750,0.9567638778
209.86800,0.6515694701
209.86850,-2.095180199
209.86900,-6.062707499
209.86950,-7.893873946
209.87000,-6.673096315
209.87050,-3.010763422
209.87100,-0.5692081607
209.87150,-0.5692081607
209.87200,-1.789985791
209.87250,-2.095180199
209.87300,-1.789985791
209.87350,-3.010763422
209.87400,-5.757513092
209.87450,-4.841929869
209.87500,2.177541509
209.87550,9.807401701
209.87600,10.11259611
209.87650,3.093124732
209.87700,-1.789985791
209.87750,-0.264013753
209.87800,3.398319139
209.87850,4.924291178
209.87900,5.534679993
209.87950,6.145068809
209.88000,5.229485586
209.88050,0.9567638778
209.88100,-1.789985791
209.88150,0.04118065471
209.88200,3.093124732
209.88250,4.313902363
209.88300,2.787930324
209.88350,1.567152693
209.88400,0.9567638778
209.88450,0.04118065471
209.88500,-0.8744025684
209.88550,0.6515694701
209.88600,3.093124732
209.88650,3.398319139
209.88700,1.261958286
209.88750,0.04118065471
209.88800,0.04118065471
209.88850,0.04118065471
209.88900,0.04118065471
209.88950,-0.264013753
209.89000,-0.8744025684
209.89050,-1.484791384
209.89100,0.6515694701
209.89150,4.313902363
209.89200,5.229485586
209.89250,0.6515694701
209.89300,-4.536735461
209.89350,-5.452318684
209.89400,-3.010763422
209.89450,-1.484791384
209.89500,-1.789985791
209.89550,-2.400374607
209.89600,-2.705569015
209.89650,-3.926346645
209.89700,-4.841929869
209.89750,-3.010763422
209.89800,1.261958286
209.89850,5.534679993
209.89900,8.58662407
209.89950,11.02817933
209.90000,11.94376256
209.90050,9.197012886
209.90100,3.093124732
209.90150,-3.31595783
209.90200,-6.673096315
209.90250,-6.367901907
209.90300,-3.926346645
209.90350,-3.621152238
209.90400,-7.588679538
209.90450,-11.86140125
209.90500,-10.64062361
209.90550,-4.231541053
209.90600,0.3463750624
209.90650,0.04118065471
209.90700,-2.095180199
209.90750,-1.179596976
209.90800,0.9567638778
209.90850,1.872347101
209.90900,2.787930324
209.90950,5.534679993
209.91000,6.145068809
209.91050,1.261958286
209.91100,-4.841929869
209.91150,-6.062707499
209.91200,-4.231541053
209.91250,-4.536735461
209.91300,-7.28348513
209.91350,-7.28348513
209.91400,-3.926346645
209.91450,-1.179596976
209.91500,-1.179596976
209.91550,0.04118065471
209.91600,4.313902363
209.91650,7.36584644
209.91700,5.534679993
209.91750,1.261958286
209.91800,-1.789985791
209.91850,-3.010763422
209.91900,-2.095180199
209.91950,0.3463750624
209.92000,2.787930324
209.92050,3.093124732
209.92100,2.177541509
209.92150,3.703513547
209.92200,7.36584644
209.92250,8.281429663
209.92300,4.313902363
209.92350,0.04118065471
209.92400,-1.179596976
209.92450,-0.5692081607
209.92500,-1.789985791
209.92550,-4.231541053
209.92600,-4.841929869
209.92650,-3.010763422
209.92700,-0.264013753
209.92750,0.3463750624
209.92800,0.04118065471
209.92850,-1.179596976
209.92900,-1.484791384
209.92950,0.04118065471
209.93000,3.093124732
209.93050,4.313902363
209.93100,2.177541509
209.93150,-0.5692081607
209.93200,-1.179596976
209.93250,0.3463750624
209.93300,1.567152693
209.93350,2.177541509
209.93400,2.482735916
209.93450,2.787930324
209.93500,2.787930324
209.93550,1.567152693
209.93600,1.261958286
209.93650,1.567152693
209.93700,0.3463750624
209.93750,-3.010763422
209.93800,-6.978290722
209.93850,-7.28348513
209.93900,-3.926346645
209.93950,0.3463750624
209.94000,2.787930324
209.94050,3.093124732
209.94100,2.177541509
209.94150,0.04118065471
209.94200,-3.31595783
209.94250,-5.757513092
209.94300,-3.926346645
209.94350,1.261958286
209.94400,6.450263216
209.94450,6.450263216
209.94500,2.787930324
209.94550,-0.264013753
209.94600,-1.484791384
209.94650,-2.400374607
209.94700,-3.621152238
209.94750,-3.621152238
209.94800,-1.179596976
209.94850,1.567152693
209.94900,3.093124732
209.94950,2.787930324
209.95000,2.482735916
209.95050,2.482735916
209.95100,2.787930324
209.95150,3.093124732
209.95200,3.093124732
209.95250,0.9567638778
209.95300,-2.705569015
209.95350,-5.757513092
209.95400,-4.231541053
209.95450,-0.5692081607
209.95500,1.872347101
209.95550,1.872347101
209.95600,0.9567638778
209.95650,0.04118065471
209.95700,-2.400374607
209.95750,-4.536735461
209.95800,-3.926346645
209.95850,-1.484791384
209.95900,0.04118065471
209.95950,-0.5692081607
209.96000,-2.400374607
209.96050,-3.010763422
209.96100,-2.400374607
209.96150,-1.789985791
209.96200,-1.179596976
209.96250,-1.179596976
209.96300,-0.5692081607
209.96350,0.04118065471
209.96400,1.261958286
209.96450,0.04118065471
209.96500,-3.010763422
209.96550,-5.452318684
209.96600,-4.231541053
209.96650,-1.484791384
209.96700,-2.095180199
209.96750,-4.536735461
209.96800,-3.010763422
209.96850,2.177541509
209.96900,6.450263216
209.96950,4.313902363
209.97000,0.04118065471
209.97050,-0.5692081607
209.97100,0.9567638778
209.97150,2.177541509
209.97200,0.9567638778
209.97250,-0.5692081607
209.97300,-2.400374607
209.97350,-3.926346645
209.97400,-3.926346645
209.97450,-1.179596976
209.97500,1.567152693
209.97550,1.261958286
209.97600,-1.484791384
209.97650,-3.010763422
209.97700,-0.264013753
209.97750,3.093124732
209.97800,4.61909677
209.97850,3.093124732
209.97900,0.6515694701
209.97950,-1.179596976
209.98000,-3.621152238
209.98050,-4.841929869
209.98100,-3.31595783
209.98150,0.04118065471
209.98200,3.093124732
209.98250,4.313902363
209.98300,3.703513547
209.98350,3.093124732
209.98400,2.177541509
209.98450,1.567152693
209.98500,1.567152693
209.98550,1.261958286
209.98600,0.6515694701
209.98650,0.04118065471
209.98700,-0.5692081607
209.98750,0.04118065471
209.98800,1.567152693
209.98850,4.61909677
209.98900,8.58662407
209.98950,12.24895696
209.99000,13.46973459
209.99050,10.11259611
209.99100,3.703513547
209.99150,-3.31595783
209.99200,-8.199068353
209.99250,-8.809457169
209.99300,-5.757513092
209.99350,-2.705569015
209.99400,-1.179596976
209.99450,-1.179596976
209.99500,-0.264013753
209.99550,-0.5692081607
209.99600,-3.621152238
209.99650,-6.978290722
209.99700,-4.536735461
209.99750,3.398319139
209.99800,9.502207293
209.99850,6.145068809
209.99900,-2.095180199
209.99950,-7.893873946
210.00000,-8.199068353
210.00050,-6.673096315
210.00100,-4.231541053
210.00150,0.04118065471
210.00200,5.839874401
210.00250,8.58662407
210.00300,6.755457624
210.00350,3.093124732
210.00400,0.3463750624
210.00450,-1.789985791
210.00500,-4.536735461
210.00550,-5.452318684
210.00600,-3.31595783
210.00650,-0.5692081607
210.00700,0.04118065471
210.00750,0.04118065471
210.00800,0.6515694701
210.00850,2.482735916
210.00900,2.787930324
210.00950,1.567152693
210.01000,0.04118065471
210.01050,0.3463750624
210.01100,0.6515694701
210.01150,0.04118065471
210.01200,-0.5692081607
210.01250,0.9567638778
210.01300,4.313902363
210.01350,4.924291178
210.01400,1.872347101
210.01450,-1.484791384
210.01500,-1.484791384
210.01550,0.9567638778
210.01600,3.093124732
210.01650,3.398319139
210.01700,2.177541509
210.01750,0.04118065471
210.01800,-3.31595783
210.01850,-4.841929869
210.01900,-1.789985791
210.01950,3.093124732
210.02000,5.534679993
210.02050,5.229485586
210.02100,6.450263216
210.02150,9.197012886
210.02200,7.976235255
210.02250,1.567152693
210.02300,-2.705569015
210.02350,-0.8744025684
210.02400,3.398319139
210.02450,3.703513547
210.02500,0.04118065471
210.02550,-2.400374607
210.02600,-0.8744025684
210.02650,0.9567638778
210.02700,1.261958286
210.02750,1.261958286
210.02800,2.482735916
210.02850,3.093124732
210.02900,0.9567638778
210.02950,-2.095180199
210.03000,-3.926346645
210.03050,-3.926346645
210.03100,-2.705569015
210.03150,-0.8744025684
210.03200,0.9567638778
210.03250,0.9567638778
210.03300,-2.705569015
210.03350,-8.809457169
210.03400,-13.69256769
210.03450,-13.9977621
210.03500,-10.33542921
210.03550,-5.757513092
210.03600,-3.31595783
210.03650,-4.231541053
210.03700,-5.452318684
210.03750,-3.31595783
210.03800,1.872347101
210.03850,6.755457624
210.03900,7.060652032
210.03950,1.567152693
210.04000,-5.757513092
210.04050,-10.0302348
210.04100,-8.199068353
210.04150,-3.010763422
210.04200,0.04118065471
210.04250,-0.8744025684
210.04300,-0.8744025684
210.04350,3.703513547
210.04400,10.41779052
210.04450,11.94376256
210.04500,7.976235255
210.04550,4.008707955
210.04600,4.008707955
210.04650,4.924291178
210.04700,3.703513547
210.04750,1.567152693
210.04800,0.9567638778
210.04850,1.567152693
210.04900,1.261958286
210.04950,0.9567638778
210.05000,0.6515694701
210.05050,-0.264013753
210.05100,-2.705569015
210.05150,-4.536735461
210.05200,-4.536735461
210.05250,-2.705569015
210.05300,-0.5692081607
210.05350,0.9567638778
210.05400,2.482735916
210.05450,3.398319139
210.05500,3.093124732
210.05550,2.482735916
210.05600,1.872347101
210.05650,0.04118065471
210.05700,-3.010763422
210.05750,-6.367901907
210.05800,-7.588679538
210.05850,-7.588679538
210.05900,-7.588679538
210.05950,-4.841929869
210.06000,1.567152693
210.06050,9.807401701
210.06100,13.46973459
210.06150,9.807401701
210.06200,1.872347101
210.06250,-4.231541053
210.06300,-5.452318684
210.06350,-3.010763422
210.06400,0.04118065471
210.06450,1.567152693
210.06500,1.872347101
210.06550,2.177541509
210.06600,3.398319139
210.06650,4.924291178
210.06700,6.450263216
210.06750,7.060652032
210.06800,5.534679993
210.06850,0.04118065471
210.06900,-6.367901907
210.06950,-9.419845984
210.07000,-6.367901907
210.07050,-0.8744025684
210.07100,0.3463750624
210.07150,-2.400374607
210.07200,-5.452318684
210.07250,-5.147124276
210.07300,-3.621152238
210.07350,-3.31595783
210.07400,-4.231541053
210.07450,-3.621152238
210.07500,-1.484791384
210.07550,0.6515694701
210.07600,2.177541509
210.07650,3.093124732
210.07700,3.703513547
210.07750,4.008707955
210.07800,4.924291178
210.07850,5.839874401
210.07900,5.534679993
210.07950,4.008707955
210.08000,1.261958286
210.08050,-0.5692081607
210.08100,-1.484791384
210.08150,-1.789985791
210.08200,-2.400374607
210.08250,-2.095180199
210.08300,-1.789985791
210.08350,-1.484791384
210.08400,-1.484791384
210.08450,0.04118065471
210.08500,2.482735916
210.08550,3.703513547
210.08600,1.872347101
210.08650,0.04118065471
210.08700,0.9567638778
210.08750,4.61909677
210.08800,4.61909677
210.08850,0.3463750624
210.08900,-3.621152238
210.08950,-3.31595783
210.09000,-0.8744025684
210.09050,-0.5692081607
210.09100,-3.010763422
210.09150,-4.231541053
210.09200,-2.705569015
210.09250,-1.484791384
210.09300,-2.400374607
210.09350,-3.31595783
210.09400,-2.400374607
210.09450,-0.5692081607
210.09500,0.04118065471
210.09550,0.3463750624
210.09600,0.6515694701
210.09650,0.9567638778
210.09700,0.6515694701
210.09750,0.3463750624
210.09800,0.9567638778
210.09850,0.9567638778
210.09900,-0.264013753
210.09950,-1.789985791
210.10000,0.04118065471
210.10050,3.703513547
210.10100,5.534679993
210.10150,4.61909677
210.10200,4.008707955
210.10250,4.313902363
210.10300,2.482735916
210.10350,-1.789985791
210.10400,-4.841929869
210.10450,-3.926346645
210.10500,-2.400374607
210.10550,-3.010763422
210.10600,-4.536735461
210.10650,-2.400374607
210.10700,3.093124732
210.10750,8.58662407
210.10800,10.72298492
210.10850,9.502207293
210.10900,5.229485586
210.10950,-0.264013753
210.11000,-5.452318684
210.11050,-8.504262761
210.11100,-10.33542921
210.11150,-10.0302348
210.11200,-5.757513092
210.11250,0.9567638778
210.11300,5.534679993
210.11350,4.61909677
210.11400,1.261958286
210.11450,0.3463750624
210.11500,1.872347101
210.11550,2.787930324
210.11600,1.872347101
210.11650,1.261958286
210.11700,1.567152693
210.11750,1.261958286
210.11800,0.9567638778
210.11850,1.872347101
210.11900,2.787930324
210.11950,1.261958286
210.12000,-2.705569015
210.12050,-4.841929869
210.12100,-1.789985791
210.12150,4.008707955
210.12200,7.976235255
210.12250,5.839874401
210.12300,0.04118065471
210.12350,-3.010763422
210.12400,-0.264013753
210.12450,4.61909677
210.12500,6.450263216
210.12550,2.787930324
210.12600,-1.179596976
210.12650,-1.484791384
210.12700,1.872347101
210.12750,6.450263216
210.12800,7.671040847
210.12850,3.398319139
210.12900,-4.841929869
210.12950,-11.25101243
210.13000,-11.55620684
210.13050,-7.893873946
210.13100,-5.757513092
210.13150,-6.062707499
210.13200,-6.062707499
210.13250,-4.536735461
210.13300,-3.926346645
210.13350,-3.926346645
210.13400,-0.5692081607
210.13450,6.145068809
210.13500,10.41779052
210.13550,7.36584644
210.13600,0.04118065471
210.13650,-4.536735461
210.13700,-5.757513092
210.13750,-6.062707499
210.13800,-6.367901907
210.13850,-5.452318684
210.13900,-2.705569015
210.13950,0.04118065471
210.14000,2.787930324
210.14050,5.229485586
210.14100,6.450263216
210.14150,5.534679993
210.14200,4.313902363
210.14250,4.008707955
210.14300,3.398319139
210.14350,2.177541509
210.14400,1.261958286
210.14450,3.093124732
210.14500,4.924291178
210.14550,2.787930324
210.14600,-3.621152238
210.14650,-10.64062361
210.14700,-13.9977621
210.14750,-13.69256769
210.14800,-11.25101243
210.14850,-7.588679538
210.14900,-3.31595783
210.14950,-0.5692081607
210.15000,0.04118065471
210.15050,0.04118065471
210.15100,0.3463750624
210.15150,-0.264013753
210.15200,-2.400374607
210.15250,-3.010763422
210.15300,0.04118065471
210.15350,3.093124732
210.15400,2.787930324
210.15450,-1.484791384
210.15500,-5.757513092
210.15550,-5.757513092
210.15600,-2.095180199
210.15650,1.567152693
210.15700,3.703513547
210.15750,3.093124732
210.15800,0.9567638778
210.15850,-0.8744025684
210.15900,-1.179596976
210.15950,0.04118065471
210.16000,2.177541509
210.16050,3.398319139
210.16100,3.703513547
210.16150,2.482735916
210.16200,0.6515694701
210.16250,0.3463750624
210.16300,2.482735916
210.16350,4.924291178
210.16400,5.534679993
210.16450,4.008707955
210.16500,2.177541509
210.16550,0.9567638778
210.16600,0.04118065471
210.16650,-0.8744025684
210.16700,-0.5692081607
210.16750,1.567152693
210.16800,2.787930324
210.16850,0.9567638778
210.16900,-1.179596976
210.16950,-0.8744025684
210.17000,1.261958286
210.17050,1.872347101
210.17100,0.04118065471
210.17150,-1.484791384
210.17200,-1.484791384
210.17250,-1.179596976
210.17300,-1.789985791
210.17350,-2.705569015
210.17400,-1.484791384
210.17450,0.6515694701
210.17500,2.177541509
210.17550,1.872347101
210.17600,1.261958286
210.17650,0.9567638778
210.17700,1.261958286
210.17750,1.261958286
210.17800,0.9567638778
210.17850,0.04118065471
210.17900,0.04118065471
210.17950,1.567152693
210.18000,3.703513547
210.18050,4.008707955
210.18100,0.6515694701
210.18150,-4.231541053
210.18200,-7.588679538
210.18250,-7.588679538
210.18300,-5.147124276
210.18350,-3.31595783
210.18400,-2.400374607
210.18450,-1.789985791
210.18500,-0.5692081607
210.18550,1.872347101
210.18600,4.313902363
210.18650,5.229485586
210.18700,4.313902363
210.18750,2.787930324
210.18800,2.177541509
210.18850,3.093124732
210.18900,4.61909677
210.18950,5.229485586
210.19000,4.61909677
210.19050,3.093124732
210.19100,2.177541509
210.19150,0.3463750624
210.19200,-2.705569015
210.19250,-6.062707499
210.19300,-5.452318684
210.19350,0.04118065471
210.19400,5.534679993
210.19450,7.976235255
210.19500,8.58662407
210.19550,9.197012886
210.19600,8.58662407
210.19650,3.398319139
210.19700,-3.621152238
210.19750,-6.978290722
210.19800,-5.147124276
210.19850,-3.010763422
210.19900,-4.231541053
210.19950,-6.673096315
210.20000,-6.062707499
210.20050,-2.705569015
210.20100,0.6515694701
210.20150,4.313902363
210.20200,7.36584644
210.20250,6.755457624
210.20300,2.177541509
210.20350,-2.400374607
210.20400,-3.31595783
210.20450,-1.484791384
210.20500,-0.8744025684
210.20550,-0.5692081607
210.20600,1.872347101
210.20650,6.145068809
210.20700,7.36584644
210.20750,5.229485586
210.20800,2.787930324
210.20850,0.6515694701
210.20900,-2.095180199
210.20950,-6.673096315
210.21000,-8.199068353
210.21050,-5.757513092
210.21100,-3.31595783
210.21150,-4.231541053
210.21200,-6.367901907
210.21250,-6.673096315
210.21300,-4.841929869
210.21350,-2.400374607
210.21400,0.04118065471
210.21450,2.482735916
210.21500,4.313902363
210.21550,4.61909677
210.21600,4.924291178
210.21650,5.839874401
210.21700,6.450263216
210.21750,4.924291178
210.21800,1.872347101
210.21850,-0.8744025684
210.21900,-1.789985791
210.21950,-0.5692081607
210.22000,0.6515694701
210.22050,0.04118065471
210.22100,-3.621152238
210.22150,-6.367901907
210.22200,-4.536735461
210.22250,-0.264013753
210.22300,1.872347101
210.22350,0.6515694701
210.22400,-0.8744025684
210.22450,-0.5692081607
210.22500,0.3463750624
210.22550,0.04118065471
210.22600,-1.789985791
210.22650,-5.147124276
210.22700,-8.199068353
210.22750,-8.504262761
210.22800,-5.757513092
210.22850,-3.926346645
210.22900,-5.757513092
210.22950,-7.893873946
210.23000,-4.231541053
210.23050,4.61909677
210.23100,11.63856815
210.23150,11.02817933
210.23200,5.839874401
210.23250,0.9567638778
210.23300,-0.8744025684
210.23350,-1.789985791
210.23400,-1.179596976
210.23450,0.6515694701
210.23500,2.482735916
210.23550,2.177541509
210.23600,1.872347101
210.23650,2.177541509
210.23700,1.872347101
210.23750,0.04118065471
210.23800,-1.484791384
210.23850,-0.5692081607
210.23900,0.9567638778
210.23950,1.261958286
210.24000,0.9567638778
210.24050,1.261958286
210.24100,2.482735916
210.24150,2.482735916
210.24200,2.177541509
210.24250,2.787930324
210.24300,2.787930324
210.24350,0.9567638778
210.24400,-2.095180199
210.24450,-3.621152238
210.24500,-3.010763422
210.24550,-2.095180199
210.24600,-1.789985791
210.24650,-1.179596976
210.24700,0.04118065471
210.24750,0.9567638778
210.24800,0.6515694701
210.24850,0.04118065471
210.24900,0.3463750624
210.24950,1.872347101
210.25000,3.093124732
210.25050,2.482735916
210.25100,0.6515694701
210.25150,-0.8744025684
210.25200,-1.484791384
210.25250,-1.789985791
210.25300,-2.400374607
210.25350,-2.400374607
210.25400,-2.095180199
210.25450,-2.095180199
210.25500,-2.400374607
210.25550,-2.400374607
210.25600,-1.484791384
210.25650,-0.264013753
210.25700,-0.5692081607
210.25750,-1.789985791
210.25800,-2.705569015
210.25850,-2.400374607
210.25900,-1.789985791
210.25950,-0.8744025684
210.26000,0.6515694701
210.26050,3.093124732
210.26100,3.703513547
210.26150,2.482735916
210.26200,2.482735916
210.26250,5.229485586
210.26300,7.36584644
210.26350,5.839874401
210.26400,1.872347101
210.26450,-0.5692081607
210.26500,-0.8744025684
210.26550,-0.264013753
210.26600,-0.264013753
210.26650,0.04118065471
210.26700,0.6515694701
210.26750,0.6515694701
210.26800,-0.5692081607
210.26850,-2.400374607
210.26900,-2.705569015
210.26950,-1.484791384
210.27000,-0.8744025684
210.27050,-0.5692081607
210.27100,-0.5692081607
210.27150,-0.5692081607
210.27200,-0.8744025684
210.27250,0.6515694701
210.27300,4.008707955
210.27350,5.839874401
210.27400,3.093124732
210.27450,-0.8744025684
210.27500,-1.484791384
210.27550,1.567152693
210.27600,3.093124732
210.27650,0.3463750624
210.27700,-2.400374607
210.27750,-1.179596976
210.27800,1.567152693
210.27850,2.177541509
210.27900,-1.179596976
210.27950,-4.841929869
210.28000,-4.536735461
210.28050,-0.8744025684
210.28100,2.177541509
210.28150,0.04118065471
210.28200,-7.28348513
210.28250,-14.30295651
210.28300,-14.60815091
210.28350,-7.893873946
210.28400,-0.8744025684
210.28450,1.261958286
210.28500,0.6515694701
210.28550,1.261958286
210.28600,3.703513547
210.28650,4.313902363
210.28700,2.177541509
210.28750,0.04118065471
210.28800,0.3463750624
210.28850,1.567152693
210.28900,0.9567638778
210.28950,-1.789985791
210.29000,-4.231541053
210.29050,-4.536735461
210.29100,-3.926346645
210.29150,-4.231541053
210.29200,-3.621152238
210.29250,-0.5692081607
210.29300,3.703513547
210.29350,5.839874401
210.29400,4.008707955
210.29450,1.567152693
210.29500,1.872347101
210.29550,4.61909677
210.29600,6.755457624
210.29650,6.755457624
210.29700,5.839874401
210.29750,4.61909677
210.29800,4.313902363
210.29850,5.229485586
210.29900,6.450263216
210.29950,6.145068809
210.30000,3.703513547
210.30050,1.567152693
210.30100,1.567152693
210.30150,3.398319139
210.30200,4.61909677
210.30250,3.398319139
210.30300,1.261958286
210.30350,0.04118065471
210.30400,0.04118065471
210.30450,0.3463750624
210.30500,0.3463750624
210.30550,0.04118065471
210.30600,-0.5692081607
210.30650,-0.5692081607
210.30700,-0.264013753
210.30750,0.04118065471
210.30800,0.04118065471
210.30850,0.3463750624
210.30900,0.9567638778
210.30950,1.567152693
210.31000,1.567152693
210.31050,1.261958286
210.31100,0.9567638778
210.31150,1.261958286
210.31200,1.872347101
210.31250,1.567152693
210.31300,1.261958286
210.31350,2.177541509
210.31400,4.61909677
210.31450,5.839874401
210.31500,5.534679993
210.31550,4.924291178
210.31600,6.755457624
210.31650,10.41779052
210.31700,11.63856815
210.31750,7.060652032
210.31800,-2.400374607
210.31850,-13.08217888
210.31900,-19.49126144
210.31950,-19.49126144
210.32000,-14.30295651
210.32050,-8.199068353
210.32100,-5.147124276
210.32150,-5.452318684
210.32200,-7.588679538
210.32250,-8.809457169
210.32300,-9.114651576
210.32350,-8.504262761
210.32400,-7.28348513
210.32450,-5.757513092
210.32500,-3.010763422
210.32550,0.04118065471
210.32600,2.787930324
210.32650,3.703513547
210.32700,2.482735916
210.32750,1.261958286
210.32800,0.9567638778
210.32850,1.261958286
210.32900,0.3463750624
210.32950,-0.8744025684
210.33000,-2.705569015
210.33050,-4.841929869
210.33100,-7.28348513
210.33150,-7.28348513
210.33200,-4.231541053
210.33250,-1.179596976
210.33300,-0.8744025684
210.33350,-2.400374607
210.33400,-2.705569015
210.33450,-1.179596976
210.33500,-0.5692081607
210.33550,0.04118065471
210.33600,2.482735916
210.33650,7.671040847
210.33700,10.41779052
210.33750,8.891818478
210.33800,4.924291178
210.33850,2.787930324
210.33900,3.398319139
210.33950,4.008707955
210.34000,3.398319139
210.34050,1.261958286
210.34100,0.04118065471
210.34150,0.3463750624
210.34200,1.872347101
210.34250,2.482735916
210.34300,1.567152693
210.34350,0.6515694701
210.34400,0.6515694701
210.34450,0.04118065471
210.34500,-2.095180199
210.34550,-3.621152238
210.34600,-2.705569015
210.34650,0.04118065471
210.34700,2.787930324
210.34750,3.703513547
210.34800,2.787930324
210.34850,0.9567638778
210.34900,0.04118065471
210.34950,1.261958286
210.35000,3.093124732
210.35050,2.482735916
210.35100,-0.8744025684
210.35150,-4.231541053
210.35200,-4.841929869
210.35250,-2.705569015
210.35300,-1.179596976
210.35350,-0.264013753
210.35400,0.04118065471
210.35450,0.04118065471
210.35500,0.3463750624
210.35550,1.261958286
210.35600,2.482735916
210.35650,2.787930324
210.35700,1.567152693
210.35750,0.9567638778
210.35800,1.567152693
210.35850,1.567152693
210.35900,0.3463750624
210.35950,-0.264013753
210.36000,0.3463750624
210.36050,1.567152693
210.36100,0.9567638778
210.36150,-1.179596976
210.36200,-2.705569015
210.36250,-1.484791384
210.36300,1.567152693
210.36350,5.839874401
210.36400,9.807401701
210.36450,11.33337374
210.36500,8.58662407
210.36550,2.787930324
210.36600,-4.536735461
210.36650,-10.94581802
210.36700,-14.30295651
210.36750,-13.9977621
210.36800,-13.08217888
210.36850,-11.55620684
210.36900,-7.588679538
210.36950,0.6515694701
210.37000,9.197012886
210.37050,10.11259611
210.37100,3.703513547
210.37150,-3.31595783
210.37200,-5.757513092
210.37250,-3.926346645
210.37300,-1.789985791
210.37350,-0.264013753
210.37400,0.04118065471
210.37450,-3.621152238
210.37500,-11.55620684
210.37550,-15.52373414
210.37600,-8.809457169
210.37650,4.61909677
210.37700,14.69051222
210.37750,15.30090104
210.37800,11.33337374
210.37850,8.891818478
210.37900,7.976235255
210.37950,7.36584644
210.38000,7.976235255
210.38050,10.11259611
210.38100,9.197012886
210.38150,1.872347101
210.38200,-8.504262761
210.38250,-14.91334532
210.38300,-13.69256769
210.38350,-8.199068353
210.38400,-3.621152238
210.38450,-1.484791384
210.38500,0.04118065471
210.38550,1.567152693
210.38600,3.093124732
210.38650,4.313902363
210.38700,4.924291178
210.38750,4.924291178
210.38800,3.703513547
210.38850,1.567152693
210.38900,-0.5692081607
210.38950,-2.400374607
210.39000,-2.705569015
210.39050,-1.179596976
210.39100,0.6515694701
210.39150,1.261958286
210.39200,0.04118065471
210.39250,-2.400374607
210.39300,-3.31595783
210.39350,-2.400374607
210.39400,-0.5692081607
210.39450,0.04118065471
210.39500,0.04118065471
210.39550,-0.8744025684
210.39600,-0.8744025684
210.39650,0.04118065471
210.39700,0.3463750624
210.39750,0.04118065471
210.39800,-0.5692081607
210.39850,0.04118065471
210.39900,2.177541509
210.39950,2.787930324
210.40000,0.9567638778
210.40050,-0.5692081607
210.40100,-0.5692081607
210.40150,0.04118065471
210.40200,0.04118065471
210.40250,-0.264013753
210.40300,0.04118065471
210.40350,0.04118065471
210.40400,0.04118065471
210.40450,-0.264013753
210.40500,-1.179596976
210.40550,-2.095180199
210.40600,-3.010763422
210.40650,-2.400374607
210.40700,-0.8744025684
210.40750,0.04118065471
210.40800,-0.264013753
210.40850,-1.179596976
210.40900,-1.484791384
210.40950,-2.095180199
210.41000,-3.010763422
210.41050,-2.095180199
210.41100,2.177541509
210.41150,9.197012886
210.41200,14.38531782
210.41250,14.69051222
210.41300,10.11259611
210.41350,3.703513547
210.41400,-1.179596976
210.41450,-3.926346645
210.41500,-4.841929869
210.41550,-6.367901907
210.41600,-9.114651576
210.41650,-11.25101243
210.41700,-11.25101243
210.41750,-10.33542921
210.41800,-9.419845984
210.41850,-7.893873946
210.41900,-2.400374607
210.41950,6.450263216
210.42000,14.38531782
210.42050,15.91128986
210.42100,11.94376256
210.42150,7.36584644
210.42200,4.924291178
210.42250,3.093124732
210.42300,0.6515694701
210.42350,-0.264013753
210.42400,1.261958286
210.42450,3.703513547
210.42500,2.482735916
210.42550,-1.789985791
210.42600,-5.452318684
210.42650,-6.062707499
210.42700,-5.147124276
210.42750,-4.231541053
210.42800,-2.095180199
210.42850,1.567152693
210.42900,4.924291178
210.42950,4.61909677
210.43000,2.177541509
210.43050,-0.264013753
210.43100,-3.010763422
210.43150,-6.062707499
210.43200,-8.504262761
210.43250,-6.978290722
210.43300,-3.010763422
210.43350,0.04118065471
210.43400,1.261958286
210.43450,0.9567638778
210.43500,0.6515694701
210.43550,0.04118065471
210.43600,-1.789985791
210.43650,-2.095180199
210.43700,-1.179596976
210.43750,-1.179596976
210.43800,-4.231541053
210.43850,-7.28348513
210.43900,-8.504262761
210.43950,-8.504262761
210.44000,-8.504262761
210.44050,-7.28348513
210.44100,-3.926346645
210.44150,-0.8744025684
210.44200,-1.484791384
210.44250,-3.31595783
210.44300,-1.179596976
210.44350,6.145068809
210.44400,13.16454019
210.44450,14.99570663
210.44500,11.94376256
210.44550,9.197012886
210.44600,8.58662407
210.44650,7.976235255
210.44700,6.450263216
210.44750,4.61909677
210.44800,4.61909677
210.44850,5.229485586
210.44900,4.61909677
210.44950,1.261958286
210.45000,-3.010763422
210.45050,-5.757513092
210.45100,-5.452318684
210.45150,-3.31595783
210.45200,-2.400374607
210.45250,-3.010763422
210.45300,-3.621152238
210.45350,-3.621152238
210.45400,-3.926346645
210.45450,-3.926346645
210.45500,-1.484791384
210.45550,1.261958286
210.45600,1.872347101
210.45650,0.04118065471
210.45700,-2.400374607
210.45750,-3.31595783
210.45800,-2.400374607
210.45850,-1.789985791
210.45900,-1.484791384
210.45950,-1.179596976
210.46000,-0.8744025684
210.46050,0.04118065471
210.46100,1.567152693
210.46150,3.398319139
210.46200,3.093124732
210.46250,0.9567638778
210.46300,-0.5692081607
210.46350,-0.8744025684
210.46400,0.04118065471
210.46450,2.177541509
210.46500,6.755457624
210.46550,11.63856815
210.46600,13.774929
210.46650,11.33337374
210.46700,5.534679993
210.46750,-0.264013753
210.46800,-3.621152238
210.46850,-3.621152238
210.46900,-2.095180199
210.46950,-2.400374607
210.47000,-5.147124276
210.47050,-6.062707499
210.47100,-1.789985791
210.47150,5.534679993
210.47200,11.02817933
210.47250,11.02817933
210.47300,7.36584644
210.47350,3.398319139
210.47400,0.3463750624
210.47450,-1.179596976
210.47500,-0.8744025684
210.47550,-0.264013753
210.47600,-0.264013753
210.47650,-0.264013753
210.47700,0.3463750624
210.47750,1.261958286
210.47800,0.04118065471
210.47850,-2.705569015
210.47900,-4.536735461
210.47950,-3.31595783
210.48000,-0.8744025684
210.48050,0.6515694701
210.48100,2.177541509
210.48150,3.398319139
210.48200,3.093124732
210.48250,1.872347101
210.48300,1.261958286
210.48350,2.482735916
210.48400,3.703513547
210.48450,3.398319139
210.48500,1.261958286
210.48550,-0.8744025684
210.48600,-3.010763422
210.48650,-3.31595783
210.48700,-1.484791384
210.48750,0.3463750624
210.48800,1.261958286
210.48850,0.3463750624
210.48900,0.04118065471
210.48950,0.04118065471
210.49000,-1.484791384
210.49050,-4.536735461
210.49100,-6.673096315
210.49150,-6.367901907
210.49200,-4.841929869
210.49250,-3.31595783
210.49300,-1.484791384
210.49350,1.567152693
210.49400,3.093124732
210.49450,0.9567638778
210.49500,-2.400374607
210.49550,-3.621152238
210.49600,-0.5692081607
210.49650,1.567152693
210.49700,0.3463750624
210.49750,-1.484791384
210.49800,-1.179596976
210.49850,1.261958286
210.49900,2.482735916
210.49950,0.6515694701
210.50000,-1.179596976
210.50050,-1.179596976
210.50100,0.04118065471
210.50150,0.04118065471
210.50200,-2.095180199
210.50250,-3.926346645
210.50300,-2.095180199
210.50350,3.398319139
210.50400,10.11259611
210.50450,13.16454019
210.50500,11.33337374
210.50550,7.060652032
210.50600,2.177541509
210.50650,-2.705569015
210.50700,-7.588679538
210.50750,-10.33542921
210.50800,-9.419845984
210.50850,-6.367901907
210.50900,-4.536735461
210.50950,-5.147124276
210.51000,-7.28348513
210.51050,-8.809457169
210.51100,-8.504262761
210.51150,-6.978290722
210.51200,-6.367901907
210.51250,-7.893873946
210.51300,-10.94581802
210.51350,-12.16659565
210.51400,-10.33542921
210.51450,-6.673096315
210.51500,-3.31595783
210.51550,0.3463750624
210.51600,5.839874401
210.51650,9.502207293
210.51700,7.671040847
210.51750,1.872347101
210.51800,-2.095180199
210.51850,-2.705569015
210.51900,-0.5692081607
210.51950,0.9567638778
210.52000,1.872347101
210.52050,2.787930324
210.52100,3.398319139
210.52150,3.703513547
210.52200,4.61909677
210.52250,5.229485586
210.52300,5.229485586
210.52350,4.008707955
210.52400,2.177541509
210.52450,0.3463750624
210.52500,0.04118065471
210.52550,0.3463750624
210.52600,1.261958286
210.52650,0.9567638778
210.52700,-0.264013753
210.52750,-0.5692081607
210.52800,0.9567638778
210.52850,2.787930324
210.52900,2.787930324
210.52950,0.9567638778
210.53000,0.04118065471
210.53050,-0.264013753
210.53100,-0.8744025684
210.53150,-0.8744025684
210.53200,0.04118065471
210.53250,1.872347101
210.53300,2.177541509
210.53350,0.6515694701
210.53400,-0.5692081607
210.53450,-0.5692081607
210.53500,0.04118065471
210.53550,0.3463750624
210.53600,0.04118065471
210.53650,-0.264013753
210.53700,-0.5692081607
210.53750,-0.5692081607
210.53800,0.04118065471
210.53850,0.9567638778
210.53900,2.177541509
210.53950,3.398319139
210.54000,3.093124732
210.54050,1.261958286
210.54100,0.6515694701
210.54150,3.093124732
210.54200,6.450263216
210.54250,6.755457624
210.54300,3.703513547
210.54350,0.9567638778
210.54400,0.04118065471
210.54450,0.04118065471
210.54500,-0.5692081607
210.54550,-1.484791384
210.54600,-1.789985791
210.54650,-2.400374607
210.54700,-3.31595783
210.54750,-2.400374607
210.54800,0.04118065471
210.54850,1.261958286
210.54900,0.04118065471
210.54950,-2.400374607
210.55000,-0.8744025684
210.55050,3.398319139
210.55100,5.839874401
210.55150,4.313902363
210.55200,1.567152693
210.55250,0.04118065471
210.55300,-2.400374607
210.55350,-7.588679538
210.55400,-13.08217888
210.55450,-14.60815091
210.55500,-12.47179006
210.55550,-9.725040392
210.55600,-8.504262761
210.55650,-8.199068353
210.55700,-9.114651576
210.55750,-10.64062361
210.55800,-9.725040392
210.55850,-2.705569015
210.55900,7.36584644
210.55950,13.16454019
210.56000,11.02817933
210.56050,6.450263216
210.56100,4.313902363
210.56150,4.313902363
210.56200,4.313902363
210.56250,5.229485586
210.56300,8.891818478
210.56350,12.85934578
210.56400,13.774929
210.56450,11.63856815
210.56500,7.671040847
210.56550,3.398319139
210.56600,0.04118065471
210.56650,-0.5692081607
210.56700,2.482735916
210.56750,5.534679993
210.56800,4.924291178
210.56850,2.177541509
210.56900,1.261958286
210.56950,2.482735916
210.57000,2.177541509
210.57050,0.04118065471
210.57100,-1.484791384
210.57150,-1.789985791
210.57200,-2.095180199
210.57250,-2.705569015
210.57300,-2.095180199
210.57350,-0.8744025684
210.57400,-0.264013753
210.57450,-0.5692081607
210.57500,-0.264013753
210.57550,0.3463750624
210.57600,0.6515694701
210.57650,0.04118065471
210.57700,0.3463750624
210.57750,1.261958286
210.57800,1.567152693
210.57850,0.6515694701
210.57900,0.04118065471
210.57950,0.04118065471
210.58000,-0.5692081607
210.58050,-3.010763422
210.58100,-4.841929869
210.58150,-5.147124276
210.58200,-5.452318684
210.58250,-6.978290722
210.58300,-8.809457169
210.58350,-9.114651576
210.58400,-7.28348513
210.58450,-3.926346645
210.58500,-0.264013753
210.58550,2.177541509
210.58600,2.482735916
210.58650,0.04118065471
210.58700,-1.484791384
210.58750,-0.264013753
210.58800,1.872347101
210.58850,1.567152693
210.58900,-0.8744025684
210.58950,-2.705569015
210.59000,-0.8744025684
210.59050,2.482735916
210.59100,5.839874401
210.59150,6.145068809
210.59200,3.398319139
210.59250,0.04118065471
210.59300,-1.179596976
210.59350,1.872347101
210.59400,4.924291178
210.59450,3.703513547
210.59500,0.3463750624
210.59550,0.3463750624
210.59600,4.008707955
210.59650,4.008707955
210.59700,-1.789985791
210.59750,-7.28348513
210.59800,-6.062707499
210.59850,-0.264013753
210.59900,2.177541509
210.59950,1.872347101
210.60000,2.177541509
210.60050,4.008707955
210.60100,4.61909677
210.60150,3.398319139
210.60200,2.482735916
210.60250,3.398319139
210.60300,3.703513547
210.60350,1.872347101
210.60400,-0.5692081607
210.60450,-3.010763422
210.60500,-4.231541053
210.60550,-3.621152238
210.60600,-0.5692081607
210.60650,2.177541509
210.60700,1.872347101
210.60750,-1.484791384
210.60800,-3.621152238
210.60850,-2.400374607
210.60900,0.3463750624
210.60950,1.872347101
210.61000,0.6515694701
210.61050,-1.484791384
210.61100,-3.010763422
210.61150,-3.621152238
210.61200,-3.621152238
210.61250,-2.705569015
210.61300,-1.789985791
210.61350,-1.179596976
210.61400,-0.5692081607
210.61450,-0.5692081607
210.61500,-1.179596976
210.61550,-1.789985791
210.61600,-1.179596976
210.61650,0.04118065471
210.61700,1.567152693
210.61750,1.872347101
210.61800,1.872347101
210.61850,1.261958286
210.61900,0.04118065471
210.61950,-1.179596976
210.62000,-0.8744025684
210.62050,0.3463750624
210.62100,1.872347101
210.62150,2.482735916
210.62200,2.482735916
210.62250,2.177541509
210.62300,1.261958286
210.62350,0.04118065471
210.62400,0.3463750624
210.62450,2.177541509
210.62500,4.008707955
210.62550,3.703513547
210.62600,1.872347101
210.62650,0.04118065471
210.62700,-1.179596976
210.62750,-1.789985791
210.62800,-2.095180199
210.62850,-3.010763422
210.62900,-3.926346645
210.62950,-3.926346645
210.63000,-2.095180199
210.63050,0.04118065471
210.63100,0.3463750624
210.63150,0.04118065471
210.63200,0.04118065471
210.63250,1.567152693
210.63300,3.093124732
210.63350,3.093124732
210.63400,1.872347101
210.63450,-0.264013753
210.63500,-2.400374607
210.63550,-3.31595783
210.63600,-2.400374607
210.63650,0.04118065471
210.63700,1.261958286
210.63750,1.567152693
210.63800,1.567152693
210.63850,2.482735916
210.63900,4.924291178
210.63950,8.281429663
210.64000,11.02817933
210.64050,11.33337374
210.64100,7.671040847
210.64150,0.6515694701
210.64200,-6.062707499
210.64250,-11.25101243
210.64300,-15.52373414
210.64350,-18.88087262
210.64400,-18.57567822
210.64450,-12.77698447
210.64500,-3.926346645
210.64550,2.482735916
210.64600,5.839874401
210.64650,6.450263216
210.64700,4.61909677
210.64750,0.9567638778
210.64800,-2.095180199
210.64850,-1.179596976
210.64900,3.398319139
210.64950,8.891818478
210.65000,9.807401701
210.65050,6.145068809
210.65100,1.872347101
210.65150,0.6515694701
210.65200,2.177541509
210.65250,4.313902363
210.65300,4.61909677
210.65350,3.703513547
210.65400,2.787930324
210.65450,0.3463750624
210.65500,-3.31595783
210.65550,-5.757513092
210.65600,-3.926346645
210.65650,-0.264013753
210.65700,0.6515694701
210.65750,0.04118065471
210.65800,0.04118065471
210.65850,1.567152693
210.65900,1.261958286
210.65950,0.04118065471
210.66000,0.04118065471
210.66050,1.261958286
210.66100,-1.484791384
210.66150,-7.893873946
210.66200,-10.64062361
210.66250,-5.452318684
210.66300,0.6515694701
210.66350,1.261958286
210.66400,-1.484791384
210.66450,-1.484791384
210.66500,0.6515694701
210.66550,0.04118065471
210.66600,-1.484791384
210.66650,0.04118065471
210.66700,5.229485586
210.66750,7.060652032
210.66800,4.61909677
210.66850,2.177541509
210.66900,2.177541509
210.66950,0.9567638778
210.67000,-2.095180199
210.67050,-4.231541053
210.67100,-2.705569015
210.67150,-0.8744025684
210.67200,-1.484791384
210.67250,-2.400374607
210.67300,-0.8744025684
210.67350,0.6515694701
210.67400,0.04118065471
210.67450,-0.5692081607
210.67500,0.3463750624
210.67550,2.482735916
210.67600,3.093124732
210.67650,3.093124732
210.67700,2.482735916
210.67750,0.3463750624
210.67800,-4.231541053
210.67850,-7.588679538
210.67900,-7.893873946
210.67950,-7.893873946
210.68000,-10.64062361
210.68050,-13.38737328
210.68100,-12.47179006
210.68150,-8.809457169
210.68200,-6.367901907
210.68250,-3.31595783
210.68300,3.093124732
210.68350,10.72298492
210.68400,14.38531782
210.68450,13.46973459
210.68500,12.55415137
210.68550,13.46973459
210.68600,12.85934578
210.68650,8.58662407
210.68700,3.398319139
210.68750,0.9567638778
210.68800,0.6515694701
210.68850,0.04118065471
210.68900,-0.8744025684
210.68950,-2.095180199
210.69000,-3.926346645
210.69050,-5.452318684
210.69100,-5.452318684
210.69150,-3.31595783
210.69200,-1.179596976
210.69250,-0.8744025684
210.69300,-2.095180199
210.69350,-3.010763422
210.69400,-3.010763422
210.69450,-3.010763422
210.69500,-3.31595783
210.69550,-2.400374607
210.69600,0.9567638778
210.69650,5.534679993
210.69700,7.060652032
210.69750,2.787930324
210.69800,-3.621152238
210.69850,-7.28348513
210.69900,-6.062707499
210.69950,-3.010763422
210.70000,-0.8744025684
210.70050,0.3463750624
210.70100,1.872347101
210.70150,1.872347101
210.70200,0.3463750624
210.70250,0.04118065471
210.70300,2.482735916
210.70350,4.61909677
210.70400,3.703513547
210.70450,0.3463750624
210.70500,-1.789985791
210.70550,-2.400374607
210.70600,-2.400374607
210.70650,-1.484791384
210.70700,0.3463750624
210.70750,2.177541509
210.70800,0.04118065471
210.70850,-3.31595783
210.70900,-3.621152238
210.70950,-0.5692081607
210.71000,0.6515694701
210.71050,-0.264013753
210.71100,-1.179596976
210.71150,0.04118065471
210.71200,0.6515694701
210.71250,0.04118065471
210.71300,-0.264013753
210.71350,1.567152693
210.71400,4.008707955
210.71450,4.313902363
210.71500,4.008707955
210.71550,4.008707955
210.71600,3.093124732
210.71650,0.04118065471
210.71700,-2.095180199
210.71750,-2.095180199
210.71800,-1.484791384
210.71850,-2.095180199
210.71900,-2.705569015
210.71950,-2.705569015
210.72000,-5.757513092
210.72050,-11.86140125
210.72100,-13.9977621
210.72150,-7.28348513
210.72200,2.482735916
210.72250,7.060652032
210.72300,7.060652032
210.72350,8.58662407
210.72400,13.46973459
210.72450,15.60609545
210.72500,10.41779052
210.72550,2.482735916
210.72600,-2.705569015
210.72650,-3.926346645
210.72700,-1.789985791
210.72750,0.04118065471
210.72800,-0.5692081607
210.72850,-3.926346645
210.72900,-6.673096315
210.72950,-5.757513092
210.73000,-1.789985791
210.73050,0.6515694701
210.73100,0.04118065471
210.73150,-1.789985791
210.73200,-3.010763422
210.73250,-3.31595783
210.73300,-3.926346645
210.73350,-4.841929869
210.73400,-3.926346645
210.73450,0.6515694701
210.73500,7.976235255
210.73550,13.774929
210.73600,13.774929
210.73650,8.891818478
210.73700,4.313902363
210.73750,2.482735916
210.73800,1.872347101
210.73850,0.04118065471
210.73900,-0.8744025684
210.73950,-0.8744025684
210.74000,-0.264013753
210.74050,-0.5692081607
210.74100,-0.5692081607
210.74150,0.9567638778
210.74200,3.703513547
210.74250,4.924291178
210.74300,4.313902363
210.74350,3.093124732
210.74400,2.787930324
210.74450,2.177541509
210.74500,1.567152693
210.74550,0.9567638778
210.74600,1.261958286
210.74650,1.261958286
210.74700,0.3463750624
210.74750,-1.484791384
210.74800,-4.231541053
210.74850,-6.062707499
210.74900,-6.367901907
210.74950,-5.452318684
210.75000,-4.231541053
210.75050,-3.010763422
210.75100,-1.789985791
210.75150,-1.179596976
210.75200,-0.8744025684
210.75250,-0.264013753
210.75300,0.04118065471
210.75350,-0.5692081607
210.75400,-2.400374607
210.75450,-4.536735461
210.75500,-4.841929869
210.75550,-3.621152238
210.75600,-2.400374607
210.75650,-1.789985791
210.75700,-2.400374607
210.75750,-2.705569015
210.75800,-2.095180199
210.75850,0.04118065471
210.75900,1.567152693
210.75950,1.261958286
210.76000,-0.264013753
210.76050,-0.8744025684
210.76100,0.3463750624
210.76150,1.261958286
210.76200,-0.264013753
210.76250,-1.484791384
210.76300,0.04118065471
210.76350,1.872347101
210.76400,1.261958286
210.76450,-0.5692081607
210.76500,0.04118065471
210.76550,3.093124732
210.76600,3.703513547
210.76650,0.9567638778
210.76700,-0.8744025684
210.76750,-0.5692081607
210.76800,0.3463750624
210.76850,0.04118065471
210.76900,-1.484791384
210.76950,-2.705569015
210.77000,-3.010763422
210.77050,-2.400374607
210.77100,-2.095180199
210.77150,-1.789985791
210.77200,-0.8744025684
210.77250,0.6515694701
210.77300,2.787930324
210.77350,3.093124732
210.77400,1.261958286
210.77450,-1.179596976
210.77500,-2.705569015
210.77550,-3.010763422
210.77600,-3.31595783
210.77650,-3.31595783
210.77700,-2.400374607
210.77750,-0.264013753
210.77800,2.177541509
210.77850,4.008707955
210.77900,3.703513547
210.77950,2.177541509
210.78000,1.261958286
210.78050,1.872347101
210.78100,2.177541509
210.78150,0.6515694701
210.78200,-1.484791384
210.78250,-2.095180199
210.78300,-2.705569015
210.78350,-5.757513092
210.78400,-10.0302348
210.78450,-10.33542921
210.78500,-4.536735461
210.78550,2.482735916
210.78600,4.924291178
210.78650,3.398319139
210.78700,3.093124732
210.78750,6.145068809
210.78800,9.807401701
210.78850,10.11259611
210.78900,6.450263216
210.78950,2.482735916
210.79000,0.9567638778
210.79050,1.261958286
210.79100,1.872347101
210.79150,3.093124732
210.79200,4.61909677
210.79250,5.534679993
210.79300,3.703513547
210.79350,0.3463750624
210.79400,-0.8744025684
210.79450,-0.5692081607
210.79500,-0.5692081607
210.79550,-1.484791384
210.79600,-0.8744025684
210.79650,0.6515694701
210.79700,1.261958286
210.79750,-0.8744025684
210.79800,-3.621152238
210.79850,-3.31595783
210.79900,-0.5692081607
210.79950,3.398319139
210.80000,7.671040847
210.80050,10.11259611
210.80100,8.891818478
210.80150,6.450263216
210.80200,7.671040847
210.80250,10.11259611
210.80300,6.755457624
210.80350,-2.705569015
210.80400,-10.33542921
210.80450,-9.114651576
210.80500,-5.452318684
210.80550,-6.673096315
210.80600,-11.55620684
210.80650,-12.77698447
210.80700,-8.504262761
210.80750,-4.841929869
210.80800,-4.231541053
210.80850,-4.841929869
210.80900,-4.841929869
210.80950,-4.231541053
210.81000,-4.231541053
210.81050,-3.31595783
210.81100,-2.095180199
210.81150,-1.484791384
210.81200,-1.484791384
210.81250,0.04118065471
210.81300,1.872347101
210.81350,3.093124732
210.81400,2.787930324
210.81450,2.177541509
210.81500,1.872347101
210.81550,0.9567638778
210.81600,0.04118065471
210.81650,-0.5692081607
210.81700,0.04118065471
210.81750,0.04118065471
210.81800,-1.484791384
210.81850,-2.400374607
210.81900,-0.5692081607
210.81950,4.008707955
210.82000,8.281429663
210.82050,9.807401701
210.82100,7.671040847
210.82150,5.534679993
210.82200,5.229485586
210.82250,6.450263216
210.82300,5.839874401
210.82350,2.482735916
210.82400,-0.8744025684
210.82450,-2.705569015
210.82500,-2.095180199
210.82550,-0.5692081607
210.82600,0.6515694701
210.82650,1.567152693
210.82700,0.9567638778
210.82750,0.04118065471
210.82800,0.3463750624
210.82850,1.261958286
210.82900,0.9567638778
210.82950,-0.8744025684
210.83000,-3.010763422
210.83050,-3.31595783
210.83100,-2.705569015
210.83150,-2.095180199
210.83200,-1.179596976
210.83250,0.3463750624
210.83300,1.261958286
210.83350,1.567152693
210.83400,2.787930324
210.83450,5.839874401
210.83500,7.671040847
210.83550,5.229485586
210.83600,0.04118065471
210.83650,-3.926346645
210.83700,-6.367901907
210.83750,-9.419845984
210.83800,-10.94581802
210.83850,-8.199068353
210.83900,-2.095180199
210.83950,1.872347101
210.84000,2.787930324
210.84050,3.703513547
210.84100,6.450263216
210.84150,8.58662407
210.84200,6.755457624
210.84250,3.093124732
210.84300,2.177541509
210.84350,3.398319139
210.84400,3.093124732
210.84450,0.3463750624
210.84500,-0.5692081607
210.84550,0.04118065471
210.84600,0.3463750624
210.84650,-0.5692081607
210.84700,-1.484791384
210.84750,-0.264013753
210.84800,0.6515694701
210.84850,0.04118065471
210.84900,-2.400374607
210.84950,-4.231541053
210.85000,-4.841929869
210.85050,-4.841929869
210.85100,-2.400374607
210.85150,1.261958286
210.85200,3.398319139
210.85250,0.04118065471
210.85300,-5.452318684
210.85350,-7.588679538
210.85400,-6.673096315
210.85450,-6.062707499
210.85500,-6.367901907
210.85550,-4.231541053
210.85600,-0.264013753
210.85650,0.9567638778
210.85700,0.3463750624
210.85750,2.177541509
210.85800,6.145068809
210.85850,7.671040847
210.85900,4.313902363
210.85950,0.6515694701
210.86000,-0.5692081607
210.86050,-2.705569015
210.86100,-5.452318684
210.86150,-3.010763422
210.86200,3.703513547
210.86250,6.145068809
210.86300,-0.264013753
210.86350,-5.452318684
210.86400,0.04118065471
210.86450,9.197012886
210.86500,10.41779052
210.86550,3.398319139
210.86600,-0.5692081607
210.86650,1.261958286
210.86700,1.567152693
210.86750,-2.400374607
210.86800,-6.367901907
210.86850,-6.062707499
210.86900,-4.536735461
210.86950,-3.010763422
210.87000,0.3463750624
210.87050,6.145068809
210.87100,8.891818478
210.87150,6.450263216
210.87200,2.787930324
210.87250,2.177541509
210.87300,2.482735916
210.87350,1.872347101
210.87400,0.9567638778
210.87450,1.261958286
210.87500,0.6515694701
210.87550,-1.484791384
210.87600,-3.31595783
210.87650,-1.484791384
210.87700,1.261958286
210.87750,1.567152693
210.87800,-1.179596976
210.87850,-3.31595783
210.87900,-2.095180199
210.87950,0.6515694701
210.88000,1.872347101
210.88050,1.872347101
210.88100,1.872347101
210.88150,1.872347101
210.88200,0.6515694701
210.88250,-0.264013753
210.88300,-0.264013753
210.88350,2.787930324
210.88400,5.839874401
210.88450,4.008707955
210.88500,-3.31595783
210.88550,-11.25101243
210.88600,-13.08217888
210.88650,-9.114651576
210.88700,-3.926346645
210.88750,-1.484791384
210.88800,-0.8744025684
210.88850,-1.179596976
210.88900,-2.095180199
210.88950,-3.31595783
210.89000,-3.31595783
210.89050,-1.484791384
210.89100,-0.264013753
210.89150,0.04118065471
210.89200,0.04118065471
210.89250,0.9567638778
210.89300,0.6515694701
210.89350,-0.5692081607
210.89400,-0.8744025684
210.89450,1.261958286
210.89500,4.61909677
210.89550,4.61909677
210.89600,1.567152693
210.89650,-0.5692081607
210.89700,-0.264013753
210.89750,0.3463750624
210.89800,0.6515694701
210.89850,0.9567638778
210.89900,0.9567638778
210.89950,-0.264013753
210.90000,-2.095180199
210.90050,-2.095180199
210.90100,0.04118065471
210.90150,1.567152693
210.90200,0.3463750624
210.90250,-0.8744025684
210.90300,-0.8744025684
210.90350,0.04118065471
210.90400,0.6515694701
210.90450,0.9567638778
210.90500,1.872347101
210.90550,3.398319139
210.90600,3.093124732
210.90650,0.6515694701
210.90700,-2.400374607
210.90750,-4.231541053
210.90800,-3.926346645
210.90850,-1.789985791
210.90900,0.04118065471
210.90950,0.6515694701
210.91000,-1.484791384
210.91050,-6.062707499
210.91100,-10.33542921
210.91150,-12.47179006
210.91200,-10.64062361
210.91250,-6.367901907
210.91300,-2.400374607
210.91350,-1.179596976
210.91400,-2.095180199
210.91450,-2.705569015
210.91500,-2.400374607
210.91550,-1.484791384
210.91600,-0.5692081607
210.91650,0.04118065471
210.91700,-0.5692081607
210.91750,-2.705569015
210.91800,-4.231541053
210.91850,-3.31595783
210.91900,-1.179596976
210.91950,-1.789985791
210.92000,-3.31595783
210.92050,-2.095180199
210.92100,2.177541509
210.92150,6.755457624
210.92200,7.36584644
210.92250,5.534679993
210.92300,4.008707955
210.92350,3.703513547
210.92400,3.703513547
210.92450,3.093124732
210.92500,1.567152693
210.92550,0.04118065471
210.92600,-1.484791384
210.92650,-1.484791384
210.92700,-1.484791384
210.92750,-1.789985791
210.92800,-1.484791384
210.92850,0.04118065471
210.92900,2.177541509
210.92950,3.093124732
210.93000,3.398319139
210.93050,5.534679993
210.93100,8.891818478
210.93150,10.11259611
210.93200,7.976235255
210.93250,4.61909677
210.93300,2.787930324
210.93350,2.177541509
210.93400,1.567152693
210.93450,0.9567638778
210.93500,0.04118065471
210.93550,-2.705569015
210.93600,-5.452318684
210.93650,-5.452318684
210.93700,-1.789985791
210.93750,0.9567638778
210.93800,0.9567638778
210.93850,-0.264013753
210.93900,-0.5692081607
210.93950,-0.264013753
210.94000,0.04118065471
210.94050,1.261958286
210.94100,3.398319139
210.94150,4.924291178
210.94200,4.61909677
210.94250,3.703513547
210.94300,3.703513547
210.94350,3.703513547
210.94400,2.177541509
210.94450,0.9567638778
210.94500,0.9567638778
210.94550,0.6515694701
210.94600,-3.31595783
210.94650,-10.0302348
210.94700,-13.69256769
210.94750,-11.86140125
210.94800,-7.893873946
210.94850,-6.673096315
210.94900,-6.978290722
210.94950,-5.147124276
210.95000,-0.8744025684
210.95050,1.872347101
210.95100,1.261958286
210.95150,-0.5692081607
210.95200,-0.5692081607
210.95250,1.567152693
210.95300,4.924291178
210.95350,6.450263216
210.95400,6.755457624
210.95450,6.145068809
210.95500,5.229485586
210.95550,4.61909677
210.95600,5.229485586
210.95650,7.976235255
210.95700,10.41779052
210.95750,10.11259611
210.95800,6.450263216
210.95850,3.093124732
210.95900,2.177541509
210.95950,2.482735916
210.96000,0.6515694701
210.96050,-2.705569015
210.96100,-5.147124276
210.96150,-5.147124276
210.96200,-3.926346645
210.96250,-3.621152238
210.96300,-3.010763422
210.96350,-1.179596976
210.96400,0.3463750624
210.96450,0.6515694701
210.96500,-2.095180199
210.96550,-6.673096315
210.96600,-9.114651576
210.96650,-5.147124276
210.96700,3.703513547
210.96750,12.55415137
210.96800,16.21648426
210.96850,14.99570663
210.96900,11.94376256
210.96950,8.281429663
210.97000,3.398319139
210.97050,-1.484791384
210.97100,-4.231541053
210.97150,-3.31595783
210.97200,-1.484791384
210.97250,-0.8744025684
210.97300,-0.8744025684
210.97350,0.04118065471
210.97400,0.9567638778
210.97450,0.6515694701
210.97500,0.3463750624
210.97550,0.6515694701
210.97600,1.261958286
210.97650,0.6515694701
210.97700,-0.5692081607
210.97750,-3.31595783
210.97800,-6.367901907
210.97850,-7.588679538
210.97900,-3.926346645
210.97950,2.482735916
210.98000,6.450263216
210.98050,4.61909677
210.98100,0.04118065471
210.98150,-2.705569015
210.98200,-2.400374607
210.98250,-1.179596976
210.98300,0.04118065471
210.98350,2.177541509
210.98400,3.398319139
210.98450,1.567152693
210.98500,-1.484791384
210.98550,-3.31595783
210.98600,-1.484791384
210.98650,0.9567638778
210.98700,1.567152693
210.98750,0.9567638778
210.98800,0.6515694701
210.98850,0.04118065471
210.98900,-0.5692081607
210.98950,-2.095180199
210.99000,-3.621152238
210.99050,-5.452318684
210.99100,-6.673096315
210.99150,-5.147124276
210.99200,-0.264013753
210.99250,3.398319139
210.99300,1.872347101
210.99350,-2.705569015
210.99400,-5.757513092
210.99450,-5.147124276
210.99500,-3.926346645
210.99550,-3.621152238
210.99600,-1.789985791
210.99650,2.177541509
210.99700,5.839874401
210.99750,5.534679993
210.99800,2.482735916
210.99850,0.9567638778
210.99900,0.9567638778
210.99950,0.04118065471
211.00000,-1.789985791
211.00050,-2.705569015
211.00100,-1.789985791
211.00150,-0.264013753
211.00200,0.04118065471
211.00250,0.6515694701
211.00300,2.787930324
211.00350,4.008707955
211.00400,2.177541509
211.00450,-1.484791384
211.00500,-3.621152238
211.00550,-2.095180199
211.00600,0.3463750624
211.00650,1.261958286
211.00700,0.04118065471
211.00750,-1.179596976
211.00800,-2.400374607
211.00850,-3.31595783
211.00900,-3.926346645
211.00950,-2.705569015
211.01000,-0.8744025684
211.01050,-0.264013753
211.01100,-1.179596976
211.01150,-1.789985791
211.01200,-1.179596976
211.01250,-0.8744025684
211.01300,0.04118065471
211.01350,3.398319139
211.01400,7.976235255
211.01450,7.671040847
211.01500,0.9567638778
211.01550,-5.147124276
211.01600,-4.841929869
211.01650,-0.8744025684
211.01700,0.9567638778
211.01750,0.04118065471
211.01800,-1.179596976
211.01850,-2.400374607
211.01900,-5.757513092
211.01950,-9.725040392
211.02000,-9.419845984
211.02050,-4.536735461
211.02100,-0.5692081607
211.02150,-0.8744025684
211.02200,-2.400374607
211.02250,-2.095180199
211.02300,0.04118065471
211.02350,2.482735916
211.02400,4.924291178
211.02450,6.145068809
211.02500,5.534679993
211.02550,3.093124732
211.02600,1.261958286
211.02650,0.9567638778
211.02700,1.872347101
211.02750,4.924291178
211.02800,11.02817933
211.02850,15.91128986
211.02900,11.33337374
211.02950,-3.926346645
211.03000,-20.10165025
211.03050,-25.28995518
211.03100,-18.27048381
211.03150,-7.588679538
211.03200,-1.789985791
211.03250,-0.8744025684
211.03300,-1.179596976
211.03350,0.04118065471
211.03400,2.787930324
211.03450,6.450263216
211.03500,8.891818478
211.03550,8.58662407
211.03600,5.534679993
211.03650,1.261958286
211.03700,-0.8744025684
211.03750,-0.8744025684
211.03800,0.04118065471
211.03850,0.6515694701
211.03900,-0.264013753
211.03950,-2.095180199
211.04000,-2.095180199
211.04050,-0.264013753
211.04100,0.9567638778
211.04150,0.9567638778
211.04200,0.3463750624
211.04250,0.3463750624
211.04300,0.04118065471
211.04350,-0.264013753
211.04400,-1.179596976
211.04450,-0.8744025684
211.04500,-0.264013753
211.04550,0.04118065471
211.04600,0.04118065471
211.04650,1.872347101
211.04700,4.313902363
211.04750,4.61909677
211.04800,2.177541509
211.04850,0.04118065471
211.04900,1.567152693
211.04950,5.229485586
211.05000,7.060652032
211.05050,5.534679993
211.05100,1.872347101
211.05150,-1.484791384
211.05200,-3.31595783
211.05250,-3.621152238
211.05300,-3.31595783
211.05350,-2.705569015
211.05400,-1.179596976
211.05450,1.567152693
211.05500,5.229485586
211.05550,6.755457624
211.05600,4.61909677
211.05650,1.261958286
211.05700,0.04118065471
211.05750,1.872347101
211.05800,3.703513547
211.05850,3.093124732
211.05900,1.261958286
211.05950,1.261958286
211.06000,3.398319139
211.06050,4.61909677
211.06100,2.787930324
211.06150,0.04118065471
211.06200,-2.400374607
211.06250,-2.705569015
211.06300,-2.400374607
211.06350,-1.789985791
211.06400,-0.264013753
211.06450,1.261958286
211.06500,2.177541509
211.06550,1.567152693
211.06600,0.6515694701
211.06650,0.04118065471
211.06700,-1.179596976
211.06750,-2.705569015
211.06800,-2.705569015
211.06850,-1.179596976
211.06900,-1.484791384
211.06950,-4.841929869
211.07000,-7.588679538
211.07050,-5.757513092
211.07100,-1.484791384
211.07150,-0.5692081607
211.07200,-3.926346645
211.07250,-6.673096315
211.07300,-6.062707499
211.07350,-3.621152238
211.07400,-1.484791384
211.07450,-0.264013753
211.07500,1.261958286
211.07550,2.787930324
211.07600,2.787930324
211.07650,0.6515694701
211.07700,-1.789985791
211.07750,-3.010763422
211.07800,-1.789985791
211.07850,1.261958286
211.07900,3.703513547
211.07950,4.313902363
211.08000,2.787930324
211.08050,0.6515694701
211.08100,-1.484791384
211.08150,-3.621152238
211.08200,-4.536735461
211.08250,-3.010763422
211.08300,-0.264013753
211.08350,1.261958286
211.08400,0.6515694701
211.08450,-0.5692081607
211.08500,-1.179596976
211.08550,0.04118065471
211.08600,1.872347101
211.08650,3.398319139
211.08700,3.398319139
211.08750,2.177541509
211.08800,1.261958286
211.08850,0.3463750624
211.08900,-1.484791384
211.08950,-3.31595783
211.09000,-2.705569015
211.09050,0.04118065471
211.09100,0.9567638778
211.09150,-0.5692081607
211.09200,-3.010763422
211.09250,-3.31595783
211.09300,-3.010763422
211.09350,-3.926346645
211.09400,-3.926346645
211.09450,0.04118065471
211.09500,6.145068809
211.09550,7.060652032
211.09600,0.9567638778
211.09650,-6.062707499
211.09700,-7.893873946
211.09750,-4.841929869
211.09800,-2.705569015
211.09850,-2.400374607
211.09900,-0.8744025684
211.09950,2.787930324
211.10000,6.145068809
211.10050,7.976235255
211.10100,10.72298492
211.10150,14.38531782
211.10200,15.30090104
211.10250,9.197012886
211.10300,-0.5692081607
211.10350,-6.978290722
211.10400,-5.757513092
211.10450,-0.264013753
211.10500,2.787930324
211.10550,1.567152693
211.10600,-1.179596976
211.10650,-3.31595783
211.10700,-4.536735461
211.10750,-4.536735461
211.10800,-3.010763422
211.10850,0.9567638778
211.10900,5.229485586
211.10950,6.450263216
211.11000,4.61909677
211.11050,2.177541509
211.11100,0.9567638778
211.11150,0.3463750624
211.11200,-0.5692081607
211.11250,-2.095180199
211.11300,-3.621152238
211.11350,-5.452318684
211.11400,-6.673096315
211.11450,-4.536735461
211.11500,0.6515694701
211.11550,5.839874401
211.11600,7.060652032
211.11650,4.61909677
211.11700,2.177541509
211.11750,2.787930324
211.11800,6.450263216
211.11850,9.807401701
211.11900,8.281429663
211.11950,2.482735916
211.12000,-2.400374607
211.12050,-1.789985791
211.12100,2.787930324
211.12150,5.229485586
211.12200,1.872347101
211.12250,-4.231541053
211.12300,-7.28348513
211.12350,-5.757513092
211.12400,-2.400374607
211.12450,-0.8744025684
211.12500,-1.179596976
211.12550,-1.179596976
211.12600,-0.8744025684
211.12650,-0.264013753
211.12700,-0.5692081607
211.12750,-1.789985791
211.12800,-2.400374607
211.12850,-2.400374607
211.12900,-1.789985791
211.12950,-1.179596976
211.13000,-0.5692081607
211.13050,0.04118065471
211.13100,0.04118065471
211.13150,-0.8744025684
211.13200,-2.400374607
211.13250,-2.705569015
211.13300,-2.400374607
211.13350,-2.400374607
211.13400,-2.705569015
211.13450,-2.095180199
211.13500,-0.8744025684
211.13550,-1.789985791
211.13600,-4.231541053
211.13650,-5.452318684
211.13700,-4.536735461
211.13750,-3.31595783
211.13800,-3.621152238
211.13850,-3.621152238
211.13900,-2.095180199
211.13950,-0.8744025684
211.14000,-0.8744025684
211.14050,0.04118065471
211.14100,4.61909677
211.14150,10.11259611
211.14200,11.33337374
211.14250,7.976235255
211.14300,3.703513547
211.14350,1.567152693
211.14400,0.3463750624
211.14450,0.3463750624
211.14500,1.261958286
211.14550,2.482735916
211.14600,1.261958286
211.14650,-1.179596976
211.14700,-2.400374607
211.14750,-1.789985791
211.14800,-1.789985791
211.14850,-3.31595783
211.14900,-3.31595783
211.14950,-0.5692081607
211.15000,2.177541509
211.15050,1.567152693
211.15100,-0.8744025684
211.15150,-1.484791384
211.15200,0.3463750624
211.15250,1.872347101
211.15300,0.9567638778
211.15350,0.04118065471
211.15400,0.04118065471
211.15450,1.567152693
211.15500,2.177541509
211.15550,2.482735916
211.15600,2.482735916
211.15650,0.9567638778
211.15700,-2.400374607
211.15750,-5.757513092
211.15800,-5.452318684
211.15850,-2.705569015
211.15900,-2.400374607
211.15950,-5.757513092
211.16000,-9.114651576
211.16050,-9.114651576
211.16100,-5.452318684
211.16150,-2.705569015
211.16200,-1.484791384
211.16250,0.9567638778
211.16300,6.450263216
211.16350,11.02817933
211.16400,10.11259611
211.16450,5.229485586
211.16500,0.6515694701
211.16550,0.04118065471
211.16600,0.6515694701
211.16650,0.04118065471
211.16700,-0.8744025684
211.16750,-0.264013753
211.16800,1.261958286
211.16850,2.177541509
211.16900,0.9567638778
211.16950,-0.264013753
211.17000,-1.484791384
211.17050,-2.400374607
211.17100,-3.926346645
211.17150,-4.536735461
211.17200,-3.31595783
211.17250,-0.264013753
211.17300,4.924291178
211.17350,11.33337374
211.17400,15.60609545
211.17450,13.46973459
211.17500,4.924291178
211.17550,-4.536735461
211.17600,-8.504262761
211.17650,-6.978290722
211.17700,-4.536735461
211.17750,-3.621152238
211.17800,-2.705569015
211.17850,-1.179596976
211.17900,0.04118065471
211.17950,0.6515694701
211.18000,0.6515694701
211.18050,0.9567638778
211.18100,1.567152693
211.18150,1.567152693
211.18200,0.6515694701
211.18250,-0.8744025684
211.18300,-1.789985791
211.18350,0.04118065471
211.18400,4.313902363
211.18450,7.36584644
211.18500,7.976235255
211.18550,7.671040847
211.18600,7.671040847
211.18650,5.534679993
211.18700,0.04118065471
211.18750,-5.757513092
211.18800,-7.28348513
211.18850,-4.231541053
211.18900,-0.5692081607
211.18950,-0.5692081607
211.19000,-3.010763422
211.19050,-4.231541053
211.19100,-2.400374607
211.19150,0.04118065471
211.19200,1.261958286
211.19250,0.6515694701
211.19300,0.04118065471
211.19350,-0.264013753
211.19400,-0.264013753
211.19450,-0.5692081607
211.19500,-0.8744025684
211.19550,-0.8744025684
211.19600,0.04118065471
211.19650,0.04118065471
211.19700,0.04118065471
211.19750,0.04118065471
211.19800,0.04118065471
211.19850,0.04118065471
211.19900,0.6515694701
211.19950,1.567152693
211.20000,1.567152693
211.20050,0.9567638778
211.20100,0.9567638778
211.20150,2.482735916
211.20200,3.093124732
211.20250,1.872347101
211.20300,0.6515694701
211.20350,1.261958286
211.20400,1.567152693
211.20450,-0.5692081607
211.20500,-3.31595783
211.20550,-2.400374607
211.20600,1.261958286
211.20650,2.177541509
211.20700,-1.484791384
211.20750,-5.147124276
211.20800,-3.621152238
211.20850,0.04118065471
211.20900,0.6515694701
211.20950,-0.8744025684
211.21000,-2.400374607
211.21050,-3.010763422
211.21100,-4.231541053
211.21150,-6.367901907
211.21200,-7.588679538
211.21250,-6.978290722
211.21300,-4.231541053
211.21350,-0.8744025684
211.21400,1.567152693
211.21450,3.093124732
211.21500,2.787930324
211.21550,2.177541509
211.21600,2.177541509
211.21650,2.787930324
211.21700,2.787930324
211.21750,2.787930324
211.21800,2.787930324
211.21850,3.093124732
211.21900,3.093124732
211.21950,3.703513547
211.22000,4.008707955
211.22050,4.008707955
211.22100,3.703513547
211.22150,3.398319139
211.22200,2.482735916
211.22250,0.3463750624
211.22300,-1.179596976
211.22350,-1.484791384
211.22400,-1.484791384
211.22450,-2.400374607
211.22500,-3.31595783
211.22550,-1.789985791
211.22600,1.567152693
211.22650,4.61909677
211.22700,5.229485586
211.22750,3.703513547
211.22800,1.567152693
211.22850,-0.264013753
211.22900,-1.484791384
211.22950,-0.8744025684
211.23000,-0.264013753
211.23050,-0.8744025684
211.23100,-2.705569015
211.23150,-4.231541053
211.23200,-4.231541053
211.23250,-3.926346645
211.23300,-3.621152238
211.23350,-2.705569015
211.23400,-2.400374607
211.23450,-3.010763422
211.23500,-3.010763422
211.23550,-0.5692081607
211.23600,3.093124732
211.23650,6.450263216
211.23700,7.060652032
211.23750,7.060652032
211.23800,7.36584644
211.23850,6.755457624
211.23900,4.924291178
211.23950,3.398319139
211.24000,4.61909677
211.24050,6.145068809
211.24100,5.534679993
211.24150,0.6515694701
211.24200,-5.452318684
211.24250,-9.114651576
211.24300,-9.114651576
211.24350,-8.504262761
211.24400,-10.0302348
211.24450,-10.94581802
211.24500,-6.673096315
211.24550,2.177541509
211.24600,8.891818478
211.24650,7.671040847
211.24700,1.872347101
211.24750,-1.484791384
211.24800,-2.095180199
211.24850,-3.31595783
211.24900,-5.147124276
211.24950,-3.621152238
211.25000,0.6515694701
211.25050,3.093124732
211.25100,1.567152693
211.25150,0.04118065471
211.25200,0.3463750624
211.25250,0.9567638778
211.25300,-0.5692081607
211.25350,-2.400374607
211.25400,-1.789985791
211.25450,0.6515694701
211.25500,1.872347101
211.25550,0.9567638778
211.25600,0.3463750624
211.25650,0.9567638778
211.25700,1.261958286
211.25750,0.9567638778
211.25800,0.9567638778
211.25850,0.04118065471
211.25900,-2.400374607
211.25950,-4.231541053
211.26000,-3.31595783
211.26050,-0.8744025684
211.26100,-0.264013753
211.26150,-1.179596976
211.26200,-1.179596976
211.26250,0.04118065471
211.26300,0.04118065471
211.26350,-1.789985791
211.26400,-3.010763422
211.26450,-1.789985791
211.26500,0.04118065471
211.26550,0.04118065471
211.26600,-0.264013753
211.26650,-0.264013753
211.26700,0.3463750624
211.26750,2.787930324
211.26800,5.534679993
211.26850,7.060652032
211.26900,5.229485586
211.26950,1.261958286
211.27000,-0.264013753
211.27050,1.567152693
211.27100,5.229485586
211.27150,7.060652032
211.27200,6.450263216
211.27250,5.839874401
211.27300,5.229485586
211.27350,3.093124732
211.27400,-0.5692081607
211.27450,-4.536735461
211.27500,-6.367901907
211.27550,-6.367901907
211.27600,-6.062707499
211.27650,-7.28348513
211.27700,-9.419845984
211.27750,-9.114651576
211.27800,-5.757513092
211.27850,-0.8744025684
211.27900,1.261958286
211.27950,1.567152693
211.28000,0.9567638778
211.28050,0.3463750624
211.28100,-0.264013753
211.28150,-0.5692081607
211.28200,0.04118065471
211.28250,0.6515694701
211.28300,-0.264013753
211.28350,-2.400374607
211.28400,-2.705569015
211.28450,-0.264013753
211.28500,0.9567638778
211.28550,0.04118065471
211.28600,-1.484791384
211.28650,-1.789985791
211.28700,-2.400374607
211.28750,-4.841929869
211.28800,-7.28348513
211.28850,-5.147124276
211.28900,1.567152693
211.28950,8.58662407
211.29000,10.41779052
211.29050,7.060652032
211.29100,3.398319139
211.29150,2.177541509
211.29200,1.872347101
211.29250,0.6515694701
211.29300,-0.5692081607
211.29350,-1.484791384
211.29400,-2.095180199
211.29450,-2.400374607
211.29500,-2.095180199
211.29550,-0.8744025684
211.29600,-0.264013753
211.29650,-1.789985791
211.29700,-4.231541053
211.29750,-4.231541053
211.29800,-1.789985791
211.29850,0.3463750624
211.29900,1.261958286
211.29950,1.261958286
211.30000,1.261958286
211.30050,0.6515694701
211.30100,-0.5692081607
211.30150,-1.484791384
211.30200,0.04118065471
211.30250,3.093124732
211.30300,5.839874401
211.30350,6.145068809
211.30400,4.61909677
211.30450,3.398319139
211.30500,4.008707955
211.30550,5.839874401
211.30600,5.839874401
211.30650,1.872347101
211.30700,-2.705569015
211.30750,-4.536735461
211.30800,-3.31595783
211.30850,-2.095180199
211.30900,-3.010763422
211.30950,-3.31595783
211.31000,-1.179596976
211.31050,1.261958286
211.31100,1.261958286
211.31150,-2.095180199
211.31200,-5.147124276
211.31250,-4.536735461
211.31300,-0.8744025684
211.31350,1.261958286
211.31400,0.6515694701
211.31450,0.04118065471
211.31500,0.9567638778
211.31550,3.398319139
211.31600,3.703513547
211.31650,1.261958286
211.31700,-0.5692081607
211.31750,-0.5692081607
211.31800,0.04118065471
211.31850,0.6515694701
211.31900,0.6515694701
211.31950,0.9567638778
211.32000,1.567152693
211.32050,1.872347101
211.32100,2.482735916
211.32150,2.787930324
211.32200,1.567152693
211.32250,-1.484791384
211.32300,-3.31595783
211.32350,-2.400374607
211.32400,-0.264013753
211.32450,0.04118065471
211.32500,-1.179596976
211.32550,-2.705569015
211.32600,-2.400374607
211.32650,-0.5692081607
211.32700,2.482735916
211.32750,6.145068809
211.32800,8.281429663
211.32850,6.755457624
211.32900,3.398319139
211.32950,0.6515694701
211.33000,0.6515694701
211.33050,2.482735916
211.33100,4.008707955
211.33150,2.787930324
211.33200,0.04118065471
211.33250,-2.400374607
211.33300,-2.400374607
211.33350,-0.5692081607
211.33400,0.04118065471
211.33450,-0.8744025684
211.33500,-2.095180199
211.33550,-2.095180199
211.33600,-1.789985791
211.33650,-2.095180199
211.33700,-1.789985791
211.33750,-0.8744025684
211.33800,-0.5692081607
211.33850,-1.484791384
211.33900,-1.789985791
211.33950,0.3463750624
211.34000,3.398319139
211.34050,4.61909677
211.34100,3.703513547
211.34150,2.177541509
211.34200,0.6515694701
211.34250,-1.789985791
211.34300,-3.926346645
211.34350,-3.926346645
211.34400,-1.789985791
211.34450,-0.264013753
211.34500,-1.179596976
211.34550,-2.705569015
211.34600,-2.400374607
211.34650,-1.789985791
211.34700,-2.095180199
211.34750,-2.095180199
211.34800,-0.264013753
211.34850,0.9567638778
211.34900,0.04118065471
211.34950,-1.789985791
211.35000,-2.095180199
211.35050,-0.264013753
211.35100,0.3463750624
211.35150,-0.264013753
211.35200,-0.264013753
211.35250,0.6515694701
211.35300,0.3463750624
211.35350,-1.484791384
211.35400,-3.31595783
211.35450,-2.095180199
211.35500,-0.264013753
211.35550,-0.8744025684
211.35600,-4.231541053
211.35650,-6.978290722
211.35700,-7.588679538
211.35750,-4.841929869
211.35800,0.04118065471
211.35850,5.229485586
211.35900,7.060652032
211.35950,4.924291178
211.36000,2.177541509
211.36050,1.872347101
211.36100,2.177541509
211.36150,1.261958286
211.36200,0.04118065471
211.36250,0.04118065471
211.36300,0.6515694701
211.36350,0.3463750624
211.36400,-0.8744025684
211.36450,-1.484791384
211.36500,0.6515694701
211.36550,4.61909677
211.36600,7.671040847
211.36650,7.671040847
211.36700,5.839874401
211.36750,4.313902363
211.36800,5.839874401
211.36850,9.502207293
211.36900,11.63856815
211.36950,7.36584644
211.37000,-3.010763422
211.37050,-14.30295651
211.37100,-20.40684466
211.37150,-19.18606703
211.37200,-13.69256769
211.37250,-7.588679538
211.37300,-2.705569015
211.37350,1.261958286
211.37400,4.61909677
211.37450,7.060652032
211.37500,7.671040847
211.37550,4.61909677
211.37600,-0.8744025684
211.37650,-6.062707499
211.37700,-7.28348513
211.37750,-4.841929869
211.37800,-1.789985791
211.37850,0.04118065471
211.37900,0.9567638778
211.37950,2.482735916
211.38000,2.787930324
211.38050,1.261958286
211.38100,-0.264013753
211.38150,-0.8744025684
211.38200,-0.264013753
211.38250,0.04118065471
211.38300,1.261958286
211.38350,3.093124732
211.38400,5.229485586
211.38450,5.534679993
211.38500,3.093124732
211.38550,0.04118065471
211.38600,-0.5692081607
211.38650,0.9567638778
211.38700,1.872347101
211.38750,-0.8744025684
211.38800,-5.757513092
211.38850,-7.893873946
211.38900,-5.452318684
211.38950,-3.31595783
211.39000,-3.621152238
211.39050,-3.010763422
211.39100,1.567152693
211.39150,9.197012886
211.39200,12.24895696
211.39250,9.502207293
211.39300,5.229485586
211.39350,3.398319139
211.39400,2.177541509
211.39450,0.3463750624
211.39500,-0.8744025684
211.39550,0.9567638778
211.39600,4.008707955
211.39650,4.008707955
211.39700,-0.264013753
211.39750,-5.452318684
211.39800,-6.978290722
211.39850,-4.536735461
211.39900,-1.484791384
211.39950,-0.5692081607
211.40000,-0.5692081607
211.40050,0.04118065471
211.40100,1.567152693
211.40150,2.482735916
211.40200,1.567152693
211.40250,0.9567638778
211.40300,0.9567638778
211.40350,1.567152693
211.40400,2.177541509
211.40450,2.482735916
211.40500,1.872347101
211.40550,0.04118065471
211.40600,-2.400374607
211.40650,-4.231541053
211.40700,-3.621152238
211.40750,-1.789985791
211.40800,-0.264013753
211.40850,0.9567638778
211.40900,1.872347101
211.40950,0.9567638778
211.41000,-1.484791384
211.41050,-4.536735461
211.41100,-6.062707499
211.41150,-6.062707499
211.41200,-5.452318684
211.41250,-4.536735461
211.41300,-2.705569015
211.41350,-0.8744025684
211.41400,0.04118065471
211.41450,0.04118065471
211.41500,0.3463750624
211.41550,0.9567638778
211.41600,0.3463750624
211.41650,-0.5692081607
211.41700,-0.8744025684
211.41750,0.04118065471
211.41800,2.482735916
211.41850,4.313902363
211.41900,6.145068809
211.41950,6.755457624
211.42000,5.229485586
211.42050,2.482735916
211.42100,1.261958286
211.42150,3.398319139
211.42200,5.229485586
211.42250,3.703513547
211.42300,0.6515694701
211.42350,0.04118065471
211.42400,2.482735916
211.42450,4.008707955
211.42500,2.177541509
211.42550,0.6515694701
211.42600,1.872347101
211.42650,4.008707955
211.42700,2.787930324
211.42750,-0.8744025684
211.42800,-3.010763422
211.42850,-2.095180199
211.42900,-0.8744025684
211.42950,-0.264013753
211.43000,0.9567638778
211.43050,4.313902363
211.43100,6.755457624
211.43150,4.924291178
211.43200,-0.8744025684
211.43250,-5.757513092
211.43300,-6.062707499
211.43350,-3.010763422
211.43400,-0.5692081607
211.43450,-0.8744025684
211.43500,-3.010763422
211.43550,-4.536735461
211.43600,-4.231541053
211.43650,-1.789985791
211.43700,0.9567638778
211.43750,2.787930324
211.43800,3.398319139
211.43850,2.482735916
211.43900,0.6515694701
211.43950,-0.5692081607
211.44000,-1.179596976
211.44050,-0.5692081607
211.44100,0.3463750624
211.44150,1.567152693
211.44200,2.787930324
211.44250,2.177541509
211.44300,0.3463750624
211.44350,-0.8744025684
211.44400,-1.789985791
211.44450,-2.095180199
211.44500,-3.31595783
211.44550,-5.147124276
211.44600,-6.673096315
211.44650,-6.978290722
211.44700,-5.757513092
211.44750,-3.010763422
211.44800,0.04118065471
211.44850,1.567152693
211.44900,0.6515694701
211.44950,0.04118065471
211.45000,1.567152693
211.45050,4.924291178
211.45100,7.671040847
211.45150,8.891818478
211.45200,11.02817933
211.45250,12.24895696
211.45300,8.891818478
211.45350,-0.264013753
211.45400,-10.0302348
211.45450,-13.08217888
211.45500,-8.504262761
211.45550,-2.095180199
211.45600,0.3463750624
211.45650,0.3463750624
211.45700,0.6515694701
211.45750,1.872347101
211.45800,3.093124732
211.45850,3.093124732
211.45900,3.093124732
211.45950,3.398319139
211.46000,4.008707955
211.46050,3.703513547
211.46100,3.093124732
211.46150,2.787930324
211.46200,2.787930324
211.46250,2.482735916
211.46300,1.567152693
211.46350,-0.5692081607
211.46400,-3.621152238
211.46450,-6.367901907
211.46500,-7.28348513
211.46550,-5.147124276
211.46600,-2.095180199
211.46650,-0.5692081607
211.46700,-1.179596976
211.46750,-2.400374607
211.46800,-1.484791384
211.46850,0.04118065471
211.46900,0.6515694701
211.46950,0.04118065471
211.47000,-0.5692081607
211.47050,-1.179596976
211.47100,-1.789985791
211.47150,-3.010763422
211.47200,-3.31595783
211.47250,-1.484791384
211.47300,0.3463750624
211.47350,0.3463750624
211.47400,-0.8744025684
211.47450,-2.095180199
211.47500,-2.095180199
211.47550,-3.010763422
211.47600,-5.147124276
211.47650,-6.673096315
211.47700,-3.926346645
211.47750,1.567152693
211.47800,5.839874401
211.47850,5.534679993
211.47900,2.482735916
211.47950,0.6515694701
211.48000,1.261958286
211.48050,2.787930324
211.48100,3.703513547
211.48150,3.093124732
211.48200,1.261958286
211.48250,-0.5692081607
211.48300,-1.179596976
211.48350,-0.5692081607
211.48400,0.04118065471
211.48450,0.04118065471
211.48500,0.04118065471
211.48550,0.9567638778
211.48600,1.261958286
211.48650,0.3463750624
211.48700,-1.179596976
211.48750,-2.705569015
211.48800,-3.621152238
211.48850,-3.31595783
211.48900,-0.5692081607
211.48950,3.398319139
211.49000,5.534679993
211.49050,2.787930324
211.49100,-2.400374607
211.49150,-6.978290722
211.49200,-8.199068353
211.49250,-6.062707499
211.49300,-1.484791384
211.49350,2.787930324
211.49400,3.398319139
211.49450,0.04118065471
211.49500,-3.010763422
211.49550,-1.484791384
211.49600,0.3463750624
211.49650,-1.484791384
211.49700,-6.367901907
211.49750,-7.588679538
211.49800,-3.31595783
211.49850,0.04118065471
211.49900,-0.5692081607
211.49950,-4.231541053
211.50000,-6.367901907
211.50050,-5.757513092
211.50100,-3.621152238
211.50150,-0.264013753
211.50200,3.093124732
211.50250,4.924291178
211.50300,3.398319139
211.50350,1.261958286
211.50400,0.3463750624
211.50450,0.04118065471
211.50500,-1.179596976
211.50550,-2.095180199
211.50600,-1.789985791
211.50650,-1.484791384
211.50700,-1.179596976
211.50750,-0.264013753
211.50800,1.261958286
211.50850,1.261958286
211.50900,-0.8744025684
211.50950,-2.400374607
211.51000,-0.5692081607
211.51050,1.872347101
211.51100,1.567152693
211.51150,0.04118065471
211.51200,-0.5692081607
211.51250,0.04118065471
211.51300,-1.179596976
211.51350,-1.484791384
211.51400,2.177541509
211.51450,8.891818478
211.51500,10.11259611
211.51550,3.703513547
211.51600,-3.010763422
211.51650,-4.231541053
211.51700,-1.484791384
211.51750,-0.5692081607
211.51800,-1.179596976
211.51850,-0.8744025684
211.51900,0.3463750624
211.51950,0.04118065471
211.52000,-0.8744025684
211.52050,-0.5692081607
211.52100,1.261958286
211.52150,1.261958286
211.52200,-0.8744025684
211.52250,-1.179596976
211.52300,3.093124732
211.52350,8.58662407
211.52400,8.281429663
211.52450,2.787930324
211.52500,-1.179596976
211.52550,-0.8744025684
211.52600,0.3463750624
211.52650,-0.264013753
211.52700,-2.705569015
211.52750,-3.010763422
211.52800,0.04118065471
211.52850,4.008707955
211.52900,7.36584644
211.52950,10.11259611
211.53000,12.55415137
211.53050,13.16454019
211.53100,9.807401701
211.53150,3.703513547
211.53200,-0.5692081607
211.53250,-1.179596976
211.53300,0.3463750624
211.53350,0.9567638778
211.53400,-0.264013753
211.53450,-1.789985791
211.53500,-1.179596976
211.53550,0.6515694701
211.53600,1.567152693
211.53650,0.3463750624
211.53700,-0.5692081607
211.53750,-0.264013753
211.53800,0.04118065471
211.53850,-1.179596976
211.53900,-4.841929869
211.53950,-7.28348513
211.54000,-6.062707499
211.54050,-1.789985791
211.54100,1.872347101
211.54150,3.398319139
211.54200,2.482735916
211.54250,0.3463750624
211.54300,-1.484791384
211.54350,-1.484791384
211.54400,0.6515694701
211.54450,4.313902363
211.54500,5.839874401
211.54550,4.924291178
211.54600,2.177541509
211.54650,0.3463750624
211.54700,0.3463750624
211.54750,0.9567638778
211.54800,0.04118065471
211.54850,-2.095180199
211.54900,-3.926346645
211.54950,-3.31595783
211.55000,-2.095180199
211.55050,-2.095180199
211.55100,-2.400374607
211.55150,-0.8744025684
211.55200,1.567152693
211.55250,1.872347101
211.55300,-0.8744025684
211.55350,-3.31595783
211.55400,-3.010763422
211.55450,-1.484791384
211.55500,0.04118065471
211.55550,1.261958286
211.55600,3.398319139
211.55650,4.008707955
211.55700,3.398319139
211.55750,3.093124732
211.55800,3.093124732
211.55850,2.177541509
211.55900,2.177541509
211.55950,4.924291178
211.56000,7.671040847
211.56050,3.703513547
211.56100,-6.367901907
211.56150,-12.77698447
211.56200,-10.0302348
211.56250,-4.536735461
211.56300,-5.147124276
211.56350,-8.809457169
211.56400,-8.504262761
211.56450,-3.621152238
211.56500,-0.5692081607
211.56550,-1.789985791
211.56600,-3.31595783
211.56650,-2.400374607
211.56700,-0.5692081607
211.56750,0.6515694701
211.56800,3.093124732
211.56850,5.839874401
211.56900,6.755457624
211.56950,5.229485586
211.57000,3.703513547
211.57050,2.482735916
211.57100,0.04118065471
211.57150,-3.010763422
211.57200,-4.536735461
211.57250,-3.31595783
211.57300,-1.484791384
211.57350,-1.484791384
211.57400,-2.095180199
211.57450,-2.400374607
211.57500,-3.926346645
211.57550,-7.28348513
211.57600,-10.94581802
211.57650,-11.55620684
211.57700,-8.504262761
211.57750,-2.705569015
211.57800,3.398319139
211.57850,8.281429663
211.57900,9.807401701
211.57950,7.671040847
211.58000,4.61909677
211.58050,1.872347101
211.58100,0.04118065471
211.58150,-0.5692081607
211.58200,-0.264013753
211.58250,0.6515694701
211.58300,1.567152693
211.58350,1.567152693
211.58400,0.04118065471
211.58450,-2.095180199
211.58500,-4.841929869
211.58550,-5.452318684
211.58600,-2.095180199
211.58650,2.482735916
211.58700,4.924291178
211.58750,3.093124732
211.58800,0.3463750624
211.58850,-0.264013753
211.58900,-0.5692081607
211.58950,-1.484791384
211.59000,-2.705569015
211.59050,-2.705569015
211.59100,-1.789985791
211.59150,-0.8744025684
211.59200,0.3463750624
211.59250,2.177541509
211.59300,2.787930324
211.59350,0.9567638778
211.59400,-0.264013753
211.59450,0.04118065471
211.59500,0.9567638778
211.59550,0.6515694701
211.59600,-0.8744025684
211.59650,-0.8744025684
211.59700,2.177541509
211.59750,4.61909677
211.59800,3.093124732
211.59850,0.04118065471
211.59900,-0.8744025684
211.59950,0.3463750624
211.60000,1.261958286
211.60050,0.04118065471
211.60100,-1.484791384
211.60150,-0.5692081607
211.60200,0.9567638778
211.60250,0.9567638778
211.60300,-0.264013753
211.60350,-0.264013753
211.60400,1.872347101
211.60450,4.924291178
211.60500,5.839874401
211.60550,4.61909677
211.60600,2.177541509
211.60650,-0.5692081607
211.60700,-3.926346645
211.60750,-5.757513092
211.60800,-3.926346645
211.60850,1.261958286
211.60900,6.755457624
211.60950,6.145068809
211.61000,-1.179596976
211.61050,-8.809457169
211.61100,-9.419845984
211.61150,-2.095180199
211.61200,4.61909677
211.61250,5.839874401
211.61300,3.398319139
211.61350,1.261958286
211.61400,0.6515694701
211.61450,0.04118065471
211.61500,-1.484791384
211.61550,-1.789985791
211.61600,-1.484791384
211.61650,-1.484791384
211.61700,-1.789985791
211.61750,-1.179596976
211.61800,0.04118065471
211.61850,0.04118065471
