"type","name","time_units","begin_time","frequency","count","units"
"signal","Ultium EMG-FLEX.CARP.R RT","s",109.98000,2000,22000,"uV"

"time","value"
109.98000,-4.269366247
109.98050,-9.15247677
109.98100,-12.81480966
109.98150,-12.81480966
109.98200,-9.15247677
109.98250,-4.879755062
109.98300,-1.522616578
109.98350,0.003355460754
109.98400,0.003355460754
109.98450,-0.6070333546
109.98500,-0.9122277624
109.98550,0.003355460754
109.98600,1.529327499
109.98650,2.139716315
109.98700,1.529327499
109.98750,0.003355460754
109.98800,-1.827810985
109.98850,-3.048588616
109.98900,-3.964171839
109.98950,-4.269366247
109.99000,-3.964171839
109.99050,-3.353783024
109.99100,-3.353783024
109.99150,-4.269366247
109.99200,-4.574560655
109.99250,-3.048588616
109.99300,0.003355460754
109.99350,1.529327499
109.99400,1.529327499
109.99450,0.6137442762
109.99500,0.6137442762
109.99550,1.834521907
109.99600,2.75010513
109.99650,2.75010513
109.99700,1.529327499
109.99750,0.003355460754
109.99800,-0.3018389469
109.99850,0.003355460754
109.99900,0.003355460754
109.99950,-3.048588616
110.00000,-6.710921509
110.00050,-7.626504732
110.00100,-5.490143878
110.00150,-3.353783024
110.00200,-3.658977432
110.00250,-4.269366247
110.00300,-2.438199801
110.00350,0.9189386839
110.00400,4.886465984
110.00450,7.328021246
110.00500,7.022826838
110.00550,4.886465984
110.00600,2.444910722
110.00650,1.834521907
110.00700,2.444910722
110.00750,2.139716315
110.00800,1.224133092
110.00850,1.224133092
110.00900,3.055299538
110.00950,4.886465984
110.01000,4.581271576
110.01050,3.360493945
110.01100,2.75010513
110.01150,2.139716315
110.01200,0.003355460754
110.01250,-3.658977432
110.01300,-6.100532693
110.01350,-5.490143878
110.01400,-2.133005393
110.01450,1.224133092
110.01500,3.055299538
110.01550,1.529327499
110.01600,-1.522616578
110.01650,-2.743394209
110.01700,-0.3018389469
110.01750,3.055299538
110.01800,5.191660392
110.01850,4.581271576
110.01900,3.360493945
110.01950,3.665688353
110.02000,6.107243615
110.02050,8.243604469
110.02100,6.107243615
110.02150,0.003355460754
110.02200,-6.710921509
110.02250,-7.016115916
110.02300,-0.6070333546
110.02350,6.71763243
110.02400,9.4643821
110.02450,6.412438022
110.02500,1.834521907
110.02550,-0.3018389469
110.02600,0.003355460754
110.02650,0.6137442762
110.02700,0.6137442762
110.02750,0.003355460754
110.02800,-0.3018389469
110.02850,-1.21742217
110.02900,-2.743394209
110.02950,-4.574560655
110.03000,-6.405727101
110.03050,-7.626504732
110.03100,-8.236893547
110.03150,-7.016115916
110.03200,-3.048588616
110.03250,3.055299538
110.03300,7.633215653
110.03350,8.853993284
110.03400,8.853993284
110.03450,9.769576507
110.03500,10.68515973
110.03550,9.159187692
110.03600,5.802049207
110.03650,4.886465984
110.03700,5.802049207
110.03750,3.970882761
110.03800,-2.438199801
110.03850,-10.67844881
110.03900,-14.3407817
110.03950,-12.81480966
110.04000,-10.06805999
110.04050,-7.931699139
110.04100,-5.18494947
110.04150,-1.827810985
110.04200,-0.3018389469
110.04250,-0.9122277624
110.04300,-1.21742217
110.04350,-0.3018389469
110.04400,0.003355460754
110.04450,-1.827810985
110.04500,-2.743394209
110.04550,-0.9122277624
110.04600,1.834521907
110.04650,3.055299538
110.04700,3.055299538
110.04750,3.360493945
110.04800,4.276077169
110.04850,4.276077169
110.04900,3.055299538
110.04950,2.444910722
110.05000,3.360493945
110.05050,4.581271576
110.05100,6.107243615
110.05150,7.938410061
110.05200,7.633215653
110.05250,4.276077169
110.05300,1.224133092
110.05350,0.3085498685
110.05400,0.9189386839
110.05450,0.003355460754
110.05500,-1.21742217
110.05550,-0.3018389469
110.05600,3.360493945
110.05650,6.71763243
110.05700,7.328021246
110.05750,5.802049207
110.05800,3.665688353
110.05850,1.224133092
110.05900,-1.21742217
110.05950,-2.438199801
110.06000,-1.827810985
110.06050,0.003355460754
110.06100,1.834521907
110.06150,3.360493945
110.06200,3.665688353
110.06250,2.444910722
110.06300,0.003355460754
110.06350,-1.21742217
110.06400,-0.9122277624
110.06450,0.003355460754
110.06500,0.6137442762
110.06550,0.3085498685
110.06600,0.003355460754
110.06650,-1.21742217
110.06700,-2.133005393
110.06750,-0.9122277624
110.06800,3.055299538
110.06850,7.938410061
110.06900,10.37996532
110.06950,9.4643821
110.07000,8.853993284
110.07050,9.159187692
110.07100,5.191660392
110.07150,-4.879755062
110.07200,-15.56155933
110.07250,-18.00311459
110.07300,-11.89922644
110.07350,-6.405727101
110.07400,-6.710921509
110.07450,-10.3732544
110.07500,-11.59403203
110.07550,-9.457671178
110.07600,-7.016115916
110.07650,-4.574560655
110.07700,-2.133005393
110.07750,-0.9122277624
110.07800,-1.21742217
110.07850,-1.827810985
110.07900,-1.522616578
110.07950,-0.9122277624
110.08000,-0.6070333546
110.08050,0.9189386839
110.08100,3.970882761
110.08150,6.107243615
110.08200,5.496854799
110.08250,3.360493945
110.08300,2.139716315
110.08350,0.9189386839
110.08400,0.003355460754
110.08450,0.003355460754
110.08500,1.224133092
110.08550,2.139716315
110.08600,0.003355460754
110.08650,-3.353783024
110.08700,-4.879755062
110.08750,-3.353783024
110.08800,-0.3018389469
110.08850,1.529327499
110.08900,1.529327499
110.08950,0.003355460754
110.09000,-3.048588616
110.09050,-5.795338286
110.09100,-6.710921509
110.09150,-6.405727101
110.09200,-5.490143878
110.09250,-3.353783024
110.09300,0.003355460754
110.09350,2.75010513
110.09400,3.055299538
110.09450,0.6137442762
110.09500,-0.9122277624
110.09550,0.003355460754
110.09600,1.529327499
110.09650,2.75010513
110.09700,2.139716315
110.09750,-0.6070333546
110.09800,-6.710921509
110.09850,-12.50961526
110.09900,-13.42519848
110.09950,-8.847282363
110.10000,-3.658977432
110.10050,-1.21742217
110.10100,-0.9122277624
110.10150,-0.6070333546
110.10200,-0.6070333546
110.10250,-1.827810985
110.10300,-3.353783024
110.10350,-2.743394209
110.10400,-0.3018389469
110.10450,1.224133092
110.10500,1.529327499
110.10550,1.529327499
110.10600,2.139716315
110.10650,1.834521907
110.10700,0.3085498685
110.10750,-0.3018389469
110.10800,0.3085498685
110.10850,1.834521907
110.10900,2.139716315
110.10950,1.834521907
110.11000,3.055299538
110.11050,5.496854799
110.11100,4.886465984
110.11150,0.9189386839
110.11200,-2.438199801
110.11250,-0.9122277624
110.11300,3.055299538
110.11350,4.886465984
110.11400,3.360493945
110.11450,2.75010513
110.11500,4.276077169
110.11550,5.496854799
110.11600,3.970882761
110.11650,1.224133092
110.11700,-0.3018389469
110.11750,-2.133005393
110.11800,-3.658977432
110.11850,-3.353783024
110.11900,-0.9122277624
110.11950,1.224133092
110.12000,1.529327499
110.12050,1.529327499
110.12100,2.444910722
110.12150,3.665688353
110.12200,3.360493945
110.12250,2.139716315
110.12300,1.834521907
110.12350,0.9189386839
110.12400,-1.827810985
110.12450,-5.18494947
110.12500,-6.710921509
110.12550,-6.405727101
110.12600,-6.405727101
110.12650,-5.490143878
110.12700,-3.048588616
110.12750,-0.9122277624
110.12800,-0.9122277624
110.12850,-1.827810985
110.12900,0.003355460754
110.12950,4.276077169
110.13000,7.938410061
110.13050,7.938410061
110.13100,5.496854799
110.13150,3.055299538
110.13200,2.139716315
110.13250,2.139716315
110.13300,2.444910722
110.13350,2.444910722
110.13400,2.444910722
110.13450,3.055299538
110.13500,3.970882761
110.13550,3.665688353
110.13600,2.75010513
110.13650,1.834521907
110.13700,1.529327499
110.13750,0.3085498685
110.13800,-1.522616578
110.13850,-1.21742217
110.13900,1.834521907
110.13950,5.191660392
110.14000,3.970882761
110.14050,0.003355460754
110.14100,-2.133005393
110.14150,-0.9122277624
110.14200,0.9189386839
110.14250,1.529327499
110.14300,0.003355460754
110.14350,-1.522616578
110.14400,-2.743394209
110.14450,-1.522616578
110.14500,0.6137442762
110.14550,1.834521907
110.14600,0.9189386839
110.14650,0.003355460754
110.14700,0.003355460754
110.14750,0.003355460754
110.14800,-0.3018389469
110.14850,-1.21742217
110.14900,-0.3018389469
110.14950,1.529327499
110.15000,2.444910722
110.15050,1.834521907
110.15100,1.529327499
110.15150,0.6137442762
110.15200,-1.21742217
110.15250,-3.658977432
110.15300,-3.964171839
110.15350,-2.438199801
110.15400,-1.522616578
110.15450,-2.743394209
110.15500,-3.964171839
110.15550,-3.964171839
110.15600,-3.658977432
110.15650,-3.964171839
110.15700,-3.048588616
110.15750,-0.3018389469
110.15800,2.139716315
110.15850,2.75010513
110.15900,2.139716315
110.15950,1.224133092
110.16000,0.003355460754
110.16050,-0.9122277624
110.16100,-1.21742217
110.16150,-1.522616578
110.16200,-1.827810985
110.16250,-1.827810985
110.16300,-0.6070333546
110.16350,0.3085498685
110.16400,0.003355460754
110.16450,-2.743394209
110.16500,-3.964171839
110.16550,-2.438199801
110.16600,0.003355460754
110.16650,1.224133092
110.16700,0.9189386839
110.16750,0.003355460754
110.16800,0.3085498685
110.16850,1.224133092
110.16900,1.529327499
110.16950,0.3085498685
110.17000,-0.6070333546
110.17050,-0.6070333546
110.17100,0.6137442762
110.17150,1.834521907
110.17200,2.139716315
110.17250,1.529327499
110.17300,1.224133092
110.17350,0.6137442762
110.17400,-0.3018389469
110.17450,-0.9122277624
110.17500,0.003355460754
110.17550,1.834521907
110.17600,1.834521907
110.17650,0.6137442762
110.17700,0.6137442762
110.17750,3.055299538
110.17800,5.191660392
110.17850,3.665688353
110.17900,0.3085498685
110.17950,-1.21742217
110.18000,-1.827810985
110.18050,-2.133005393
110.18100,-2.743394209
110.18150,-1.522616578
110.18200,0.3085498685
110.18250,1.224133092
110.18300,-1.522616578
110.18350,-6.100532693
110.18400,-8.236893547
110.18450,-6.405727101
110.18500,-2.438199801
110.18550,0.3085498685
110.18600,1.834521907
110.18650,1.224133092
110.18700,0.003355460754
110.18750,0.003355460754
110.18800,0.3085498685
110.18850,0.9189386839
110.18900,0.9189386839
110.18950,0.003355460754
110.19000,-0.9122277624
110.19050,-3.048588616
110.19100,-4.269366247
110.19150,-3.353783024
110.19200,-0.6070333546
110.19250,1.529327499
110.19300,3.055299538
110.19350,3.665688353
110.19400,2.139716315
110.19450,-0.9122277624
110.19500,-2.438199801
110.19550,0.3085498685
110.19600,6.107243615
110.19650,8.548798876
110.19700,6.412438022
110.19750,3.055299538
110.19800,0.003355460754
110.19850,-7.016115916
110.19900,-15.25636492
110.19950,-17.39272578
110.20000,-10.67844881
110.20050,-3.048588616
110.20100,-2.133005393
110.20150,-4.879755062
110.20200,-3.964171839
110.20250,-0.6070333546
110.20300,-0.6070333546
110.20350,-3.658977432
110.20400,-3.658977432
110.20450,0.003355460754
110.20500,0.9189386839
110.20550,-1.522616578
110.20600,-3.048588616
110.20650,-0.3018389469
110.20700,2.75010513
110.20750,2.75010513
110.20800,1.529327499
110.20850,2.444910722
110.20900,3.970882761
110.20950,3.055299538
110.21000,0.003355460754
110.21050,-1.827810985
110.21100,-1.522616578
110.21150,-0.3018389469
110.21200,0.6137442762
110.21250,2.139716315
110.21300,3.665688353
110.21350,3.360493945
110.21400,2.139716315
110.21450,1.224133092
110.21500,1.834521907
110.21550,3.665688353
110.21600,4.581271576
110.21650,4.886465984
110.21700,4.581271576
110.21750,3.055299538
110.21800,0.3085498685
110.21850,-2.133005393
110.21900,-3.048588616
110.21950,-1.21742217
110.22000,1.224133092
110.22050,2.75010513
110.22100,1.834521907
110.22150,0.3085498685
110.22200,0.003355460754
110.22250,0.003355460754
110.22300,-2.438199801
110.22350,-4.879755062
110.22400,-3.353783024
110.22450,2.139716315
110.22500,7.022826838
110.22550,6.71763243
110.22600,3.665688353
110.22650,2.139716315
110.22700,1.224133092
110.22750,-0.3018389469
110.22800,-2.743394209
110.22850,-1.827810985
110.22900,0.9189386839
110.22950,2.75010513
110.23000,2.139716315
110.23050,1.529327499
110.23100,2.75010513
110.23150,3.665688353
110.23200,3.055299538
110.23250,3.055299538
110.23300,3.665688353
110.23350,3.360493945
110.23400,1.834521907
110.23450,0.9189386839
110.23500,0.9189386839
110.23550,0.003355460754
110.23600,-1.827810985
110.23650,-1.522616578
110.23700,0.003355460754
110.23750,0.3085498685
110.23800,-1.827810985
110.23850,-2.438199801
110.23900,0.003355460754
110.23950,1.529327499
110.24000,-1.522616578
110.24050,-6.405727101
110.24100,-6.710921509
110.24150,-3.048588616
110.24200,-1.21742217
110.24250,-1.827810985
110.24300,-1.827810985
110.24350,0.003355460754
110.24400,0.3085498685
110.24450,-0.3018389469
110.24500,-0.3018389469
110.24550,1.529327499
110.24600,3.360493945
110.24650,3.360493945
110.24700,3.055299538
110.24750,3.665688353
110.24800,3.360493945
110.24850,2.139716315
110.24900,0.9189386839
110.24950,0.3085498685
110.25000,0.003355460754
110.25050,-0.3018389469
110.25100,0.6137442762
110.25150,2.444910722
110.25200,3.055299538
110.25250,0.6137442762
110.25300,-3.964171839
110.25350,-9.457671178
110.25400,-14.03558729
110.25450,-14.95117052
110.25500,-10.98364322
110.25550,-4.879755062
110.25600,-0.3018389469
110.25650,1.529327499
110.25700,3.055299538
110.25750,4.581271576
110.25800,3.055299538
110.25850,-0.3018389469
110.25900,-1.21742217
110.25950,2.444910722
110.26000,7.328021246
110.26050,8.548798876
110.26100,6.71763243
110.26150,5.496854799
110.26200,5.496854799
110.26250,3.665688353
110.26300,0.003355460754
110.26350,-1.21742217
110.26400,1.224133092
110.26450,4.581271576
110.26500,4.276077169
110.26550,0.9189386839
110.26600,-1.21742217
110.26650,-0.6070333546
110.26700,0.6137442762
110.26750,1.224133092
110.26800,0.9189386839
110.26850,0.3085498685
110.26900,-0.6070333546
110.26950,-1.827810985
110.27000,-0.9122277624
110.27050,1.834521907
110.27100,4.276077169
110.27150,4.276077169
110.27200,3.360493945
110.27250,2.75010513
110.27300,1.529327499
110.27350,0.003355460754
110.27400,-0.3018389469
110.27450,1.529327499
110.27500,3.360493945
110.27550,1.529327499
110.27600,-2.438199801
110.27650,-4.269366247
110.27700,-2.438199801
110.27750,-0.3018389469
110.27800,0.003355460754
110.27850,-0.3018389469
110.27900,0.003355460754
110.27950,1.224133092
110.28000,1.529327499
110.28050,1.529327499
110.28100,0.6137442762
110.28150,-0.6070333546
110.28200,-2.438199801
110.28250,-3.658977432
110.28300,-2.743394209
110.28350,-1.21742217
110.28400,-0.3018389469
110.28450,-0.9122277624
110.28500,-2.133005393
110.28550,-2.438199801
110.28600,-1.522616578
110.28650,0.003355460754
110.28700,1.529327499
110.28750,1.834521907
110.28800,1.529327499
110.28850,2.139716315
110.28900,3.055299538
110.28950,3.970882761
110.29000,4.276077169
110.29050,4.581271576
110.29100,4.581271576
110.29150,3.665688353
110.29200,1.834521907
110.29250,0.3085498685
110.29300,-0.3018389469
110.29350,-1.827810985
110.29400,-3.048588616
110.29450,-2.743394209
110.29500,-1.522616578
110.29550,-0.9122277624
110.29600,-0.9122277624
110.29650,-0.6070333546
110.29700,0.003355460754
110.29750,0.6137442762
110.29800,0.3085498685
110.29850,0.003355460754
110.29900,0.003355460754
110.29950,-0.9122277624
110.30000,-3.658977432
110.30050,-5.795338286
110.30100,-5.18494947
110.30150,-2.743394209
110.30200,-0.3018389469
110.30250,0.9189386839
110.30300,2.139716315
110.30350,2.75010513
110.30400,3.360493945
110.30450,3.970882761
110.30500,4.886465984
110.30550,3.665688353
110.30600,-0.3018389469
110.30650,-5.795338286
110.30700,-8.236893547
110.30750,-6.100532693
110.30800,-2.743394209
110.30850,-2.438199801
110.30900,-4.879755062
110.30950,-6.710921509
110.31000,-4.879755062
110.31050,-1.522616578
110.31100,0.003355460754
110.31150,-1.21742217
110.31200,-3.658977432
110.31250,-2.743394209
110.31300,1.224133092
110.31350,5.496854799
110.31400,6.71763243
110.31450,4.886465984
110.31500,3.360493945
110.31550,3.360493945
110.31600,2.75010513
110.31650,-0.6070333546
110.31700,-6.100532693
110.31750,-9.15247677
110.31800,-6.405727101
110.31850,0.6137442762
110.31900,6.412438022
110.31950,8.243604469
110.32000,7.633215653
110.32050,8.548798876
110.32100,8.243604469
110.32150,1.224133092
110.32200,-10.67844881
110.32250,-18.61350341
110.32300,-15.56155933
110.32350,-7.016115916
110.32400,-2.438199801
110.32450,-3.964171839
110.32500,-5.795338286
110.32550,-4.879755062
110.32600,-3.353783024
110.32650,-3.964171839
110.32700,-4.269366247
110.32750,-2.438199801
110.32800,0.003355460754
110.32850,0.6137442762
110.32900,-0.3018389469
110.32950,-1.21742217
110.33000,-0.6070333546
110.33050,0.003355460754
110.33100,-0.9122277624
110.33150,-2.133005393
110.33200,-1.522616578
110.33250,0.9189386839
110.33300,2.444910722
110.33350,0.9189386839
110.33400,-1.827810985
110.33450,-3.048588616
110.33500,-2.438199801
110.33550,-2.133005393
110.33600,-2.743394209
110.33650,-2.133005393
110.33700,0.3085498685
110.33750,2.75010513
110.33800,2.139716315
110.33850,0.003355460754
110.33900,-1.522616578
110.33950,-1.21742217
110.34000,-1.21742217
110.34050,-2.438199801
110.34100,-4.269366247
110.34150,-4.879755062
110.34200,-3.658977432
110.34250,-2.133005393
110.34300,-1.827810985
110.34350,-2.438199801
110.34400,-2.438199801
110.34450,-0.3018389469
110.34500,1.224133092
110.34550,2.139716315
110.34600,1.529327499
110.34650,1.224133092
110.34700,1.224133092
110.34750,1.224133092
110.34800,1.529327499
110.34850,1.529327499
110.34900,-0.3018389469
110.34950,-4.574560655
110.35000,-7.626504732
110.35050,-5.18494947
110.35100,1.834521907
110.35150,7.938410061
110.35200,9.159187692
110.35250,6.412438022
110.35300,3.055299538
110.35350,0.9189386839
110.35400,1.224133092
110.35450,3.665688353
110.35500,6.412438022
110.35550,7.328021246
110.35600,6.412438022
110.35650,5.191660392
110.35700,4.276077169
110.35750,2.139716315
110.35800,-0.6070333546
110.35850,-2.133005393
110.35900,-0.6070333546
110.35950,2.139716315
110.36000,3.970882761
110.36050,3.970882761
110.36100,2.75010513
110.36150,0.9189386839
110.36200,-0.6070333546
110.36250,-1.21742217
110.36300,-0.3018389469
110.36350,0.003355460754
110.36400,0.3085498685
110.36450,0.3085498685
110.36500,1.529327499
110.36550,2.75010513
110.36600,2.444910722
110.36650,1.529327499
110.36700,0.9189386839
110.36750,0.9189386839
110.36800,0.6137442762
110.36850,0.3085498685
110.36900,0.6137442762
110.36950,1.224133092
110.37000,1.529327499
110.37050,1.529327499
110.37100,1.529327499
110.37150,1.224133092
110.37200,0.003355460754
110.37250,0.003355460754
110.37300,1.224133092
110.37350,2.444910722
110.37400,2.444910722
110.37450,2.444910722
110.37500,3.360493945
110.37550,4.276077169
110.37600,3.665688353
110.37650,1.224133092
110.37700,0.003355460754
110.37750,0.003355460754
110.37800,0.003355460754
110.37850,0.003355460754
110.37900,0.3085498685
110.37950,1.529327499
110.38000,1.529327499
110.38050,1.224133092
110.38100,1.224133092
110.38150,1.224133092
110.38200,0.3085498685
110.38250,-0.9122277624
110.38300,-1.522616578
110.38350,-0.9122277624
110.38400,-0.6070333546
110.38450,-0.6070333546
110.38500,-0.3018389469
110.38550,-0.3018389469
110.38600,-1.827810985
110.38650,-4.574560655
110.38700,-5.795338286
110.38750,-4.269366247
110.38800,-2.743394209
110.38850,-2.133005393
110.38900,-1.827810985
110.38950,-1.522616578
110.39000,-1.827810985
110.39050,-5.18494947
110.39100,-10.06805999
110.39150,-12.81480966
110.39200,-11.28883762
110.39250,-6.405727101
110.39300,-2.133005393
110.39350,-1.827810985
110.39400,-3.048588616
110.39450,-3.048588616
110.39500,-1.827810985
110.39550,-1.522616578
110.39600,-3.048588616
110.39650,-2.743394209
110.39700,0.3085498685
110.39750,3.970882761
110.39800,5.191660392
110.39850,3.665688353
110.39900,1.529327499
110.39950,0.003355460754
110.40000,-1.522616578
110.40050,-2.438199801
110.40100,-2.133005393
110.40150,-2.438199801
110.40200,-4.269366247
110.40250,-6.100532693
110.40300,-4.879755062
110.40350,-0.9122277624
110.40400,3.055299538
110.40450,4.886465984
110.40500,4.581271576
110.40550,3.055299538
110.40600,0.6137442762
110.40650,-1.21742217
110.40700,-2.133005393
110.40750,-1.827810985
110.40800,-0.9122277624
110.40850,0.3085498685
110.40900,2.75010513
110.40950,6.107243615
110.41000,8.243604469
110.41050,7.328021246
110.41100,3.360493945
110.41150,0.003355460754
110.41200,-0.3018389469
110.41250,0.003355460754
110.41300,0.9189386839
110.41350,2.139716315
110.41400,5.802049207
110.41450,9.159187692
110.41500,8.548798876
110.41550,3.970882761
110.41600,0.6137442762
110.41650,1.529327499
110.41700,3.055299538
110.41750,1.834521907
110.41800,0.003355460754
110.41850,1.224133092
110.41900,4.581271576
110.41950,6.107243615
110.42000,4.886465984
110.42050,3.665688353
110.42100,4.276077169
110.42150,3.970882761
110.42200,1.834521907
110.42250,0.003355460754
110.42300,-0.3018389469
110.42350,-0.3018389469
110.42400,-0.6070333546
110.42450,-0.6070333546
110.42500,0.6137442762
110.42550,1.834521907
110.42600,0.9189386839
110.42650,-2.438199801
110.42700,-6.100532693
110.42750,-7.016115916
110.42800,-4.879755062
110.42850,-2.438199801
110.42900,-1.522616578
110.42950,-1.522616578
110.43000,-0.6070333546
110.43050,0.6137442762
110.43100,1.834521907
110.43150,1.834521907
110.43200,2.444910722
110.43250,2.75010513
110.43300,2.444910722
110.43350,0.3085498685
110.43400,-1.522616578
110.43450,-1.522616578
110.43500,0.003355460754
110.43550,2.75010513
110.43600,5.191660392
110.43650,6.107243615
110.43700,4.581271576
110.43750,1.224133092
110.43800,-1.827810985
110.43850,-3.353783024
110.43900,-3.048588616
110.43950,-1.522616578
110.44000,0.003355460754
110.44050,0.6137442762
110.44100,-0.3018389469
110.44150,-3.353783024
110.44200,-5.18494947
110.44250,-3.658977432
110.44300,-0.6070333546
110.44350,-0.6070333546
110.44400,-3.658977432
110.44450,-6.710921509
110.44500,-6.710921509
110.44550,-5.18494947
110.44600,-4.269366247
110.44650,-3.964171839
110.44700,-2.743394209
110.44750,-0.3018389469
110.44800,0.6137442762
110.44850,0.003355460754
110.44900,-1.21742217
110.44950,-1.522616578
110.45000,-0.3018389469
110.45050,1.224133092
110.45100,2.444910722
110.45150,3.055299538
110.45200,3.360493945
110.45250,4.886465984
110.45300,7.633215653
110.45350,9.769576507
110.45400,9.4643821
110.45450,8.548798876
110.45500,9.769576507
110.45550,11.60074295
110.45600,7.938410061
110.45650,-3.353783024
110.45700,-12.81480966
110.45750,-11.89922644
110.45800,-3.353783024
110.45850,1.529327499
110.45900,0.003355460754
110.45950,-1.21742217
110.46000,0.9189386839
110.46050,3.360493945
110.46100,1.224133092
110.46150,-2.438199801
110.46200,-3.353783024
110.46250,-1.827810985
110.46300,-1.21742217
110.46350,-1.827810985
110.46400,-1.522616578
110.46450,-0.3018389469
110.46500,0.3085498685
110.46550,0.003355460754
110.46600,-1.522616578
110.46650,-2.743394209
110.46700,-2.438199801
110.46750,-0.3018389469
110.46800,2.444910722
110.46850,4.886465984
110.46900,6.107243615
110.46950,6.71763243
110.47000,5.496854799
110.47050,1.834521907
110.47100,-2.743394209
110.47150,-5.18494947
110.47200,-4.879755062
110.47250,-4.574560655
110.47300,-4.879755062
110.47350,-3.353783024
110.47400,0.003355460754
110.47450,1.834521907
110.47500,1.529327499
110.47550,1.529327499
110.47600,3.360493945
110.47650,4.276077169
110.47700,1.834521907
110.47750,-1.522616578
110.47800,-3.048588616
110.47850,-1.827810985
110.47900,0.003355460754
110.47950,1.529327499
110.48000,3.055299538
110.48050,4.276077169
110.48100,3.665688353
110.48150,1.834521907
110.48200,-0.6070333546
110.48250,-3.658977432
110.48300,-6.405727101
110.48350,-6.405727101
110.48400,-3.658977432
110.48450,-0.6070333546
110.48500,0.003355460754
110.48550,-1.827810985
110.48600,-3.964171839
110.48650,-4.879755062
110.48700,-4.574560655
110.48750,-3.048588616
110.48800,-2.438199801
110.48850,-3.658977432
110.48900,-5.18494947
110.48950,-4.574560655
110.49000,-2.133005393
110.49050,-0.6070333546
110.49100,-0.9122277624
110.49150,-1.522616578
110.49200,0.003355460754
110.49250,3.055299538
110.49300,5.802049207
110.49350,7.328021246
110.49400,7.022826838
110.49450,4.886465984
110.49500,1.224133092
110.49550,-1.21742217
110.49600,-1.522616578
110.49650,0.003355460754
110.49700,1.224133092
110.49750,1.224133092
110.49800,0.9189386839
110.49850,0.003355460754
110.49900,-1.827810985
110.49950,-3.964171839
110.50000,-4.879755062
110.50050,-4.574560655
110.50100,-5.18494947
110.50150,-5.795338286
110.50200,-3.353783024
110.50250,1.834521907
110.50300,6.71763243
110.50350,5.191660392
110.50400,-0.9122277624
110.50450,-5.18494947
110.50500,-4.269366247
110.50550,-2.438199801
110.50600,-4.574560655
110.50650,-8.236893547
110.50700,-8.236893547
110.50750,-2.438199801
110.50800,3.970882761
110.50850,6.71763243
110.50900,5.496854799
110.50950,2.444910722
110.51000,0.3085498685
110.51050,-1.522616578
110.51100,-3.964171839
110.51150,-5.490143878
110.51200,-4.879755062
110.51250,-2.438199801
110.51300,0.003355460754
110.51350,0.3085498685
110.51400,-0.6070333546
110.51450,-2.133005393
110.51500,-3.658977432
110.51550,-3.353783024
110.51600,-0.9122277624
110.51650,2.444910722
110.51700,4.581271576
110.51750,3.665688353
110.51800,1.224133092
110.51850,0.3085498685
110.51900,1.834521907
110.51950,2.75010513
110.52000,1.834521907
110.52050,0.003355460754
110.52100,-0.6070333546
110.52150,0.3085498685
110.52200,3.665688353
110.52250,6.107243615
110.52300,4.581271576
110.52350,0.6137442762
110.52400,-0.6070333546
110.52450,1.224133092
110.52500,0.3085498685
110.52550,-7.016115916
110.52600,-15.86675374
110.52650,-15.56155933
110.52700,-6.405727101
110.52750,1.224133092
110.52800,2.444910722
110.52850,0.9189386839
110.52900,1.529327499
110.52950,3.360493945
110.53000,2.444910722
110.53050,0.003355460754
110.53100,0.003355460754
110.53150,1.529327499
110.53200,2.75010513
110.53250,2.139716315
110.53300,1.529327499
110.53350,0.9189386839
110.53400,-0.3018389469
110.53450,-2.133005393
110.53500,-2.438199801
110.53550,0.003355460754
110.53600,2.139716315
110.53650,2.444910722
110.53700,0.9189386839
110.53750,0.6137442762
110.53800,1.834521907
110.53850,2.75010513
110.53900,2.139716315
110.53950,0.003355460754
110.54000,-2.743394209
110.54050,-3.964171839
110.54100,-2.438199801
110.54150,-0.3018389469
110.54200,0.003355460754
110.54250,-0.3018389469
110.54300,0.6137442762
110.54350,4.581271576
110.54400,6.71763243
110.54450,4.886465984
110.54500,2.139716315
110.54550,2.444910722
110.54600,4.581271576
110.54650,5.191660392
110.54700,3.360493945
110.54750,0.6137442762
110.54800,-3.048588616
110.54850,-8.542087955
110.54900,-11.89922644
110.54950,-8.236893547
110.55000,0.003355460754
110.55050,4.886465984
110.55100,3.360493945
110.55150,0.003355460754
110.55200,-0.6070333546
110.55250,0.003355460754
110.55300,1.529327499
110.55350,5.496854799
110.55400,10.68515973
110.55450,11.60074295
110.55500,8.853993284
110.55550,7.633215653
110.55600,9.769576507
110.55650,7.633215653
110.55700,-3.353783024
110.55750,-15.86675374
110.55800,-17.39272578
110.55850,-9.15247677
110.55900,-1.827810985
110.55950,-1.21742217
110.56000,-3.658977432
110.56050,-3.964171839
110.56100,-2.133005393
110.56150,-1.21742217
110.56200,-1.21742217
110.56250,-0.9122277624
110.56300,0.3085498685
110.56350,1.834521907
110.56400,1.529327499
110.56450,0.003355460754
110.56500,-0.3018389469
110.56550,1.224133092
110.56600,4.276077169
110.56650,4.276077169
110.56700,1.529327499
110.56750,0.003355460754
110.56800,1.224133092
110.56850,3.665688353
110.56900,3.970882761
110.56950,2.139716315
110.57000,0.003355460754
110.57050,-2.438199801
110.57100,-3.658977432
110.57150,-2.438199801
110.57200,0.003355460754
110.57250,0.003355460754
110.57300,-2.438199801
110.57350,-3.658977432
110.57400,-0.3018389469
110.57450,3.970882761
110.57500,5.496854799
110.57550,3.360493945
110.57600,1.224133092
110.57650,0.003355460754
110.57700,-1.21742217
110.57750,-1.827810985
110.57800,0.003355460754
110.57850,3.055299538
110.57900,2.139716315
110.57950,-2.438199801
110.58000,-6.100532693
110.58050,-4.879755062
110.58100,0.3085498685
110.58150,5.496854799
110.58200,8.243604469
110.58250,7.938410061
110.58300,5.802049207
110.58350,3.360493945
110.58400,2.444910722
110.58450,3.970882761
110.58500,5.496854799
110.58550,5.496854799
110.58600,4.276077169
110.58650,3.055299538
110.58700,2.444910722
110.58750,1.834521907
110.58800,0.6137442762
110.58850,0.003355460754
110.58900,-0.3018389469
110.58950,0.003355460754
110.59000,0.3085498685
110.59050,1.834521907
110.59100,2.139716315
110.59150,1.224133092
110.59200,-0.9122277624
110.59250,-2.743394209
110.59300,-2.438199801
110.59350,-0.6070333546
110.59400,1.224133092
110.59450,2.444910722
110.59500,3.360493945
110.59550,3.665688353
110.59600,2.75010513
110.59650,0.6137442762
110.59700,-0.6070333546
110.59750,0.3085498685
110.59800,2.75010513
110.59850,3.360493945
110.59900,0.9189386839
110.59950,-1.522616578
110.60000,-2.133005393
110.60050,-1.827810985
110.60100,-2.743394209
110.60150,-3.964171839
110.60200,-3.964171839
110.60250,-2.438199801
110.60300,-0.9122277624
110.60350,0.003355460754
110.60400,0.6137442762
110.60450,-0.3018389469
110.60500,-3.964171839
110.60550,-6.405727101
110.60600,-5.18494947
110.60650,-1.522616578
110.60700,0.003355460754
110.60750,-1.522616578
110.60800,-3.658977432
110.60850,-2.743394209
110.60900,-1.21742217
110.60950,-1.827810985
110.61000,-4.269366247
110.61050,-5.18494947
110.61100,-3.048588616
110.61150,-0.3018389469
110.61200,0.3085498685
110.61250,-0.3018389469
110.61300,0.003355460754
110.61350,0.9189386839
110.61400,2.444910722
110.61450,2.75010513
110.61500,1.834521907
110.61550,1.224133092
110.61600,1.224133092
110.61650,1.224133092
110.61700,1.529327499
110.61750,2.139716315
110.61800,3.055299538
110.61850,2.75010513
110.61900,1.224133092
110.61950,0.003355460754
110.62000,-1.21742217
110.62050,-2.438199801
110.62100,-3.964171839
110.62150,-4.269366247
110.62200,-2.438199801
110.62250,-0.6070333546
110.62300,-0.6070333546
110.62350,-2.133005393
110.62400,-2.133005393
110.62450,-0.6070333546
110.62500,0.003355460754
110.62550,-0.9122277624
110.62600,-1.522616578
110.62650,-0.3018389469
110.62700,1.834521907
110.62750,2.139716315
110.62800,0.6137442762
110.62850,-0.6070333546
110.62900,-0.6070333546
110.62950,0.003355460754
110.63000,-0.9122277624
110.63050,-3.048588616
110.63100,-4.879755062
110.63150,-4.879755062
110.63200,-3.048588616
110.63250,-0.6070333546
110.63300,1.224133092
110.63350,2.444910722
110.63400,1.834521907
110.63450,-0.3018389469
110.63500,-3.048588616
110.63550,-3.964171839
110.63600,-3.048588616
110.63650,-0.9122277624
110.63700,2.139716315
110.63750,5.191660392
110.63800,6.412438022
110.63850,4.581271576
110.63900,1.834521907
110.63950,0.6137442762
110.64000,1.834521907
110.64050,3.055299538
110.64100,2.444910722
110.64150,0.9189386839
110.64200,1.224133092
110.64250,3.360493945
110.64300,5.802049207
110.64350,6.71763243
110.64400,4.886465984
110.64450,1.834521907
110.64500,-0.9122277624
110.64550,-2.743394209
110.64600,-3.658977432
110.64650,-4.574560655
110.64700,-6.100532693
110.64750,-7.626504732
110.64800,-8.847282363
110.64850,-9.457671178
110.64900,-8.847282363
110.64950,-7.016115916
110.65000,-4.269366247
110.65050,-1.827810985
110.65100,-0.6070333546
110.65150,-0.3018389469
110.65200,0.6137442762
110.65250,3.055299538
110.65300,4.581271576
110.65350,3.970882761
110.65400,2.139716315
110.65450,1.224133092
110.65500,1.224133092
110.65550,0.9189386839
110.65600,0.003355460754
110.65650,-0.3018389469
110.65700,0.003355460754
110.65750,1.529327499
110.65800,2.75010513
110.65850,3.055299538
110.65900,3.055299538
110.65950,2.139716315
110.66000,-0.6070333546
110.66050,-3.964171839
110.66100,-4.269366247
110.66150,-1.827810985
110.66200,0.6137442762
110.66250,0.6137442762
110.66300,-1.21742217
110.66350,-3.048588616
110.66400,-3.964171839
110.66450,-3.964171839
110.66500,-3.964171839
110.66550,-3.353783024
110.66600,-2.438199801
110.66650,-2.438199801
110.66700,-3.048588616
110.66750,-2.743394209
110.66800,-0.6070333546
110.66850,0.3085498685
110.66900,-1.522616578
110.66950,-4.879755062
110.67000,-5.490143878
110.67050,-2.743394209
110.67100,1.224133092
110.67150,4.276077169
110.67200,5.802049207
110.67250,6.412438022
110.67300,5.496854799
110.67350,3.970882761
110.67400,3.360493945
110.67450,3.970882761
110.67500,3.360493945
110.67550,1.224133092
110.67600,0.003355460754
110.67650,1.224133092
110.67700,5.191660392
110.67750,7.633215653
110.67800,7.022826838
110.67850,4.886465984
110.67900,3.055299538
110.67950,1.224133092
110.68000,0.003355460754
110.68050,-0.6070333546
110.68100,0.6137442762
110.68150,2.75010513
110.68200,3.665688353
110.68250,2.444910722
110.68300,1.224133092
110.68350,0.3085498685
110.68400,-0.3018389469
110.68450,-2.133005393
110.68500,-3.964171839
110.68550,-3.658977432
110.68600,-1.522616578
110.68650,-0.6070333546
110.68700,-2.438199801
110.68750,-4.879755062
110.68800,-4.574560655
110.68850,-2.438199801
110.68900,-0.9122277624
110.68950,-1.21742217
110.69000,-1.827810985
110.69050,-1.827810985
110.69100,-1.827810985
110.69150,-0.6070333546
110.69200,2.75010513
110.69250,7.022826838
110.69300,6.412438022
110.69350,1.834521907
110.69400,1.529327499
110.69450,7.938410061
110.69500,12.21113177
110.69550,4.886465984
110.69600,-9.15247677
110.69650,-15.56155933
110.69700,-9.762865586
110.69750,-2.438199801
110.69800,-3.048588616
110.69850,-7.321310324
110.69900,-6.405727101
110.69950,-1.21742217
110.70000,2.139716315
110.70050,1.224133092
110.70100,0.3085498685
110.70150,1.224133092
110.70200,1.529327499
110.70250,0.6137442762
110.70300,0.3085498685
110.70350,1.529327499
110.70400,1.529327499
110.70450,0.003355460754
110.70500,-1.827810985
110.70550,-1.21742217
110.70600,0.3085498685
110.70650,1.834521907
110.70700,3.360493945
110.70750,6.107243615
110.70800,6.412438022
110.70850,3.055299538
110.70900,-0.3018389469
110.70950,0.003355460754
110.71000,2.444910722
110.71050,-0.6070333546
110.71100,-9.457671178
110.71150,-14.95117052
110.71200,-11.28883762
110.71250,-3.658977432
110.71300,-0.3018389469
110.71350,-2.133005393
110.71400,-3.048588616
110.71450,-0.6070333546
110.71500,1.834521907
110.71550,2.139716315
110.71600,1.529327499
110.71650,1.834521907
110.71700,2.75010513
110.71750,2.75010513
110.71800,2.139716315
110.71850,1.224133092
110.71900,0.6137442762
110.71950,0.3085498685
110.72000,0.6137442762
110.72050,0.9189386839
110.72100,0.9189386839
110.72150,0.6137442762
110.72200,0.6137442762
110.72250,1.834521907
110.72300,2.444910722
110.72350,2.444910722
110.72400,2.139716315
110.72450,2.444910722
110.72500,2.444910722
110.72550,0.6137442762
110.72600,-1.522616578
110.72650,-2.133005393
110.72700,-1.21742217
110.72750,-0.9122277624
110.72800,-1.522616578
110.72850,-1.827810985
110.72900,-1.21742217
110.72950,-0.9122277624
110.73000,-2.133005393
110.73050,-3.964171839
110.73100,-3.658977432
110.73150,-2.133005393
110.73200,-0.6070333546
110.73250,0.003355460754
110.73300,0.003355460754
110.73350,-0.3018389469
110.73400,-1.827810985
110.73450,-2.133005393
110.73500,0.6137442762
110.73550,6.107243615
110.73600,10.07477091
110.73650,10.99035414
110.73700,9.4643821
110.73750,6.71763243
110.73800,3.665688353
110.73850,1.529327499
110.73900,0.9189386839
110.73950,0.6137442762
110.74000,0.003355460754
110.74050,0.9189386839
110.74100,4.276077169
110.74150,6.107243615
110.74200,3.360493945
110.74250,-1.21742217
110.74300,-2.438199801
110.74350,-0.3018389469
110.74400,0.003355460754
110.74450,-3.048588616
110.74500,-5.795338286
110.74550,-6.100532693
110.74600,-5.795338286
110.74650,-6.405727101
110.74700,-5.795338286
110.74750,-2.438199801
110.74800,0.6137442762
110.74850,0.9189386839
110.74900,0.6137442762
110.74950,2.139716315
110.75000,3.970882761
110.75050,3.665688353
110.75100,2.75010513
110.75150,2.75010513
110.75200,3.360493945
110.75250,1.834521907
110.75300,-0.3018389469
110.75350,-0.9122277624
110.75400,0.9189386839
110.75450,2.75010513
110.75500,3.055299538
110.75550,1.834521907
110.75600,0.003355460754
110.75650,-1.21742217
110.75700,-0.9122277624
110.75750,1.224133092
110.75800,2.444910722
110.75850,-0.3018389469
110.75900,-4.879755062
110.75950,-5.490143878
110.76000,-1.522616578
110.76050,1.529327499
110.76100,0.9189386839
110.76150,-1.827810985
110.76200,-2.438199801
110.76250,0.003355460754
110.76300,2.139716315
110.76350,2.139716315
110.76400,0.3085498685
110.76450,-2.133005393
110.76500,-4.879755062
110.76550,-7.626504732
110.76600,-9.15247677
110.76650,-7.931699139
110.76700,-3.048588616
110.76750,3.360493945
110.76800,7.022826838
110.76850,5.496854799
110.76900,1.834521907
110.76950,0.003355460754
110.77000,0.6137442762
110.77050,0.9189386839
110.77100,0.003355460754
110.77150,-1.21742217
110.77200,-1.21742217
110.77250,-1.21742217
110.77300,-1.21742217
110.77350,0.003355460754
110.77400,1.834521907
110.77450,2.75010513
110.77500,1.224133092
110.77550,0.003355460754
110.77600,-0.6070333546
110.77650,-0.6070333546
110.77700,-0.9122277624
110.77750,0.003355460754
110.77800,1.834521907
110.77850,2.75010513
110.77900,1.529327499
110.77950,1.224133092
110.78000,3.970882761
110.78050,5.191660392
110.78100,2.139716315
110.78150,-1.522616578
110.78200,-2.133005393
110.78250,0.003355460754
110.78300,0.003355460754
110.78350,-2.133005393
110.78400,-1.827810985
110.78450,0.003355460754
110.78500,-0.6070333546
110.78550,-5.490143878
110.78600,-8.236893547
110.78650,-4.879755062
110.78700,0.9189386839
110.78750,3.665688353
110.78800,2.139716315
110.78850,0.003355460754
110.78900,-1.827810985
110.78950,-2.133005393
110.79000,-0.9122277624
110.79050,0.3085498685
110.79100,0.9189386839
110.79150,0.3085498685
110.79200,0.9189386839
110.79250,2.139716315
110.79300,1.529327499
110.79350,-0.6070333546
110.79400,-1.522616578
110.79450,0.6137442762
110.79500,2.444910722
110.79550,0.9189386839
110.79600,-0.9122277624
110.79650,-0.3018389469
110.79700,1.224133092
110.79750,1.224133092
110.79800,-0.3018389469
110.79850,-1.522616578
110.79900,-0.9122277624
110.79950,0.003355460754
110.80000,0.003355460754
110.80050,0.3085498685
110.80100,0.9189386839
110.80150,1.529327499
110.80200,2.139716315
110.80250,3.665688353
110.80300,5.802049207
110.80350,6.107243615
110.80400,3.055299538
110.80450,-0.6070333546
110.80500,-0.3018389469
110.80550,4.276077169
110.80600,7.022826838
110.80650,0.003355460754
110.80700,-12.81480966
110.80750,-20.74986426
110.80800,-17.08753137
110.80850,-7.931699139
110.80900,-3.048588616
110.80950,-2.743394209
110.81000,-1.522616578
110.81050,1.529327499
110.81100,2.139716315
110.81150,-0.9122277624
110.81200,-4.574560655
110.81250,-3.964171839
110.81300,-0.9122277624
110.81350,0.6137442762
110.81400,1.224133092
110.81450,2.139716315
110.81500,3.665688353
110.81550,3.665688353
110.81600,1.834521907
110.81650,0.003355460754
110.81700,-0.3018389469
110.81750,0.003355460754
110.81800,0.003355460754
110.81850,0.6137442762
110.81900,2.75010513
110.81950,4.886465984
110.82000,4.276077169
110.82050,1.529327499
110.82100,0.003355460754
110.82150,0.003355460754
110.82200,-0.3018389469
110.82250,-2.743394209
110.82300,-5.18494947
110.82350,-3.658977432
110.82400,0.9189386839
110.82450,4.886465984
110.82500,4.581271576
110.82550,2.444910722
110.82600,0.6137442762
110.82650,-0.6070333546
110.82700,-3.048588616
110.82750,-5.490143878
110.82800,-5.490143878
110.82850,-3.658977432
110.82900,-2.438199801
110.82950,-2.133005393
110.83000,-1.522616578
110.83050,0.003355460754
110.83100,0.6137442762
110.83150,0.3085498685
110.83200,-0.3018389469
110.83250,-1.522616578
110.83300,-2.133005393
110.83350,-1.827810985
110.83400,0.003355460754
110.83450,3.055299538
110.83500,4.581271576
110.83550,3.970882761
110.83600,1.834521907
110.83650,0.3085498685
110.83700,-0.6070333546
110.83750,-2.133005393
110.83800,-2.133005393
110.83850,0.003355460754
110.83900,2.139716315
110.83950,2.444910722
110.84000,0.6137442762
110.84050,0.003355460754
110.84100,1.529327499
110.84150,2.444910722
110.84200,1.529327499
110.84250,0.9189386839
110.84300,3.055299538
110.84350,6.412438022
110.84400,6.412438022
110.84450,2.139716315
110.84500,-1.21742217
110.84550,-1.21742217
110.84600,0.003355460754
110.84650,-0.3018389469
110.84700,-2.743394209
110.84750,-3.048588616
110.84800,-1.21742217
110.84850,0.6137442762
110.84900,1.529327499
110.84950,1.834521907
110.85000,2.444910722
110.85050,2.444910722
110.85100,1.834521907
110.85150,0.9189386839
110.85200,0.003355460754
110.85250,-1.522616578
110.85300,-2.743394209
110.85350,-3.048588616
110.85400,-2.133005393
110.85450,-1.827810985
110.85500,-2.133005393
110.85550,-1.21742217
110.85600,0.3085498685
110.85650,1.224133092
110.85700,0.003355460754
110.85750,-1.21742217
110.85800,0.003355460754
110.85850,1.834521907
110.85900,2.139716315
110.85950,1.224133092
110.86000,0.6137442762
110.86050,1.224133092
110.86100,1.529327499
110.86150,0.6137442762
110.86200,0.003355460754
110.86250,-1.827810985
110.86300,-4.879755062
110.86350,-7.016115916
110.86400,-6.100532693
110.86450,-2.743394209
110.86500,0.003355460754
110.86550,0.9189386839
110.86600,0.9189386839
110.86650,0.003355460754
110.86700,-0.6070333546
110.86750,-1.827810985
110.86800,-2.743394209
110.86850,-3.964171839
110.86900,-4.574560655
110.86950,-3.048588616
110.87000,0.3085498685
110.87050,4.276077169
110.87100,5.802049207
110.87150,5.496854799
110.87200,5.191660392
110.87250,5.191660392
110.87300,4.581271576
110.87350,4.276077169
110.87400,4.276077169
110.87450,3.665688353
110.87500,2.444910722
110.87550,1.529327499
110.87600,2.139716315
110.87650,2.444910722
110.87700,0.9189386839
110.87750,-0.3018389469
110.87800,0.9189386839
110.87850,3.665688353
110.87900,3.665688353
110.87950,0.6137442762
110.88000,-0.3018389469
110.88050,1.224133092
110.88100,2.444910722
110.88150,1.529327499
110.88200,0.6137442762
110.88250,2.444910722
110.88300,3.970882761
110.88350,2.139716315
110.88400,-1.827810985
110.88450,-4.269366247
110.88500,-3.964171839
110.88550,-3.658977432
110.88600,-3.964171839
110.88650,-3.658977432
110.88700,-1.21742217
110.88750,1.224133092
110.88800,1.529327499
110.88850,-0.6070333546
110.88900,-3.353783024
110.88950,-3.964171839
110.89000,-1.827810985
110.89050,0.003355460754
110.89100,-0.6070333546
110.89150,-1.827810985
110.89200,-1.21742217
110.89250,1.529327499
110.89300,3.360493945
110.89350,2.139716315
110.89400,0.6137442762
110.89450,0.9189386839
110.89500,2.75010513
110.89550,3.665688353
110.89600,2.444910722
110.89650,0.6137442762
110.89700,0.003355460754
110.89750,-0.6070333546
110.89800,-1.827810985
110.89850,-3.353783024
110.89900,-3.658977432
110.89950,-1.827810985
110.90000,0.003355460754
110.90050,0.9189386839
110.90100,0.003355460754
110.90150,-0.9122277624
110.90200,-1.21742217
110.90250,-0.9122277624
110.90300,-0.9122277624
110.90350,-1.21742217
110.90400,-0.6070333546
110.90450,0.3085498685
110.90500,1.529327499
110.90550,2.139716315
110.90600,2.139716315
110.90650,1.834521907
110.90700,1.224133092
110.90750,1.224133092
110.90800,3.055299538
110.90850,4.276077169
110.90900,3.970882761
110.90950,2.444910722
110.91000,1.529327499
110.91050,1.529327499
110.91100,0.003355460754
110.91150,-2.133005393
110.91200,-3.658977432
110.91250,-2.743394209
110.91300,-0.6070333546
110.91350,0.003355460754
110.91400,-0.9122277624
110.91450,-1.522616578
110.91500,-0.6070333546
110.91550,1.224133092
110.91600,3.055299538
110.91650,3.360493945
110.91700,2.444910722
110.91750,0.9189386839
110.91800,-0.9122277624
110.91850,-3.048588616
110.91900,-3.353783024
110.91950,-2.133005393
110.92000,-0.6070333546
110.92050,0.3085498685
110.92100,1.224133092
110.92150,2.75010513
110.92200,3.360493945
110.92250,1.834521907
110.92300,-0.3018389469
110.92350,-0.6070333546
110.92400,0.3085498685
110.92450,0.6137442762
110.92500,-1.21742217
110.92550,-2.743394209
110.92600,-2.133005393
110.92650,-0.3018389469
110.92700,0.003355460754
110.92750,-0.3018389469
110.92800,-0.3018389469
110.92850,-0.9122277624
110.92900,-2.133005393
110.92950,-3.353783024
110.93000,-3.353783024
110.93050,-1.522616578
110.93100,0.003355460754
110.93150,-0.3018389469
110.93200,-1.21742217
110.93250,-1.522616578
110.93300,-0.3018389469
110.93350,1.224133092
110.93400,2.444910722
110.93450,2.139716315
110.93500,1.224133092
110.93550,0.6137442762
110.93600,0.3085498685
110.93650,-0.3018389469
110.93700,-0.9122277624
110.93750,-0.6070333546
110.93800,0.3085498685
110.93850,1.224133092
110.93900,1.834521907
110.93950,2.444910722
110.94000,3.055299538
110.94050,2.444910722
110.94100,1.834521907
110.94150,2.444910722
110.94200,3.360493945
110.94250,2.444910722
110.94300,0.6137442762
110.94350,-0.6070333546
110.94400,-1.827810985
110.94450,-4.574560655
110.94500,-6.405727101
110.94550,-3.658977432
110.94600,1.529327499
110.94650,3.970882761
110.94700,2.444910722
110.94750,2.139716315
110.94800,3.360493945
110.94850,-1.522616578
110.94900,-14.95117052
110.94950,-25.02258597
110.95000,-21.36025308
110.95050,-8.542087955
110.95100,-0.9122277624
110.95150,-2.743394209
110.95200,-6.405727101
110.95250,-6.405727101
110.95300,-4.269366247
110.95350,-2.743394209
110.95400,-0.3018389469
110.95450,2.444910722
110.95500,3.970882761
110.95550,2.139716315
110.95600,0.3085498685
110.95650,0.003355460754
110.95700,0.003355460754
110.95750,0.003355460754
110.95800,0.3085498685
110.95850,1.834521907
110.95900,2.444910722
110.95950,0.9189386839
110.96000,-1.21742217
110.96050,-2.438199801
110.96100,-1.522616578
110.96150,0.003355460754
110.96200,1.224133092
110.96250,0.003355460754
110.96300,-2.743394209
110.96350,-4.574560655
110.96400,-4.269366247
110.96450,-2.743394209
110.96500,-2.438199801
110.96550,-1.827810985
110.96600,-0.6070333546
110.96650,0.003355460754
110.96700,-0.3018389469
110.96750,-1.827810985
110.96800,-2.438199801
110.96850,-2.438199801
110.96900,-2.133005393
110.96950,-1.827810985
110.97000,-0.9122277624
110.97050,-0.3018389469
110.97100,0.003355460754
110.97150,1.834521907
110.97200,4.276077169
110.97250,5.496854799
110.97300,3.665688353
110.97350,1.834521907
110.97400,2.75010513
110.97450,4.886465984
110.97500,3.970882761
110.97550,1.224133092
110.97600,0.003355460754
110.97650,0.9189386839
110.97700,2.444910722
110.97750,2.444910722
110.97800,1.834521907
110.97850,1.224133092
110.97900,0.6137442762
110.97950,0.003355460754
110.98000,0.003355460754
110.98050,0.3085498685
110.98100,0.003355460754
110.98150,-1.522616578
110.98200,-2.743394209
110.98250,-0.6070333546
110.98300,2.75010513
110.98350,5.191660392
110.98400,5.191660392
110.98450,5.496854799
110.98500,6.107243615
110.98550,5.802049207
110.98600,2.75010513
110.98650,0.003355460754
110.98700,0.003355460754
110.98750,0.6137442762
110.98800,0.003355460754
110.98850,-4.879755062
110.98900,-10.06805999
110.98950,-11.89922644
110.99000,-9.762865586
110.99050,-4.879755062
110.99100,0.9189386839
110.99150,5.496854799
110.99200,7.328021246
110.99250,6.412438022
110.99300,4.581271576
110.99350,3.665688353
110.99400,2.75010513
110.99450,1.529327499
110.99500,0.6137442762
110.99550,0.3085498685
110.99600,1.224133092
110.99650,2.139716315
110.99700,2.444910722
110.99750,2.139716315
110.99800,1.224133092
110.99850,0.9189386839
110.99900,1.224133092
110.99950,0.6137442762
111.00000,-0.3018389469
111.00050,-1.21742217
111.00100,-0.9122277624
111.00150,0.003355460754
111.00200,-1.21742217
111.00250,-2.743394209
111.00300,-1.827810985
111.00350,0.6137442762
111.00400,2.444910722
111.00450,1.834521907
111.00500,0.3085498685
111.00550,-0.3018389469
111.00600,-0.9122277624
111.00650,-2.133005393
111.00700,-1.522616578
111.00750,1.529327499
111.00800,5.191660392
111.00850,5.802049207
111.00900,3.665688353
111.00950,0.6137442762
111.01000,-1.522616578
111.01050,-2.743394209
111.01100,-3.353783024
111.01150,-2.438199801
111.01200,-1.522616578
111.01250,-0.3018389469
111.01300,0.3085498685
111.01350,1.224133092
111.01400,1.529327499
111.01450,1.224133092
111.01500,0.9189386839
111.01550,1.224133092
111.01600,0.6137442762
111.01650,0.003355460754
111.01700,0.3085498685
111.01750,0.9189386839
111.01800,1.834521907
111.01850,2.444910722
111.01900,3.665688353
111.01950,4.886465984
111.02000,5.191660392
111.02050,4.581271576
111.02100,3.665688353
111.02150,3.360493945
111.02200,2.139716315
111.02250,0.003355460754
111.02300,-1.21742217
111.02350,-0.9122277624
111.02400,-0.3018389469
111.02450,-0.9122277624
111.02500,-1.827810985
111.02550,-1.522616578
111.02600,0.003355460754
111.02650,1.224133092
111.02700,0.3085498685
111.02750,-0.9122277624
111.02800,-0.6070333546
111.02850,0.3085498685
111.02900,0.3085498685
111.02950,-0.6070333546
111.03000,-0.3018389469
111.03050,1.529327499
111.03100,3.055299538
111.03150,1.529327499
111.03200,-0.9122277624
111.03250,-1.522616578
111.03300,-0.6070333546
111.03350,0.003355460754
111.03400,-0.6070333546
111.03450,-0.3018389469
111.03500,0.003355460754
111.03550,-0.3018389469
111.03600,-1.522616578
111.03650,-0.6070333546
111.03700,1.224133092
111.03750,1.834521907
111.03800,0.6137442762
111.03850,0.3085498685
111.03900,1.834521907
111.03950,2.444910722
111.04000,0.6137442762
111.04050,-1.21742217
111.04100,-1.522616578
111.04150,-1.21742217
111.04200,-1.522616578
111.04250,-1.522616578
111.04300,-0.6070333546
111.04350,0.3085498685
111.04400,0.003355460754
111.04450,-0.3018389469
111.04500,-0.3018389469
111.04550,0.003355460754
111.04600,-0.3018389469
111.04650,-0.6070333546
111.04700,-0.3018389469
111.04750,0.003355460754
111.04800,-1.827810985
111.04850,-3.658977432
111.04900,-3.658977432
111.04950,-1.827810985
111.05000,-0.6070333546
111.05050,-1.827810985
111.05100,-3.353783024
111.05150,-2.438199801
111.05200,0.3085498685
111.05250,1.224133092
111.05300,-0.6070333546
111.05350,-4.269366247
111.05400,-5.18494947
111.05450,-2.438199801
111.05500,2.139716315
111.05550,5.802049207
111.05600,6.412438022
111.05650,4.581271576
111.05700,3.360493945
111.05750,4.276077169
111.05800,5.802049207
111.05850,5.496854799
111.05900,2.75010513
111.05950,0.003355460754
111.06000,-1.21742217
111.06050,-1.21742217
111.06100,-0.9122277624
111.06150,-0.6070333546
111.06200,0.3085498685
111.06250,1.224133092
111.06300,1.224133092
111.06350,0.6137442762
111.06400,0.003355460754
111.06450,0.003355460754
111.06500,-0.9122277624
111.06550,-2.438199801
111.06600,-2.133005393
111.06650,-0.3018389469
111.06700,0.3085498685
111.06750,-0.3018389469
111.06800,-1.21742217
111.06850,-0.9122277624
111.06900,0.003355460754
111.06950,0.003355460754
111.07000,0.003355460754
111.07050,0.003355460754
111.07100,-0.3018389469
111.07150,-0.6070333546
111.07200,-0.6070333546
111.07250,-0.9122277624
111.07300,-1.522616578
111.07350,-1.827810985
111.07400,-1.522616578
111.07450,-1.21742217
111.07500,-1.21742217
111.07550,-1.827810985
111.07600,-1.827810985
111.07650,-1.827810985
111.07700,-2.438199801
111.07750,-1.827810985
111.07800,0.003355460754
111.07850,1.834521907
111.07900,0.9189386839
111.07950,-0.9122277624
111.08000,-0.3018389469
111.08050,1.529327499
111.08100,0.6137442762
111.08150,-3.048588616
111.08200,-6.100532693
111.08250,-5.795338286
111.08300,-3.964171839
111.08350,-3.353783024
111.08400,-2.133005393
111.08450,-0.3018389469
111.08500,-0.9122277624
111.08550,-3.658977432
111.08600,-5.18494947
111.08650,-3.048588616
111.08700,-0.6070333546
111.08750,-1.827810985
111.08800,-3.658977432
111.08850,-2.133005393
111.08900,1.224133092
111.08950,3.665688353
111.09000,3.665688353
111.09050,3.970882761
111.09100,4.581271576
111.09150,3.665688353
111.09200,1.529327499
111.09250,0.3085498685
111.09300,0.9189386839
111.09350,1.529327499
111.09400,1.529327499
111.09450,0.9189386839
111.09500,0.3085498685
111.09550,0.9189386839
111.09600,4.276077169
111.09650,9.4643821
111.09700,12.21113177
111.09750,11.60074295
111.09800,10.99035414
111.09850,10.68515973
111.09900,5.191660392
111.09950,-7.321310324
111.10000,-17.69792019
111.10050,-15.86675374
111.10100,-5.490143878
111.10150,0.9189386839
111.10200,-1.522616578
111.10250,-6.405727101
111.10300,-7.016115916
111.10350,-5.18494947
111.10400,-4.879755062
111.10450,-5.795338286
111.10500,-5.795338286
111.10550,-6.100532693
111.10600,-6.100532693
111.10650,-4.269366247
111.10700,-0.3018389469
111.10750,1.834521907
111.10800,0.9189386839
111.10850,-0.3018389469
111.10900,0.6137442762
111.10950,3.360493945
111.11000,4.276077169
111.11050,2.75010513
111.11100,0.003355460754
111.11150,-1.827810985
111.11200,-2.133005393
111.11250,0.003355460754
111.11300,1.834521907
111.11350,2.444910722
111.11400,1.529327499
111.11450,1.834521907
111.11500,3.055299538
111.11550,3.360493945
111.11600,2.75010513
111.11650,3.665688353
111.11700,5.802049207
111.11750,6.71763243
111.11800,4.581271576
111.11850,1.834521907
111.11900,0.9189386839
111.11950,0.6137442762
111.12000,0.003355460754
111.12050,0.3085498685
111.12100,2.139716315
111.12150,3.055299538
111.12200,1.529327499
111.12250,0.003355460754
111.12300,0.003355460754
111.12350,1.224133092
111.12400,0.9189386839
111.12450,0.003355460754
111.12500,0.003355460754
111.12550,-0.3018389469
111.12600,-1.827810985
111.12650,-2.743394209
111.12700,-1.522616578
111.12750,0.3085498685
111.12800,0.6137442762
111.12850,-0.9122277624
111.12900,-1.827810985
111.12950,-0.9122277624
111.13000,0.003355460754
111.13050,-0.3018389469
111.13100,-0.6070333546
111.13150,0.9189386839
111.13200,4.276077169
111.13250,7.633215653
111.13300,9.159187692
111.13350,8.548798876
111.13400,6.71763243
111.13450,3.970882761
111.13500,2.139716315
111.13550,1.834521907
111.13600,2.444910722
111.13650,2.139716315
111.13700,0.003355460754
111.13750,-1.21742217
111.13800,-0.3018389469
111.13850,2.139716315
111.13900,3.665688353
111.13950,3.055299538
111.14000,1.834521907
111.14050,1.224133092
111.14100,0.003355460754
111.14150,-2.133005393
111.14200,-3.658977432
111.14250,-3.048588616
111.14300,-2.133005393
111.14350,-3.048588616
111.14400,-3.964171839
111.14450,-3.048588616
111.14500,-1.827810985
111.14550,-2.743394209
111.14600,-3.658977432
111.14650,-2.438199801
111.14700,0.003355460754
111.14750,-1.522616578
111.14800,-6.100532693
111.14850,-8.236893547
111.14900,-5.490143878
111.14950,-2.438199801
111.15000,-3.048588616
111.15050,-4.879755062
111.15100,-4.574560655
111.15150,-3.353783024
111.15200,-3.048588616
111.15250,-3.048588616
111.15300,-0.9122277624
111.15350,1.529327499
111.15400,1.834521907
111.15450,0.003355460754
111.15500,-0.6070333546
111.15550,0.003355460754
111.15600,0.3085498685
111.15650,0.003355460754
111.15700,0.003355460754
111.15750,1.529327499
111.15800,2.444910722
111.15850,1.529327499
111.15900,0.6137442762
111.15950,1.224133092
111.16000,2.444910722
111.16050,2.75010513
111.16100,2.139716315
111.16150,0.6137442762
111.16200,-0.9122277624
111.16250,-3.048588616
111.16300,-3.964171839
111.16350,-3.658977432
111.16400,-2.743394209
111.16450,-1.522616578
111.16500,-0.9122277624
111.16550,-1.21742217
111.16600,-2.133005393
111.16650,-2.743394209
111.16700,-2.438199801
111.16750,-1.522616578
111.16800,-0.6070333546
111.16850,0.003355460754
111.16900,-0.3018389469
111.16950,-1.827810985
111.17000,-3.658977432
111.17050,-3.964171839
111.17100,-2.438199801
111.17150,-1.522616578
111.17200,-1.522616578
111.17250,-1.827810985
111.17300,-0.3018389469
111.17350,0.6137442762
111.17400,0.003355460754
111.17450,-1.522616578
111.17500,-2.133005393
111.17550,-1.827810985
111.17600,-1.21742217
111.17650,-0.3018389469
111.17700,0.6137442762
111.17750,1.529327499
111.17800,0.3085498685
111.17850,-1.522616578
111.17900,-1.522616578
111.17950,0.6137442762
111.18000,2.444910722
111.18050,2.444910722
111.18100,1.224133092
111.18150,0.003355460754
111.18200,-1.522616578
111.18250,-2.743394209
111.18300,-2.438199801
111.18350,-2.438199801
111.18400,-4.269366247
111.18450,-5.795338286
111.18500,-4.269366247
111.18550,-1.522616578
111.18600,-0.3018389469
111.18650,-0.9122277624
111.18700,-0.6070333546
111.18750,0.6137442762
111.18800,0.3085498685
111.18850,-1.522616578
111.18900,-2.133005393
111.18950,-0.3018389469
111.19000,0.3085498685
111.19050,-0.3018389469
111.19100,-1.827810985
111.19150,-1.522616578
111.19200,-0.3018389469
111.19250,0.003355460754
111.19300,0.3085498685
111.19350,1.224133092
111.19400,1.834521907
111.19450,1.224133092
111.19500,0.6137442762
111.19550,0.003355460754
111.19600,0.3085498685
111.19650,1.224133092
111.19700,3.055299538
111.19750,3.055299538
111.19800,0.3085498685
111.19850,-1.827810985
111.19900,0.003355460754
111.19950,3.970882761
111.20000,4.886465984
111.20050,1.834521907
111.20100,0.003355460754
111.20150,1.834521907
111.20200,4.276077169
111.20250,3.970882761
111.20300,1.224133092
111.20350,-0.6070333546
111.20400,-0.3018389469
111.20450,0.9189386839
111.20500,3.665688353
111.20550,5.496854799
111.20600,4.581271576
111.20650,1.834521907
111.20700,0.3085498685
111.20750,0.9189386839
111.20800,1.834521907
111.20850,1.834521907
111.20900,2.139716315
111.20950,2.75010513
111.21000,1.834521907
111.21050,0.003355460754
111.21100,-1.522616578
111.21150,-0.6070333546
111.21200,1.529327499
111.21250,3.055299538
111.21300,4.276077169
111.21350,5.191660392
111.21400,4.276077169
111.21450,1.834521907
111.21500,0.3085498685
111.21550,0.6137442762
111.21600,1.529327499
111.21650,1.224133092
111.21700,0.3085498685
111.21750,0.3085498685
111.21800,0.3085498685
111.21850,-0.3018389469
111.21900,-0.6070333546
111.21950,0.3085498685
111.22000,1.224133092
111.22050,0.6137442762
111.22100,0.003355460754
111.22150,0.003355460754
111.22200,-0.6070333546
111.22250,-0.3018389469
111.22300,3.970882761
111.22350,11.29554855
111.22400,14.34749262
111.22450,10.07477091
111.22500,4.276077169
111.22550,3.360493945
111.22600,2.75010513
111.22650,-3.964171839
111.22700,-14.3407817
111.22750,-16.78233696
111.22800,-8.847282363
111.22850,0.003355460754
111.22900,0.9189386839
111.22950,-3.353783024
111.23000,-5.18494947
111.23050,-2.438199801
111.23100,0.9189386839
111.23150,2.444910722
111.23200,2.444910722
111.23250,2.75010513
111.23300,3.360493945
111.23350,3.055299538
111.23400,2.75010513
111.23450,2.444910722
111.23500,3.055299538
111.23550,3.970882761
111.23600,4.581271576
111.23650,4.276077169
111.23700,3.970882761
111.23750,4.581271576
111.23800,3.970882761
111.23850,2.444910722
111.23900,0.9189386839
111.23950,1.224133092
111.24000,0.9189386839
111.24050,-2.133005393
111.24100,-6.710921509
111.24150,-8.847282363
111.24200,-7.016115916
111.24250,-3.658977432
111.24300,-1.827810985
111.24350,-0.9122277624
111.24400,0.003355460754
111.24450,-0.3018389469
111.24500,-2.743394209
111.24550,-5.18494947
111.24600,-5.490143878
111.24650,-4.269366247
111.24700,-3.048588616
111.24750,-1.522616578
111.24800,0.003355460754
111.24850,0.6137442762
111.24900,-0.9122277624
111.24950,-3.658977432
111.25000,-3.964171839
111.25050,-2.438199801
111.25100,-2.133005393
111.25150,-3.048588616
111.25200,-1.827810985
111.25250,1.224133092
111.25300,3.665688353
111.25350,2.444910722
111.25400,0.003355460754
111.25450,-0.6070333546
111.25500,-0.6070333546
111.25550,-0.6070333546
111.25600,0.3085498685
111.25650,3.055299538
111.25700,4.886465984
111.25750,3.360493945
111.25800,0.6137442762
111.25850,-0.3018389469
111.25900,0.003355460754
111.25950,0.003355460754
111.26000,0.003355460754
111.26050,1.224133092
111.26100,4.886465984
111.26150,7.022826838
111.26200,4.581271576
111.26250,0.003355460754
111.26300,-2.438199801
111.26350,-2.133005393
111.26400,-1.827810985
111.26450,-3.658977432
111.26500,-4.574560655
111.26550,-2.743394209
111.26600,-0.3018389469
111.26650,-1.522616578
111.26700,-4.574560655
111.26750,-5.18494947
111.26800,-2.133005393
111.26850,0.6137442762
111.26900,0.9189386839
111.26950,0.6137442762
111.27000,0.6137442762
111.27050,0.6137442762
111.27100,-0.6070333546
111.27150,-1.827810985
111.27200,-1.827810985
111.27250,-1.522616578
111.27300,-2.438199801
111.27350,-2.133005393
111.27400,0.3085498685
111.27450,3.360493945
111.27500,3.360493945
111.27550,0.6137442762
111.27600,-1.21742217
111.27650,-0.3018389469
111.27700,2.139716315
111.27750,3.970882761
111.27800,3.665688353
111.27850,1.529327499
111.27900,0.003355460754
111.27950,0.003355460754
111.28000,0.3085498685
111.28050,0.3085498685
111.28100,0.6137442762
111.28150,2.444910722
111.28200,4.276077169
111.28250,3.970882761
111.28300,1.834521907
111.28350,0.003355460754
111.28400,0.003355460754
111.28450,-0.6070333546
111.28500,-2.438199801
111.28550,-2.133005393
111.28600,0.3085498685
111.28650,3.360493945
111.28700,3.970882761
111.28750,2.444910722
111.28800,0.6137442762
111.28850,-0.6070333546
111.28900,-2.133005393
111.28950,-3.353783024
111.29000,-4.574560655
111.29050,-5.490143878
111.29100,-5.490143878
111.29150,-3.658977432
111.29200,-0.3018389469
111.29250,1.834521907
111.29300,2.139716315
111.29350,2.139716315
111.29400,2.139716315
111.29450,1.529327499
111.29500,0.9189386839
111.29550,1.834521907
111.29600,2.75010513
111.29650,2.139716315
111.29700,0.6137442762
111.29750,0.003355460754
111.29800,0.6137442762
111.29850,1.224133092
111.29900,1.529327499
111.29950,1.529327499
111.30000,1.224133092
111.30050,0.3085498685
111.30100,0.003355460754
111.30150,0.3085498685
111.30200,0.6137442762
111.30250,-0.6070333546
111.30300,-2.438199801
111.30350,-1.522616578
111.30400,0.003355460754
111.30450,0.003355460754
111.30500,-2.133005393
111.30550,-2.438199801
111.30600,-0.6070333546
111.30650,-0.3018389469
111.30700,-2.133005393
111.30750,-3.353783024
111.30800,-1.827810985
111.30850,0.003355460754
111.30900,-0.6070333546
111.30950,-2.438199801
111.31000,-2.438199801
111.31050,-0.6070333546
111.31100,0.003355460754
111.31150,0.003355460754
111.31200,0.003355460754
111.31250,0.3085498685
111.31300,0.003355460754
111.31350,0.003355460754
111.31400,0.6137442762
111.31450,1.529327499
111.31500,1.529327499
111.31550,0.6137442762
111.31600,0.003355460754
111.31650,-1.21742217
111.31700,-2.438199801
111.31750,-3.048588616
111.31800,-1.827810985
111.31850,0.9189386839
111.31900,2.75010513
111.31950,2.75010513
111.32000,1.224133092
111.32050,-0.9122277624
111.32100,-2.743394209
111.32150,-3.658977432
111.32200,-2.743394209
111.32250,-1.827810985
111.32300,-1.21742217
111.32350,-1.522616578
111.32400,-0.9122277624
111.32450,0.003355460754
111.32500,1.529327499
111.32550,2.444910722
111.32600,2.139716315
111.32650,2.139716315
111.32700,2.444910722
111.32750,2.139716315
111.32800,0.003355460754
111.32850,-3.964171839
111.32900,-6.710921509
111.32950,-5.490143878
111.33000,-1.522616578
111.33050,1.224133092
111.33100,1.224133092
111.33150,-0.6070333546
111.33200,-3.048588616
111.33250,-4.269366247
111.33300,-3.964171839
111.33350,-2.743394209
111.33400,-0.6070333546
111.33450,0.3085498685
111.33500,-0.3018389469
111.33550,-1.522616578
111.33600,-1.522616578
111.33650,0.003355460754
111.33700,1.224133092
111.33750,1.529327499
111.33800,2.139716315
111.33850,3.360493945
111.33900,4.581271576
111.33950,4.581271576
111.34000,3.665688353
111.34050,2.75010513
111.34100,1.834521907
111.34150,0.6137442762
111.34200,0.003355460754
111.34250,-0.3018389469
111.34300,-1.522616578
111.34350,-3.353783024
111.34400,-4.574560655
111.34450,-2.743394209
111.34500,0.3085498685
111.34550,1.834521907
111.34600,-0.3018389469
111.34650,-4.574560655
111.34700,-5.795338286
111.34750,-3.964171839
111.34800,-1.827810985
111.34850,-1.827810985
111.34900,-3.048588616
111.34950,-2.438199801
111.35000,0.003355460754
111.35050,1.834521907
111.35100,1.529327499
111.35150,0.3085498685
111.35200,-0.3018389469
111.35250,-0.6070333546
111.35300,-0.6070333546
111.35350,0.003355460754
111.35400,2.139716315
111.35450,2.75010513
111.35500,1.224133092
111.35550,0.6137442762
111.35600,3.055299538
111.35650,7.022826838
111.35700,8.243604469
111.35750,6.107243615
111.35800,2.75010513
111.35850,0.9189386839
111.35900,0.3085498685
111.35950,0.003355460754
111.36000,0.6137442762
111.36050,1.224133092
111.36100,1.529327499
111.36150,0.6137442762
111.36200,-0.9122277624
111.36250,-2.133005393
111.36300,-2.133005393
111.36350,-1.522616578
111.36400,-2.438199801
111.36450,-5.18494947
111.36500,-7.321310324
111.36550,-5.795338286
111.36600,-1.21742217
111.36650,0.6137442762
111.36700,-1.21742217
111.36750,-4.269366247
111.36800,-3.964171839
111.36850,-1.522616578
111.36900,-0.9122277624
111.36950,-2.133005393
111.37000,-2.743394209
111.37050,-2.133005393
111.37100,-1.522616578
111.37150,0.003355460754
111.37200,2.75010513
111.37250,6.107243615
111.37300,6.71763243
111.37350,4.581271576
111.37400,2.75010513
111.37450,3.360493945
111.37500,3.665688353
111.37550,2.139716315
111.37600,0.3085498685
111.37650,0.6137442762
111.37700,2.139716315
111.37750,3.665688353
111.37800,4.886465984
111.37850,6.412438022
111.37900,7.328021246
111.37950,5.802049207
111.38000,3.360493945
111.38050,1.834521907
111.38100,2.444910722
111.38150,3.360493945
111.38200,3.360493945
111.38250,2.139716315
111.38300,1.529327499
111.38350,2.139716315
111.38400,1.529327499
111.38450,-0.6070333546
111.38500,-2.743394209
111.38550,-1.522616578
111.38600,2.139716315
111.38650,4.581271576
111.38700,3.665688353
111.38750,1.224133092
111.38800,0.003355460754
111.38850,-0.3018389469
111.38900,-0.6070333546
111.38950,-0.6070333546
111.39000,0.003355460754
111.39050,0.3085498685
111.39100,-1.827810985
111.39150,-4.574560655
111.39200,-5.18494947
111.39250,-3.964171839
111.39300,-3.048588616
111.39350,-3.353783024
111.39400,-3.353783024
111.39450,-2.133005393
111.39500,-0.9122277624
111.39550,0.003355460754
111.39600,1.529327499
111.39650,2.444910722
111.39700,2.444910722
111.39750,1.834521907
111.39800,1.224133092
111.39850,0.6137442762
111.39900,-0.6070333546
111.39950,-2.133005393
111.40000,-3.048588616
111.40050,-3.658977432
111.40100,-4.879755062
111.40150,-6.100532693
111.40200,-7.016115916
111.40250,-6.405727101
111.40300,-5.18494947
111.40350,-2.743394209
111.40400,0.003355460754
111.40450,1.834521907
111.40500,1.224133092
111.40550,-0.6070333546
111.40600,-2.133005393
111.40650,-1.522616578
111.40700,0.003355460754
111.40750,2.139716315
111.40800,3.055299538
111.40850,2.139716315
111.40900,0.6137442762
111.40950,1.224133092
111.41000,3.970882761
111.41050,5.802049207
111.41100,5.191660392
111.41150,2.139716315
111.41200,-0.6070333546
111.41250,-3.048588616
111.41300,-3.353783024
111.41350,-3.048588616
111.41400,-3.353783024
111.41450,-5.18494947
111.41500,-6.405727101
111.41550,-4.879755062
111.41600,-1.522616578
111.41650,0.003355460754
111.41700,0.3085498685
111.41750,0.9189386839
111.41800,2.75010513
111.41850,3.970882761
111.41900,3.970882761
111.41950,3.970882761
111.42000,5.496854799
111.42050,6.71763243
111.42100,6.412438022
111.42150,4.581271576
111.42200,1.834521907
111.42250,-0.6070333546
111.42300,-1.827810985
111.42350,-0.3018389469
111.42400,1.529327499
111.42450,1.834521907
111.42500,0.3085498685
111.42550,-0.3018389469
111.42600,-0.6070333546
111.42650,-0.9122277624
111.42700,-1.522616578
111.42750,-2.133005393
111.42800,-2.133005393
111.42850,-2.743394209
111.42900,-2.743394209
111.42950,-2.133005393
111.43000,-2.438199801
111.43050,-3.658977432
111.43100,-4.269366247
111.43150,-2.133005393
111.43200,0.003355460754
111.43250,0.003355460754
111.43300,-1.522616578
111.43350,-2.438199801
111.43400,-2.133005393
111.43450,-3.353783024
111.43500,-7.321310324
111.43550,-10.67844881
111.43600,-10.67844881
111.43650,-8.847282363
111.43700,-6.710921509
111.43750,-5.490143878
111.43800,-4.879755062
111.43850,-4.879755062
111.43900,-4.879755062
111.43950,-3.964171839
111.44000,-2.133005393
111.44050,-0.3018389469
111.44100,0.003355460754
111.44150,0.3085498685
111.44200,3.970882761
111.44250,10.68515973
111.44300,17.09424229
111.44350,19.84099196
111.44400,16.48385348
111.44450,10.07477091
111.44500,4.886465984
111.44550,2.444910722
111.44600,3.055299538
111.44650,3.665688353
111.44700,3.665688353
111.44750,3.970882761
111.44800,6.107243615
111.44850,9.4643821
111.44900,11.29554855
111.44950,10.07477091
111.45000,7.328021246
111.45050,6.107243615
111.45100,5.802049207
111.45150,4.276077169
111.45200,0.6137442762
111.45250,-0.9122277624
111.45300,0.3085498685
111.45350,1.529327499
111.45400,-0.3018389469
111.45450,-4.269366247
111.45500,-6.710921509
111.45550,-6.100532693
111.45600,-5.490143878
111.45650,-5.18494947
111.45700,-4.269366247
111.45750,-1.522616578
111.45800,0.6137442762
111.45850,1.529327499
111.45900,0.6137442762
111.45950,-0.3018389469
111.46000,-1.827810985
111.46050,-3.964171839
111.46100,-7.626504732
111.46150,-11.28883762
111.46200,-13.12000407
111.46250,-11.89922644
111.46300,-9.762865586
111.46350,-8.542087955
111.46400,-8.236893547
111.46450,-7.626504732
111.46500,-5.795338286
111.46550,-4.879755062
111.46600,-5.18494947
111.46650,-5.18494947
111.46700,-4.269366247
111.46750,-2.438199801
111.46800,-1.21742217
111.46850,0.003355460754
111.46900,1.529327499
111.46950,2.75010513
111.47000,3.970882761
111.47050,6.412438022
111.47100,10.68515973
111.47150,14.65268703
111.47200,15.26307585
111.47250,12.21113177
111.47300,8.853993284
111.47350,6.412438022
111.47400,4.886465984
111.47450,3.665688353
111.47500,3.055299538
111.47550,3.055299538
111.47600,3.665688353
111.47650,3.665688353
111.47700,3.665688353
111.47750,3.055299538
111.47800,1.834521907
111.47850,0.6137442762
111.47900,0.3085498685
111.47950,2.139716315
111.48000,4.276077169
111.48050,5.191660392
111.48100,3.360493945
111.48150,0.6137442762
111.48200,-0.6070333546
111.48250,-0.9122277624
111.48300,-1.21742217
111.48350,-1.827810985
111.48400,-2.133005393
111.48450,-2.133005393
111.48500,-2.743394209
111.48550,-3.658977432
111.48600,-4.574560655
111.48650,-4.879755062
111.48700,-5.490143878
111.48750,-6.405727101
111.48800,-6.405727101
111.48850,-4.879755062
111.48900,-3.353783024
111.48950,-3.048588616
111.49000,-3.658977432
111.49050,-3.658977432
111.49100,-2.438199801
111.49150,-0.6070333546
111.49200,-0.3018389469
111.49250,-0.9122277624
111.49300,-1.827810985
111.49350,-2.438199801
111.49400,-2.743394209
111.49450,-2.743394209
111.49500,-3.048588616
111.49550,-4.574560655
111.49600,-6.710921509
111.49650,-8.236893547
111.49700,-7.626504732
111.49750,-6.405727101
111.49800,-6.100532693
111.49850,-6.710921509
111.49900,-7.931699139
111.49950,-8.236893547
111.50000,-7.016115916
111.50050,-4.269366247
111.50100,-0.9122277624
111.50150,0.3085498685
111.50200,0.3085498685
111.50250,0.6137442762
111.50300,2.75010513
111.50350,5.191660392
111.50400,6.71763243
111.50450,8.243604469
111.50500,10.99035414
111.50550,12.82152058
111.50600,10.99035414
111.50650,6.412438022
111.50700,3.665688353
111.50750,3.360493945
111.50800,3.665688353
111.50850,3.360493945
111.50900,2.444910722
111.50950,2.139716315
111.51000,2.444910722
111.51050,2.139716315
111.51100,1.529327499
111.51150,1.224133092
111.51200,0.3085498685
111.51250,0.003355460754
111.51300,0.003355460754
111.51350,0.9189386839
111.51400,1.529327499
111.51450,1.224133092
111.51500,1.224133092
111.51550,2.444910722
111.51600,3.360493945
111.51650,3.360493945
111.51700,2.75010513
111.51750,3.360493945
111.51800,3.665688353
111.51850,3.055299538
111.51900,0.9189386839
111.51950,-0.9122277624
111.52000,-1.827810985
111.52050,-1.522616578
111.52100,-0.9122277624
111.52150,-0.3018389469
111.52200,0.003355460754
111.52250,-0.3018389469
111.52300,-1.21742217
111.52350,-1.827810985
111.52400,-1.21742217
111.52450,-1.21742217
111.52500,-1.827810985
111.52550,-2.743394209
111.52600,-2.438199801
111.52650,-1.21742217
111.52700,-1.21742217
111.52750,-2.438199801
111.52800,-2.438199801
111.52850,-0.9122277624
111.52900,-0.3018389469
111.52950,-1.522616578
111.53000,-2.743394209
111.53050,-1.827810985
111.53100,-0.6070333546
111.53150,-1.522616578
111.53200,-3.353783024
111.53250,-3.353783024
111.53300,-1.827810985
111.53350,-0.3018389469
111.53400,-0.3018389469
111.53450,-0.6070333546
111.53500,-0.6070333546
111.53550,-0.6070333546
111.53600,-0.3018389469
111.53650,0.3085498685
111.53700,0.9189386839
111.53750,0.6137442762
111.53800,0.003355460754
111.53850,1.224133092
111.53900,3.055299538
111.53950,3.665688353
111.54000,3.360493945
111.54050,3.055299538
111.54100,1.834521907
111.54150,-1.522616578
111.54200,-5.795338286
111.54250,-7.321310324
111.54300,-5.18494947
111.54350,-1.522616578
111.54400,0.9189386839
111.54450,3.055299538
111.54500,3.970882761
111.54550,2.75010513
111.54600,0.003355460754
111.54650,-1.827810985
111.54700,-1.522616578
111.54750,0.003355460754
111.54800,0.003355460754
111.54850,-1.827810985
111.54900,-2.438199801
111.54950,-0.6070333546
111.55000,1.529327499
111.55050,2.75010513
111.55100,2.139716315
111.55150,1.529327499
111.55200,1.529327499
111.55250,1.834521907
111.55300,1.529327499
111.55350,1.224133092
111.55400,2.139716315
111.55450,3.360493945
111.55500,3.665688353
111.55550,2.75010513
111.55600,2.139716315
111.55650,1.834521907
111.55700,1.834521907
111.55750,1.834521907
111.55800,2.139716315
111.55850,1.834521907
111.55900,0.9189386839
111.55950,0.003355460754
111.56000,-0.9122277624
111.56050,-1.522616578
111.56100,-1.827810985
111.56150,-2.133005393
111.56200,-1.827810985
111.56250,-1.522616578
111.56300,-0.9122277624
111.56350,0.003355460754
111.56400,1.529327499
111.56450,1.834521907
111.56500,1.834521907
111.56550,1.834521907
111.56600,2.139716315
111.56650,2.139716315
111.56700,0.9189386839
111.56750,-0.3018389469
111.56800,0.003355460754
111.56850,0.9189386839
111.56900,1.529327499
111.56950,0.9189386839
111.57000,0.003355460754
111.57050,0.003355460754
111.57100,1.224133092
111.57150,1.529327499
111.57200,1.224133092
111.57250,0.6137442762
111.57300,1.224133092
111.57350,2.444910722
111.57400,3.055299538
111.57450,2.444910722
111.57500,2.139716315
111.57550,2.75010513
111.57600,3.665688353
111.57650,3.665688353
111.57700,3.055299538
111.57750,2.75010513
111.57800,2.75010513
111.57850,3.055299538
111.57900,2.444910722
111.57950,1.834521907
111.58000,1.529327499
111.58050,1.834521907
111.58100,1.834521907
111.58150,0.9189386839
111.58200,0.003355460754
111.58250,0.003355460754
111.58300,0.6137442762
111.58350,0.9189386839
111.58400,0.003355460754
111.58450,-1.21742217
111.58500,-2.743394209
111.58550,-3.658977432
111.58600,-4.269366247
111.58650,-4.269366247
111.58700,-3.658977432
111.58750,-3.353783024
111.58800,-3.048588616
111.58850,-2.438199801
111.58900,-2.133005393
111.58950,-2.133005393
111.59000,-3.353783024
111.59050,-5.18494947
111.59100,-6.100532693
111.59150,-5.490143878
111.59200,-4.574560655
111.59250,-3.964171839
111.59300,-2.743394209
111.59350,-0.6070333546
111.59400,0.9189386839
111.59450,1.224133092
111.59500,0.003355460754
111.59550,-0.9122277624
111.59600,-0.6070333546
111.59650,0.6137442762
111.59700,1.529327499
111.59750,0.9189386839
111.59800,0.003355460754
111.59850,0.3085498685
111.59900,0.6137442762
111.59950,0.003355460754
111.60000,-1.522616578
111.60050,-3.658977432
111.60100,-4.574560655
111.60150,-3.964171839
111.60200,-2.743394209
111.60250,-1.522616578
111.60300,-0.3018389469
111.60350,0.003355460754
111.60400,-0.9122277624
111.60450,-2.133005393
111.60500,-2.743394209
111.60550,-3.048588616
111.60600,-3.353783024
111.60650,-3.964171839
111.60700,-3.658977432
111.60750,-1.827810985
111.60800,-0.3018389469
111.60850,0.9189386839
111.60900,1.834521907
111.60950,2.444910722
111.61000,2.139716315
111.61050,0.9189386839
111.61100,0.3085498685
111.61150,1.529327499
111.61200,3.055299538
111.61250,2.139716315
111.61300,0.3085498685
111.61350,0.003355460754
111.61400,0.6137442762
111.61450,1.529327499
111.61500,0.6137442762
111.61550,0.003355460754
111.61600,0.3085498685
111.61650,0.9189386839
111.61700,0.3085498685
111.61750,-0.6070333546
111.61800,-0.9122277624
111.61850,-0.3018389469
111.61900,-0.3018389469
111.61950,-1.522616578
111.62000,-1.827810985
111.62050,-1.21742217
111.62100,0.003355460754
111.62150,0.9189386839
111.62200,1.529327499
111.62250,1.224133092
111.62300,1.224133092
111.62350,1.834521907
111.62400,2.139716315
111.62450,0.9189386839
111.62500,-1.21742217
111.62550,-3.353783024
111.62600,-4.269366247
111.62650,-3.353783024
111.62700,-1.522616578
111.62750,0.003355460754
111.62800,0.003355460754
111.62850,-0.6070333546
111.62900,-1.522616578
111.62950,-1.21742217
111.63000,-0.6070333546
111.63050,0.003355460754
111.63100,0.3085498685
111.63150,1.224133092
111.63200,2.75010513
111.63250,3.970882761
111.63300,5.496854799
111.63350,7.328021246
111.63400,7.633215653
111.63450,5.496854799
111.63500,3.055299538
111.63550,2.75010513
111.63600,3.360493945
111.63650,3.665688353
111.63700,3.360493945
111.63750,3.970882761
111.63800,3.665688353
111.63850,0.3085498685
111.63900,-3.964171839
111.63950,-6.405727101
111.64000,-5.490143878
111.64050,-4.269366247
111.64100,-3.048588616
111.64150,-0.9122277624
111.64200,1.224133092
111.64250,1.529327499
111.64300,-0.6070333546
111.64350,-2.133005393
111.64400,-1.522616578
111.64450,-0.3018389469
111.64500,0.3085498685
111.64550,0.9189386839
111.64600,0.3085498685
111.64650,-1.827810985
111.64700,-5.18494947
111.64750,-6.405727101
111.64800,-4.879755062
111.64850,-3.048588616
111.64900,-3.353783024
111.64950,-3.658977432
111.65000,-2.743394209
111.65050,-0.9122277624
111.65100,0.003355460754
111.65150,0.003355460754
111.65200,0.003355460754
111.65250,-0.3018389469
111.65300,-0.3018389469
111.65350,0.003355460754
111.65400,0.003355460754
111.65450,-1.21742217
111.65500,-2.133005393
111.65550,-1.21742217
111.65600,0.003355460754
111.65650,0.003355460754
111.65700,-0.3018389469
111.65750,0.9189386839
111.65800,3.360493945
111.65850,3.360493945
111.65900,1.834521907
111.65950,1.224133092
111.66000,1.834521907
111.66050,1.834521907
111.66100,0.9189386839
111.66150,1.224133092
111.66200,3.360493945
111.66250,4.886465984
111.66300,4.581271576
111.66350,3.665688353
111.66400,1.529327499
111.66450,-0.6070333546
111.66500,-1.827810985
111.66550,-0.6070333546
111.66600,0.3085498685
111.66650,-1.522616578
111.66700,-6.100532693
111.66750,-7.626504732
111.66800,-5.18494947
111.66850,-3.353783024
111.66900,-4.879755062
111.66950,-5.795338286
111.67000,-2.743394209
111.67050,1.224133092
111.67100,2.444910722
111.67150,1.529327499
111.67200,2.139716315
111.67250,4.581271576
111.67300,4.581271576
111.67350,2.139716315
111.67400,0.003355460754
111.67450,-0.9122277624
111.67500,-2.438199801
111.67550,-4.574560655
111.67600,-3.658977432
111.67650,1.529327499
111.67700,6.412438022
111.67750,7.022826838
111.67800,6.107243615
111.67850,7.633215653
111.67900,10.07477091
111.67950,8.243604469
111.68000,5.191660392
111.68050,5.496854799
111.68100,7.633215653
111.68150,3.665688353
111.68200,-6.100532693
111.68250,-13.42519848
111.68300,-12.81480966
111.68350,-8.542087955
111.68400,-4.879755062
111.68450,-1.827810985
111.68500,0.003355460754
111.68550,-2.438199801
111.68600,-8.847282363
111.68650,-10.98364322
111.68700,-4.574560655
111.68750,3.055299538
111.68800,4.886465984
111.68850,2.75010513
111.68900,2.444910722
111.68950,3.055299538
111.69000,0.3085498685
111.69050,-3.658977432
111.69100,-5.18494947
111.69150,-4.574560655
111.69200,-4.574560655
111.69250,-3.964171839
111.69300,-0.9122277624
111.69350,1.529327499
111.69400,0.6137442762
111.69450,-1.827810985
111.69500,-2.438199801
111.69550,-0.3018389469
111.69600,2.75010513
111.69650,5.496854799
111.69700,6.412438022
111.69750,2.75010513
111.69800,-4.269366247
111.69850,-9.762865586
111.69900,-9.457671178
111.69950,-6.405727101
111.70000,-4.574560655
111.70050,-3.048588616
111.70100,0.003355460754
111.70150,2.444910722
111.70200,0.003355460754
111.70250,-3.964171839
111.70300,-2.743394209
111.70350,4.581271576
111.70400,12.82152058
111.70450,15.87346466
111.70500,14.34749262
111.70550,10.99035414
111.70600,7.328021246
111.70650,4.581271576
111.70700,3.665688353
111.70750,3.665688353
111.70800,2.444910722
111.70850,-0.9122277624
111.70900,-4.269366247
111.70950,-4.574560655
111.71000,-1.827810985
111.71050,0.9189386839
111.71100,2.139716315
111.71150,1.529327499
111.71200,0.003355460754
111.71250,-1.21742217
111.71300,-1.827810985
111.71350,-1.522616578
111.71400,-0.9122277624
111.71450,0.3085498685
111.71500,1.529327499
111.71550,2.139716315
111.71600,1.529327499
111.71650,0.3085498685
111.71700,0.003355460754
111.71750,0.3085498685
111.71800,1.529327499
111.71850,2.444910722
111.71900,1.529327499
111.71950,-0.3018389469
111.72000,-2.133005393
111.72050,-1.522616578
111.72100,0.9189386839
111.72150,3.665688353
111.72200,4.886465984
111.72250,3.360493945
111.72300,0.3085498685
111.72350,-2.133005393
111.72400,-2.438199801
111.72450,-0.6070333546
111.72500,0.9189386839
111.72550,0.003355460754
111.72600,-3.048588616
111.72650,-4.269366247
111.72700,-2.133005393
111.72750,1.224133092
111.72800,3.055299538
111.72850,2.75010513
111.72900,1.834521907
111.72950,0.9189386839
111.73000,-0.6070333546
111.73050,-2.743394209
111.73100,-3.658977432
111.73150,-2.743394209
111.73200,-1.21742217
111.73250,-0.6070333546
111.73300,-0.6070333546
111.73350,-0.3018389469
111.73400,-0.6070333546
111.73450,-1.522616578
111.73500,-2.438199801
111.73550,-2.743394209
111.73600,-2.133005393
111.73650,-1.827810985
111.73700,-1.827810985
111.73750,-1.522616578
111.73800,0.003355460754
111.73850,2.444910722
111.73900,3.970882761
111.73950,3.055299538
111.74000,1.224133092
111.74050,0.003355460754
111.74100,-0.3018389469
111.74150,-0.3018389469
111.74200,-0.6070333546
111.74250,-0.9122277624
111.74300,-0.3018389469
111.74350,1.224133092
111.74400,1.834521907
111.74450,0.9189386839
111.74500,-0.3018389469
111.74550,-0.3018389469
111.74600,0.6137442762
111.74650,0.9189386839
111.74700,-0.3018389469
111.74750,-1.827810985
111.74800,-1.522616578
111.74850,0.6137442762
111.74900,2.444910722
111.74950,1.834521907
111.75000,0.003355460754
111.75050,-1.827810985
111.75100,-2.133005393
111.75150,-1.522616578
111.75200,-0.9122277624
111.75250,-0.9122277624
111.75300,-1.21742217
111.75350,-2.133005393
111.75400,-2.743394209
111.75450,-2.133005393
111.75500,-0.9122277624
111.75550,0.6137442762
111.75600,1.529327499
111.75650,1.529327499
111.75700,0.9189386839
111.75750,0.6137442762
111.75800,0.003355460754
111.75850,-0.6070333546
111.75900,0.003355460754
111.75950,1.529327499
111.76000,3.970882761
111.76050,4.276077169
111.76100,3.055299538
111.76150,2.139716315
111.76200,1.834521907
111.76250,1.834521907
111.76300,0.9189386839
111.76350,0.3085498685
111.76400,0.003355460754
111.76450,-0.3018389469
111.76500,-1.827810985
111.76550,-2.743394209
111.76600,-2.743394209
111.76650,-1.827810985
111.76700,-0.9122277624
111.76750,-0.3018389469
111.76800,0.3085498685
111.76850,0.3085498685
111.76900,0.003355460754
111.76950,-0.6070333546
111.77000,-0.9122277624
111.77050,-1.21742217
111.77100,-1.522616578
111.77150,-1.522616578
111.77200,-0.9122277624
111.77250,0.003355460754
111.77300,0.3085498685
111.77350,1.529327499
111.77400,3.055299538
111.77450,4.581271576
111.77500,4.581271576
111.77550,3.665688353
111.77600,3.055299538
111.77650,2.75010513
111.77700,2.444910722
111.77750,1.834521907
111.77800,1.224133092
111.77850,1.224133092
111.77900,1.834521907
111.77950,1.834521907
111.78000,0.9189386839
111.78050,0.6137442762
111.78100,0.6137442762
111.78150,0.6137442762
111.78200,0.003355460754
111.78250,-0.6070333546
111.78300,0.3085498685
111.78350,2.139716315
111.78400,2.75010513
111.78450,1.224133092
111.78500,0.003355460754
111.78550,0.003355460754
111.78600,0.003355460754
111.78650,0.003355460754
111.78700,-1.522616578
111.78750,-2.743394209
111.78800,-3.353783024
111.78850,-2.438199801
111.78900,-0.3018389469
111.78950,0.6137442762
111.79000,0.003355460754
111.79050,-0.9122277624
111.79100,-0.9122277624
111.79150,-0.9122277624
111.79200,-2.438199801
111.79250,-5.18494947
111.79300,-5.795338286
111.79350,-4.269366247
111.79400,-2.133005393
111.79450,1.224133092
111.79500,7.633215653
111.79550,13.4319094
111.79600,13.73710381
111.79650,9.4643821
111.79700,7.633215653
111.79750,8.548798876
111.79800,4.886465984
111.79850,-6.100532693
111.79900,-15.86675374
111.79950,-14.95117052
111.80000,-7.016115916
111.80050,-1.21742217
111.80100,-0.3018389469
111.80150,-0.9122277624
111.80200,-0.3018389469
111.80250,-0.9122277624
111.80300,-2.133005393
111.80350,-2.438199801
111.80400,-0.9122277624
111.80450,0.003355460754
111.80500,0.003355460754
111.80550,-0.6070333546
111.80600,-1.522616578
111.80650,-3.048588616
111.80700,-4.574560655
111.80750,-4.574560655
111.80800,-4.269366247
111.80850,-3.353783024
111.80900,-1.21742217
111.80950,1.834521907
111.81000,3.665688353
111.81050,2.75010513
111.81100,3.055299538
111.81150,4.276077169
111.81200,2.139716315
111.81250,-5.18494947
111.81300,-11.59403203
111.81350,-10.06805999
111.81400,-2.743394209
111.81450,2.139716315
111.81500,2.75010513
111.81550,1.224133092
111.81600,0.003355460754
111.81650,-1.522616578
111.81700,-3.353783024
111.81750,-2.438199801
111.81800,0.6137442762
111.81850,2.75010513
111.81900,2.444910722
111.81950,1.224133092
111.82000,1.529327499
111.82050,2.75010513
111.82100,3.055299538
111.82150,2.139716315
111.82200,0.9189386839
111.82250,0.6137442762
111.82300,1.529327499
111.82350,3.360493945
111.82400,3.970882761
111.82450,2.139716315
111.82500,0.003355460754
111.82550,-1.522616578
111.82600,-1.522616578
111.82650,-2.133005393
111.82700,-3.353783024
111.82750,-3.658977432
111.82800,-2.743394209
111.82850,-1.827810985
111.82900,-2.133005393
111.82950,-3.658977432
111.83000,-4.879755062
111.83050,-4.574560655
111.83100,-2.438199801
111.83150,-0.6070333546
111.83200,0.003355460754
111.83250,0.003355460754
111.83300,-0.3018389469
111.83350,0.003355460754
111.83400,0.003355460754
111.83450,0.3085498685
111.83500,0.9189386839
111.83550,1.834521907
111.83600,2.139716315
111.83650,1.224133092
111.83700,0.003355460754
111.83750,-1.21742217
111.83800,-1.522616578
111.83850,-0.3018389469
111.83900,0.9189386839
111.83950,1.834521907
111.84000,0.9189386839
111.84050,0.003355460754
111.84100,-0.6070333546
111.84150,-0.6070333546
111.84200,-0.9122277624
111.84250,-0.9122277624
111.84300,-0.6070333546
111.84350,-0.9122277624
111.84400,-1.522616578
111.84450,-1.827810985
111.84500,-1.827810985
111.84550,-2.133005393
111.84600,-2.743394209
111.84650,-2.133005393
111.84700,0.003355460754
111.84750,1.529327499
111.84800,0.9189386839
111.84850,0.003355460754
111.84900,-0.6070333546
111.84950,-0.9122277624
111.85000,-1.21742217
111.85050,-1.21742217
111.85100,0.003355460754
111.85150,1.834521907
111.85200,0.9189386839
111.85250,-1.522616578
111.85300,-2.438199801
111.85350,-0.9122277624
111.85400,0.003355460754
111.85450,-0.3018389469
111.85500,-0.9122277624
111.85550,0.003355460754
111.85600,1.224133092
111.85650,1.224133092
111.85700,1.529327499
111.85750,3.665688353
111.85800,6.107243615
111.85850,7.328021246
111.85900,6.71763243
111.85950,4.886465984
111.86000,3.055299538
111.86050,1.834521907
111.86100,2.75010513
111.86150,5.191660392
111.86200,6.412438022
111.86250,4.886465984
111.86300,1.834521907
111.86350,0.3085498685
111.86400,-0.6070333546
111.86450,-3.353783024
111.86500,-8.236893547
111.86550,-11.28883762
111.86600,-9.762865586
111.86650,-3.964171839
111.86700,1.224133092
111.86750,3.665688353
111.86800,2.75010513
111.86850,0.3085498685
111.86900,-1.827810985
111.86950,-2.438199801
111.87000,-1.21742217
111.87050,0.003355460754
111.87100,0.6137442762
111.87150,0.003355460754
111.87200,0.003355460754
111.87250,0.003355460754
111.87300,-0.6070333546
111.87350,-2.133005393
111.87400,-2.743394209
111.87450,-1.522616578
111.87500,0.9189386839
111.87550,2.139716315
111.87600,1.529327499
111.87650,0.003355460754
111.87700,-1.522616578
111.87750,-1.827810985
111.87800,-0.3018389469
111.87850,2.444910722
111.87900,3.970882761
111.87950,2.75010513
111.88000,0.6137442762
111.88050,0.6137442762
111.88100,2.444910722
111.88150,2.444910722
111.88200,0.6137442762
111.88250,-0.3018389469
111.88300,0.003355460754
111.88350,-0.3018389469
111.88400,-1.21742217
111.88450,-0.6070333546
111.88500,0.9189386839
111.88550,1.529327499
111.88600,-0.6070333546
111.88650,-3.658977432
111.88700,-4.269366247
111.88750,-2.743394209
111.88800,0.003355460754
111.88850,2.139716315
111.88900,2.75010513
111.88950,1.224133092
111.89000,0.003355460754
111.89050,0.9189386839
111.89100,4.276077169
111.89150,5.496854799
111.89200,3.360493945
111.89250,1.224133092
111.89300,1.224133092
111.89350,2.75010513
111.89400,3.055299538
111.89450,2.444910722
111.89500,2.139716315
111.89550,1.224133092
111.89600,0.003355460754
111.89650,-0.9122277624
111.89700,-0.3018389469
111.89750,0.6137442762
111.89800,0.6137442762
111.89850,0.003355460754
111.89900,-0.6070333546
111.89950,-0.3018389469
111.90000,0.003355460754
111.90050,0.3085498685
111.90100,0.6137442762
111.90150,0.6137442762
111.90200,0.003355460754
111.90250,-0.3018389469
111.90300,-0.6070333546
111.90350,-0.3018389469
111.90400,-0.6070333546
111.90450,-1.827810985
111.90500,-3.353783024
111.90550,-5.18494947
111.90600,-6.100532693
111.90650,-6.100532693
111.90700,-5.795338286
111.90750,-4.574560655
111.90800,-3.353783024
111.90850,-3.353783024
111.90900,-4.269366247
111.90950,-2.438199801
111.91000,2.75010513
111.91050,8.853993284
111.91100,10.37996532
111.91150,7.938410061
111.91200,6.71763243
111.91250,7.328021246
111.91300,2.444910722
111.91350,-8.847282363
111.91400,-18.308309
111.91450,-15.86675374
111.91500,-3.964171839
111.91550,3.665688353
111.91600,1.834521907
111.91650,-3.353783024
111.91700,-4.269366247
111.91750,-1.522616578
111.91800,0.3085498685
111.91850,0.6137442762
111.91900,1.834521907
111.91950,3.970882761
111.92000,4.581271576
111.92050,3.360493945
111.92100,1.529327499
111.92150,0.6137442762
111.92200,1.224133092
111.92250,2.444910722
111.92300,3.055299538
111.92350,1.529327499
111.92400,-1.522616578
111.92450,-3.048588616
111.92500,-1.21742217
111.92550,1.529327499
111.92600,2.444910722
111.92650,1.529327499
111.92700,0.9189386839
111.92750,1.224133092
111.92800,1.224133092
111.92850,0.9189386839
111.92900,2.139716315
111.92950,3.970882761
111.93000,3.360493945
111.93050,0.6137442762
111.93100,0.3085498685
111.93150,2.139716315
111.93200,0.003355460754
111.93250,-8.542087955
111.93300,-16.17194815
111.93350,-14.3407817
111.93400,-4.269366247
111.93450,2.75010513
111.93500,2.75010513
111.93550,0.003355460754
111.93600,0.003355460754
111.93650,1.834521907
111.93700,1.834521907
111.93750,0.6137442762
111.93800,0.003355460754
111.93850,-0.3018389469
111.93900,-0.9122277624
111.93950,-0.6070333546
111.94000,0.9189386839
111.94050,4.276077169
111.94100,6.412438022
111.94150,5.802049207
111.94200,3.970882761
111.94250,2.75010513
111.94300,2.75010513
111.94350,3.360493945
111.94400,4.276077169
111.94450,4.276077169
111.94500,3.970882761
111.94550,3.665688353
111.94600,3.360493945
111.94650,2.75010513
111.94700,1.529327499
111.94750,0.003355460754
111.94800,-0.6070333546
111.94850,-0.9122277624
111.94900,0.003355460754
111.94950,0.9189386839
111.95000,0.3085498685
111.95050,-0.3018389469
111.95100,0.003355460754
111.95150,1.529327499
111.95200,1.834521907
111.95250,0.6137442762
111.95300,0.3085498685
111.95350,1.834521907
111.95400,2.444910722
111.95450,0.3085498685
111.95500,-1.827810985
111.95550,-1.21742217
111.95600,0.3085498685
111.95650,0.6137442762
111.95700,-0.9122277624
111.95750,-2.743394209
111.95800,-2.438199801
111.95850,-0.6070333546
111.95900,1.224133092
111.95950,2.139716315
111.96000,0.9189386839
111.96050,-1.21742217
111.96100,-2.133005393
111.96150,-0.6070333546
111.96200,2.139716315
111.96250,3.055299538
111.96300,1.834521907
111.96350,1.224133092
111.96400,1.834521907
111.96450,2.444910722
111.96500,2.444910722
111.96550,1.224133092
111.96600,-0.3018389469
111.96650,-2.743394209
111.96700,-3.964171839
111.96750,-3.353783024
111.96800,-1.827810985
111.96850,-0.9122277624
111.96900,0.003355460754
111.96950,0.003355460754
111.97000,-0.9122277624
111.97050,-3.964171839
111.97100,-7.016115916
111.97150,-7.626504732
111.97200,-7.626504732
111.97250,-9.15247677
111.97300,-10.67844881
111.97350,-8.236893547
111.97400,-2.438199801
111.97450,2.139716315
111.97500,3.055299538
111.97550,2.139716315
111.97600,1.529327499
111.97650,1.529327499
111.97700,0.6137442762
111.97750,0.3085498685
111.97800,1.529327499
111.97850,3.055299538
111.97900,3.360493945
111.97950,2.139716315
111.98000,1.224133092
111.98050,0.9189386839
111.98100,0.9189386839
111.98150,0.6137442762
111.98200,0.6137442762
111.98250,0.9189386839
111.98300,1.529327499
111.98350,0.9189386839
111.98400,-0.9122277624
111.98450,-3.964171839
111.98500,-4.879755062
111.98550,-3.048588616
111.98600,0.003355460754
111.98650,2.139716315
111.98700,1.529327499
111.98750,0.003355460754
111.98800,-0.3018389469
111.98850,-0.3018389469
111.98900,0.003355460754
111.98950,0.003355460754
111.99000,0.003355460754
111.99050,0.003355460754
111.99100,0.003355460754
111.99150,0.003355460754
111.99200,0.003355460754
111.99250,-0.3018389469
111.99300,-0.6070333546
111.99350,-0.6070333546
111.99400,-0.6070333546
111.99450,0.003355460754
111.99500,1.224133092
111.99550,2.139716315
111.99600,1.224133092
111.99650,-0.3018389469
111.99700,-0.3018389469
111.99750,0.6137442762
111.99800,1.224133092
111.99850,0.003355460754
111.99900,0.003355460754
111.99950,1.834521907
112.00000,3.970882761
112.00050,3.970882761
112.00100,2.139716315
112.00150,0.6137442762
112.00200,0.003355460754
112.00250,-0.6070333546
112.00300,-0.9122277624
112.00350,-0.3018389469
112.00400,0.3085498685
112.00450,0.3085498685
112.00500,0.003355460754
112.00550,-0.3018389469
112.00600,-0.6070333546
112.00650,-1.522616578
112.00700,-2.133005393
112.00750,-2.133005393
112.00800,-2.133005393
112.00850,-3.048588616
112.00900,-3.353783024
112.00950,-2.133005393
112.01000,-1.522616578
112.01050,-3.658977432
112.01100,-7.321310324
112.01150,-8.236893547
112.01200,-6.405727101
112.01250,-4.879755062
112.01300,-5.18494947
112.01350,-4.574560655
112.01400,-1.522616578
112.01450,1.529327499
112.01500,3.055299538
112.01550,3.970882761
112.01600,4.581271576
112.01650,3.970882761
112.01700,1.834521907
112.01750,0.003355460754
112.01800,-1.21742217
112.01850,-2.743394209
112.01900,-3.964171839
112.01950,-2.438199801
112.02000,1.834521907
112.02050,6.412438022
112.02100,6.71763243
112.02150,2.75010513
112.02200,-0.6070333546
112.02250,-1.522616578
112.02300,-0.3018389469
112.02350,0.6137442762
112.02400,1.529327499
112.02450,3.665688353
112.02500,5.802049207
112.02550,6.107243615
112.02600,4.276077169
112.02650,1.834521907
112.02700,0.3085498685
112.02750,-0.3018389469
112.02800,-1.522616578
112.02850,-2.438199801
112.02900,-1.827810985
112.02950,-0.9122277624
112.03000,-0.6070333546
112.03050,-1.522616578
112.03100,-2.133005393
112.03150,-2.133005393
112.03200,-2.438199801
112.03250,-2.743394209
112.03300,-1.522616578
112.03350,1.224133092
112.03400,4.581271576
112.03450,5.191660392
112.03500,3.665688353
112.03550,2.444910722
112.03600,2.75010513
112.03650,3.055299538
112.03700,2.139716315
112.03750,0.9189386839
112.03800,0.003355460754
112.03850,0.003355460754
112.03900,-0.6070333546
112.03950,-0.3018389469
112.04000,0.6137442762
112.04050,1.529327499
112.04100,0.9189386839
112.04150,0.003355460754
112.04200,0.9189386839
112.04250,2.444910722
112.04300,3.360493945
112.04350,2.75010513
112.04400,1.834521907
112.04450,0.3085498685
112.04500,-2.133005393
112.04550,-5.490143878
112.04600,-5.795338286
112.04650,-3.353783024
112.04700,-1.522616578
112.04750,-2.438199801
112.04800,-3.964171839
112.04850,-2.743394209
112.04900,-0.3018389469
112.04950,0.003355460754
112.05000,-1.827810985
112.05050,-3.048588616
112.05100,-1.21742217
112.05150,0.9189386839
112.05200,0.9189386839
112.05250,-0.3018389469
112.05300,-0.9122277624
112.05350,-0.3018389469
112.05400,-0.6070333546
112.05450,-1.522616578
112.05500,0.003355460754
112.05550,3.055299538
112.05600,4.886465984
112.05650,4.276077169
112.05700,5.191660392
112.05750,9.159187692
112.05800,11.60074295
112.05850,10.07477091
112.05900,9.159187692
112.05950,12.51632618
112.06000,12.51632618
112.06050,1.224133092
112.06100,-13.42519848
112.06150,-17.08753137
112.06200,-8.236893547
112.06250,-2.438199801
112.06300,-7.931699139
112.06350,-14.95117052
112.06400,-12.81480966
112.06450,-4.574560655
112.06500,-0.9122277624
112.06550,-2.133005393
112.06600,-0.6070333546
112.06650,2.75010513
112.06700,2.75010513
112.06750,-1.827810985
112.06800,-5.795338286
112.06850,-4.879755062
112.06900,-3.048588616
112.06950,-3.048588616
112.07000,-2.743394209
112.07050,0.003355460754
112.07100,3.055299538
112.07150,3.665688353
112.07200,2.75010513
112.07250,1.834521907
112.07300,1.834521907
112.07350,1.224133092
112.07400,0.003355460754
112.07450,-0.6070333546
112.07500,-0.9122277624
112.07550,-1.827810985
112.07600,-3.353783024
112.07650,-3.964171839
112.07700,-2.133005393
112.07750,0.6137442762
112.07800,2.444910722
112.07850,2.75010513
112.07900,2.444910722
112.07950,1.834521907
112.08000,1.224133092
112.08050,0.9189386839
112.08100,1.834521907
112.08150,3.665688353
112.08200,4.581271576
112.08250,3.055299538
112.08300,1.834521907
112.08350,2.444910722
112.08400,3.665688353
112.08450,3.055299538
112.08500,0.6137442762
112.08550,-0.6070333546
112.08600,-0.9122277624
112.08650,-0.9122277624
112.08700,-2.133005393
112.08750,-3.353783024
112.08800,-2.743394209
112.08850,-0.6070333546
112.08900,0.9189386839
112.08950,1.834521907
112.09000,2.444910722
112.09050,3.055299538
112.09100,3.360493945
112.09150,3.665688353
112.09200,3.970882761
112.09250,3.360493945
112.09300,1.529327499
112.09350,-0.3018389469
112.09400,-1.827810985
112.09450,-2.743394209
112.09500,-3.353783024
112.09550,-3.048588616
112.09600,-1.827810985
112.09650,-0.3018389469
112.09700,-0.3018389469
112.09750,-1.827810985
112.09800,-2.743394209
112.09850,-2.133005393
112.09900,-0.3018389469
112.09950,0.9189386839
112.10000,1.529327499
112.10050,1.834521907
112.10100,2.139716315
112.10150,2.139716315
112.10200,2.139716315
112.10250,2.139716315
112.10300,3.055299538
112.10350,3.970882761
112.10400,4.581271576
112.10450,4.276077169
112.10500,3.970882761
112.10550,3.360493945
112.10600,1.529327499
112.10650,-0.9122277624
112.10700,-1.522616578
112.10750,0.003355460754
112.10800,2.139716315
112.10850,1.224133092
112.10900,-2.133005393
112.10950,-4.879755062
112.11000,-4.269366247
112.11050,-3.353783024
112.11100,-3.964171839
112.11150,-5.18494947
112.11200,-4.269366247
112.11250,-2.133005393
112.11300,-1.21742217
112.11350,-1.21742217
112.11400,-0.3018389469
112.11450,1.224133092
112.11500,2.139716315
112.11550,0.6137442762
112.11600,-0.9122277624
112.11650,-2.133005393
112.11700,-2.438199801
112.11750,-2.743394209
112.11800,-1.827810985
112.11850,0.003355460754
112.11900,1.529327499
112.11950,2.139716315
112.12000,1.224133092
112.12050,0.3085498685
112.12100,0.6137442762
112.12150,1.529327499
112.12200,2.139716315
112.12250,1.529327499
112.12300,0.9189386839
112.12350,0.9189386839
112.12400,1.224133092
112.12450,0.9189386839
112.12500,-0.3018389469
112.12550,-1.522616578
112.12600,-1.522616578
112.12650,-0.6070333546
112.12700,0.003355460754
112.12750,0.003355460754
112.12800,1.224133092
112.12850,2.444910722
112.12900,2.444910722
112.12950,0.9189386839
112.13000,0.3085498685
112.13050,0.9189386839
112.13100,1.224133092
112.13150,0.003355460754
112.13200,-1.21742217
112.13250,-1.522616578
112.13300,-0.9122277624
112.13350,-0.9122277624
112.13400,-1.21742217
112.13450,-0.6070333546
112.13500,0.3085498685
112.13550,0.3085498685
112.13600,0.003355460754
112.13650,-0.3018389469
112.13700,0.3085498685
112.13750,0.9189386839
112.13800,0.003355460754
112.13850,-0.9122277624
112.13900,-0.9122277624
112.13950,0.003355460754
112.14000,0.003355460754
112.14050,0.003355460754
112.14100,0.003355460754
112.14150,0.003355460754
112.14200,-0.6070333546
112.14250,-0.6070333546
112.14300,0.003355460754
112.14350,0.3085498685
112.14400,0.003355460754
112.14450,0.003355460754
112.14500,1.224133092
112.14550,3.360493945
112.14600,3.360493945
112.14650,2.139716315
112.14700,1.224133092
112.14750,0.3085498685
112.14800,-0.6070333546
112.14850,-1.827810985
112.14900,-0.6070333546
112.14950,1.224133092
112.15000,1.224133092
112.15050,0.003355460754
112.15100,0.9189386839
112.15150,3.360493945
112.15200,3.665688353
112.15250,0.6137442762
112.15300,-1.21742217
112.15350,0.3085498685
112.15400,2.139716315
112.15450,0.3085498685
112.15500,-2.743394209
112.15550,-3.964171839
112.15600,-3.658977432
112.15650,-3.964171839
112.15700,-4.269366247
112.15750,-1.827810985
112.15800,1.224133092
112.15850,2.444910722
112.15900,1.224133092
112.15950,0.3085498685
112.16000,0.003355460754
112.16050,-1.21742217
112.16100,-2.133005393
112.16150,-0.9122277624
112.16200,2.139716315
112.16250,3.970882761
112.16300,3.360493945
112.16350,1.834521907
112.16400,0.6137442762
112.16450,-0.6070333546
112.16500,-2.133005393
112.16550,-3.353783024
112.16600,-4.269366247
112.16650,-5.795338286
112.16700,-6.405727101
112.16750,-4.269366247
112.16800,-2.438199801
112.16850,-3.658977432
112.16900,-6.405727101
112.16950,-5.490143878
112.17000,-0.6070333546
112.17050,2.139716315
112.17100,1.529327499
112.17150,0.6137442762
112.17200,1.834521907
112.17250,3.360493945
112.17300,2.75010513
112.17350,1.224133092
112.17400,-0.3018389469
112.17450,-2.133005393
112.17500,-2.743394209
112.17550,0.6137442762
112.17600,6.71763243
112.17650,9.159187692
112.17700,7.328021246
112.17750,7.022826838
112.17800,8.548798876
112.17850,5.191660392
112.17900,-6.100532693
112.17950,-15.86675374
112.18000,-14.03558729
112.18050,-5.18494947
112.18100,-0.9122277624
112.18150,-3.353783024
112.18200,-4.574560655
112.18250,-1.21742217
112.18300,0.3085498685
112.18350,-0.9122277624
112.18400,-1.827810985
112.18450,-0.9122277624
112.18500,-2.133005393
112.18550,-7.016115916
112.18600,-10.67844881
112.18650,-9.762865586
112.18700,-8.236893547
112.18750,-10.06805999
112.18800,-12.81480966
112.18850,-12.50961526
112.18900,-9.15247677
112.18950,-7.321310324
112.19000,-9.457671178
112.19050,-11.89922644
112.19100,-10.98364322
112.19150,-6.100532693
112.19200,-2.438199801
112.19250,-4.574560655
112.19300,-9.15247677
112.19350,-7.016115916
112.19400,3.970882761
112.19450,15.87346466
112.19500,18.62021433
112.19550,14.04229822
112.19600,11.90593736
112.19650,15.87346466
112.19700,21.67215841
112.19750,25.02929689
112.19800,27.47085215
112.19850,29.91240742
112.19900,29.91240742
112.19950,25.63968571
112.20000,20.45138078
112.20050,17.09424229
112.20100,15.26307585
112.20150,12.21113177
112.20200,8.243604469
112.20250,5.191660392
112.20300,3.055299538
112.20350,1.224133092
112.20400,-0.9122277624
112.20450,-3.353783024
112.20500,-4.879755062
112.20550,-4.879755062
112.20600,-3.658977432
112.20650,-2.438199801
112.20700,-1.827810985
112.20750,-3.353783024
112.20800,-7.321310324
112.20850,-12.50961526
112.20900,-16.78233696
112.20950,-17.08753137
112.21000,-12.81480966
112.21050,-7.626504732
112.21100,-4.879755062
112.21150,-5.18494947
112.21200,-6.405727101
112.21250,-6.710921509
112.21300,-5.795338286
112.21350,-4.574560655
112.21400,-4.574560655
112.21450,-4.574560655
112.21500,-3.964171839
112.21550,-2.133005393
112.21600,-1.21742217
112.21650,-1.522616578
112.21700,-2.438199801
112.21750,-1.21742217
112.21800,1.529327499
112.21850,4.886465984
112.21900,5.496854799
112.21950,3.665688353
112.22000,0.3085498685
112.22050,-3.353783024
112.22100,-5.795338286
112.22150,-4.574560655
112.22200,0.003355460754
112.22250,3.665688353
112.22300,3.970882761
112.22350,0.6137442762
112.22400,-3.353783024
112.22450,-5.18494947
112.22500,-3.964171839
112.22550,-0.6070333546
112.22600,1.529327499
112.22650,2.139716315
112.22700,1.529327499
112.22750,0.9189386839
112.22800,0.6137442762
112.22850,-0.6070333546
112.22900,-1.827810985
112.22950,-1.827810985
112.23000,0.003355460754
112.23050,1.529327499
112.23100,1.834521907
112.23150,0.9189386839
112.23200,0.3085498685
112.23250,-0.9122277624
112.23300,-3.353783024
112.23350,-4.879755062
112.23400,-4.269366247
112.23450,-2.438199801
112.23500,-0.9122277624
112.23550,-0.6070333546
112.23600,-0.6070333546
112.23650,-0.9122277624
112.23700,-0.3018389469
112.23750,0.003355460754
112.23800,0.003355460754
112.23850,-1.21742217
112.23900,-3.964171839
112.23950,-6.710921509
112.24000,-8.847282363
112.24050,-10.3732544
112.24100,-11.59403203
112.24150,-10.06805999
112.24200,-7.016115916
112.24250,-4.879755062
112.24300,-5.18494947
112.24350,-6.100532693
112.24400,-5.490143878
112.24450,-3.658977432
112.24500,-1.522616578
112.24550,0.003355460754
112.24600,1.834521907
112.24650,2.75010513
112.24700,2.444910722
112.24750,2.444910722
112.24800,3.055299538
112.24850,3.055299538
112.24900,0.9189386839
112.24950,0.003355460754
112.25000,1.834521907
112.25050,3.665688353
112.25100,3.055299538
112.25150,0.003355460754
112.25200,-0.9122277624
112.25250,0.003355460754
112.25300,0.6137442762
112.25350,-0.6070333546
112.25400,-2.133005393
112.25450,-2.438199801
112.25500,-2.438199801
112.25550,-2.743394209
112.25600,-2.438199801
112.25650,-0.9122277624
112.25700,0.3085498685
112.25750,0.9189386839
112.25800,0.9189386839
112.25850,0.3085498685
112.25900,-0.3018389469
112.25950,-1.21742217
112.26000,0.3085498685
112.26050,3.665688353
112.26100,6.107243615
112.26150,6.107243615
112.26200,4.886465984
112.26250,5.191660392
112.26300,6.107243615
112.26350,5.802049207
112.26400,5.496854799
112.26450,5.802049207
112.26500,6.71763243
112.26550,5.802049207
112.26600,3.360493945
112.26650,3.360493945
112.26700,7.022826838
112.26750,12.82152058
112.26800,16.48385348
112.26850,16.48385348
112.26900,14.04229822
112.26950,10.37996532
112.27000,5.802049207
112.27050,0.9189386839
112.27100,-3.964171839
112.27150,-7.016115916
112.27200,-7.016115916
112.27250,-5.490143878
112.27300,-4.879755062
112.27350,-5.490143878
112.27400,-5.490143878
112.27450,-3.658977432
112.27500,-2.133005393
112.27550,-2.133005393
112.27600,-1.827810985
112.27650,0.3085498685
112.27700,3.970882761
112.27750,6.107243615
112.27800,4.886465984
112.27850,2.75010513
112.27900,1.529327499
112.27950,0.9189386839
112.28000,0.9189386839
112.28050,2.444910722
112.28100,4.276077169
112.28150,4.886465984
112.28200,3.970882761
112.28250,2.75010513
112.28300,2.75010513
112.28350,3.360493945
112.28400,2.444910722
112.28450,1.224133092
112.28500,0.6137442762
112.28550,0.003355460754
112.28600,-0.6070333546
112.28650,-1.827810985
112.28700,-2.133005393
112.28750,-2.438199801
112.28800,-1.827810985
112.28850,0.9189386839
112.28900,5.802049207
112.28950,8.548798876
112.29000,7.633215653
112.29050,5.802049207
112.29100,6.412438022
112.29150,5.191660392
112.29200,-3.048588616
112.29250,-14.64597611
112.29300,-19.83428104
112.29350,-14.03558729
112.29400,-5.490143878
112.29450,-2.743394209
112.29500,-5.490143878
112.29550,-7.016115916
112.29600,-5.795338286
112.29650,-3.964171839
112.29700,-2.743394209
112.29750,-1.522616578
112.29800,0.003355460754
112.29850,0.9189386839
112.29900,0.6137442762
112.29950,0.003355460754
112.30000,-0.6070333546
112.30050,-0.3018389469
112.30100,1.834521907
112.30150,4.276077169
112.30200,2.75010513
112.30250,-0.6070333546
112.30300,-1.21742217
112.30350,3.055299538
112.30400,7.633215653
112.30450,7.938410061
112.30500,6.71763243
112.30550,7.022826838
112.30600,5.496854799
112.30650,-1.21742217
112.30700,-10.06805999
112.30750,-12.20442085
112.30800,-7.016115916
112.30850,-1.827810985
112.30900,-0.6070333546
112.30950,-1.522616578
112.31000,-1.522616578
112.31050,-1.21742217
112.31100,-2.133005393
112.31150,-2.438199801
112.31200,-1.827810985
112.31250,-1.21742217
112.31300,-1.827810985
112.31350,-1.522616578
112.31400,0.3085498685
112.31450,1.834521907
112.31500,2.444910722
112.31550,2.75010513
112.31600,2.75010513
112.31650,1.529327499
112.31700,-0.3018389469
112.31750,-0.3018389469
112.31800,0.9189386839
112.31850,1.529327499
112.31900,0.003355460754
112.31950,0.003355460754
112.32000,1.834521907
112.32050,4.581271576
112.32100,5.496854799
112.32150,5.802049207
112.32200,6.412438022
112.32250,6.107243615
112.32300,4.581271576
112.32350,3.055299538
112.32400,2.444910722
112.32450,2.444910722
112.32500,2.444910722
112.32550,3.055299538
112.32600,2.75010513
112.32650,0.003355460754
112.32700,-3.964171839
112.32750,-6.100532693
112.32800,-4.269366247
112.32850,-1.522616578
112.32900,-1.522616578
112.32950,-3.353783024
112.33000,-4.879755062
112.33050,-5.490143878
112.33100,-5.795338286
112.33150,-5.490143878
112.33200,-3.658977432
112.33250,-1.827810985
112.33300,-1.522616578
112.33350,-2.743394209
112.33400,-3.658977432
112.33450,-3.353783024
112.33500,-2.438199801
112.33550,-1.827810985
112.33600,-1.21742217
112.33650,0.003355460754
112.33700,0.9189386839
112.33750,0.9189386839
112.33800,0.003355460754
112.33850,0.003355460754
112.33900,0.3085498685
112.33950,1.224133092
112.34000,1.224133092
112.34050,0.3085498685
112.34100,0.003355460754
112.34150,0.003355460754
112.34200,0.003355460754
112.34250,0.6137442762
112.34300,3.055299538
112.34350,5.191660392
112.34400,4.886465984
112.34450,1.224133092
112.34500,-1.522616578
112.34550,-2.133005393
112.34600,-1.522616578
112.34650,-1.522616578
112.34700,-1.21742217
112.34750,-0.9122277624
112.34800,-0.9122277624
112.34850,-1.522616578
112.34900,-2.438199801
112.34950,-2.438199801
112.35000,-3.658977432
112.35050,-5.795338286
112.35100,-6.100532693
112.35150,-3.353783024
112.35200,0.003355460754
112.35250,0.6137442762
112.35300,0.003355460754
112.35350,0.003355460754
112.35400,1.529327499
112.35450,2.139716315
112.35500,0.9189386839
112.35550,0.3085498685
112.35600,1.224133092
112.35650,1.834521907
112.35700,2.139716315
112.35750,2.444910722
112.35800,2.444910722
112.35850,1.529327499
112.35900,0.003355460754
112.35950,-0.3018389469
112.36000,0.3085498685
112.36050,1.834521907
112.36100,3.055299538
112.36150,2.75010513
112.36200,0.9189386839
112.36250,-0.9122277624
112.36300,-2.133005393
112.36350,-1.21742217
112.36400,-0.3018389469
112.36450,-0.6070333546
112.36500,-1.21742217
112.36550,-1.522616578
112.36600,-1.827810985
112.36650,-1.522616578
112.36700,0.003355460754
112.36750,2.139716315
112.36800,2.139716315
112.36850,0.003355460754
112.36900,-2.743394209
112.36950,-3.658977432
112.37000,-3.658977432
112.37050,-3.048588616
112.37100,-1.21742217
112.37150,0.9189386839
112.37200,1.529327499
112.37250,-0.3018389469
112.37300,-2.438199801
112.37350,-2.133005393
112.37400,-2.438199801
112.37450,-4.879755062
112.37500,-6.405727101
112.37550,-2.438199801
112.37600,4.276077169
112.37650,7.633215653
112.37700,6.107243615
112.37750,3.360493945
112.37800,2.75010513
112.37850,2.444910722
112.37900,0.9189386839
112.37950,0.6137442762
112.38000,1.834521907
112.38050,2.75010513
112.38100,2.75010513
112.38150,2.444910722
112.38200,3.055299538
112.38250,3.055299538
112.38300,1.529327499
112.38350,0.3085498685
112.38400,1.224133092
112.38450,2.444910722
112.38500,0.9189386839
112.38550,-1.522616578
112.38600,-3.048588616
112.38650,-2.438199801
112.38700,-1.522616578
112.38750,-0.3018389469
112.38800,0.003355460754
112.38850,0.003355460754
112.38900,-2.438199801
112.38950,-4.879755062
112.39000,-5.18494947
112.39050,-2.743394209
112.39100,0.3085498685
112.39150,2.139716315
112.39200,1.529327499
112.39250,-0.3018389469
112.39300,-2.438199801
112.39350,-3.048588616
112.39400,-1.827810985
112.39450,-0.3018389469
112.39500,0.003355460754
112.39550,0.003355460754
112.39600,0.6137442762
112.39650,0.6137442762
112.39700,-0.9122277624
112.39750,-3.048588616
112.39800,-3.658977432
112.39850,-1.827810985
112.39900,0.003355460754
112.39950,0.6137442762
112.40000,0.003355460754
112.40050,0.3085498685
112.40100,1.224133092
112.40150,2.139716315
112.40200,3.055299538
112.40250,4.276077169
112.40300,5.191660392
112.40350,4.886465984
112.40400,3.360493945
112.40450,1.224133092
112.40500,0.003355460754
112.40550,-0.6070333546
112.40600,-2.743394209
112.40650,-5.795338286
112.40700,-7.931699139
112.40750,-6.100532693
112.40800,-2.133005393
112.40850,0.003355460754
112.40900,-1.21742217
112.40950,-3.048588616
112.41000,-3.658977432
112.41050,-3.048588616
112.41100,-3.658977432
112.41150,-5.490143878
112.41200,-6.710921509
112.41250,-6.710921509
112.41300,-7.016115916
112.41350,-8.542087955
112.41400,-9.457671178
112.41450,-8.236893547
112.41500,-5.795338286
112.41550,-4.269366247
112.41600,-2.438199801
112.41650,1.224133092
112.41700,7.633215653
112.41750,11.90593736
112.41800,12.21113177
112.41850,11.60074295
112.41900,13.4319094
112.41950,14.04229822
112.42000,7.938410061
112.42050,-3.353783024
112.42100,-9.762865586
112.42150,-6.710921509
112.42200,-0.3018389469
112.42250,0.003355460754
112.42300,-4.269366247
112.42350,-7.321310324
112.42400,-6.405727101
112.42450,-4.879755062
112.42500,-5.490143878
112.42550,-6.405727101
112.42600,-5.18494947
112.42650,-1.827810985
112.42700,1.529327499
112.42750,3.665688353
112.42800,3.970882761
112.42850,2.444910722
112.42900,1.224133092
112.42950,1.224133092
112.43000,1.529327499
112.43050,0.9189386839
112.43100,0.6137442762
112.43150,1.834521907
112.43200,4.276077169
112.43250,5.496854799
112.43300,5.496854799
112.43350,5.496854799
112.43400,5.802049207
112.43450,6.107243615
112.43500,5.802049207
112.43550,5.802049207
112.43600,4.886465984
112.43650,2.75010513
112.43700,1.529327499
112.43750,2.75010513
112.43800,5.496854799
112.43850,6.107243615
112.43900,3.055299538
112.43950,-1.827810985
112.44000,-5.490143878
112.44050,-4.574560655
112.44100,0.003355460754
112.44150,6.107243615
112.44200,9.4643821
112.44250,9.4643821
112.44300,9.159187692
112.44350,9.769576507
112.44400,8.243604469
112.44450,4.581271576
112.44500,1.224133092
112.44550,1.224133092
112.44600,0.3085498685
112.44650,-6.100532693
112.44700,-15.56155933
112.44750,-18.61350341
112.44800,-12.50961526
112.44850,-4.269366247
112.44900,-0.9122277624
112.44950,-1.827810985
112.45000,-2.438199801
112.45050,-2.438199801
112.45100,-3.048588616
112.45150,-4.574560655
112.45200,-4.574560655
112.45250,-3.658977432
112.45300,-3.353783024
112.45350,-3.048588616
112.45400,-1.522616578
112.45450,0.003355460754
112.45500,-0.6070333546
112.45550,-1.827810985
112.45600,-0.9122277624
112.45650,1.224133092
112.45700,2.444910722
112.45750,1.529327499
112.45800,0.9189386839
112.45850,3.055299538
112.45900,6.412438022
112.45950,7.633215653
112.46000,5.802049207
112.46050,3.360493945
112.46100,1.529327499
112.46150,0.3085498685
112.46200,0.003355460754
112.46250,0.9189386839
112.46300,2.444910722
112.46350,3.360493945
112.46400,1.529327499
112.46450,-1.827810985
112.46500,-4.269366247
112.46550,-3.658977432
112.46600,-0.9122277624
112.46650,0.3085498685
112.46700,-0.3018389469
112.46750,-2.438199801
112.46800,-2.743394209
112.46850,-0.6070333546
112.46900,1.529327499
112.46950,2.139716315
112.47000,0.9189386839
112.47050,-1.827810985
112.47100,-4.269366247
112.47150,-4.574560655
112.47200,-1.522616578
112.47250,3.360493945
112.47300,7.022826838
112.47350,6.71763243
112.47400,4.276077169
112.47450,2.444910722
112.47500,2.139716315
112.47550,2.444910722
112.47600,1.529327499
112.47650,-0.6070333546
112.47700,-2.743394209
112.47750,-3.353783024
112.47800,-2.743394209
112.47850,-0.9122277624
112.47900,0.9189386839
112.47950,2.139716315
112.48000,1.834521907
112.48050,0.003355460754
112.48100,-1.21742217
112.48150,-1.827810985
112.48200,-0.9122277624
112.48250,-0.3018389469
112.48300,0.003355460754
112.48350,0.6137442762
112.48400,1.224133092
112.48450,0.003355460754
112.48500,-3.048588616
112.48550,-5.490143878
112.48600,-3.353783024
112.48650,1.834521907
112.48700,5.802049207
112.48750,5.191660392
112.48800,2.75010513
112.48850,1.224133092
112.48900,2.139716315
112.48950,3.360493945
112.49000,3.055299538
112.49050,2.444910722
112.49100,2.139716315
112.49150,3.055299538
112.49200,3.360493945
112.49250,1.834521907
112.49300,-0.9122277624
112.49350,-3.353783024
112.49400,-3.048588616
112.49450,-1.21742217
112.49500,0.3085498685
112.49550,0.3085498685
112.49600,-0.3018389469
112.49650,-1.21742217
112.49700,-0.9122277624
112.49750,1.224133092
112.49800,3.970882761
112.49850,3.360493945
112.49900,-0.9122277624
112.49950,-5.490143878
112.50000,-4.879755062
112.50050,0.003355460754
112.50100,4.276077169
112.50150,4.581271576
112.50200,1.529327499
112.50250,-0.9122277624
112.50300,-1.21742217
112.50350,0.3085498685
112.50400,2.75010513
112.50450,3.055299538
112.50500,0.9189386839
112.50550,-2.438199801
112.50600,-4.574560655
112.50650,-4.574560655
112.50700,-4.269366247
112.50750,-4.269366247
112.50800,-3.048588616
112.50850,-0.3018389469
112.50900,1.834521907
112.50950,1.834521907
112.51000,0.3085498685
112.51050,-0.6070333546
112.51100,-1.522616578
112.51150,-1.827810985
112.51200,-1.522616578
112.51250,-0.3018389469
112.51300,0.9189386839
112.51350,0.6137442762
112.51400,-0.6070333546
112.51450,-0.9122277624
112.51500,0.3085498685
112.51550,2.75010513
112.51600,4.581271576
112.51650,5.191660392
112.51700,4.886465984
112.51750,3.665688353
112.51800,1.529327499
112.51850,-0.3018389469
112.51900,-0.3018389469
112.51950,0.3085498685
112.52000,0.9189386839
112.52050,0.3085498685
112.52100,0.003355460754
112.52150,1.224133092
112.52200,3.055299538
112.52250,2.75010513
112.52300,-0.3018389469
112.52350,-4.269366247
112.52400,-5.490143878
112.52450,-4.269366247
112.52500,-2.743394209
112.52550,-2.438199801
112.52600,-2.743394209
112.52650,-1.827810985
112.52700,0.003355460754
112.52750,2.139716315
112.52800,1.834521907
112.52850,-0.6070333546
112.52900,-4.574560655
112.52950,-6.710921509
112.53000,-5.795338286
112.53050,-3.964171839
112.53100,-3.658977432
112.53150,-4.269366247
112.53200,-3.964171839
112.53250,-2.743394209
112.53300,-2.133005393
112.53350,-2.133005393
112.53400,-2.438199801
112.53450,-2.438199801
112.53500,-2.438199801
112.53550,-2.743394209
112.53600,-2.133005393
112.53650,-0.6070333546
112.53700,-0.3018389469
112.53750,-0.9122277624
112.53800,-1.21742217
112.53850,-0.3018389469
112.53900,0.9189386839
112.53950,1.834521907
112.54000,3.360493945
112.54050,5.496854799
112.54100,6.71763243
112.54150,7.022826838
112.54200,7.633215653
112.54250,7.328021246
112.54300,2.139716315
112.54350,-7.931699139
112.54400,-16.47714256
112.54450,-15.86675374
112.54500,-8.542087955
112.54550,-2.743394209
112.54600,-2.438199801
112.54650,-3.658977432
112.54700,-2.743394209
112.54750,-1.827810985
112.54800,-1.827810985
112.54850,-1.21742217
112.54900,1.224133092
112.54950,3.360493945
112.55000,2.139716315
112.55050,-1.522616578
112.55100,-4.574560655
112.55150,-5.18494947
112.55200,-3.964171839
112.55250,-1.522616578
112.55300,2.139716315
112.55350,4.886465984
112.55400,4.886465984
112.55450,2.75010513
112.55500,1.529327499
112.55550,1.224133092
112.55600,0.9189386839
112.55650,0.003355460754
112.55700,0.003355460754
112.55750,0.003355460754
112.55800,-0.3018389469
112.55850,-0.9122277624
112.55900,-0.3018389469
112.55950,0.9189386839
112.56000,0.003355460754
112.56050,-2.743394209
112.56100,-3.658977432
112.56150,-0.3018389469
112.56200,4.276077169
112.56250,6.107243615
112.56300,3.970882761
112.56350,1.834521907
112.56400,2.444910722
112.56450,3.360493945
112.56500,3.055299538
112.56550,1.834521907
112.56600,0.9189386839
112.56650,0.6137442762
112.56700,0.6137442762
112.56750,0.9189386839
112.56800,1.529327499
112.56850,0.6137442762
112.56900,-0.6070333546
112.56950,-1.21742217
112.57000,0.003355460754
112.57050,1.529327499
112.57100,1.834521907
112.57150,1.834521907
112.57200,3.360493945
112.57250,5.496854799
112.57300,5.191660392
112.57350,2.444910722
112.57400,0.003355460754
112.57450,-1.522616578
112.57500,-3.048588616
112.57550,-4.879755062
112.57600,-5.795338286
112.57650,-5.18494947
112.57700,-2.438199801
112.57750,0.9189386839
112.57800,3.665688353
112.57850,3.055299538
112.57900,-0.3018389469
112.57950,-2.743394209
112.58000,-0.9122277624
112.58050,2.139716315
112.58100,3.665688353
112.58150,2.139716315
112.58200,1.224133092
112.58250,1.529327499
112.58300,1.224133092
112.58350,-0.3018389469
112.58400,-1.522616578
112.58450,0.003355460754
112.58500,1.529327499
112.58550,1.834521907
112.58600,1.224133092
112.58650,1.834521907
112.58700,2.75010513
112.58750,2.444910722
112.58800,0.6137442762
112.58850,-0.6070333546
112.58900,0.003355460754
112.58950,1.224133092
112.59000,2.444910722
112.59050,1.529327499
112.59100,0.003355460754
112.59150,-1.522616578
112.59200,-2.438199801
112.59250,-2.133005393
112.59300,-1.522616578
112.59350,-1.522616578
112.59400,-1.827810985
112.59450,-1.827810985
112.59500,-1.21742217
112.59550,-0.6070333546
112.59600,-0.9122277624
112.59650,-0.3018389469
112.59700,0.9189386839
112.59750,0.6137442762
112.59800,-2.133005393
112.59850,-4.574560655
112.59900,-2.438199801
112.59950,2.139716315
112.60000,3.970882761
112.60050,2.139716315
112.60100,0.9189386839
112.60150,1.529327499
112.60200,1.529327499
112.60250,1.224133092
