"type","name","time_units","begin_time","frequency","count","units"
"signal","Ultium EMG-FLEX.CARP.R RT","s",164.96000,2000,22000,"uV"

"time","value"
164.96000,20.50933874
164.96050,14.40545058
164.96100,5.860007166
164.96150,-2.380241842
164.96200,-7.263352366
164.96250,-7.568546773
164.96300,-4.516602696
164.96350,-0.5490753962
164.96400,0.9768966423
164.96450,-2.075047435
164.96500,-9.39971322
164.96550,-14.89321256
164.96600,-14.58801815
164.96650,-11.23087967
164.96700,-11.53607407
164.96750,-14.58801815
164.96800,-12.7568517
164.96850,-2.075047435
164.96900,10.43792328
164.96950,15.0158394
164.97000,11.0483121
164.97050,6.775590389
164.97100,7.996368019
164.97150,12.26908973
164.97200,15.0158394
164.97250,15.93142262
164.97300,16.84700584
164.97350,16.84700584
164.97400,14.40545058
164.97450,10.13272887
164.97500,7.080784796
164.97550,7.996368019
164.97600,12.57428413
164.97650,17.45739466
164.97700,20.20414433
164.97750,21.11972755
164.97800,20.81453314
164.97850,19.59375551
164.97900,16.84700584
164.97950,12.26908973
164.98000,8.301562427
164.98050,6.775590389
164.98100,5.860007166
164.98150,2.502868681
164.98200,-2.075047435
164.98250,-4.821797104
164.98300,-4.516602696
164.98350,-4.211408289
164.98400,-5.432185919
164.98450,-7.263352366
164.98500,-5.737380327
164.98550,-2.68543625
164.98600,-1.464658619
164.98650,-2.075047435
164.98700,0.06131341924
164.98750,7.080784796
164.98800,16.23661703
164.98850,21.11972755
164.98900,20.20414433
164.98950,17.15220025
164.99000,15.62622821
164.99050,14.40545058
164.99100,11.65870091
164.99150,7.996368019
164.99200,6.470395981
164.99250,7.691173612
164.99300,7.385979204
164.99350,1.892479865
164.99400,-6.65296355
164.99450,-11.53607407
164.99500,-8.789324404
164.99550,-2.380241842
164.99600,0.3665078269
164.99650,-0.5490753962
164.99700,-2.68543625
164.99750,-2.380241842
164.99800,-1.159464212
164.99850,-0.8542698039
164.99900,0.06131341924
164.99950,3.418451904
165.00000,4.944423942
165.00050,-0.8542698039
165.00100,-15.80879578
165.00150,-31.37371057
165.00200,-39.30876517
165.00250,-37.78279314
165.00300,-33.20487702
165.00350,-31.37371057
165.00400,-31.06851617
165.00450,-27.71137768
165.00500,-20.08151749
165.00550,-13.67243493
165.00600,-12.14646289
165.00650,-10.62049085
165.00700,-2.075047435
165.00750,12.57428413
165.00800,23.2560884
165.00850,22.03531077
165.00900,13.18467295
165.00950,7.080784796
165.01000,7.385979204
165.01050,10.13272887
165.01100,10.43792328
165.01150,8.911951243
165.01200,6.775590389
165.01250,3.418451904
165.01300,-1.769853027
165.01350,-6.347769142
165.01400,-7.568546773
165.01450,-6.347769142
165.01500,-4.821797104
165.01550,-3.906213881
165.01600,-2.68543625
165.01650,-0.5490753962
165.01700,1.892479865
165.01750,4.944423942
165.01800,7.385979204
165.01850,7.996368019
165.01900,5.554812758
165.01950,0.9768966423
165.02000,-1.769853027
165.02050,-1.769853027
165.02100,-1.159464212
165.02150,-2.075047435
165.02200,-6.042574735
165.02250,-11.23087967
165.02300,-17.02957341
165.02350,-22.82826716
165.02400,-27.40618327
165.02450,-28.3217665
165.02500,-25.57501683
165.02550,-22.52307275
165.02600,-22.82826716
165.02650,-24.3542392
165.02700,-22.52307275
165.02750,-15.80879578
165.02800,-8.178935589
165.02850,-2.380241842
165.02900,2.502868681
165.02950,10.13272887
165.03000,18.9833667
165.03050,26.30803248
165.03100,28.74958774
165.03150,26.30803248
165.03200,20.20414433
165.03250,13.18467295
165.03300,8.301562427
165.03350,5.554812758
165.03400,3.418451904
165.03450,0.9768966423
165.03500,-0.5490753962
165.03550,-0.5490753962
165.03600,-0.2438809885
165.03650,-1.464658619
165.03700,-3.295825065
165.03750,-2.990630658
165.03800,-0.5490753962
165.03850,0.3665078269
165.03900,-0.5490753962
165.03950,-2.68543625
165.04000,-3.601019473
165.04050,-2.990630658
165.04100,-2.380241842
165.04150,-2.075047435
165.04200,-1.769853027
165.04250,-0.8542698039
165.04300,0.06131341924
165.04350,0.6717022346
165.04400,0.9768966423
165.04450,1.587285458
165.04500,2.197674273
165.04550,3.113257496
165.04600,3.113257496
165.04650,1.28209105
165.04700,-0.2438809885
165.04750,0.06131341924
165.04800,1.587285458
165.04850,1.892479865
165.04900,0.06131341924
165.04950,-1.464658619
165.05000,-1.159464212
165.05050,-0.2438809885
165.05100,-0.5490753962
165.05150,-1.159464212
165.05200,0.06131341924
165.05250,1.892479865
165.05300,3.113257496
165.05350,1.892479865
165.05400,0.3665078269
165.05450,1.892479865
165.05500,6.165201573
165.05550,11.65870091
165.05600,15.93142262
165.05650,17.76258907
165.05700,18.37297788
165.05750,19.2885611
165.05800,19.2885611
165.05850,16.84700584
165.05900,12.87947854
165.05950,9.522340058
165.06000,7.080784796
165.06050,0.9768966423
165.06100,-8.178935589
165.06150,-15.80879578
165.06200,-16.724379
165.06250,-14.28282374
165.06300,-13.97762934
165.06350,-15.19840697
165.06400,-12.7568517
165.06450,-4.821797104
165.06500,2.197674273
165.06550,2.808063089
165.06600,-0.8542698039
165.06650,-4.516602696
165.06700,-5.737380327
165.06750,-5.432185919
165.06800,-5.432185919
165.06850,-6.347769142
165.06900,-9.39971322
165.06950,-13.06204611
165.07000,-14.58801815
165.07050,-12.4516573
165.07100,-10.31529644
165.07150,-12.14646289
165.07200,-17.94515664
165.07250,-20.99710071
165.07300,-15.80879578
165.07350,-3.906213881
165.07400,7.080784796
165.07450,12.26908973
165.07500,12.26908973
165.07550,11.96389532
165.07600,11.65870091
165.07650,10.13272887
165.07700,10.13272887
165.07750,15.3210338
165.07800,25.08725485
165.07850,31.191143
165.07900,28.13919893
165.07950,19.2885611
165.08000,12.57428413
165.08050,11.65870091
165.08100,13.48986736
165.08150,14.71064499
165.08200,15.0158394
165.08250,15.3210338
165.08300,15.62622821
165.08350,16.54181144
165.08400,18.9833667
165.08450,21.73011637
165.08500,22.64569959
165.08550,21.42492196
165.08600,19.59375551
165.08650,18.06778347
165.08700,15.3210338
165.08750,10.13272887
165.08800,4.028840719
165.08850,-1.464658619
165.08900,-6.958157958
165.08950,-13.36724052
165.09000,-20.3867119
165.09050,-27.40618327
165.09100,-34.12046024
165.09150,-42.36070925
165.09200,-51.82173589
165.09250,-57.31523523
165.09300,-54.26329115
165.09350,-45.41265333
165.09400,-37.17240432
165.09450,-33.20487702
165.09500,-30.15293294
165.09550,-24.96462801
165.09600,-18.25035104
165.09650,-12.7568517
165.09700,-7.873741181
165.09750,-0.5490753962
165.09800,8.606756835
165.09850,16.23661703
165.09900,19.2885611
165.09950,17.45739466
165.10000,13.79506177
165.10050,10.74311769
165.10100,8.606756835
165.10150,7.080784796
165.10200,4.944423942
165.10250,3.418451904
165.10300,3.418451904
165.10350,4.639229535
165.10400,4.944423942
165.10450,3.113257496
165.10500,-0.5490753962
165.10550,-5.432185919
165.10600,-9.704907627
165.10650,-11.84126848
165.10700,-11.53607407
165.10750,-8.789324404
165.10800,-5.737380327
165.10850,-1.464658619
165.10900,3.418451904
165.10950,7.996368019
165.11000,10.13272887
165.11050,12.87947854
165.11100,20.81453314
165.11150,32.71711504
165.11200,40.34697524
165.11250,37.90541997
165.11300,27.2236157
165.11350,15.93142262
165.11400,7.996368019
165.11450,2.808063089
165.11500,-0.2438809885
165.11550,-1.464658619
165.11600,0.06131341924
165.11650,3.418451904
165.11700,5.860007166
165.11750,4.944423942
165.11800,0.9768966423
165.11850,-3.295825065
165.11900,-6.347769142
165.11950,-8.789324404
165.12000,-9.704907627
165.12050,-5.737380327
165.12100,1.28209105
165.12150,3.418451904
165.12200,-5.126991512
165.12250,-17.94515664
165.12300,-22.52307275
165.12350,-17.63996223
165.12400,-12.4516573
165.12450,-11.84126848
165.12500,-9.094518812
165.12550,-0.5490753962
165.12600,6.470395981
165.12650,5.24961835
165.12700,-2.380241842
165.12750,-8.178935589
165.12800,-8.484129996
165.12850,-5.737380327
165.12900,-2.380241842
165.12950,0.06131341924
165.13000,-0.2438809885
165.13050,-3.906213881
165.13100,-6.347769142
165.13150,-3.601019473
165.13200,1.28209105
165.13250,4.639229535
165.13300,5.554812758
165.13350,7.080784796
165.13400,8.911951243
165.13450,8.301562427
165.13500,5.24961835
165.13550,2.808063089
165.13600,3.418451904
165.13650,5.24961835
165.13700,4.639229535
165.13750,-0.5490753962
165.13800,-8.484129996
165.13850,-13.36724052
165.13900,-11.23087967
165.13950,-5.737380327
165.14000,-2.380241842
165.14050,-2.075047435
165.14100,0.06131341924
165.14150,6.165201573
165.14200,13.18467295
165.14250,13.48986736
165.14300,6.775590389
165.14350,-0.2438809885
165.14400,-2.380241842
165.14450,0.3665078269
165.14500,6.470395981
165.14550,12.26908973
165.14600,16.23661703
165.14650,17.76258907
165.14700,16.23661703
165.14750,13.18467295
165.14800,9.827534466
165.14850,8.301562427
165.14900,7.385979204
165.14950,4.944423942
165.15000,0.6717022346
165.15050,-1.769853027
165.15100,-0.2438809885
165.15150,3.418451904
165.15200,4.639229535
165.15250,2.808063089
165.15300,1.892479865
165.15350,4.334035127
165.15400,6.470395981
165.15450,3.418451904
165.15500,-4.211408289
165.15550,-12.7568517
165.15600,-18.25035104
165.15650,-20.08151749
165.15700,-18.25035104
165.15750,-14.58801815
165.15800,-11.23087967
165.15850,-9.094518812
165.15900,-7.263352366
165.15950,-4.516602696
165.16000,-1.464658619
165.16050,0.3665078269
165.16100,1.28209105
165.16150,2.197674273
165.16200,2.502868681
165.16250,0.06131341924
165.16300,-4.211408289
165.16350,-7.568546773
165.16400,-8.178935589
165.16450,-6.65296355
165.16500,-5.126991512
165.16550,-4.211408289
165.16600,-2.990630658
165.16650,-2.990630658
165.16700,-5.126991512
165.16750,-7.873741181
165.16800,-8.484129996
165.16850,-7.568546773
165.16900,-6.65296355
165.16950,-7.263352366
165.17000,-8.178935589
165.17050,-6.958157958
165.17100,-2.68543625
165.17150,3.418451904
165.17200,9.827534466
165.17250,13.48986736
165.17300,13.18467295
165.17350,12.26908973
165.17400,13.18467295
165.17450,16.54181144
165.17500,18.06778347
165.17550,16.54181144
165.17600,15.0158394
165.17650,15.3210338
165.17700,15.0158394
165.17750,11.0483121
165.17800,4.028840719
165.17850,-1.464658619
165.17900,-2.380241842
165.17950,-0.8542698039
165.18000,0.06131341924
165.18050,-1.769853027
165.18100,-5.126991512
165.18150,-7.873741181
165.18200,-8.484129996
165.18250,-8.178935589
165.18300,-7.873741181
165.18350,-6.042574735
165.18400,-0.5490753962
165.18450,8.606756835
165.18500,16.23661703
165.18550,17.45739466
165.18600,14.40545058
165.18650,12.26908973
165.18700,14.40545058
165.18750,19.2885611
165.18800,22.64569959
165.18850,23.86647722
165.18900,23.2560884
165.18950,22.03531077
165.19000,20.20414433
165.19050,16.23661703
165.19100,9.522340058
165.19150,0.9768966423
165.19200,-6.042574735
165.19250,-11.23087967
165.19300,-16.4191846
165.19350,-22.21787834
165.19400,-27.10098887
165.19450,-28.6269609
165.19500,-26.79579446
165.19550,-23.43865597
165.19600,-20.08151749
165.19650,-17.33476782
165.19700,-12.4516573
165.19750,-2.68543625
165.19800,12.57428413
165.19850,27.83400452
165.19900,33.02230945
165.19950,24.47686604
165.20000,9.827534466
165.20050,-0.2438809885
165.20100,-2.990630658
165.20150,-2.075047435
165.20200,-2.075047435
165.20250,-2.990630658
165.20300,-4.821797104
165.20350,-7.568546773
165.20400,-11.23087967
165.20450,-12.4516573
165.20500,-10.92568526
165.20550,-10.01010203
165.20600,-11.53607407
165.20650,-13.36724052
165.20700,-13.36724052
165.20750,-12.7568517
165.20800,-13.36724052
165.20850,-15.19840697
165.20900,-15.80879578
165.20950,-15.50360137
165.21000,-14.58801815
165.21050,-13.67243493
165.21100,-12.14646289
165.21150,-10.92568526
165.21200,-10.92568526
165.21250,-12.7568517
165.21300,-14.89321256
165.21350,-16.4191846
165.21400,-16.4191846
165.21450,-13.67243493
165.21500,-7.873741181
165.21550,-0.8542698039
165.21600,4.639229535
165.21650,9.21714565
165.21700,15.0158394
165.21750,22.64569959
165.21800,29.97036537
165.21850,33.63269827
165.21900,32.71711504
165.21950,29.05478215
165.22000,23.86647722
165.22050,17.45739466
165.22100,9.827534466
165.22150,2.808063089
165.22200,-0.8542698039
165.22250,-2.380241842
165.22300,-3.601019473
165.22350,-6.042574735
165.22400,-9.39971322
165.22450,-11.84126848
165.22500,-13.06204611
165.22550,-12.4516573
165.22600,-10.92568526
165.22650,-9.39971322
165.22700,-8.178935589
165.22750,-7.568546773
165.22800,-6.347769142
165.22850,-5.432185919
165.22900,-5.432185919
165.22950,-6.042574735
165.23000,-2.68543625
165.23050,5.860007166
165.23100,15.0158394
165.23150,16.23661703
165.23200,8.911951243
165.23250,0.06131341924
165.23300,-2.990630658
165.23350,-1.464658619
165.23400,1.587285458
165.23450,4.944423942
165.23500,8.606756835
165.23550,10.13272887
165.23600,7.385979204
165.23650,1.892479865
165.23700,-1.159464212
165.23750,-2.380241842
165.23800,-4.516602696
165.23850,-8.178935589
165.23900,-11.84126848
165.23950,-13.67243493
165.24000,-14.89321256
165.24050,-13.97762934
165.24100,-9.704907627
165.24150,-3.906213881
165.24200,-2.075047435
165.24250,-5.432185919
165.24300,-10.62049085
165.24350,-13.06204611
165.24400,-11.23087967
165.24450,-5.126991512
165.24500,5.554812758
165.24550,16.84700584
165.24600,21.11972755
165.24650,17.15220025
165.24700,11.96389532
165.24750,11.3535065
165.24800,13.79506177
165.24850,14.71064499
165.24900,13.48986736
165.24950,12.57428413
165.25000,11.3535065
165.25050,7.996368019
165.25100,4.028840719
165.25150,3.723646312
165.25200,3.723646312
165.25250,-0.2438809885
165.25300,-8.789324404
165.25350,-15.19840697
165.25400,-16.4191846
165.25450,-14.28282374
165.25500,-11.84126848
165.25550,-8.484129996
165.25600,-3.906213881
165.25650,-1.769853027
165.25700,-5.126991512
165.25750,-11.23087967
165.25800,-13.36724052
165.25850,-7.873741181
165.25900,0.9768966423
165.25950,6.775590389
165.26000,6.165201573
165.26050,2.197674273
165.26100,0.6717022346
165.26150,1.28209105
165.26200,0.9768966423
165.26250,-0.5490753962
165.26300,-2.075047435
165.26350,-3.295825065
165.26400,-7.568546773
165.26450,-14.28282374
165.26500,-19.16593427
165.26550,-17.94515664
165.26600,-12.7568517
165.26650,-7.568546773
165.26700,-3.906213881
165.26750,-0.2438809885
165.26800,2.502868681
165.26850,4.334035127
165.26900,4.639229535
165.26950,4.944423942
165.27000,4.944423942
165.27050,4.334035127
165.27100,3.113257496
165.27150,1.892479865
165.27200,2.197674273
165.27250,3.723646312
165.27300,5.24961835
165.27350,5.24961835
165.27400,3.418451904
165.27450,1.587285458
165.27500,1.587285458
165.27550,3.113257496
165.27600,4.944423942
165.27650,5.860007166
165.27700,6.775590389
165.27750,8.606756835
165.27800,11.65870091
165.27850,14.10025617
165.27900,14.71064499
165.27950,13.79506177
165.28000,12.26908973
165.28050,10.74311769
165.28100,6.775590389
165.28150,-0.5490753962
165.28200,-8.178935589
165.28250,-10.62049085
165.28300,-8.484129996
165.28350,-5.432185919
165.28400,-4.211408289
165.28450,-3.906213881
165.28500,-2.990630658
165.28550,-0.8542698039
165.28600,1.28209105
165.28650,1.892479865
165.28700,-0.2438809885
165.28750,-2.68543625
165.28800,2.502868681
165.28850,19.59375551
165.28900,36.68464234
165.28950,37.90541997
165.29000,19.89894992
165.29050,-1.769853027
165.29100,-12.4516573
165.29150,-11.84126848
165.29200,-8.789324404
165.29250,-7.568546773
165.29300,-7.568546773
165.29350,-6.958157958
165.29400,-6.65296355
165.29450,-6.958157958
165.29500,-6.958157958
165.29550,-6.65296355
165.29600,-6.042574735
165.29650,-3.601019473
165.29700,0.9768966423
165.29750,5.860007166
165.29800,8.301562427
165.29850,8.606756835
165.29900,8.911951243
165.29950,10.74311769
165.30000,14.40545058
165.30050,19.2885611
165.30100,22.34050518
165.30150,20.50933874
165.30200,15.0158394
165.30250,11.3535065
165.30300,12.26908973
165.30350,13.18467295
165.30400,9.522340058
165.30450,2.197674273
165.30500,-4.211408289
165.30550,-7.873741181
165.30600,-7.873741181
165.30650,-4.516602696
165.30700,0.06131341924
165.30750,0.6717022346
165.30800,-3.295825065
165.30850,-8.484129996
165.30900,-10.01010203
165.30950,-8.484129996
165.31000,-8.178935589
165.31050,-9.39971322
165.31100,-8.789324404
165.31150,-6.347769142
165.31200,-5.432185919
165.31250,-6.65296355
165.31300,-7.263352366
165.31350,-5.737380327
165.31400,-3.295825065
165.31450,-2.68543625
165.31500,-3.295825065
165.31550,-4.821797104
165.31600,-6.347769142
165.31650,-6.65296355
165.31700,-5.432185919
165.31750,-3.601019473
165.31800,-3.295825065
165.31850,-3.295825065
165.31900,-2.68543625
165.31950,-1.159464212
165.32000,-0.8542698039
165.32050,-2.075047435
165.32100,-2.380241842
165.32150,-0.2438809885
165.32200,1.587285458
165.32250,1.587285458
165.32300,-0.5490753962
165.32350,-2.990630658
165.32400,-3.295825065
165.32450,-1.159464212
165.32500,1.587285458
165.32550,4.028840719
165.32600,4.639229535
165.32650,5.554812758
165.32700,8.911951243
165.32750,14.10025617
165.32800,16.54181144
165.32850,14.10025617
165.32900,11.3535065
165.32950,14.71064499
165.33000,22.64569959
165.33050,26.9184213
165.33100,22.34050518
165.33150,14.10025617
165.33200,10.74311769
165.33250,13.48986736
165.33300,14.71064499
165.33350,11.3535065
165.33400,7.691173612
165.33450,5.860007166
165.33500,0.06131341924
165.33550,-12.4516573
165.33600,-24.6594336
165.33650,-29.23734972
165.33700,-28.93215531
165.33750,-31.37371057
165.33800,-35.34123787
165.33850,-34.12046024
165.33900,-27.40618327
165.33950,-21.30229512
165.34000,-17.63996223
165.34050,-14.28282374
165.34100,-13.36724052
165.34150,-18.55554545
165.34200,-27.10098887
165.34250,-29.54254413
165.34300,-24.6594336
165.34350,-20.3867119
165.34400,-20.99710071
165.34450,-20.99710071
165.34500,-14.58801815
165.34550,-5.126991512
165.34600,0.06131341924
165.34650,0.9768966423
165.34700,0.9768966423
165.34750,2.808063089
165.34800,5.24961835
165.34850,7.996368019
165.34900,12.26908973
165.34950,16.23661703
165.35000,17.76258907
165.35050,18.06778347
165.35100,18.37297788
165.35150,18.67817229
165.35200,17.45739466
165.35250,15.0158394
165.35300,12.26908973
165.35350,9.827534466
165.35400,7.691173612
165.35450,6.470395981
165.35500,5.554812758
165.35550,3.113257496
165.35600,-0.8542698039
165.35650,-4.821797104
165.35700,-6.042574735
165.35750,-3.601019473
165.35800,1.28209105
165.35850,6.470395981
165.35900,8.911951243
165.35950,7.385979204
165.36000,4.028840719
165.36050,1.28209105
165.36100,-0.5490753962
165.36150,-3.295825065
165.36200,-5.737380327
165.36250,-6.958157958
165.36300,-6.042574735
165.36350,-5.126991512
165.36400,-5.126991512
165.36450,-6.347769142
165.36500,-8.789324404
165.36550,-10.62049085
165.36600,-10.31529644
165.36650,-7.873741181
165.36700,-4.821797104
165.36750,-2.075047435
165.36800,0.06131341924
165.36850,1.587285458
165.36900,3.723646312
165.36950,7.385979204
165.37000,14.40545058
165.37050,22.950894
165.37100,27.2236157
165.37150,24.17167163
165.37200,16.84700584
165.37250,10.13272887
165.37300,5.554812758
165.37350,1.28209105
165.37400,-0.8542698039
165.37450,0.9768966423
165.37500,5.554812758
165.37550,4.944423942
165.37600,-1.769853027
165.37650,-7.568546773
165.37700,-4.821797104
165.37750,2.502868681
165.37800,7.080784796
165.37850,4.334035127
165.37900,-1.464658619
165.37950,-4.516602696
165.38000,-2.075047435
165.38050,3.113257496
165.38100,6.470395981
165.38150,6.165201573
165.38200,7.385979204
165.38250,16.23661703
165.38300,30.27555978
165.38350,38.21061438
165.38400,33.32750386
165.38450,20.81453314
165.38500,9.21714565
165.38550,2.197674273
165.38600,-2.68543625
165.38650,-5.126991512
165.38700,-3.295825065
165.38750,0.6717022346
165.38800,2.502868681
165.38850,2.197674273
165.38900,2.808063089
165.38950,3.723646312
165.39000,3.113257496
165.39050,0.06131341924
165.39100,-3.295825065
165.39150,-5.126991512
165.39200,-7.568546773
165.39250,-10.92568526
165.39300,-13.67243493
165.39350,-14.89321256
165.39400,-15.50360137
165.39450,-15.19840697
165.39500,-14.28282374
165.39550,-12.4516573
165.39600,-11.53607407
165.39650,-11.53607407
165.39700,-11.53607407
165.39750,-10.92568526
165.39800,-11.23087967
165.39850,-11.84126848
165.39900,-12.14646289
165.39950,-11.23087967
165.40000,-9.39971322
165.40050,-7.873741181
165.40100,-6.65296355
165.40150,-6.042574735
165.40200,-5.432185919
165.40250,-4.211408289
165.40300,-2.68543625
165.40350,-1.769853027
165.40400,-2.380241842
165.40450,-2.075047435
165.40500,0.06131341924
165.40550,1.587285458
165.40600,0.9768966423
165.40650,-0.2438809885
165.40700,0.3665078269
165.40750,3.418451904
165.40800,5.554812758
165.40850,5.24961835
165.40900,3.723646312
165.40950,1.587285458
165.41000,-0.8542698039
165.41050,-3.601019473
165.41100,-4.516602696
165.41150,-3.906213881
165.41200,-4.516602696
165.41250,-7.568546773
165.41300,-11.23087967
165.41350,-12.4516573
165.41400,-13.06204611
165.41450,-14.89321256
165.41500,-17.94515664
165.41550,-19.47112867
165.41600,-17.33476782
165.41650,-12.14646289
165.41700,-4.821797104
165.41750,3.113257496
165.41800,11.0483121
165.41850,16.84700584
165.41900,19.89894992
165.41950,21.42492196
165.42000,22.34050518
165.42050,22.34050518
165.42100,22.03531077
165.42150,19.89894992
165.42200,15.0158394
165.42250,7.080784796
165.42300,-0.8542698039
165.42350,-5.737380327
165.42400,-6.042574735
165.42450,-3.601019473
165.42500,-1.769853027
165.42550,-1.769853027
165.42600,-2.990630658
165.42650,-4.516602696
165.42700,-5.432185919
165.42750,-5.432185919
165.42800,-4.516602696
165.42850,-3.906213881
165.42900,-4.516602696
165.42950,-5.432185919
165.43000,-5.432185919
165.43050,-3.601019473
165.43100,-0.5490753962
165.43150,1.587285458
165.43200,4.028840719
165.43250,7.080784796
165.43300,9.827534466
165.43350,11.3535065
165.43400,11.3535065
165.43450,10.74311769
165.43500,10.13272887
165.43550,9.21714565
165.43600,9.827534466
165.43650,13.79506177
165.43700,18.67817229
165.43750,20.20414433
165.43800,17.76258907
165.43850,15.0158394
165.43900,13.79506177
165.43950,12.26908973
165.44000,9.21714565
165.44050,5.554812758
165.44100,1.892479865
165.44150,-0.5490753962
165.44200,-0.2438809885
165.44250,3.418451904
165.44300,5.24961835
165.44350,0.06131341924
165.44400,-9.094518812
165.44450,-10.92568526
165.44500,-3.906213881
165.44550,1.587285458
165.44600,-1.769853027
165.44650,-9.39971322
165.44700,-12.7568517
165.44750,-12.4516573
165.44800,-12.4516573
165.44850,-12.14646289
165.44900,-6.958157958
165.44950,-0.2438809885
165.45000,0.6717022346
165.45050,-2.68543625
165.45100,-5.126991512
165.45150,-5.126991512
165.45200,-7.263352366
165.45250,-12.4516573
165.45300,-14.89321256
165.45350,-12.4516573
165.45400,-9.704907627
165.45450,-10.62049085
165.45500,-12.4516573
165.45550,-11.23087967
165.45600,-9.39971322
165.45650,-8.484129996
165.45700,-5.126991512
165.45750,4.639229535
165.45800,16.54181144
165.45850,19.89894992
165.45900,11.65870091
165.45950,0.6717022346
165.46000,-3.601019473
165.46050,-2.380241842
165.46100,-0.8542698039
165.46150,-2.68543625
165.46200,-6.042574735
165.46250,-8.484129996
165.46300,-10.01010203
165.46350,-11.23087967
165.46400,-11.23087967
165.46450,-7.873741181
165.46500,0.3665078269
165.46550,11.65870091
165.46600,20.20414433
165.46650,20.50933874
165.46700,12.26908973
165.46750,0.6717022346
165.46800,-7.263352366
165.46850,-9.704907627
165.46900,-8.484129996
165.46950,-7.263352366
165.47000,-6.958157958
165.47050,-7.263352366
165.47100,-7.873741181
165.47150,-9.094518812
165.47200,-10.01010203
165.47250,-9.704907627
165.47300,-6.347769142
165.47350,0.06131341924
165.47400,6.775590389
165.47450,11.3535065
165.47500,12.87947854
165.47550,12.87947854
165.47600,12.57428413
165.47650,11.96389532
165.47700,9.827534466
165.47750,6.470395981
165.47800,2.197674273
165.47850,-2.990630658
165.47900,-8.484129996
165.47950,-11.84126848
165.48000,-10.62049085
165.48050,-6.958157958
165.48100,-5.737380327
165.48150,-9.39971322
165.48200,-15.50360137
165.48250,-17.94515664
165.48300,-15.50360137
165.48350,-11.23087967
165.48400,-8.789324404
165.48450,-9.094518812
165.48500,-9.704907627
165.48550,-10.01010203
165.48600,-10.01010203
165.48650,-8.789324404
165.48700,-3.906213881
165.48750,3.418451904
165.48800,10.74311769
165.48850,14.10025617
165.48900,14.10025617
165.48950,14.40545058
165.49000,15.3210338
165.49050,14.10025617
165.49100,9.21714565
165.49150,3.418451904
165.49200,0.6717022346
165.49250,0.3665078269
165.49300,0.06131341924
165.49350,-0.2438809885
165.49400,0.06131341924
165.49450,1.892479865
165.49500,2.502868681
165.49550,2.197674273
165.49600,3.723646312
165.49650,7.691173612
165.49700,11.96389532
165.49750,13.79506177
165.49800,14.71064499
165.49850,15.93142262
165.49900,16.23661703
165.49950,13.79506177
165.50000,10.13272887
165.50050,6.775590389
165.50100,4.639229535
165.50150,3.418451904
165.50200,2.502868681
165.50250,1.28209105
165.50300,0.06131341924
165.50350,0.06131341924
165.50400,2.502868681
165.50450,7.080784796
165.50500,7.996368019
165.50550,4.028840719
165.50600,-1.159464212
165.50650,-2.990630658
165.50700,-2.68543625
165.50750,-2.990630658
165.50800,-4.211408289
165.50850,-2.380241842
165.50900,2.502868681
165.50950,7.996368019
165.51000,10.13272887
165.51050,8.301562427
165.51100,5.24961835
165.51150,4.944423942
165.51200,7.080784796
165.51250,6.470395981
165.51300,0.06131341924
165.51350,-10.31529644
165.51400,-17.02957341
165.51450,-15.80879578
165.51500,-10.31529644
165.51550,-4.211408289
165.51600,2.502868681
165.51650,9.522340058
165.51700,13.79506177
165.51750,12.87947854
165.51800,10.74311769
165.51850,11.96389532
165.51900,14.71064499
165.51950,15.62622821
165.52000,13.48986736
165.52050,11.3535065
165.52100,10.13272887
165.52150,8.301562427
165.52200,4.334035127
165.52250,-1.159464212
165.52300,-8.178935589
165.52350,-14.58801815
165.52400,-18.86073986
165.52450,-20.99710071
165.52500,-22.21787834
165.52550,-23.13346157
165.52600,-22.82826716
165.52650,-20.99710071
165.52700,-18.55554545
165.52750,-15.80879578
165.52800,-10.62049085
165.52850,-1.769853027
165.52900,6.775590389
165.52950,11.0483121
165.53000,10.13272887
165.53050,6.470395981
165.53100,2.502868681
165.53150,-1.159464212
165.53200,-2.68543625
165.53250,-1.464658619
165.53300,0.6717022346
165.53350,1.28209105
165.53400,1.28209105
165.53450,2.197674273
165.53500,4.334035127
165.53550,6.165201573
165.53600,7.080784796
165.53650,8.606756835
165.53700,9.827534466
165.53750,9.522340058
165.53800,7.691173612
165.53850,6.775590389
165.53900,6.470395981
165.53950,4.334035127
165.54000,0.6717022346
165.54050,-0.8542698039
165.54100,-1.464658619
165.54150,-4.821797104
165.54200,-10.92568526
165.54250,-14.58801815
165.54300,-11.84126848
165.54350,-6.347769142
165.54400,-4.211408289
165.54450,-4.821797104
165.54500,-5.126991512
165.54550,-4.211408289
165.54600,-3.601019473
165.54650,-3.906213881
165.54700,-4.516602696
165.54750,-5.432185919
165.54800,-6.347769142
165.54850,-5.432185919
165.54900,-2.380241842
165.54950,0.3665078269
165.55000,0.6717022346
165.55050,0.06131341924
165.55100,1.587285458
165.55150,3.113257496
165.55200,-0.2438809885
165.55250,-10.31529644
165.55300,-21.60748953
165.55350,-29.54254413
165.55400,-32.2892938
165.55450,-29.84773854
165.55500,-21.91268394
165.55550,-11.53607407
165.55600,-5.126991512
165.55650,-5.126991512
165.55700,-6.042574735
165.55750,1.892479865
165.55800,21.73011637
165.55850,44.61969694
165.55900,57.74305647
165.55950,56.21708444
165.56000,45.23008576
165.56050,33.63269827
165.56100,26.61322689
165.56150,22.34050518
165.56200,18.06778347
165.56250,12.26908973
165.56300,7.080784796
165.56350,2.808063089
165.56400,0.06131341924
165.56450,-2.075047435
165.56500,-2.990630658
165.56550,-3.295825065
165.56600,-5.126991512
165.56650,-10.92568526
165.56700,-18.55554545
165.56750,-24.04904479
165.56800,-24.3542392
165.56850,-21.30229512
165.56900,-17.02957341
165.56950,-11.23087967
165.57000,-1.769853027
165.57050,8.301562427
165.57100,15.93142262
165.57150,20.20414433
165.57200,23.56128281
165.57250,26.9184213
165.57300,26.9184213
165.57350,22.03531077
165.57400,16.23661703
165.57450,12.26908973
165.57500,7.080784796
165.57550,-3.295825065
165.57600,-15.19840697
165.57650,-20.08151749
165.57700,-16.4191846
165.57750,-11.84126848
165.57800,-13.06204611
165.57850,-17.94515664
165.57900,-19.47112867
165.57950,-15.19840697
165.58000,-9.39971322
165.58050,-6.042574735
165.58100,-6.958157958
165.58150,-10.01010203
165.58200,-12.7568517
165.58250,-13.36724052
165.58300,-13.06204611
165.58350,-13.67243493
165.58400,-14.58801815
165.58450,-13.97762934
165.58500,-12.4516573
165.58550,-13.06204611
165.58600,-16.724379
165.58650,-17.63996223
165.58700,-11.53607407
165.58750,-1.464658619
165.58800,5.554812758
165.58850,8.301562427
165.58900,11.0483121
165.58950,15.62622821
165.59000,18.9833667
165.59050,18.37297788
165.59100,15.62622821
165.59150,12.26908973
165.59200,7.385979204
165.59250,0.6717022346
165.59300,-5.432185919
165.59350,-9.39971322
165.59400,-12.14646289
165.59450,-15.19840697
165.59500,-18.55554545
165.59550,-20.08151749
165.59600,-18.86073986
165.59650,-16.4191846
165.59700,-13.67243493
165.59750,-10.92568526
165.59800,-10.31529644
165.59850,-11.53607407
165.59900,-12.4516573
165.59950,-10.62049085
165.60000,-6.65296355
165.60050,-3.295825065
165.60100,-2.990630658
165.60150,-3.906213881
165.60200,-4.821797104
165.60250,-4.821797104
165.60300,-3.295825065
165.60350,0.6717022346
165.60400,6.775590389
165.60450,12.57428413
165.60500,17.45739466
165.60550,22.03531077
165.60600,27.2236157
165.60650,29.97036537
165.60700,27.52881011
165.60750,21.42492196
165.60800,15.0158394
165.60850,10.74311769
165.60900,9.21714565
165.60950,8.301562427
165.61000,7.080784796
165.61050,4.944423942
165.61100,1.587285458
165.61150,-0.8542698039
165.61200,-0.8542698039
165.61250,2.197674273
165.61300,6.470395981
165.61350,9.21714565
165.61400,9.827534466
165.61450,10.13272887
165.61500,9.827534466
165.61550,8.301562427
165.61600,5.554812758
165.61650,4.334035127
165.61700,4.944423942
165.61750,5.554812758
165.61800,4.028840719
165.61850,0.3665078269
165.61900,-2.68543625
165.61950,-5.737380327
165.62000,-9.39971322
165.62050,-13.36724052
165.62100,-16.11399019
165.62150,-15.19840697
165.62200,-10.92568526
165.62250,-6.347769142
165.62300,-3.601019473
165.62350,-1.769853027
165.62400,1.892479865
165.62450,9.21714565
165.62500,16.54181144
165.62550,20.81453314
165.62600,22.03531077
165.62650,22.34050518
165.62700,22.64569959
165.62750,20.81453314
165.62800,18.06778347
165.62850,16.23661703
165.62900,14.71064499
165.62950,11.0483121
165.63000,4.639229535
165.63050,-1.159464212
165.63100,-6.347769142
165.63150,-12.4516573
165.63200,-20.3867119
165.63250,-26.18540564
165.63300,-26.49060005
165.63350,-22.82826716
165.63400,-17.63996223
165.63450,-12.14646289
165.63500,-5.432185919
165.63550,-0.2438809885
165.63600,0.06131341924
165.63650,-6.042574735
165.63700,-16.4191846
165.63750,-26.18540564
165.63800,-30.45812735
165.63850,-27.10098887
165.63900,-20.6919063
165.63950,-16.11399019
165.64000,-13.06204611
165.64050,-7.568546773
165.64100,-1.464658619
165.64150,0.9768966423
165.64200,2.502868681
165.64250,10.13272887
165.64300,22.34050518
165.64350,29.35997656
165.64400,25.08725485
165.64450,15.93142262
165.64500,8.911951243
165.64550,4.639229535
165.64600,3.723646312
165.64650,10.13272887
165.64700,21.42492196
165.64750,26.61322689
165.64800,18.06778347
165.64850,4.028840719
165.64900,-3.295825065
165.64950,-3.906213881
165.65000,-4.516602696
165.65050,-5.126991512
165.65100,-1.769853027
165.65150,2.808063089
165.65200,4.028840719
165.65250,1.28209105
165.65300,1.892479865
165.65350,6.470395981
165.65400,9.827534466
165.65450,9.522340058
165.65500,7.385979204
165.65550,5.554812758
165.65600,2.808063089
165.65650,-0.8542698039
165.65700,-2.990630658
165.65750,-3.906213881
165.65800,-5.737380327
165.65850,-8.484129996
165.65900,-9.39971322
165.65950,-6.347769142
165.66000,-1.769853027
165.66050,0.06131341924
165.66100,-1.464658619
165.66150,-5.126991512
165.66200,-7.263352366
165.66250,-7.263352366
165.66300,-6.958157958
165.66350,-6.958157958
165.66400,-4.821797104
165.66450,0.06131341924
165.66500,1.28209105
165.66550,-3.295825065
165.66600,-9.704907627
165.66650,-8.178935589
165.66700,0.06131341924
165.66750,4.944423942
165.66800,3.113257496
165.66850,0.3665078269
165.66900,0.9768966423
165.66950,0.06131341924
165.67000,-6.65296355
165.67050,-14.89321256
165.67100,-16.724379
165.67150,-13.36724052
165.67200,-10.92568526
165.67250,-12.14646289
165.67300,-13.36724052
165.67350,-13.06204611
165.67400,-11.53607407
165.67450,-9.094518812
165.67500,-6.347769142
165.67550,-3.906213881
165.67600,-2.075047435
165.67650,0.9768966423
165.67700,4.639229535
165.67750,6.165201573
165.67800,5.554812758
165.67850,6.470395981
165.67900,9.827534466
165.67950,10.43792328
165.68000,4.944423942
165.68050,-2.380241842
165.68100,-5.126991512
165.68150,-2.68543625
165.68200,-0.5490753962
165.68250,-1.464658619
165.68300,-2.68543625
165.68350,-0.8542698039
165.68400,2.197674273
165.68450,4.334035127
165.68500,4.334035127
165.68550,3.418451904
165.68600,3.113257496
165.68650,4.028840719
165.68700,7.385979204
165.68750,11.65870091
165.68800,15.3210338
165.68850,15.62622821
165.68900,14.10025617
165.68950,11.96389532
165.69000,9.522340058
165.69050,6.165201573
165.69100,2.808063089
165.69150,3.418451904
165.69200,9.522340058
165.69250,18.06778347
165.69300,22.950894
165.69350,22.64569959
165.69400,19.89894992
165.69450,16.84700584
165.69500,13.48986736
165.69550,9.827534466
165.69600,7.080784796
165.69650,3.418451904
165.69700,-2.68543625
165.69750,-11.53607407
165.69800,-17.33476782
165.69850,-15.19840697
165.69900,-9.094518812
165.69950,-6.042574735
165.70000,-7.873741181
165.70050,-10.92568526
165.70100,-10.92568526
165.70150,-8.484129996
165.70200,-7.263352366
165.70250,-8.178935589
165.70300,-10.62049085
165.70350,-13.06204611
165.70400,-14.89321256
165.70450,-15.50360137
165.70500,-15.19840697
165.70550,-13.97762934
165.70600,-12.4516573
165.70650,-10.01010203
165.70700,-7.873741181
165.70750,-4.516602696
165.70800,-0.2438809885
165.70850,4.028840719
165.70900,6.470395981
165.70950,5.554812758
165.71000,3.113257496
165.71050,1.28209105
165.71100,1.28209105
165.71150,2.502868681
165.71200,3.113257496
165.71250,1.892479865
165.71300,0.06131341924
165.71350,0.3665078269
165.71400,3.723646312
165.71450,7.691173612
165.71500,11.0483121
165.71550,15.0158394
165.71600,19.59375551
165.71650,22.950894
165.71700,22.03531077
165.71750,18.67817229
165.71800,15.62622821
165.71850,13.18467295
165.71900,8.911951243
165.71950,1.587285458
165.72000,-6.042574735
165.72050,-12.4516573
165.72100,-18.25035104
165.72150,-23.74385038
165.72200,-26.79579446
165.72250,-25.57501683
165.72300,-22.21787834
165.72350,-20.08151749
165.72400,-20.08151749
165.72450,-21.30229512
165.72500,-22.52307275
165.72550,-22.82826716
165.72600,-21.60748953
165.72650,-19.16593427
165.72700,-16.4191846
165.72750,-13.36724052
165.72800,-9.094518812
165.72850,-2.990630658
165.72900,1.587285458
165.72950,3.723646312
165.73000,4.334035127
165.73050,5.554812758
165.73100,7.691173612
165.73150,7.691173612
165.73200,5.860007166
165.73250,4.334035127
165.73300,4.944423942
165.73350,6.470395981
165.73400,7.691173612
165.73450,9.827534466
165.73500,14.71064499
165.73550,18.67817229
165.73600,18.67817229
165.73650,15.93142262
165.73700,15.62622821
165.73750,18.37297788
165.73800,19.89894992
165.73850,16.54181144
165.73900,11.65870091
165.73950,10.13272887
165.74000,10.74311769
165.74050,9.827534466
165.74100,8.301562427
165.74150,10.13272887
165.74200,13.48986736
165.74250,12.57428413
165.74300,5.24961835
165.74350,-2.990630658
165.74400,-6.958157958
165.74450,-7.568546773
165.74500,-8.178935589
165.74550,-8.484129996
165.74600,-5.737380327
165.74650,-1.769853027
165.74700,-0.8542698039
165.74750,-5.737380327
165.74800,-13.97762934
165.74850,-21.30229512
165.74900,-23.43865597
165.74950,-18.25035104
165.75000,-8.484129996
165.75050,0.3665078269
165.75100,4.028840719
165.75150,2.197674273
165.75200,0.06131341924
165.75250,0.9768966423
165.75300,6.470395981
165.75350,11.3535065
165.75400,10.13272887
165.75450,5.24961835
165.75500,4.334035127
165.75550,11.0483121
165.75600,17.15220025
165.75650,12.26908973
165.75700,-0.5490753962
165.75750,-7.263352366
165.75800,1.28209105
165.75850,18.06778347
165.75900,28.44439334
165.75950,27.2236157
165.76000,20.20414433
165.76050,15.3210338
165.76100,12.57428413
165.76150,9.522340058
165.76200,6.165201573
165.76250,5.860007166
165.76300,10.43792328
165.76350,15.0158394
165.76400,11.96389532
165.76450,-1.159464212
165.76500,-16.4191846
165.76550,-21.60748953
165.76600,-14.89321256
165.76650,-6.65296355
165.76700,-4.516602696
165.76750,-6.347769142
165.76800,-6.042574735
165.76850,-3.906213881
165.76900,-4.516602696
165.76950,-7.263352366
165.77000,-7.568546773
165.77050,-5.126991512
165.77100,-4.211408289
165.77150,-6.347769142
165.77200,-7.263352366
165.77250,-2.380241842
165.77300,3.723646312
165.77350,4.334035127
165.77400,-2.075047435
165.77450,-9.39971322
165.77500,-11.84126848
165.77550,-10.31529644
165.77600,-8.484129996
165.77650,-7.263352366
165.77700,-5.432185919
165.77750,-4.211408289
165.77800,-5.737380327
165.77850,-9.704907627
165.77900,-12.14646289
165.77950,-12.4516573
165.78000,-13.06204611
165.78050,-15.50360137
165.78100,-17.02957341
165.78150,-15.50360137
165.78200,-13.67243493
165.78250,-13.67243493
165.78300,-12.4516573
165.78350,-9.094518812
165.78400,-7.263352366
165.78450,-9.704907627
165.78500,-12.14646289
165.78550,-7.873741181
165.78600,0.6717022346
165.78650,7.385979204
165.78700,11.0483121
165.78750,15.3210338
165.78800,20.81453314
165.78850,22.34050518
165.78900,19.59375551
165.78950,18.37297788
165.79000,21.42492196
165.79050,21.73011637
165.79100,15.93142262
165.79150,8.606756835
165.79200,4.944423942
165.79250,2.502868681
165.79300,-1.464658619
165.79350,-5.432185919
165.79400,-6.347769142
165.79450,-6.347769142
165.79500,-9.39971322
165.79550,-13.67243493
165.79600,-15.50360137
165.79650,-17.33476782
165.79700,-22.52307275
165.79750,-27.10098887
165.79800,-24.6594336
165.79850,-16.11399019
165.79900,-9.094518812
165.79950,-8.484129996
165.80000,-10.31529644
165.80050,-11.23087967
165.80100,-11.23087967
165.80150,-10.62049085
165.80200,-8.789324404
165.80250,-5.126991512
165.80300,-1.769853027
165.80350,-0.2438809885
165.80400,0.9768966423
165.80450,4.639229535
165.80500,9.522340058
165.80550,13.18467295
165.80600,15.0158394
165.80650,15.0158394
165.80700,12.87947854
165.80750,10.43792328
165.80800,9.827534466
165.80850,10.74311769
165.80900,11.0483121
165.80950,9.522340058
165.81000,7.385979204
165.81050,5.24961835
165.81100,1.892479865
165.81150,-1.464658619
165.81200,-2.380241842
165.81250,0.3665078269
165.81300,4.334035127
165.81350,4.028840719
165.81400,-0.2438809885
165.81450,-4.821797104
165.81500,-6.347769142
165.81550,-5.737380327
165.81600,-5.126991512
165.81650,-5.432185919
165.81700,-5.432185919
165.81750,-6.347769142
165.81800,-7.873741181
165.81850,-9.094518812
165.81900,-7.568546773
165.81950,-3.906213881
165.82000,-0.2438809885
165.82050,0.9768966423
165.82100,0.06131341924
165.82150,-1.464658619
165.82200,-2.075047435
165.82250,-0.8542698039
165.82300,1.892479865
165.82350,4.639229535
165.82400,7.385979204
165.82450,10.13272887
165.82500,12.26908973
165.82550,13.18467295
165.82600,12.57428413
165.82650,12.26908973
165.82700,12.57428413
165.82750,11.3535065
165.82800,7.385979204
165.82850,3.723646312
165.82900,2.197674273
165.82950,2.808063089
165.83000,4.944423942
165.83050,7.385979204
165.83100,9.827534466
165.83150,10.74311769
165.83200,10.13272887
165.83250,8.911951243
165.83300,8.606756835
165.83350,7.996368019
165.83400,5.24961835
165.83450,2.197674273
165.83500,0.6717022346
165.83550,0.06131341924
165.83600,-1.464658619
165.83650,-4.516602696
165.83700,-6.65296355
165.83750,-7.568546773
165.83800,-8.178935589
165.83850,-8.178935589
165.83900,-7.263352366
165.83950,-5.126991512
165.84000,-2.68543625
165.84050,-0.8542698039
165.84100,1.587285458
165.84150,7.691173612
165.84200,17.15220025
165.84250,24.78206044
165.84300,26.61322689
165.84350,22.34050518
165.84400,16.54181144
165.84450,13.79506177
165.84500,13.18467295
165.84550,12.26908973
165.84600,10.43792328
165.84650,9.21714565
165.84700,7.385979204
165.84750,3.113257496
165.84800,-2.68543625
165.84850,-7.873741181
165.84900,-10.31529644
165.84950,-10.62049085
165.85000,-8.178935589
165.85050,-3.295825065
165.85100,1.587285458
165.85150,3.723646312
165.85200,3.723646312
165.85250,4.334035127
165.85300,5.554812758
165.85350,4.944423942
165.85400,5.860007166
165.85450,14.40545058
165.85500,29.05478215
165.85550,37.29503116
165.85600,29.66517097
165.85650,12.57428413
165.85700,0.06131341924
165.85750,-1.464658619
165.85800,0.3665078269
165.85850,0.3665078269
165.85900,-1.769853027
165.85950,-3.601019473
165.86000,-5.126991512
165.86050,-7.568546773
165.86100,-9.39971322
165.86150,-10.01010203
165.86200,-9.39971322
165.86250,-9.094518812
165.86300,-9.094518812
165.86350,-8.484129996
165.86400,-8.178935589
165.86450,-7.568546773
165.86500,-6.65296355
165.86550,-5.126991512
165.86600,-4.821797104
165.86650,-6.958157958
165.86700,-10.31529644
165.86750,-12.14646289
165.86800,-11.84126848
165.86850,-10.92568526
165.86900,-11.53607407
165.86950,-13.06204611
165.87000,-13.67243493
165.87050,-11.84126848
165.87100,-9.094518812
165.87150,-7.263352366
165.87200,-6.958157958
165.87250,-7.568546773
165.87300,-7.568546773
165.87350,-6.65296355
165.87400,-6.042574735
165.87450,-5.737380327
165.87500,-5.432185919
165.87550,-6.347769142
165.87600,-8.178935589
165.87650,-10.62049085
165.87700,-11.23087967
165.87750,-10.01010203
165.87800,-8.178935589
165.87850,-6.958157958
165.87900,-6.347769142
165.87950,-6.347769142
165.88000,-6.347769142
165.88050,-6.65296355
165.88100,-7.568546773
165.88150,-8.484129996
165.88200,-8.789324404
165.88250,-7.568546773
165.88300,-4.516602696
165.88350,0.06131341924
165.88400,4.028840719
165.88450,7.691173612
165.88500,11.65870091
165.88550,15.0158394
165.88600,15.3210338
165.88650,11.3535065
165.88700,6.775590389
165.88750,3.723646312
165.88800,0.06131341924
165.88850,-8.484129996
165.88900,-19.77632308
165.88950,-27.40618327
165.89000,-27.40618327
165.89050,-24.96462801
165.89100,-24.96462801
165.89150,-24.96462801
165.89200,-18.86073986
165.89250,-8.484129996
165.89300,-2.075047435
165.89350,-3.295825065
165.89400,-5.432185919
165.89450,-1.464658619
165.89500,7.691173612
165.89550,14.40545058
165.89600,15.0158394
165.89650,13.79506177
165.89700,13.48986736
165.89750,12.87947854
165.89800,10.43792328
165.89850,7.996368019
165.89900,5.860007166
165.89950,1.892479865
165.90000,-5.126991512
165.90050,-10.31529644
165.90100,-8.789324404
165.90150,-2.68543625
165.90200,0.06131341924
165.90250,-2.075047435
165.90300,-5.432185919
165.90350,-4.821797104
165.90400,-1.464658619
165.90450,1.587285458
165.90500,2.502868681
165.90550,2.808063089
165.90600,2.808063089
165.90650,4.028840719
165.90700,7.385979204
165.90750,12.57428413
165.90800,16.54181144
165.90850,16.84700584
165.90900,15.0158394
165.90950,14.40545058
165.91000,16.23661703
165.91050,18.37297788
165.91100,18.37297788
165.91150,15.3210338
165.91200,11.3535065
165.91250,7.080784796
165.91300,1.892479865
165.91350,-3.906213881
165.91400,-10.62049085
165.91450,-16.724379
165.91500,-20.99710071
165.91550,-23.13346157
165.91600,-23.43865597
165.91650,-22.21787834
165.91700,-19.16593427
165.91750,-15.19840697
165.91800,-12.7568517
165.91850,-11.23087967
165.91900,-7.263352366
165.91950,1.587285458
165.92000,13.48986736
165.92050,22.03531077
165.92100,25.08725485
165.92150,26.9184213
165.92200,30.58075419
165.92250,33.93789267
165.92300,32.41192064
165.92350,26.9184213
165.92400,22.03531077
165.92450,19.89894992
165.92500,18.37297788
165.92550,16.54181144
165.92600,17.45739466
165.92650,21.11972755
165.92700,23.56128281
165.92750,20.81453314
165.92800,13.48986736
165.92850,6.165201573
165.92900,2.197674273
165.92950,0.9768966423
165.93000,0.06131341924
165.93050,-3.295825065
165.93100,-10.31529644
165.93150,-16.724379
165.93200,-18.25035104
165.93250,-14.89321256
165.93300,-11.23087967
165.93350,-12.14646289
165.93400,-18.55554545
165.93450,-26.79579446
165.93500,-32.5944882
165.93550,-32.89968261
165.93600,-28.93215531
165.93650,-24.96462801
165.93700,-24.3542392
165.93750,-23.43865597
165.93800,-16.724379
165.93850,-5.126991512
165.93900,4.028840719
165.93950,7.080784796
165.94000,8.301562427
165.94050,13.18467295
165.94100,20.20414433
165.94150,22.34050518
165.94200,18.9833667
165.94250,14.71064499
165.94300,14.40545058
165.94350,17.76258907
165.94400,20.50933874
165.94450,19.2885611
165.94500,13.48986736
165.94550,4.944423942
165.94600,-2.68543625
165.94650,-8.484129996
165.94700,-12.4516573
165.94750,-15.19840697
165.94800,-17.94515664
165.94850,-19.16593427
165.94900,-17.63996223
165.94950,-14.58801815
165.95000,-10.62049085
165.95050,-5.737380327
165.95100,0.3665078269
165.95150,7.080784796
165.95200,11.3535065
165.95250,11.96389532
165.95300,12.57428413
165.95350,18.37297788
165.95400,28.13919893
165.95450,34.54828149
165.95500,31.49633741
165.95550,20.50933874
165.95600,7.691173612
165.95650,-1.769853027
165.95700,-7.873741181
165.95750,-10.92568526
165.95800,-14.28282374
165.95850,-18.86073986
165.95900,-22.82826716
165.95950,-22.21787834
165.96000,-17.63996223
165.96050,-13.36724052
165.96100,-13.06204611
165.96150,-13.67243493
165.96200,-11.84126848
165.96250,-9.39971322
165.96300,-10.62049085
165.96350,-14.28282374
165.96400,-15.80879578
165.96450,-13.97762934
165.96500,-12.4516573
165.96550,-12.7568517
165.96600,-12.14646289
165.96650,-8.178935589
165.96700,-2.380241842
165.96750,1.28209105
165.96800,3.418451904
165.96850,7.385979204
165.96900,12.87947854
165.96950,17.45739466
165.97000,17.76258907
165.97050,15.62622821
165.97100,12.87947854
165.97150,9.827534466
165.97200,4.944423942
165.97250,1.587285458
165.97300,3.723646312
165.97350,9.827534466
165.97400,12.26908973
165.97450,7.385979204
165.97500,0.3665078269
165.97550,-2.68543625
165.97600,-2.990630658
165.97650,-3.601019473
165.97700,-3.295825065
165.97750,0.3665078269
165.97800,4.639229535
165.97850,2.808063089
165.97900,-3.906213881
165.97950,-9.704907627
165.98000,-9.094518812
165.98050,-5.432185919
165.98100,-2.68543625
165.98150,-1.464658619
165.98200,-0.5490753962
165.98250,-0.5490753962
165.98300,-2.380241842
165.98350,-4.516602696
165.98400,-5.737380327
165.98450,-5.737380327
165.98500,-5.737380327
165.98550,-6.347769142
165.98600,-6.65296355
165.98650,-5.737380327
165.98700,-2.68543625
165.98750,1.28209105
165.98800,5.860007166
165.98850,8.911951243
165.98900,8.606756835
165.98950,5.554812758
165.99000,1.28209105
165.99050,-2.68543625
165.99100,-4.821797104
165.99150,-3.906213881
165.99200,-1.159464212
165.99250,2.197674273
165.99300,5.24961835
165.99350,7.080784796
165.99400,7.080784796
165.99450,4.334035127
165.99500,0.3665078269
165.99550,-2.68543625
165.99600,-3.906213881
165.99650,-4.821797104
165.99700,-7.568546773
165.99750,-10.92568526
165.99800,-11.84126848
165.99850,-10.31529644
165.99900,-9.39971322
165.99950,-10.92568526
166.00000,-11.53607407
166.00050,-7.873741181
166.00100,-2.990630658
166.00150,-1.769853027
166.00200,-5.737380327
166.00250,-10.01010203
166.00300,-9.704907627
166.00350,-5.126991512
166.00400,1.28209105
166.00450,8.301562427
166.00500,13.48986736
166.00550,16.84700584
166.00600,17.76258907
166.00650,18.67817229
166.00700,21.42492196
166.00750,25.39244926
166.00800,28.13919893
166.00850,28.74958774
166.00900,28.13919893
166.00950,26.30803248
166.01000,22.64569959
166.01050,15.62622821
166.01100,6.775590389
166.01150,-0.5490753962
166.01200,-6.65296355
166.01250,-10.92568526
166.01300,-13.36724052
166.01350,-13.67243493
166.01400,-11.53607407
166.01450,-9.704907627
166.01500,-9.094518812
166.01550,-8.789324404
166.01600,-6.958157958
166.01650,-3.906213881
166.01700,-2.075047435
166.01750,-3.295825065
166.01800,-6.042574735
166.01850,-6.042574735
166.01900,-0.5490753962
166.01950,8.606756835
166.02000,15.62622821
166.02050,16.84700584
166.02100,15.62622821
166.02150,18.06778347
166.02200,24.17167163
166.02250,28.13919893
166.02300,26.00283807
166.02350,20.50933874
166.02400,15.93142262
166.02450,12.57428413
166.02500,7.996368019
166.02550,0.06131341924
166.02600,-9.094518812
166.02650,-17.94515664
166.02700,-24.6594336
166.02750,-28.6269609
166.02800,-29.23734972
166.02850,-27.10098887
166.02900,-24.04904479
166.02950,-21.30229512
166.03000,-20.08151749
166.03050,-20.08151749
166.03100,-19.47112867
166.03150,-16.11399019
166.03200,-11.53607407
166.03250,-9.704907627
166.03300,-11.23087967
166.03350,-12.7568517
166.03400,-11.84126848
166.03450,-8.178935589
166.03500,-3.601019473
166.03550,-0.2438809885
166.03600,0.06131341924
166.03650,-3.601019473
166.03700,-7.568546773
166.03750,-6.958157958
166.03800,-0.8542698039
166.03850,5.860007166
166.03900,8.606756835
166.03950,7.385979204
166.04000,4.639229535
166.04050,1.587285458
166.04100,-0.5490753962
166.04150,-0.8542698039
166.04200,1.587285458
166.04250,3.418451904
166.04300,1.28209105
166.04350,-2.380241842
166.04400,-4.821797104
166.04450,-6.65296355
166.04500,-9.39971322
166.04550,-10.62049085
166.04600,-5.737380327
166.04650,2.502868681
166.04700,7.691173612
166.04750,8.606756835
166.04800,8.606756835
166.04850,8.606756835
166.04900,5.860007166
166.04950,4.028840719
166.05000,11.0483121
166.05050,26.30803248
166.05100,36.68464234
166.05150,33.02230945
166.05200,21.11972755
166.05250,13.48986736
166.05300,11.65870091
166.05350,9.827534466
166.05400,6.165201573
166.05450,3.113257496
166.05500,1.28209105
166.05550,-1.159464212
166.05600,-3.906213881
166.05650,-1.769853027
166.05700,4.944423942
166.05750,9.827534466
166.05800,9.21714565
166.05850,5.554812758
166.05900,3.418451904
166.05950,3.418451904
166.06000,4.944423942
166.06050,7.385979204
166.06100,8.301562427
166.06150,7.385979204
166.06200,5.860007166
166.06250,5.554812758
166.06300,6.165201573
166.06350,5.554812758
166.06400,2.808063089
166.06450,-0.8542698039
166.06500,-6.042574735
166.06550,-12.7568517
166.06600,-18.25035104
166.06650,-17.63996223
166.06700,-12.14646289
166.06750,-8.484129996
166.06800,-8.789324404
166.06850,-10.01010203
166.06900,-8.789324404
166.06950,-7.263352366
166.07000,-6.65296355
166.07050,-4.821797104
166.07100,0.3665078269
166.07150,6.775590389
166.07200,9.827534466
166.07250,8.911951243
166.07300,7.080784796
166.07350,5.24961835
166.07400,2.502868681
166.07450,-0.2438809885
166.07500,-1.769853027
166.07550,-1.159464212
166.07600,-0.8542698039
166.07650,-2.380241842
166.07700,-3.295825065
166.07750,-2.075047435
166.07800,-0.8542698039
166.07850,-1.159464212
166.07900,-1.769853027
166.07950,-0.8542698039
166.08000,0.6717022346
166.08050,0.3665078269
166.08100,-2.075047435
166.08150,-3.906213881
166.08200,-3.906213881
166.08250,-4.211408289
166.08300,-6.65296355
166.08350,-8.789324404
166.08400,-7.873741181
166.08450,-5.737380327
166.08500,-5.432185919
166.08550,-6.958157958
166.08600,-6.958157958
166.08650,-3.295825065
166.08700,0.06131341924
166.08750,0.9768966423
166.08800,1.892479865
166.08850,4.639229535
166.08900,4.334035127
166.08950,-3.295825065
166.09000,-14.58801815
166.09050,-19.77632308
166.09100,-16.11399019
166.09150,-9.39971322
166.09200,-4.211408289
166.09250,-1.159464212
166.09300,0.3665078269
166.09350,0.9768966423
166.09400,1.28209105
166.09450,6.165201573
166.09500,15.62622821
166.09550,22.34050518
166.09600,21.73011637
166.09650,18.06778347
166.09700,17.76258907
166.09750,19.59375551
166.09800,18.67817229
166.09850,14.71064499
166.09900,11.65870091
166.09950,9.21714565
166.10000,4.334035127
166.10050,-2.075047435
166.10100,-6.042574735
166.10150,-6.347769142
166.10200,-7.263352366
166.10250,-10.31529644
166.10300,-11.84126848
166.10350,-9.094518812
166.10400,-4.516602696
166.10450,-1.464658619
166.10500,-0.2438809885
166.10550,0.06131341924
166.10600,0.3665078269
166.10650,0.3665078269
166.10700,1.28209105
166.10750,3.113257496
166.10800,3.723646312
166.10850,2.502868681
166.10900,-0.2438809885
166.10950,-4.516602696
166.11000,-8.789324404
166.11050,-11.84126848
166.11100,-13.36724052
166.11150,-14.89321256
166.11200,-18.25035104
166.11250,-21.91268394
166.11300,-21.60748953
166.11350,-17.33476782
166.11400,-12.7568517
166.11450,-10.62049085
166.11500,-9.39971322
166.11550,-7.568546773
166.11600,-6.042574735
166.11650,-5.126991512
166.11700,-3.906213881
166.11750,-1.769853027
166.11800,0.3665078269
166.11850,3.723646312
166.11900,9.21714565
166.11950,15.93142262
166.12000,21.42492196
166.12050,25.39244926
166.12100,29.35997656
166.12150,32.41192064
166.12200,32.10672623
166.12250,27.52881011
166.12300,20.81453314
166.12350,15.3210338
166.12400,10.43792328
166.12450,4.334035127
166.12500,-2.990630658
166.12550,-9.704907627
166.12600,-13.36724052
166.12650,-13.67243493
166.12700,-13.67243493
166.12750,-15.80879578
166.12800,-19.77632308
166.12850,-21.60748953
166.12900,-20.3867119
166.12950,-19.16593427
166.13000,-19.16593427
166.13050,-17.63996223
166.13100,-10.92568526
166.13150,-0.5490753962
166.13200,6.470395981
166.13250,7.080784796
166.13300,4.334035127
166.13350,2.502868681
166.13400,2.197674273
166.13450,2.197674273
166.13500,2.197674273
166.13550,1.28209105
166.13600,-0.2438809885
166.13650,-1.769853027
166.13700,-1.159464212
166.13750,0.6717022346
166.13800,1.892479865
166.13850,0.6717022346
166.13900,-0.2438809885
166.13950,0.6717022346
166.14000,1.587285458
166.14050,0.3665078269
166.14100,-0.8542698039
166.14150,0.3665078269
166.14200,6.165201573
166.14250,12.87947854
166.14300,17.15220025
166.14350,17.15220025
166.14400,13.18467295
166.14450,7.691173612
166.14500,4.639229535
166.14550,4.334035127
166.14600,3.723646312
166.14650,-1.159464212
166.14700,-8.789324404
166.14750,-14.58801815
166.14800,-16.724379
166.14850,-17.63996223
166.14900,-17.33476782
166.14950,-12.4516573
166.15000,-1.769853027
166.15050,8.911951243
166.15100,12.57428413
166.15150,7.691173612
166.15200,0.06131341924
166.15250,-3.906213881
166.15300,-1.769853027
166.15350,4.028840719
166.15400,11.0483121
166.15450,16.54181144
166.15500,20.20414433
166.15550,22.64569959
166.15600,23.56128281
166.15650,22.03531077
166.15700,19.59375551
166.15750,18.37297788
166.15800,17.76258907
166.15850,15.0158394
166.15900,7.691173612
166.15950,-1.159464212
166.16000,-9.094518812
166.16050,-15.50360137
166.16100,-22.52307275
166.16150,-32.5944882
166.16200,-44.1918757
166.16250,-54.26329115
166.16300,-58.23081845
166.16350,-53.95809674
166.16400,-43.88668129
166.16450,-33.81526584
166.16500,-26.79579446
166.16550,-23.13346157
166.16600,-21.30229512
166.16650,-20.6919063
166.16700,-19.47112867
166.16750,-14.58801815
166.16800,-5.737380327
166.16850,1.28209105
166.16900,4.028840719
166.16950,6.165201573
166.17000,11.96389532
166.17050,17.76258907
166.17100,16.54181144
166.17150,10.13272887
166.17200,6.775590389
166.17250,9.522340058
166.17300,12.57428413
166.17350,11.0483121
166.17400,6.470395981
166.17450,4.334035127
166.17500,4.028840719
166.17550,4.639229535
166.17600,5.554812758
166.17650,7.080784796
166.17700,7.996368019
166.17750,8.606756835
166.17800,11.0483121
166.17850,15.62622821
166.17900,18.67817229
166.17950,17.45739466
166.18000,15.0158394
166.18050,16.23661703
166.18100,22.03531077
166.18150,29.66517097
166.18200,36.07425353
166.18250,39.12619761
166.18300,37.60022557
166.18350,31.191143
166.18400,22.64569959
166.18450,14.40545058
166.18500,6.775590389
166.18550,-0.8542698039
166.18600,-8.178935589
166.18650,-13.36724052
166.18700,-14.89321256
166.18750,-12.4516573
166.18800,-8.178935589
166.18850,-3.906213881
166.18900,-1.769853027
166.18950,-0.8542698039
166.19000,0.06131341924
166.19050,0.06131341924
166.19100,-1.769853027
166.19150,-5.737380327
166.19200,-8.484129996
166.19250,-9.094518812
166.19300,-10.01010203
166.19350,-11.84126848
166.19400,-12.14646289
166.19450,-9.094518812
166.19500,-4.821797104
166.19550,-2.075047435
166.19600,-0.2438809885
166.19650,2.197674273
166.19700,4.944423942
166.19750,6.470395981
166.19800,6.470395981
166.19850,6.470395981
166.19900,6.165201573
166.19950,5.554812758
166.20000,5.24961835
166.20050,5.24961835
166.20100,5.24961835
166.20150,4.639229535
166.20200,4.334035127
166.20250,4.334035127
166.20300,2.502868681
166.20350,0.06131341924
166.20400,-1.159464212
166.20450,-0.8542698039
166.20500,-2.075047435
166.20550,-8.178935589
166.20600,-16.11399019
166.20650,-20.99710071
166.20700,-21.30229512
166.20750,-19.47112867
166.20800,-16.4191846
166.20850,-11.53607407
166.20900,-6.347769142
166.20950,-2.380241842
166.21000,0.3665078269
166.21050,3.418451904
166.21100,5.554812758
166.21150,6.470395981
166.21200,8.301562427
166.21250,11.96389532
166.21300,13.18467295
166.21350,8.301562427
166.21400,0.3665078269
166.21450,-4.211408289
166.21500,-6.65296355
166.21550,-11.53607407
166.21600,-18.86073986
166.21650,-22.82826716
166.21700,-18.86073986
166.21750,-10.01010203
166.21800,1.28209105
166.21850,12.26908973
166.21900,17.15220025
166.21950,9.21714565
166.22000,-7.568546773
166.22050,-20.08151749
166.22100,-20.99710071
166.22150,-15.80879578
166.22200,-13.06204611
166.22250,-13.67243493
166.22300,-12.14646289
166.22350,-7.568546773
166.22400,-3.601019473
166.22450,-1.464658619
166.22500,1.587285458
166.22550,8.606756835
166.22600,20.50933874
166.22650,33.32750386
166.22700,40.95736405
166.22750,37.60022557
166.22800,26.30803248
166.22850,15.62622821
166.22900,11.3535065
166.22950,9.827534466
166.23000,5.860007166
166.23050,0.06131341924
166.23100,-2.68543625
166.23150,-0.8542698039
166.23200,2.197674273
166.23250,4.639229535
166.23300,4.334035127
166.23350,1.28209105
166.23400,-2.075047435
166.23450,-3.295825065
166.23500,-1.464658619
166.23550,0.3665078269
166.23600,0.3665078269
166.23650,0.3665078269
166.23700,2.197674273
166.23750,4.334035127
166.23800,5.554812758
166.23850,7.080784796
166.23900,10.13272887
166.23950,12.26908973
166.24000,10.74311769
166.24050,6.775590389
166.24100,4.028840719
166.24150,3.418451904
166.24200,3.113257496
166.24250,1.892479865
166.24300,0.3665078269
166.24350,-1.464658619
166.24400,-3.906213881
166.24450,-4.516602696
166.24500,-3.601019473
166.24550,-3.906213881
166.24600,-7.873741181
166.24650,-11.53607407
166.24700,-11.53607407
166.24750,-9.39971322
166.24800,-9.094518812
166.24850,-10.31529644
166.24900,-10.31529644
166.24950,-10.31529644
166.25000,-14.89321256
166.25050,-23.74385038
166.25100,-28.93215531
166.25150,-26.18540564
166.25200,-19.16593427
166.25250,-13.97762934
166.25300,-13.67243493
166.25350,-14.89321256
166.25400,-14.28282374
166.25450,-10.92568526
166.25500,-6.65296355
166.25550,-2.68543625
166.25600,1.892479865
166.25650,9.827534466
166.25700,18.9833667
166.25750,23.56128281
166.25800,19.89894992
166.25850,11.96389532
166.25900,6.165201573
166.25950,4.944423942
166.26000,4.639229535
166.26050,3.113257496
166.26100,2.502868681
166.26150,4.639229535
166.26200,6.165201573
166.26250,4.028840719
166.26300,-0.2438809885
166.26350,-2.075047435
166.26400,0.06131341924
166.26450,3.418451904
166.26500,4.639229535
166.26550,4.944423942
166.26600,5.860007166
166.26650,6.165201573
166.26700,5.554812758
166.26750,4.639229535
166.26800,3.418451904
166.26850,0.3665078269
166.26900,-4.211408289
166.26950,-8.789324404
166.27000,-9.094518812
166.27050,-6.65296355
166.27100,-3.295825065
166.27150,0.06131341924
166.27200,4.028840719
166.27250,7.996368019
166.27300,8.911951243
166.27350,6.165201573
166.27400,2.502868681
166.27450,0.3665078269
166.27500,0.06131341924
166.27550,-0.5490753962
166.27600,-1.159464212
166.27650,-1.159464212
166.27700,-0.2438809885
166.27750,1.28209105
166.27800,4.028840719
166.27850,7.691173612
166.27900,11.3535065
166.27950,14.10025617
166.28000,15.3210338
166.28050,14.71064499
166.28100,13.79506177
166.28150,12.57428413
166.28200,10.74311769
166.28250,7.691173612
166.28300,3.723646312
166.28350,-0.2438809885
166.28400,-3.601019473
166.28450,-6.347769142
166.28500,-7.568546773
166.28550,-6.958157958
166.28600,-5.432185919
166.28650,-4.821797104
166.28700,-5.432185919
166.28750,-6.65296355
166.28800,-7.568546773
166.28850,-6.65296355
166.28900,-2.68543625
166.28950,3.113257496
166.29000,8.606756835
166.29050,10.74311769
166.29100,10.13272887
166.29150,10.74311769
166.29200,12.57428413
166.29250,13.18467295
166.29300,11.0483121
166.29350,6.775590389
166.29400,0.6717022346
166.29450,-6.042574735
166.29500,-11.84126848
166.29550,-13.36724052
166.29600,-11.84126848
166.29650,-10.01010203
166.29700,-8.789324404
166.29750,-6.958157958
166.29800,-4.516602696
166.29850,-1.769853027
166.29900,0.9768966423
166.29950,4.028840719
166.30000,6.165201573
166.30050,4.944423942
166.30100,0.06131341924
166.30150,-6.347769142
166.30200,-12.14646289
166.30250,-15.50360137
166.30300,-16.4191846
166.30350,-15.80879578
166.30400,-15.50360137
166.30450,-17.02957341
166.30500,-19.77632308
166.30550,-20.08151749
166.30600,-16.11399019
166.30650,-9.39971322
166.30700,-3.601019473
166.30750,-2.075047435
166.30800,-3.906213881
166.30850,-6.042574735
166.30900,-5.432185919
166.30950,-3.906213881
166.31000,-3.906213881
166.31050,-4.211408289
166.31100,-0.8542698039
166.31150,6.775590389
166.31200,15.0158394
166.31250,18.67817229
166.31300,18.9833667
166.31350,18.37297788
166.31400,18.37297788
166.31450,17.45739466
166.31500,15.62622821
166.31550,13.18467295
166.31600,9.522340058
166.31650,3.723646312
166.31700,-1.464658619
166.31750,-4.516602696
166.31800,-6.347769142
166.31850,-8.789324404
166.31900,-12.14646289
166.31950,-14.58801815
166.32000,-14.28282374
166.32050,-12.14646289
166.32100,-9.094518812
166.32150,-6.65296355
166.32200,-5.737380327
166.32250,-6.042574735
166.32300,-6.042574735
166.32350,-5.126991512
166.32400,-3.906213881
166.32450,-3.295825065
166.32500,-2.075047435
166.32550,0.06131341924
166.32600,2.502868681
166.32650,4.334035127
166.32700,5.554812758
166.32750,5.554812758
166.32800,4.028840719
166.32850,0.3665078269
166.32900,-4.516602696
166.32950,-8.484129996
166.33000,-8.484129996
166.33050,-6.042574735
166.33100,-4.211408289
166.33150,-4.211408289
166.33200,-3.601019473
166.33250,-0.2438809885
166.33300,3.113257496
166.33350,3.418451904
166.33400,3.113257496
166.33450,6.470395981
166.33500,13.48986736
166.33550,18.67817229
166.33600,18.06778347
166.33650,11.96389532
166.33700,3.723646312
166.33750,-3.906213881
166.33800,-8.484129996
166.33850,-7.873741181
166.33900,-4.821797104
166.33950,-2.68543625
166.34000,0.06131341924
166.34050,7.080784796
166.34100,15.62622821
166.34150,17.45739466
166.34200,12.57428413
166.34250,12.26908973
166.34300,22.03531077
166.34350,32.10672623
166.34400,30.27555978
166.34450,18.67817229
166.34500,9.21714565
166.34550,7.385979204
166.34600,7.080784796
166.34650,4.639229535
166.34700,2.197674273
166.34750,1.892479865
166.34800,2.502868681
166.34850,3.113257496
166.34900,3.418451904
166.34950,3.723646312
166.35000,2.808063089
166.35050,2.502868681
166.35100,4.334035127
166.35150,7.996368019
166.35200,9.827534466
166.35250,10.13272887
166.35300,11.3535065
166.35350,14.10025617
166.35400,15.0158394
166.35450,13.18467295
166.35500,10.13272887
166.35550,7.996368019
166.35600,6.470395981
166.35650,4.639229535
166.35700,3.418451904
166.35750,3.113257496
166.35800,2.502868681
166.35850,-0.2438809885
166.35900,-4.516602696
166.35950,-8.178935589
166.36000,-11.23087967
166.36050,-13.06204611
166.36100,-13.97762934
166.36150,-15.19840697
166.36200,-18.25035104
166.36250,-21.91268394
166.36300,-22.82826716
166.36350,-18.55554545
166.36400,-12.7568517
166.36450,-10.01010203
166.36500,-10.92568526
166.36550,-12.7568517
166.36600,-13.06204611
166.36650,-13.36724052
166.36700,-13.67243493
166.36750,-12.7568517
166.36800,-11.23087967
166.36850,-10.31529644
166.36900,-11.23087967
166.36950,-12.7568517
166.37000,-12.7568517
166.37050,-12.14646289
166.37100,-11.53607407
166.37150,-10.31529644
166.37200,-7.873741181
166.37250,-6.042574735
166.37300,-6.347769142
166.37350,-7.263352366
166.37400,-6.65296355
166.37450,-5.126991512
166.37500,-4.821797104
166.37550,-6.347769142
166.37600,-6.65296355
166.37650,-4.516602696
166.37700,-1.769853027
166.37750,-1.769853027
166.37800,-4.211408289
166.37850,-6.958157958
166.37900,-8.178935589
166.37950,-7.263352366
166.38000,-6.042574735
166.38050,-5.126991512
166.38100,-3.295825065
166.38150,0.6717022346
166.38200,6.775590389
166.38250,12.26908973
166.38300,14.40545058
166.38350,13.18467295
166.38400,12.57428413
166.38450,15.3210338
166.38500,18.9833667
166.38550,19.2885611
166.38600,16.23661703
166.38650,13.79506177
166.38700,12.87947854
166.38750,12.26908973
166.38800,10.13272887
166.38850,7.385979204
166.38900,6.470395981
166.38950,5.860007166
166.39000,4.028840719
166.39050,1.587285458
166.39100,0.3665078269
166.39150,-0.8542698039
166.39200,-5.432185919
166.39250,-11.23087967
166.39300,-14.58801815
166.39350,-13.06204611
166.39400,-8.789324404
166.39450,-5.432185919
166.39500,-5.126991512
166.39550,-6.958157958
166.39600,-8.484129996
166.39650,-8.789324404
166.39700,-9.704907627
166.39750,-13.06204611
166.39800,-16.724379
166.39850,-16.11399019
166.39900,-10.31529644
166.39950,-5.432185919
166.40000,-4.821797104
166.40050,-5.737380327
166.40100,-4.211408289
166.40150,-0.5490753962
166.40200,0.06131341924
166.40250,-1.159464212
166.40300,-1.159464212
166.40350,2.197674273
166.40400,5.554812758
166.40450,5.860007166
166.40500,4.334035127
166.40550,3.418451904
166.40600,3.723646312
166.40650,4.334035127
166.40700,4.334035127
166.40750,4.334035127
166.40800,4.334035127
166.40850,4.639229535
166.40900,4.028840719
166.40950,2.197674273
166.41000,1.28209105
166.41050,3.113257496
166.41100,7.385979204
166.41150,11.65870091
166.41200,13.48986736
166.41250,13.79506177
166.41300,12.87947854
166.41350,10.43792328
166.41400,6.470395981
166.41450,2.197674273
166.41500,0.06131341924
166.41550,-0.8542698039
166.41600,-0.8542698039
166.41650,0.06131341924
166.41700,0.9768966423
166.41750,2.502868681
166.41800,3.418451904
166.41850,4.639229535
166.41900,5.554812758
166.41950,5.554812758
166.42000,4.639229535
166.42050,4.028840719
166.42100,2.502868681
166.42150,-1.769853027
166.42200,-8.484129996
166.42250,-13.36724052
166.42300,-13.06204611
166.42350,-6.65296355
166.42400,1.28209105
166.42450,6.470395981
166.42500,4.639229535
166.42550,-2.075047435
166.42600,-6.958157958
166.42650,-5.126991512
166.42700,0.9768966423
166.42750,7.385979204
166.42800,14.10025617
166.42850,22.34050518
166.42900,30.8859486
166.42950,35.76905912
166.43000,35.46386471
166.43050,32.41192064
166.43100,28.13919893
166.43150,22.03531077
166.43200,13.79506177
166.43250,6.165201573
166.43300,0.3665078269
166.43350,-3.601019473
166.43400,-5.432185919
166.43450,-3.906213881
166.43500,-0.5490753962
166.43550,0.06131341924
166.43600,-5.126991512
166.43650,-13.67243493
166.43700,-20.99710071
166.43750,-24.04904479
166.43800,-23.13346157
166.43850,-23.13346157
166.43900,-28.01657209
166.43950,-35.34123787
166.44000,-38.08798754
166.44050,-33.51007143
166.44100,-25.57501683
166.44150,-20.6919063
166.44200,-20.3867119
166.44250,-20.3867119
166.44300,-17.94515664
166.44350,-14.28282374
166.44400,-10.62049085
166.44450,-7.263352366
166.44500,-3.906213881
166.44550,-1.464658619
166.44600,-0.5490753962
166.44650,0.3665078269
166.44700,2.808063089
166.44750,6.470395981
166.44800,9.522340058
166.44850,10.74311769
166.44900,9.21714565
166.44950,6.470395981
166.45000,4.334035127
166.45050,3.418451904
166.45100,3.113257496
166.45150,2.808063089
166.45200,3.113257496
166.45250,4.028840719
166.45300,4.639229535
166.45350,4.944423942
166.45400,6.165201573
166.45450,7.385979204
166.45500,8.301562427
166.45550,8.606756835
166.45600,8.606756835
166.45650,8.301562427
166.45700,7.080784796
166.45750,6.165201573
166.45800,7.996368019
166.45850,11.0483121
166.45900,11.3535065
166.45950,9.21714565
166.46000,7.996368019
166.46050,9.522340058
166.46100,11.3535065
166.46150,12.26908973
166.46200,11.96389532
166.46250,11.65870091
166.46300,9.522340058
166.46350,5.554812758
166.46400,2.197674273
166.46450,0.6717022346
166.46500,-0.8542698039
166.46550,-6.042574735
166.46600,-12.14646289
166.46650,-15.50360137
166.46700,-15.19840697
166.46750,-14.28282374
166.46800,-14.89321256
166.46850,-15.80879578
166.46900,-15.50360137
166.46950,-12.14646289
166.47000,-6.958157958
166.47050,-1.159464212
166.47100,4.639229535
166.47150,10.74311769
166.47200,15.0158394
166.47250,16.54181144
166.47300,16.84700584
166.47350,19.2885611
166.47400,26.30803248
166.47450,34.54828149
166.47500,37.90541997
166.47550,32.71711504
166.47600,18.37297788
166.47650,0.6717022346
166.47700,-11.53607407
166.47750,-13.67243493
166.47800,-8.484129996
166.47850,-2.68543625
166.47900,-0.2438809885
166.47950,1.892479865
166.48000,6.165201573
166.48050,9.522340058
166.48100,9.522340058
166.48150,6.165201573
166.48200,1.587285458
166.48250,-4.211408289
166.48300,-10.62049085
166.48350,-14.28282374
166.48400,-14.89321256
166.48450,-15.50360137
166.48500,-17.63996223
166.48550,-17.02957341
166.48600,-11.53607407
166.48650,-6.65296355
166.48700,-7.263352366
166.48750,-11.84126848
166.48800,-13.36724052
166.48850,-10.31529644
166.48900,-7.263352366
166.48950,-6.042574735
166.49000,-4.821797104
166.49050,-3.295825065
166.49100,-3.295825065
166.49150,-4.821797104
166.49200,-5.126991512
166.49250,-3.601019473
166.49300,-2.380241842
166.49350,-3.295825065
166.49400,-4.516602696
166.49450,-3.906213881
166.49500,-2.380241842
166.49550,-2.380241842
166.49600,-4.211408289
166.49650,-4.516602696
166.49700,-0.2438809885
166.49750,5.554812758
166.49800,7.691173612
166.49850,4.334035127
166.49900,0.06131341924
166.49950,-0.8542698039
166.50000,1.892479865
166.50050,3.723646312
166.50100,2.197674273
166.50150,0.3665078269
166.50200,0.06131341924
166.50250,0.6717022346
166.50300,0.6717022346
166.50350,0.06131341924
166.50400,-1.159464212
166.50450,-2.075047435
166.50500,-3.601019473
166.50550,-5.432185919
166.50600,-6.65296355
166.50650,-6.347769142
166.50700,-4.516602696
166.50750,-1.769853027
166.50800,0.6717022346
166.50850,2.808063089
166.50900,3.418451904
166.50950,3.113257496
166.51000,1.28209105
166.51050,-1.159464212
166.51100,-2.990630658
166.51150,-2.380241842
166.51200,-0.5490753962
166.51250,0.06131341924
166.51300,-1.159464212
166.51350,-2.380241842
166.51400,-2.075047435
166.51450,-0.2438809885
166.51500,0.6717022346
166.51550,0.6717022346
166.51600,0.06131341924
166.51650,0.06131341924
166.51700,0.6717022346
166.51750,3.113257496
166.51800,5.860007166
166.51850,8.301562427
166.51900,9.827534466
166.51950,11.3535065
166.52000,11.0483121
166.52050,7.385979204
166.52100,2.502868681
166.52150,0.3665078269
166.52200,1.587285458
166.52250,3.113257496
166.52300,1.892479865
166.52350,0.06131341924
166.52400,-0.2438809885
166.52450,0.9768966423
166.52500,2.502868681
166.52550,3.418451904
166.52600,3.723646312
166.52650,4.028840719
166.52700,3.113257496
166.52750,1.587285458
166.52800,0.6717022346
166.52850,0.06131341924
166.52900,-0.2438809885
166.52950,-0.8542698039
166.53000,-0.8542698039
166.53050,0.06131341924
166.53100,2.197674273
166.53150,4.334035127
166.53200,5.554812758
166.53250,5.24961835
166.53300,4.944423942
166.53350,4.334035127
166.53400,3.418451904
166.53450,2.502868681
166.53500,3.723646312
166.53550,7.080784796
166.53600,9.827534466
166.53650,8.606756835
166.53700,4.334035127
166.53750,1.587285458
166.53800,1.892479865
166.53850,2.502868681
166.53900,1.587285458
166.53950,0.3665078269
166.54000,-0.8542698039
166.54050,-4.821797104
166.54100,-11.84126848
166.54150,-16.4191846
166.54200,-13.36724052
166.54250,-5.432185919
166.54300,0.6717022346
166.54350,0.9768966423
166.54400,-2.68543625
166.54450,-6.65296355
166.54500,-8.484129996
166.54550,-7.263352366
166.54600,-4.211408289
166.54650,-1.464658619
166.54700,-1.464658619
166.54750,-4.516602696
166.54800,-8.484129996
166.54850,-11.53607407
166.54900,-13.97762934
166.54950,-15.50360137
166.55000,-14.89321256
166.55050,-12.7568517
166.55100,-11.53607407
166.55150,-11.84126848
166.55200,-9.094518812
166.55250,-0.8542698039
166.55300,9.21714565
166.55350,15.0158394
166.55400,14.40545058
166.55450,12.87947854
166.55500,13.79506177
166.55550,14.40545058
166.55600,11.0483121
166.55650,4.944423942
166.55700,0.06131341924
166.55750,-4.211408289
166.55800,-8.178935589
166.55850,-11.53607407
166.55900,-11.84126848
166.55950,-8.484129996
166.56000,-3.906213881
166.56050,-1.464658619
166.56100,-2.990630658
166.56150,-5.432185919
166.56200,-6.042574735
166.56250,-3.906213881
166.56300,-1.769853027
166.56350,-1.464658619
166.56400,-2.380241842
166.56450,-2.380241842
166.56500,-2.380241842
166.56550,-3.295825065
166.56600,-4.211408289
166.56650,-2.990630658
166.56700,-0.8542698039
166.56750,-0.2438809885
166.56800,-0.8542698039
166.56850,-0.8542698039
166.56900,0.06131341924
166.56950,0.06131341924
166.57000,0.06131341924
166.57050,1.28209105
166.57100,2.808063089
166.57150,4.639229535
166.57200,5.860007166
166.57250,6.775590389
166.57300,5.24961835
166.57350,1.587285458
166.57400,0.6717022346
166.57450,6.470395981
166.57500,15.3210338
166.57550,19.2885611
166.57600,15.93142262
166.57650,8.606756835
166.57700,4.639229535
166.57750,9.522340058
166.57800,26.61322689
166.57850,48.58722424
166.57900,58.96383411
166.57950,48.58722424
166.58000,27.52881011
166.58050,13.18467295
166.58100,8.911951243
166.58150,5.24961835
166.58200,-1.769853027
166.58250,-6.042574735
166.58300,-5.126991512
166.58350,-5.432185919
166.58400,-11.53607407
166.58450,-16.4191846
166.58500,-13.06204611
166.58550,-6.347769142
166.58600,-4.821797104
166.58650,-9.094518812
166.58700,-14.28282374
166.58750,-18.86073986
166.58800,-24.96462801
166.58850,-30.76332176
166.58900,-34.12046024
166.58950,-34.73084906
166.59000,-36.2568211
166.59050,-37.17240432
166.59100,-34.12046024
166.59150,-26.49060005
166.59200,-17.94515664
166.59250,-11.84126848
166.59300,-7.568546773
166.59350,-4.211408289
166.59400,-2.075047435
166.59450,-0.5490753962
166.59500,0.06131341924
166.59550,0.6717022346
166.59600,1.892479865
166.59650,4.334035127
166.59700,6.775590389
166.59750,7.996368019
166.59800,7.385979204
166.59850,7.691173612
166.59900,9.827534466
166.59950,12.87947854
166.60000,14.10025617
166.60050,14.40545058
166.60100,14.71064499
166.60150,15.0158394
166.60200,16.84700584
166.60250,19.59375551
166.60300,20.81453314
166.60350,15.93142262
166.60400,5.554812758
166.60450,-2.380241842
166.60500,-4.211408289
166.60550,-2.380241842
166.60600,-2.68543625
166.60650,-4.211408289
166.60700,-3.601019473
166.60750,-0.5490753962
166.60800,1.587285458
166.60850,2.808063089
166.60900,4.639229535
166.60950,7.385979204
166.61000,7.080784796
166.61050,2.808063089
166.61100,-2.380241842
166.61150,-6.347769142
166.61200,-7.568546773
166.61250,-6.042574735
166.61300,-4.211408289
166.61350,-4.211408289
166.61400,-4.821797104
166.61450,-2.68543625
166.61500,3.723646312
166.61550,10.43792328
166.61600,11.65870091
166.61650,6.775590389
166.61700,0.9768966423
166.61750,-1.464658619
166.61800,-1.159464212
166.61850,0.06131341924
166.61900,0.3665078269
166.61950,-0.2438809885
166.62000,-1.464658619
166.62050,-1.464658619
166.62100,0.06131341924
166.62150,0.3665078269
166.62200,-2.380241842
166.62250,-5.737380327
166.62300,-4.821797104
166.62350,-0.8542698039
166.62400,0.9768966423
166.62450,0.06131341924
166.62500,-0.5490753962
166.62550,1.892479865
166.62600,5.860007166
166.62650,6.165201573
166.62700,3.113257496
166.62750,0.6717022346
166.62800,1.587285458
166.62850,4.639229535
166.62900,7.691173612
166.62950,8.606756835
166.63000,7.080784796
166.63050,4.334035127
166.63100,2.502868681
166.63150,2.197674273
166.63200,1.892479865
166.63250,0.3665078269
166.63300,-1.159464212
166.63350,-1.464658619
166.63400,-0.5490753962
166.63450,0.06131341924
166.63500,0.06131341924
166.63550,0.06131341924
166.63600,-0.2438809885
166.63650,0.06131341924
166.63700,0.06131341924
166.63750,0.3665078269
166.63800,1.587285458
166.63850,3.723646312
166.63900,5.24961835
166.63950,5.24961835
166.64000,3.723646312
166.64050,1.892479865
166.64100,0.3665078269
166.64150,-0.8542698039
166.64200,-1.464658619
166.64250,-0.5490753962
166.64300,-0.8542698039
166.64350,-6.042574735
166.64400,-15.50360137
166.64450,-23.13346157
166.64500,-23.43865597
166.64550,-18.55554545
166.64600,-13.97762934
166.64650,-12.7568517
166.64700,-13.36724052
166.64750,-14.58801815
166.64800,-14.58801815
166.64850,-12.4516573
166.64900,-8.484129996
166.64950,-5.432185919
166.65000,-3.295825065
166.65050,0.06131341924
166.65100,5.24961835
166.65150,9.522340058
166.65200,11.3535065
166.65250,13.18467295
166.65300,15.93142262
166.65350,15.93142262
166.65400,10.74311769
166.65450,5.24961835
166.65500,5.860007166
166.65550,10.74311769
166.65600,13.79506177
166.65650,12.57428413
166.65700,11.3535065
166.65750,11.3535065
166.65800,9.827534466
166.65850,4.639229535
166.65900,-1.159464212
166.65950,-6.347769142
166.66000,-9.094518812
166.66050,-10.01010203
166.66100,-8.789324404
166.66150,-6.958157958
166.66200,-6.65296355
166.66250,-7.263352366
166.66300,-7.568546773
166.66350,-7.568546773
166.66400,-7.263352366
166.66450,-6.347769142
166.66500,-5.432185919
166.66550,-4.821797104
166.66600,-4.821797104
166.66650,-3.601019473
166.66700,-1.464658619
166.66750,0.06131341924
166.66800,0.3665078269
166.66850,0.06131341924
166.66900,-0.2438809885
166.66950,-0.5490753962
166.67000,0.06131341924
166.67050,1.587285458
166.67100,4.028840719
166.67150,4.028840719
166.67200,1.587285458
166.67250,-0.5490753962
166.67300,-1.464658619
166.67350,-2.380241842
166.67400,-2.990630658
166.67450,-0.8542698039
166.67500,3.723646312
166.67550,7.996368019
166.67600,10.13272887
166.67650,11.3535065
166.67700,11.96389532
166.67750,10.43792328
166.67800,7.385979204
166.67850,5.860007166
166.67900,7.080784796
166.67950,7.691173612
166.68000,6.165201573
166.68050,4.944423942
166.68100,6.470395981
166.68150,9.21714565
166.68200,10.74311769
166.68250,11.0483121
166.68300,10.43792328
166.68350,6.470395981
166.68400,0.9768966423
166.68450,-2.075047435
166.68500,-1.464658619
166.68550,-0.8542698039
166.68600,-3.295825065
166.68650,-7.263352366
166.68700,-8.484129996
166.68750,-8.484129996
166.68800,-10.01010203
166.68850,-12.7568517
166.68900,-13.36724052
166.68950,-10.62049085
166.69000,-6.958157958
166.69050,-3.906213881
166.69100,-2.380241842
166.69150,-1.464658619
166.69200,-0.5490753962
166.69250,0.06131341924
166.69300,0.06131341924
166.69350,0.06131341924
166.69400,-0.2438809885
166.69450,-0.5490753962
166.69500,-1.159464212
166.69550,-2.380241842
166.69600,-2.990630658
166.69650,-0.8542698039
166.69700,3.723646312
166.69750,8.301562427
166.69800,9.21714565
166.69850,6.470395981
166.69900,3.113257496
166.69950,2.197674273
166.70000,4.334035127
166.70050,7.080784796
166.70100,7.385979204
166.70150,4.944423942
166.70200,0.6717022346
166.70250,-3.906213881
166.70300,-10.31529644
166.70350,-17.02957341
166.70400,-22.52307275
166.70450,-24.96462801
166.70500,-23.74385038
166.70550,-20.99710071
166.70600,-18.86073986
166.70650,-18.86073986
166.70700,-19.47112867
166.70750,-17.63996223
166.70800,-10.31529644
166.70850,0.3665078269
166.70900,10.43792328
166.70950,15.93142262
166.71000,15.62622821
166.71050,12.26908973
166.71100,8.911951243
166.71150,6.775590389
166.71200,6.165201573
166.71250,5.24961835
166.71300,2.808063089
166.71350,-1.464658619
166.71400,-6.042574735
166.71450,-8.484129996
166.71500,-8.484129996
166.71550,-6.958157958
166.71600,-6.347769142
166.71650,-7.568546773
166.71700,-10.31529644
166.71750,-12.14646289
166.71800,-11.84126848
166.71850,-9.704907627
166.71900,-7.568546773
166.71950,-5.737380327
166.72000,-3.295825065
166.72050,-0.2438809885
166.72100,1.587285458
166.72150,2.808063089
166.72200,4.334035127
166.72250,8.301562427
166.72300,13.79506177
166.72350,18.67817229
166.72400,20.81453314
166.72450,20.81453314
166.72500,20.81453314
166.72550,21.73011637
166.72600,22.64569959
166.72650,22.64569959
166.72700,19.89894992
166.72750,15.3210338
166.72800,8.606756835
166.72850,0.9768966423
166.72900,-6.347769142
166.72950,-10.31529644
166.73000,-8.789324404
166.73050,-3.906213881
166.73100,-0.5490753962
166.73150,-1.159464212
166.73200,-3.906213881
166.73250,-5.126991512
166.73300,-4.516602696
166.73350,-2.990630658
166.73400,-0.2438809885
166.73450,3.723646312
166.73500,7.996368019
166.73550,9.21714565
166.73600,7.996368019
166.73650,7.385979204
166.73700,8.606756835
166.73750,9.522340058
166.73800,7.996368019
166.73850,4.028840719
166.73900,0.6717022346
166.73950,0.06131341924
166.74000,0.06131341924
166.74050,-0.2438809885
166.74100,-1.159464212
166.74150,-0.8542698039
166.74200,0.06131341924
166.74250,0.9768966423
166.74300,0.6717022346
166.74350,0.06131341924
166.74400,0.9768966423
166.74450,3.418451904
166.74500,5.554812758
166.74550,5.554812758
166.74600,3.418451904
166.74650,1.587285458
166.74700,1.28209105
166.74750,1.28209105
166.74800,1.28209105
166.74850,0.3665078269
166.74900,0.06131341924
166.74950,-1.159464212
166.75000,-2.68543625
166.75050,-3.601019473
166.75100,-4.821797104
166.75150,-6.958157958
166.75200,-11.23087967
166.75250,-15.80879578
166.75300,-17.33476782
166.75350,-15.19840697
166.75400,-11.23087967
166.75450,-7.873741181
166.75500,-6.958157958
166.75550,-7.263352366
166.75600,-7.263352366
166.75650,-6.347769142
166.75700,-4.821797104
166.75750,-2.075047435
166.75800,1.587285458
166.75850,6.470395981
166.75900,8.911951243
166.75950,6.165201573
166.76000,-0.5490753962
166.76050,-6.347769142
166.76100,-6.347769142
166.76150,-0.8542698039
166.76200,5.24961835
166.76250,9.827534466
166.76300,13.48986736
166.76350,16.84700584
166.76400,18.67817229
166.76450,17.76258907
166.76500,14.71064499
166.76550,11.65870091
166.76600,8.911951243
166.76650,5.860007166
166.76700,3.113257496
166.76750,2.197674273
166.76800,2.197674273
166.76850,1.28209105
166.76900,0.3665078269
166.76950,0.06131341924
166.77000,0.6717022346
166.77050,0.3665078269
166.77100,-0.5490753962
166.77150,-1.464658619
166.77200,-1.159464212
166.77250,-0.2438809885
166.77300,0.9768966423
166.77350,3.418451904
166.77400,5.24961835
166.77450,4.639229535
166.77500,2.502868681
166.77550,2.197674273
166.77600,5.24961835
166.77650,8.606756835
166.77700,8.606756835
166.77750,5.860007166
166.77800,3.113257496
166.77850,0.9768966423
166.77900,-0.2438809885
166.77950,-1.769853027
166.78000,-2.990630658
166.78050,-5.126991512
166.78100,-9.704907627
166.78150,-16.4191846
166.78200,-20.3867119
166.78250,-17.94515664
166.78300,-10.62049085
166.78350,-4.821797104
166.78400,-3.295825065
166.78450,-3.906213881
166.78500,-3.906213881
166.78550,-5.126991512
166.78600,-7.873741181
166.78650,-9.39971322
166.78700,-5.432185919
166.78750,-0.5490753962
166.78800,-2.990630658
166.78850,-14.58801815
166.78900,-26.79579446
166.78950,-31.37371057
166.79000,-28.3217665
166.79050,-21.91268394
166.79100,-15.80879578
166.79150,-10.62049085
166.79200,-7.568546773
166.79250,-5.432185919
166.79300,-0.8542698039
166.79350,7.691173612
166.79400,18.06778347
166.79450,27.83400452
166.79500,37.90541997
166.79550,46.14566898
166.79600,45.84047457
166.79650,34.8534759
166.79700,20.50933874
166.79750,10.74311769
166.79800,5.24961835
166.79850,-0.8542698039
166.79900,-6.042574735
166.79950,-5.126991512
166.80000,0.06131341924
166.80050,2.197674273
166.80100,0.06131341924
166.80150,-0.5490753962
166.80200,1.892479865
166.80250,1.892479865
166.80300,-3.906213881
166.80350,-10.62049085
166.80400,-13.06204611
166.80450,-12.14646289
166.80500,-10.92568526
166.80550,-6.958157958
166.80600,-1.159464212
166.80650,0.3665078269
166.80700,-5.126991512
166.80750,-11.53607407
166.80800,-11.53607407
166.80850,-6.65296355
166.80900,-3.906213881
166.80950,-4.516602696
166.81000,-3.906213881
166.81050,-1.464658619
166.81100,-2.380241842
166.81150,-6.65296355
166.81200,-10.31529644
166.81250,-10.01010203
166.81300,-9.39971322
166.81350,-10.31529644
166.81400,-10.31529644
166.81450,-5.432185919
166.81500,3.113257496
166.81550,12.26908973
166.81600,16.23661703
166.81650,13.79506177
166.81700,8.301562427
166.81750,3.723646312
166.81800,2.197674273
166.81850,1.587285458
166.81900,1.587285458
166.81950,4.028840719
166.82000,7.996368019
166.82050,8.301562427
166.82100,3.418451904
166.82150,0.06131341924
166.82200,2.808063089
166.82250,9.522340058
166.82300,11.0483121
166.82350,4.639229535
166.82400,-5.432185919
166.82450,-14.58801815
166.82500,-19.47112867
166.82550,-17.02957341
166.82600,-8.789324404
166.82650,-2.075047435
166.82700,-3.601019473
166.82750,-10.92568526
166.82800,-17.02957341
166.82850,-17.33476782
166.82900,-12.7568517
166.82950,-5.737380327
166.83000,0.9768966423
166.83050,5.24961835
166.83100,5.554812758
166.83150,5.860007166
166.83200,10.13272887
166.83250,15.0158394
166.83300,14.71064499
166.83350,9.522340058
166.83400,4.944423942
166.83450,2.197674273
166.83500,-2.380241842
166.83550,-9.704907627
166.83600,-14.89321256
166.83650,-14.58801815
166.83700,-12.14646289
166.83750,-12.14646289
166.83800,-13.97762934
166.83850,-16.4191846
166.83900,-18.25035104
166.83950,-17.94515664
166.84000,-13.67243493
166.84050,-6.958157958
166.84100,-2.990630658
166.84150,-2.68543625
166.84200,-2.380241842
166.84250,1.28209105
166.84300,5.860007166
166.84350,7.385979204
166.84400,6.165201573
166.84450,5.24961835
166.84500,5.24961835
166.84550,4.334035127
166.84600,3.113257496
166.84650,2.808063089
166.84700,3.723646312
166.84750,4.944423942
166.84800,5.860007166
166.84850,7.385979204
166.84900,10.74311769
166.84950,14.71064499
166.85000,18.06778347
166.85050,19.89894992
166.85100,21.11972755
166.85150,21.42492196
166.85200,20.20414433
166.85250,17.45739466
166.85300,13.79506177
166.85350,9.522340058
166.85400,6.165201573
166.85450,3.723646312
166.85500,2.808063089
166.85550,3.113257496
166.85600,3.723646312
166.85650,3.113257496
166.85700,0.9768966423
166.85750,-0.2438809885
166.85800,-0.2438809885
166.85850,0.3665078269
166.85900,0.9768966423
166.85950,0.9768966423
166.86000,0.3665078269
166.86050,-0.2438809885
166.86100,-0.8542698039
166.86150,-0.2438809885
166.86200,0.3665078269
166.86250,0.6717022346
166.86300,0.6717022346
166.86350,0.06131341924
166.86400,0.3665078269
166.86450,1.587285458
166.86500,3.113257496
166.86550,4.944423942
166.86600,6.470395981
166.86650,7.691173612
166.86700,7.691173612
166.86750,6.470395981
166.86800,3.723646312
166.86850,0.3665078269
166.86900,-1.464658619
166.86950,-1.464658619
166.87000,-0.5490753962
166.87050,-0.2438809885
166.87100,-0.8542698039
166.87150,-0.8542698039
166.87200,0.06131341924
166.87250,0.6717022346
166.87300,0.9768966423
166.87350,0.9768966423
166.87400,0.6717022346
166.87450,0.9768966423
166.87500,1.892479865
166.87550,4.028840719
166.87600,5.554812758
166.87650,4.944423942
166.87700,3.113257496
166.87750,1.28209105
166.87800,0.3665078269
166.87850,-0.5490753962
166.87900,-1.769853027
166.87950,-2.68543625
166.88000,-3.295825065
166.88050,-3.906213881
166.88100,-3.906213881
166.88150,-2.990630658
166.88200,-2.68543625
166.88250,-4.821797104
166.88300,-8.178935589
166.88350,-9.094518812
166.88400,-6.042574735
166.88450,-1.464658619
166.88500,0.9768966423
166.88550,0.6717022346
166.88600,-0.5490753962
166.88650,-2.380241842
166.88700,-3.295825065
166.88750,-3.295825065
166.88800,-2.990630658
166.88850,-2.990630658
166.88900,-3.906213881
166.88950,-4.211408289
166.89000,-3.906213881
166.89050,-3.295825065
166.89100,-2.380241842
166.89150,-1.769853027
166.89200,-1.464658619
166.89250,-1.769853027
166.89300,-2.990630658
166.89350,-3.906213881
166.89400,-3.295825065
166.89450,-2.990630658
166.89500,-3.906213881
166.89550,-5.737380327
166.89600,-6.958157958
166.89650,-7.568546773
166.89700,-7.873741181
166.89750,-8.178935589
166.89800,-8.789324404
166.89850,-9.704907627
166.89900,-10.62049085
166.89950,-10.31529644
166.90000,-8.789324404
166.90050,-7.263352366
166.90100,-6.347769142
166.90150,-5.737380327
166.90200,-4.211408289
166.90250,-2.68543625
166.90300,-0.8542698039
166.90350,2.502868681
166.90400,7.385979204
166.90450,9.522340058
166.90500,8.301562427
166.90550,7.080784796
166.90600,8.911951243
166.90650,11.3535065
166.90700,9.827534466
166.90750,5.860007166
166.90800,4.028840719
166.90850,4.944423942
166.90900,6.165201573
166.90950,6.165201573
166.91000,7.691173612
166.91050,11.0483121
166.91100,14.10025617
166.91150,16.54181144
166.91200,18.37297788
166.91250,19.59375551
166.91300,22.03531077
166.91350,30.27555978
166.91400,43.70411372
166.91450,50.7235851
166.91500,40.04178083
166.91550,16.54181144
166.91600,-2.380241842
166.91650,-9.094518812
166.91700,-12.14646289
166.91750,-20.08151749
166.91800,-28.01657209
166.91850,-28.93215531
166.91900,-25.57501683
166.91950,-26.18540564
166.92000,-30.15293294
166.92050,-30.76332176
166.92100,-26.79579446
166.92150,-22.52307275
166.92200,-20.3867119
166.92250,-17.94515664
166.92300,-15.19840697
166.92350,-14.28282374
166.92400,-15.80879578
166.92450,-16.724379
166.92500,-15.80879578
166.92550,-15.19840697
166.92600,-15.50360137
166.92650,-15.19840697
166.92700,-14.58801815
166.92750,-14.58801815
166.92800,-15.80879578
166.92850,-14.89321256
166.92900,-10.01010203
166.92950,-2.990630658
166.93000,2.808063089
166.93050,7.691173612
166.93100,11.0483121
166.93150,13.18467295
166.93200,13.79506177
166.93250,12.26908973
166.93300,10.43792328
166.93350,9.827534466
166.93400,11.3535065
166.93450,12.87947854
166.93500,12.26908973
166.93550,10.13272887
166.93600,8.911951243
166.93650,10.74311769
166.93700,12.57428413
166.93750,10.43792328
166.93800,4.944423942
166.93850,0.6717022346
166.93900,2.808063089
166.93950,10.13272887
166.94000,15.62622821
166.94050,15.3210338
166.94100,12.57428413
166.94150,13.18467295
166.94200,16.84700584
166.94250,17.15220025
166.94300,11.96389532
166.94350,7.080784796
166.94400,6.775590389
166.94450,6.470395981
166.94500,2.197674273
166.94550,-3.295825065
166.94600,-3.601019473
166.94650,0.06131341924
166.94700,0.06131341924
166.94750,-4.516602696
166.94800,-9.094518812
166.94850,-10.92568526
166.94900,-14.28282374
166.94950,-20.99710071
166.95000,-25.88021124
166.95050,-23.74385038
166.95100,-17.94515664
166.95150,-14.28282374
166.95200,-13.36724052
166.95250,-12.14646289
166.95300,-9.39971322
166.95350,-6.958157958
166.95400,-6.347769142
166.95450,-6.65296355
166.95500,-5.126991512
166.95550,-0.8542698039
166.95600,6.165201573
166.95650,14.10025617
166.95700,18.37297788
166.95750,19.59375551
166.95800,20.50933874
166.95850,21.42492196
166.95900,19.2885611
166.95950,12.26908973
166.96000,4.334035127
166.96050,-1.464658619
166.96100,-5.737380327
166.96150,-9.704907627
166.96200,-12.4516573
166.96250,-11.53607407
166.96300,-8.789324404
166.96350,-7.568546773
166.96400,-7.568546773
166.96450,-5.737380327
166.96500,-1.769853027
166.96550,0.3665078269
166.96600,-0.2438809885
166.96650,-2.380241842
166.96700,-3.601019473
166.96750,-3.295825065
166.96800,-2.380241842
166.96850,-0.8542698039
166.96900,0.06131341924
166.96950,-0.5490753962
166.97000,-2.68543625
166.97050,-5.126991512
166.97100,-6.65296355
166.97150,-7.568546773
166.97200,-7.263352366
166.97250,-5.126991512
166.97300,-2.075047435
166.97350,0.06131341924
166.97400,0.6717022346
166.97450,2.197674273
166.97500,4.639229535
166.97550,7.080784796
166.97600,7.996368019
166.97650,7.996368019
166.97700,9.21714565
166.97750,12.87947854
166.97800,18.06778347
166.97850,22.03531077
166.97900,22.34050518
166.97950,18.37297788
166.98000,12.57428413
166.98050,10.43792328
166.98100,12.87947854
166.98150,15.3210338
166.98200,14.71064499
166.98250,11.96389532
166.98300,10.13272887
166.98350,8.301562427
166.98400,3.418451904
166.98450,-1.769853027
166.98500,-2.68543625
166.98550,-0.2438809885
166.98600,0.06131341924
166.98650,-3.906213881
166.98700,-6.347769142
166.98750,-2.990630658
166.98800,1.28209105
166.98850,0.06131341924
166.98900,-4.516602696
166.98950,-5.737380327
166.99000,-2.075047435
166.99050,-1.464658619
166.99100,-7.568546773
166.99150,-13.36724052
166.99200,-9.704907627
166.99250,0.6717022346
166.99300,8.301562427
166.99350,7.080784796
166.99400,-0.5490753962
166.99450,-9.704907627
166.99500,-17.63996223
166.99550,-20.6919063
166.99600,-16.11399019
166.99650,-5.432185919
166.99700,3.113257496
166.99750,3.113257496
166.99800,-2.990630658
166.99850,-8.178935589
166.99900,-8.484129996
166.99950,-6.958157958
167.00000,-4.821797104
167.00050,-2.380241842
167.00100,-0.2438809885
167.00150,-0.8542698039
167.00200,-3.906213881
167.00250,-6.65296355
167.00300,-5.737380327
167.00350,-2.990630658
167.00400,-2.075047435
167.00450,-2.990630658
167.00500,-5.432185919
167.00550,-7.568546773
167.00600,-9.39971322
167.00650,-9.704907627
167.00700,-8.789324404
167.00750,-6.958157958
167.00800,-4.516602696
167.00850,-2.68543625
167.00900,-2.380241842
167.00950,-4.211408289
167.01000,-6.347769142
167.01050,-4.516602696
167.01100,1.892479865
167.01150,8.911951243
167.01200,11.96389532
167.01250,11.0483121
167.01300,8.911951243
167.01350,8.606756835
167.01400,9.21714565
167.01450,8.606756835
167.01500,6.165201573
167.01550,2.808063089
167.01600,0.3665078269
167.01650,-0.2438809885
167.01700,-0.2438809885
167.01750,-0.5490753962
167.01800,-1.769853027
167.01850,-2.990630658
167.01900,-3.295825065
167.01950,-3.295825065
167.02000,-2.68543625
167.02050,-1.159464212
167.02100,1.587285458
167.02150,4.944423942
167.02200,7.385979204
167.02250,10.43792328
167.02300,13.48986736
167.02350,15.62622821
167.02400,14.40545058
167.02450,11.96389532
167.02500,10.74311769
167.02550,11.96389532
167.02600,12.87947854
167.02650,12.26908973
167.02700,11.3535065
167.02750,12.57428413
167.02800,14.10025617
167.02850,13.18467295
167.02900,9.21714565
167.02950,4.944423942
167.03000,3.113257496
167.03050,3.418451904
167.03100,3.113257496
167.03150,1.587285458
167.03200,0.6717022346
167.03250,0.6717022346
167.03300,1.892479865
167.03350,2.808063089
167.03400,3.723646312
167.03450,4.028840719
167.03500,3.418451904
167.03550,2.808063089
167.03600,1.587285458
167.03650,0.3665078269
167.03700,-1.159464212
167.03750,-2.380241842
167.03800,-2.380241842
167.03850,-1.464658619
167.03900,-2.075047435
167.03950,-5.126991512
167.04000,-9.704907627
167.04050,-13.97762934
167.04100,-17.63996223
167.04150,-19.47112867
167.04200,-19.16593427
167.04250,-17.33476782
167.04300,-15.50360137
167.04350,-13.06204611
167.04400,-8.789324404
167.04450,-4.516602696
167.04500,-2.075047435
167.04550,0.06131341924
167.04600,7.691173612
167.04650,21.11972755
167.04700,31.80153182
167.04750,32.71711504
167.04800,25.08725485
167.04850,16.54181144
167.04900,10.43792328
167.04950,4.944423942
167.05000,0.06131341924
167.05050,-2.380241842
167.05100,-2.075047435
167.05150,-1.769853027
167.05200,-3.295825065
167.05250,-5.126991512
167.05300,-6.042574735
167.05350,-5.432185919
167.05400,-4.821797104
167.05450,-5.737380327
167.05500,-7.873741181
167.05550,-8.789324404
167.05600,-8.178935589
167.05650,-6.347769142
167.05700,-6.958157958
167.05750,-10.01010203
167.05800,-13.06204611
167.05850,-14.58801815
167.05900,-14.89321256
167.05950,-13.06204611
167.06000,-8.178935589
167.06050,-2.990630658
167.06100,-3.295825065
167.06150,-9.39971322
167.06200,-13.97762934
167.06250,-10.01010203
167.06300,-1.159464212
167.06350,3.418451904
167.06400,1.28209105
167.06450,-2.68543625
167.06500,-4.821797104
167.06550,-4.211408289
167.06600,-2.68543625
167.06650,-0.5490753962
167.06700,0.3665078269
167.06750,-0.8542698039
167.06800,-3.295825065
167.06850,-2.990630658
167.06900,0.06131341924
167.06950,1.587285458
167.07000,0.3665078269
167.07050,-1.464658619
167.07100,-1.769853027
167.07150,-1.464658619
167.07200,-2.075047435
167.07250,-2.075047435
167.07300,-0.2438809885
167.07350,1.28209105
167.07400,1.892479865
167.07450,1.587285458
167.07500,1.587285458
167.07550,1.892479865
167.07600,1.892479865
167.07650,3.113257496
167.07700,5.24961835
167.07750,6.470395981
167.07800,5.554812758
167.07850,5.860007166
167.07900,7.996368019
167.07950,8.911951243
167.08000,5.554812758
167.08050,0.3665078269
167.08100,-2.075047435
167.08150,-1.464658619
167.08200,0.06131341924
167.08250,0.9768966423
167.08300,1.587285458
167.08350,0.9768966423
167.08400,-0.5490753962
167.08450,-3.295825065
167.08500,-4.211408289
167.08550,-4.516602696
167.08600,-5.432185919
167.08650,-7.568546773
167.08700,-10.01010203
167.08750,-12.14646289
167.08800,-13.67243493
167.08850,-14.58801815
167.08900,-13.06204611
167.08950,-10.31529644
167.09000,-6.958157958
167.09050,-4.211408289
167.09100,-2.380241842
167.09150,-2.075047435
167.09200,-4.211408289
167.09250,-6.958157958
167.09300,-6.958157958
167.09350,-3.601019473
167.09400,0.3665078269
167.09450,3.723646312
167.09500,5.554812758
167.09550,5.554812758
167.09600,4.639229535
167.09650,3.723646312
167.09700,4.028840719
167.09750,3.723646312
167.09800,1.587285458
167.09850,-0.8542698039
167.09900,-2.68543625
167.09950,-3.601019473
167.10000,-4.516602696
167.10050,-4.211408289
167.10100,-0.8542698039
167.10150,4.028840719
167.10200,6.165201573
167.10250,3.113257496
167.10300,-2.075047435
167.10350,-5.737380327
167.10400,-6.042574735
167.10450,-3.906213881
167.10500,-1.464658619
167.10550,0.3665078269
167.10600,2.502868681
167.10650,4.639229535
167.10700,5.860007166
167.10750,6.165201573
167.10800,6.165201573
167.10850,7.996368019
167.10900,11.3535065
167.10950,14.10025617
167.11000,14.71064499
167.11050,14.10025617
167.11100,13.48986736
167.11150,12.57428413
167.11200,10.13272887
167.11250,7.385979204
167.11300,5.24961835
167.11350,2.808063089
167.11400,-0.2438809885
167.11450,-0.5490753962
167.11500,4.028840719
167.11550,11.0483121
167.11600,14.40545058
167.11650,14.71064499
167.11700,15.3210338
167.11750,17.76258907
167.11800,19.59375551
167.11850,18.9833667
167.11900,18.37297788
167.11950,18.06778347
167.12000,16.23661703
167.12050,11.3535065
167.12100,3.723646312
167.12150,-6.65296355
167.12200,-19.16593427
167.12250,-29.23734972
167.12300,-31.37371057
167.12350,-27.71137768
167.12400,-24.96462801
167.12450,-26.18540564
167.12500,-27.71137768
167.12550,-26.49060005
167.12600,-24.3542392
167.12650,-22.82826716
167.12700,-19.47112867
167.12750,-13.36724052
167.12800,-9.094518812
167.12850,-9.704907627
167.12900,-11.53607407
167.12950,-8.484129996
167.13000,-1.464658619
167.13050,3.113257496
167.13100,4.028840719
167.13150,6.470395981
167.13200,12.87947854
167.13250,19.2885611
167.13300,19.59375551
167.13350,14.40545058
167.13400,9.522340058
167.13450,8.606756835
167.13500,8.911951243
167.13550,7.385979204
167.13600,4.028840719
167.13650,1.587285458
167.13700,0.06131341924
167.13750,-1.769853027
167.13800,-3.906213881
167.13850,-4.516602696
167.13900,-2.990630658
167.13950,-2.380241842
167.14000,-4.211408289
167.14050,-5.737380327
167.14100,-5.126991512
167.14150,-4.211408289
167.14200,-3.906213881
167.14250,-3.295825065
167.14300,-1.159464212
167.14350,1.587285458
167.14400,4.334035127
167.14450,7.996368019
167.14500,12.57428413
167.14550,16.84700584
167.14600,18.67817229
167.14650,18.06778347
167.14700,18.06778347
167.14750,18.06778347
167.14800,17.15220025
167.14850,15.3210338
167.14900,14.40545058
167.14950,13.48986736
167.15000,11.0483121
167.15050,6.775590389
167.15100,3.113257496
167.15150,2.197674273
167.15200,4.334035127
167.15250,7.691173612
167.15300,8.911951243
167.15350,5.860007166
167.15400,0.3665078269
167.15450,-1.769853027
167.15500,0.6717022346
167.15550,4.944423942
167.15600,5.554812758
167.15650,2.197674273
167.15700,-1.464658619
167.15750,-3.601019473
167.15800,-2.990630658
167.15850,-0.5490753962
167.15900,2.197674273
167.15950,3.723646312
167.16000,3.418451904
167.16050,1.892479865
167.16100,1.28209105
167.16150,1.28209105
167.16200,1.28209105
167.16250,0.06131341924
167.16300,-0.2438809885
167.16350,-0.5490753962
167.16400,-0.8542698039
167.16450,-2.380241842
167.16500,-5.432185919
167.16550,-9.094518812
167.16600,-13.06204611
167.16650,-17.33476782
167.16700,-21.30229512
167.16750,-22.82826716
167.16800,-21.30229512
167.16850,-19.47112867
167.16900,-20.6919063
167.16950,-23.13346157
167.17000,-21.60748953
167.17050,-15.19840697
167.17100,-9.39971322
167.17150,-8.484129996
167.17200,-6.347769142
167.17250,5.554812758
167.17300,25.08725485
167.17350,37.90541997
167.17400,33.93789267
167.17450,18.67817229
167.17500,6.470395981
167.17550,2.808063089
167.17600,4.028840719
167.17650,4.639229535
167.17700,4.028840719
167.17750,3.418451904
167.17800,2.808063089
167.17850,1.892479865
167.17900,1.587285458
167.17950,2.808063089
167.18000,5.24961835
167.18050,7.691173612
167.18100,9.827534466
167.18150,10.43792328
167.18200,9.21714565
167.18250,7.996368019
167.18300,7.996368019
167.18350,7.996368019
167.18400,6.165201573
167.18450,3.418451904
167.18500,2.808063089
167.18550,4.028840719
167.18600,2.502868681
167.18650,-3.295825065
167.18700,-8.789324404
167.18750,-10.01010203
167.18800,-10.62049085
167.18850,-15.50360137
167.18900,-23.43865597
167.18950,-27.40618327
167.19000,-24.96462801
167.19050,-19.77632308
167.19100,-17.63996223
167.19150,-18.55554545
167.19200,-19.47112867
167.19250,-18.55554545
167.19300,-15.80879578
167.19350,-12.14646289
167.19400,-7.873741181
167.19450,-5.126991512
167.19500,-4.516602696
167.19550,-5.432185919
167.19600,-6.042574735
167.19650,-6.347769142
167.19700,-6.347769142
167.19750,-6.347769142
167.19800,-5.737380327
167.19850,-3.295825065
167.19900,0.3665078269
167.19950,3.113257496
167.20000,2.197674273
167.20050,0.6717022346
167.20100,2.808063089
167.20150,8.911951243
167.20200,13.48986736
167.20250,11.96389532
167.20300,5.554812758
167.20350,-0.2438809885
167.20400,-0.5490753962
167.20450,4.334035127
167.20500,9.522340058
167.20550,10.13272887
167.20600,5.554812758
167.20650,0.3665078269
167.20700,-2.990630658
167.20750,-7.873741181
167.20800,-16.4191846
167.20850,-24.04904479
167.20900,-23.43865597
167.20950,-15.19840697
167.21000,-8.178935589
167.21050,-7.263352366
167.21100,-8.484129996
167.21150,-6.042574735
167.21200,-0.8542698039
167.21250,2.197674273
167.21300,2.502868681
167.21350,2.808063089
167.21400,4.334035127
167.21450,6.470395981
167.21500,7.080784796
167.21550,6.470395981
167.21600,4.639229535
167.21650,2.197674273
167.21700,0.06131341924
167.21750,-1.464658619
167.21800,-0.8542698039
167.21850,2.808063089
167.21900,8.606756835
167.21950,12.87947854
167.22000,13.48986736
167.22050,13.79506177
167.22100,15.3210338
167.22150,17.45739466
167.22200,16.54181144
167.22250,12.57428413
167.22300,9.522340058
167.22350,7.996368019
167.22400,6.470395981
167.22450,4.639229535
167.22500,3.418451904
167.22550,3.113257496
167.22600,2.502868681
167.22650,1.28209105
167.22700,0.3665078269
167.22750,-1.769853027
167.22800,-6.65296355
167.22850,-13.36724052
167.22900,-18.55554545
167.22950,-20.6919063
167.23000,-20.99710071
167.23050,-20.08151749
167.23100,-18.55554545
167.23150,-16.11399019
167.23200,-12.4516573
167.23250,-5.737380327
167.23300,2.808063089
167.23350,11.0483121
167.23400,17.45739466
167.23450,25.39244926
167.23500,36.98983675
167.23550,47.06125221
167.23600,46.7560578
167.23650,35.1586703
167.23700,21.73011637
167.23750,14.71064499
167.23800,12.87947854
167.23850,10.43792328
167.23900,5.860007166
167.23950,2.808063089
167.24000,2.502868681
167.24050,2.502868681
167.24100,0.3665078269
167.24150,-1.769853027
167.24200,-1.159464212
167.24250,1.587285458
167.24300,4.639229535
167.24350,7.080784796
167.24400,9.522340058
167.24450,11.0483121
167.24500,9.827534466
167.24550,5.24961835
167.24600,0.06131341924
167.24650,-2.990630658
167.24700,-3.295825065
167.24750,-3.906213881
167.24800,-6.042574735
167.24850,-9.39971322
167.24900,-10.92568526
167.24950,-10.01010203
167.25000,-8.178935589
167.25050,-6.65296355
167.25100,-4.516602696
167.25150,0.3665078269
167.25200,9.21714565
167.25250,19.2885611
167.25300,27.52881011
167.25350,32.71711504
167.25400,35.1586703
167.25450,34.8534759
167.25500,29.97036537
167.25550,21.73011637
167.25600,12.26908973
167.25650,1.28209105
167.25700,-12.4516573
167.25750,-28.93215531
167.25800,-40.83473721
167.25850,-42.05551484
167.25900,-35.03604347
167.25950,-28.01657209
167.26000,-25.57501683
167.26050,-26.49060005
167.26100,-26.79579446
167.26150,-23.74385038
167.26200,-18.25035104
167.26250,-13.06204611
167.26300,-11.53607407
167.26350,-13.67243493
167.26400,-17.33476782
167.26450,-19.47112867
167.26500,-20.6919063
167.26550,-23.13346157
167.26600,-26.49060005
167.26650,-27.40618327
167.26700,-23.43865597
167.26750,-17.02957341
167.26800,-13.06204611
167.26850,-12.7568517
167.26900,-13.67243493
167.26950,-13.36724052
167.27000,-11.84126848
167.27050,-9.704907627
167.27100,-7.263352366
167.27150,-4.211408289
167.27200,-1.464658619
167.27250,-0.5490753962
167.27300,-0.5490753962
167.27350,-0.8542698039
167.27400,-0.5490753962
167.27450,-0.2438809885
167.27500,0.6717022346
167.27550,4.028840719
167.27600,10.43792328
167.27650,16.54181144
167.27700,19.2885611
167.27750,18.06778347
167.27800,14.40545058
167.27850,11.3535065
167.27900,9.827534466
167.27950,9.21714565
167.28000,9.21714565
167.28050,9.522340058
167.28100,8.606756835
167.28150,6.775590389
167.28200,4.944423942
167.28250,4.639229535
167.28300,5.860007166
167.28350,6.470395981
167.28400,5.554812758
167.28450,3.418451904
167.28500,3.113257496
167.28550,4.334035127
167.28600,6.165201573
167.28650,6.775590389
167.28700,5.860007166
167.28750,4.639229535
167.28800,3.113257496
167.28850,0.9768966423
167.28900,-0.2438809885
167.28950,-0.5490753962
167.29000,0.06131341924
167.29050,2.502868681
167.29100,4.639229535
167.29150,4.944423942
167.29200,3.723646312
167.29250,2.197674273
167.29300,1.892479865
167.29350,2.808063089
167.29400,3.723646312
167.29450,4.334035127
167.29500,5.554812758
167.29550,7.691173612
167.29600,9.522340058
167.29650,9.827534466
167.29700,8.606756835
167.29750,5.860007166
167.29800,2.808063089
167.29850,0.9768966423
167.29900,1.587285458
167.29950,3.418451904
167.30000,4.639229535
167.30050,4.639229535
167.30100,5.24961835
167.30150,6.775590389
167.30200,7.385979204
167.30250,5.860007166
167.30300,4.944423942
167.30350,4.944423942
167.30400,1.892479865
167.30450,-5.432185919
167.30500,-11.23087967
167.30550,-9.094518812
167.30600,-0.2438809885
167.30650,5.860007166
167.30700,4.334035127
167.30750,-0.8542698039
167.30800,-3.601019473
167.30850,-3.295825065
167.30900,-2.075047435
167.30950,0.06131341924
167.31000,2.502868681
167.31050,4.334035127
167.31100,3.723646312
167.31150,1.892479865
167.31200,2.197674273
167.31250,4.334035127
167.31300,5.860007166
167.31350,5.554812758
167.31400,4.334035127
167.31450,3.113257496
167.31500,1.892479865
167.31550,0.06131341924
167.31600,-0.5490753962
167.31650,-0.2438809885
167.31700,0.06131341924
167.31750,-0.8542698039
167.31800,-1.159464212
167.31850,0.06131341924
167.31900,1.587285458
167.31950,2.808063089
167.32000,2.197674273
167.32050,0.06131341924
167.32100,-2.075047435
167.32150,-4.211408289
167.32200,-5.432185919
167.32250,-5.737380327
167.32300,-6.042574735
167.32350,-5.737380327
167.32400,-4.821797104
167.32450,-4.821797104
167.32500,-6.347769142
167.32550,-6.042574735
167.32600,-0.5490753962
167.32650,7.996368019
167.32700,11.65870091
167.32750,7.385979204
167.32800,0.6717022346
167.32850,-1.159464212
167.32900,0.9768966423
167.32950,2.502868681
167.33000,1.28209105
167.33050,-0.2438809885
167.33100,-2.380241842
167.33150,-5.737380327
167.33200,-9.39971322
167.33250,-10.31529644
167.33300,-9.094518812
167.33350,-8.789324404
167.33400,-10.01010203
167.33450,-10.62049085
167.33500,-10.62049085
167.33550,-11.23087967
167.33600,-11.84126848
167.33650,-10.62049085
167.33700,-8.789324404
167.33750,-9.704907627
167.33800,-10.01010203
167.33850,-6.042574735
167.33900,0.06131341924
167.33950,0.9768966423
167.34000,-5.737380327
167.34050,-13.06204611
167.34100,-15.19840697
167.34150,-15.50360137
167.34200,-16.724379
167.34250,-15.50360137
167.34300,-10.31529644
167.34350,-5.432185919
167.34400,-4.821797104
167.34450,-3.601019473
167.34500,2.502868681
167.34550,10.43792328
167.34600,14.40545058
167.34650,15.93142262
167.34700,19.89894992
167.34750,23.2560884
167.34800,19.2885611
167.34850,8.606756835
167.34900,0.3665078269
167.34950,-1.159464212
167.35000,0.06131341924
167.35050,1.892479865
167.35100,4.334035127
167.35150,6.775590389
167.35200,7.691173612
167.35250,7.080784796
167.35300,7.691173612
167.35350,8.911951243
167.35400,7.996368019
167.35450,5.554812758
167.35500,4.639229535
167.35550,4.944423942
167.35600,2.808063089
167.35650,0.06131341924
167.35700,-0.2438809885
167.35750,1.587285458
167.35800,1.28209105
167.35850,-2.075047435
167.35900,-5.126991512
167.35950,-3.906213881
167.36000,-0.5490753962
167.36050,1.892479865
167.36100,4.944423942
167.36150,8.301562427
167.36200,11.0483121
167.36250,12.57428413
167.36300,14.40545058
167.36350,17.15220025
167.36400,17.45739466
167.36450,13.18467295
167.36500,5.24961835
167.36550,-2.075047435
167.36600,-5.737380327
167.36650,-5.126991512
167.36700,-1.769853027
167.36750,0.06131341924
167.36800,-0.2438809885
167.36850,-2.380241842
167.36900,-3.295825065
167.36950,-1.769853027
167.37000,-0.2438809885
167.37050,0.06131341924
167.37100,-1.159464212
167.37150,-2.075047435
167.37200,-2.990630658
167.37250,-4.516602696
167.37300,-6.042574735
167.37350,-7.263352366
167.37400,-8.789324404
167.37450,-11.23087967
167.37500,-13.97762934
167.37550,-15.19840697
167.37600,-15.80879578
167.37650,-15.80879578
167.37700,-14.89321256
167.37750,-11.84126848
167.37800,-8.178935589
167.37850,-5.737380327
167.37900,-5.126991512
167.37950,-4.821797104
167.38000,-2.68543625
167.38050,-0.2438809885
167.38100,0.9768966423
167.38150,0.9768966423
167.38200,1.28209105
167.38250,2.808063089
167.38300,5.24961835
167.38350,7.385979204
167.38400,7.996368019
167.38450,7.691173612
167.38500,6.470395981
167.38550,5.24961835
167.38600,5.24961835
167.38650,6.775590389
167.38700,8.606756835
167.38750,8.911951243
167.38800,5.860007166
167.38850,1.28209105
167.38900,-2.68543625
167.38950,-5.432185919
167.39000,-6.958157958
167.39050,-7.873741181
167.39100,-7.873741181
167.39150,-7.873741181
167.39200,-8.789324404
167.39250,-9.39971322
167.39300,-8.484129996
167.39350,-4.211408289
167.39400,0.06131341924
167.39450,2.502868681
167.39500,3.113257496
167.39550,4.028840719
167.39600,5.860007166
167.39650,6.775590389
167.39700,6.470395981
167.39750,7.385979204
167.39800,9.522340058
167.39850,11.3535065
167.39900,11.65870091
167.39950,10.74311769
167.40000,10.13272887
167.40050,9.827534466
167.40100,8.606756835
167.40150,6.165201573
167.40200,2.502868681
167.40250,-0.5490753962
167.40300,-0.8542698039
167.40350,2.197674273
167.40400,7.691173612
167.40450,12.87947854
167.40500,15.62622821
167.40550,17.15220025
167.40600,16.84700584
167.40650,14.71064499
167.40700,12.57428413
167.40750,11.3535065
167.40800,9.21714565
167.40850,1.892479865
167.40900,-8.178935589
167.40950,-14.58801815
167.41000,-13.36724052
167.41050,-8.789324404
167.41100,-7.263352366
167.41150,-8.484129996
167.41200,-8.789324404
167.41250,-7.873741181
167.41300,-7.263352366
167.41350,-5.737380327
167.41400,-0.8542698039
167.41450,5.554812758
167.41500,9.827534466
167.41550,10.43792328
167.41600,11.0483121
167.41650,14.40545058
167.41700,16.54181144
167.41750,14.10025617
167.41800,8.606756835
167.41850,4.334035127
167.41900,0.06131341924
167.41950,-9.39971322
167.42000,-24.3542392
167.42050,-36.86720991
167.42100,-40.2243484
167.42150,-36.2568211
167.42200,-31.37371057
167.42250,-28.6269609
167.42300,-26.18540564
167.42350,-22.52307275
167.42400,-17.94515664
167.42450,-14.28282374
167.42500,-10.92568526
167.42550,-7.568546773
167.42600,-4.821797104
167.42650,-1.464658619
167.42700,2.197674273
167.42750,6.165201573
167.42800,7.996368019
167.42850,6.470395981
167.42900,1.892479865
167.42950,-4.516602696
167.43000,-9.704907627
167.43050,-10.92568526
167.43100,-9.094518812
167.43150,-9.094518812
167.43200,-14.89321256
167.43250,-22.82826716
167.43300,-25.57501683
167.43350,-20.08151749
167.43400,-10.92568526
167.43450,-3.906213881
167.43500,-0.5490753962
167.43550,2.502868681
167.43600,7.996368019
167.43650,12.57428413
167.43700,12.26908973
167.43750,10.43792328
167.43800,14.40545058
167.43850,26.00283807
167.43900,37.29503116
167.43950,39.12619761
167.44000,32.41192064
167.44050,26.9184213
167.44100,27.52881011
167.44150,29.05478215
167.44200,26.61322689
167.44250,22.03531077
167.44300,19.89894992
167.44350,20.50933874
167.44400,19.89894992
167.44450,18.06778347
167.44500,15.93142262
167.44550,12.26908973
167.44600,4.334035127
167.44650,-6.347769142
167.44700,-15.19840697
167.44750,-17.63996223
167.44800,-16.11399019
167.44850,-14.28282374
167.44900,-13.67243493
167.44950,-13.36724052
167.45000,-11.53607407
167.45050,-9.094518812
167.45100,-7.873741181
167.45150,-9.094518812
167.45200,-11.53607407
167.45250,-13.06204611
167.45300,-12.14646289
167.45350,-10.01010203
167.45400,-8.178935589
167.45450,-7.568546773
167.45500,-7.873741181
167.45550,-9.094518812
167.45600,-10.01010203
167.45650,-7.873741181
167.45700,-2.380241842
167.45750,3.418451904
167.45800,6.775590389
167.45850,6.775590389
167.45900,6.470395981
167.45950,7.080784796
167.46000,7.691173612
167.46050,6.775590389
167.46100,4.334035127
167.46150,1.587285458
167.46200,0.06131341924
167.46250,-1.159464212
167.46300,-1.464658619
167.46350,-1.159464212
167.46400,-0.8542698039
167.46450,-0.2438809885
167.46500,0.6717022346
167.46550,1.892479865
167.46600,3.113257496
167.46650,4.028840719
167.46700,5.554812758
167.46750,7.080784796
167.46800,6.470395981
167.46850,4.028840719
167.46900,3.113257496
167.46950,4.028840719
167.47000,4.944423942
167.47050,3.113257496
167.47100,0.3665078269
167.47150,-0.8542698039
167.47200,-1.769853027
167.47250,-3.906213881
167.47300,-6.347769142
167.47350,-7.873741181
167.47400,-8.178935589
167.47450,-8.484129996
167.47500,-8.178935589
167.47550,-6.042574735
167.47600,-2.990630658
167.47650,-1.464658619
167.47700,-2.68543625
167.47750,-4.211408289
167.47800,-3.906213881
167.47850,-2.68543625
167.47900,-2.380241842
167.47950,-1.769853027
167.48000,0.06131341924
167.48050,1.892479865
167.48100,3.418451904
167.48150,4.028840719
167.48200,4.028840719
167.48250,3.418451904
167.48300,1.587285458
167.48350,0.06131341924
167.48400,0.06131341924
167.48450,1.28209105
167.48500,2.808063089
167.48550,4.028840719
167.48600,6.775590389
167.48650,10.43792328
167.48700,13.18467295
167.48750,12.57428413
167.48800,9.522340058
167.48850,6.165201573
167.48900,4.944423942
167.48950,6.165201573
167.49000,9.21714565
167.49050,11.65870091
167.49100,9.827534466
167.49150,4.028840719
167.49200,-0.8542698039
167.49250,-2.68543625
167.49300,-2.075047435
167.49350,-1.464658619
167.49400,-0.5490753962
167.49450,1.587285458
167.49500,4.334035127
167.49550,4.944423942
167.49600,3.418451904
167.49650,0.9768966423
167.49700,0.06131341924
167.49750,0.06131341924
167.49800,0.06131341924
167.49850,0.06131341924
167.49900,0.06131341924
167.49950,0.9768966423
167.50000,2.808063089
167.50050,3.113257496
167.50100,0.9768966423
167.50150,-2.380241842
167.50200,-5.737380327
167.50250,-8.178935589
167.50300,-10.31529644
167.50350,-11.53607407
167.50400,-10.92568526
167.50450,-9.094518812
167.50500,-7.873741181
167.50550,-8.789324404
167.50600,-9.094518812
167.50650,-6.042574735
167.50700,0.06131341924
167.50750,3.723646312
167.50800,2.808063089
167.50850,-2.68543625
167.50900,-8.789324404
167.50950,-11.23087967
167.51000,-10.01010203
167.51050,-6.65296355
167.51100,-3.295825065
167.51150,-0.5490753962
167.51200,1.587285458
167.51250,4.028840719
167.51300,6.165201573
167.51350,6.775590389
167.51400,7.080784796
167.51450,7.385979204
167.51500,7.691173612
167.51550,7.691173612
167.51600,7.691173612
167.51650,7.996368019
167.51700,7.996368019
167.51750,7.385979204
167.51800,5.24961835
167.51850,3.418451904
167.51900,2.197674273
167.51950,0.06131341924
167.52000,-4.516602696
167.52050,-11.53607407
167.52100,-16.724379
167.52150,-19.47112867
167.52200,-21.30229512
167.52250,-23.43865597
167.52300,-23.43865597
167.52350,-20.3867119
167.52400,-14.58801815
167.52450,-7.873741181
167.52500,-2.075047435
167.52550,1.28209105
167.52600,3.418451904
167.52650,7.385979204
167.52700,16.54181144
167.52750,28.44439334
167.52800,35.1586703
167.52850,32.71711504
167.52900,25.08725485
167.52950,18.37297788
167.53000,13.18467295
167.53050,6.165201573
167.53100,-2.68543625
167.53150,-9.704907627
167.53200,-11.53607407
167.53250,-8.178935589
167.53300,-2.68543625
167.53350,0.3665078269
167.53400,-0.8542698039
167.53450,-5.737380327
167.53500,-10.01010203
167.53550,-9.704907627
167.53600,-5.432185919
167.53650,0.06131341924
167.53700,4.334035127
167.53750,5.860007166
167.53800,3.113257496
167.53850,-1.769853027
167.53900,-5.432185919
167.53950,-5.126991512
167.54000,-2.990630658
167.54050,-1.159464212
167.54100,-0.5490753962
167.54150,-0.2438809885
167.54200,0.06131341924
167.54250,0.3665078269
167.54300,0.3665078269
167.54350,0.06131341924
167.54400,-0.2438809885
167.54450,0.3665078269
167.54500,2.808063089
167.54550,5.554812758
167.54600,6.775590389
167.54650,7.080784796
167.54700,7.691173612
167.54750,7.996368019
167.54800,6.775590389
167.54850,4.334035127
167.54900,2.197674273
167.54950,0.06131341924
167.55000,-2.990630658
167.55050,-9.704907627
167.55100,-17.33476782
167.55150,-22.82826716
167.55200,-24.04904479
167.55250,-21.91268394
167.55300,-19.47112867
167.55350,-18.55554545
167.55400,-19.16593427
167.55450,-20.08151749
167.55500,-20.08151749
167.55550,-19.47112867
167.55600,-17.63996223
167.55650,-15.19840697
167.55700,-14.28282374
167.55750,-15.80879578
167.55800,-17.63996223
167.55850,-15.80879578
167.55900,-12.14646289
167.55950,-11.23087967
167.56000,-11.84126848
167.56050,-8.484129996
167.56100,0.3665078269
167.56150,8.606756835
167.56200,11.65870091
167.56250,13.48986736
167.56300,19.2885611
167.56350,27.83400452
167.56400,33.32750386
167.56450,33.63269827
167.56500,31.80153182
167.56550,29.05478215
167.56600,24.78206044
167.56650,21.73011637
167.56700,22.03531077
167.56750,23.2560884
167.56800,21.73011637
167.56850,16.84700584
167.56900,12.26908973
167.56950,8.606756835
167.57000,4.334035127
167.57050,-0.2438809885
167.57100,-3.601019473
167.57150,-4.211408289
167.57200,-3.906213881
167.57250,-3.601019473
167.57300,-2.68543625
167.57350,-1.464658619
167.57400,-1.464658619
167.57450,-1.769853027
167.57500,0.06131341924
167.57550,3.418451904
167.57600,4.944423942
167.57650,3.418451904
167.57700,1.587285458
167.57750,1.587285458
167.57800,2.197674273
167.57850,1.587285458
167.57900,0.06131341924
167.57950,-1.159464212
167.58000,-1.159464212
167.58050,-0.8542698039
167.58100,-0.8542698039
167.58150,-0.8542698039
167.58200,-0.5490753962
167.58250,-0.2438809885
167.58300,-0.2438809885
167.58350,-0.8542698039
167.58400,-1.769853027
167.58450,-1.769853027
167.58500,-0.5490753962
167.58550,0.9768966423
167.58600,1.28209105
167.58650,0.3665078269
167.58700,-0.8542698039
167.58750,-1.769853027
167.58800,-1.769853027
167.58850,-0.8542698039
167.58900,-0.5490753962
167.58950,-1.159464212
167.59000,-2.380241842
167.59050,-3.601019473
167.59100,-5.126991512
167.59150,-6.65296355
167.59200,-6.958157958
167.59250,-6.042574735
167.59300,-5.432185919
167.59350,-5.432185919
167.59400,-3.601019473
167.59450,1.587285458
167.59500,7.996368019
167.59550,11.96389532
167.59600,12.87947854
167.59650,12.57428413
167.59700,11.65870091
167.59750,10.43792328
167.59800,9.21714565
167.59850,9.522340058
167.59900,7.385979204
167.59950,-0.2438809885
167.60000,-12.7568517
167.60050,-21.30229512
167.60100,-21.30229512
167.60150,-17.63996223
167.60200,-15.80879578
167.60250,-16.724379
167.60300,-17.02957341
167.60350,-15.50360137
167.60400,-12.4516573
167.60450,-7.873741181
167.60500,-2.68543625
167.60550,0.9768966423
167.60600,2.502868681
167.60650,3.723646312
167.60700,5.860007166
167.60750,6.775590389
167.60800,4.334035127
167.60850,0.6717022346
167.60900,-1.464658619
167.60950,-4.516602696
167.61000,-10.92568526
167.61050,-18.86073986
167.61100,-21.30229512
167.61150,-16.724379
167.61200,-12.4516573
167.61250,-13.06204611
167.61300,-13.97762934
167.61350,-7.568546773
167.61400,4.028840719
167.61450,11.65870091
167.61500,9.827534466
167.61550,3.113257496
167.61600,-0.2438809885
167.61650,2.197674273
167.61700,7.080784796
167.61750,9.827534466
167.61800,8.911951243
167.61850,5.554812758
167.61900,1.892479865
167.61950,0.06131341924
