"type","name","time_units","begin_time","frequency","count","units"
"signal","Ultium EMG-BRACHIORAD. RT","s",186.96000,2000,22000,"uV"

"time","value"
186.96000,11.87741594
186.96050,11.26702713
186.96100,11.26702713
186.96150,11.26702713
186.96200,10.35144391
186.96250,9.130666275
186.96300,7.909888645
186.96350,5.468333383
186.96400,1.806000491
186.96450,-1.245943586
186.96500,-3.687498848
186.96550,-4.908276479
186.96600,-5.823859702
186.96650,-7.044637333
186.96700,-8.265414964
186.96750,-8.570609371
186.96800,-7.960220556
186.96850,-7.34983174
186.96900,-7.960220556
186.96950,-8.875803779
186.97000,-8.875803779
186.97050,-7.655026148
186.97100,-7.044637333
186.97150,-6.739442925
186.97200,-5.518665294
186.97250,-3.992693256
186.97300,-3.38230444
186.97350,-4.908276479
186.97400,-6.434248517
186.97450,-5.823859702
186.97500,-2.771915625
186.97550,1.195611675
186.97600,5.468333383
186.97650,8.52027746
186.97700,9.435860683
186.97750,9.435860683
186.97800,9.741055091
186.97850,11.57222154
186.97900,12.48780476
186.97950,11.87741594
186.98000,10.96183272
186.98050,11.26702713
186.98100,11.26702713
186.98150,9.435860683
186.98200,7.604694237
186.98250,7.909888645
186.98300,9.435860683
186.98350,8.52027746
186.98400,6.078722198
186.98450,6.383916606
186.98500,8.825471868
186.98550,8.52027746
186.98600,1.806000491
186.98650,-7.34983174
186.98700,-13.14852549
186.98750,-15.28488634
186.98800,-17.7264416
186.98850,-21.08358009
186.98900,-23.52513535
186.98950,-23.52513535
186.99000,-22.60955213
186.99050,-20.77838568
186.99100,-17.7264416
186.99150,-12.84333108
186.99200,-8.265414964
186.99250,-5.823859702
186.99300,-3.992693256
186.99350,-1.551137994
186.99400,-0.02516595566
186.99450,0.5852228597
186.99500,1.195611675
186.99550,3.331972529
186.99600,6.689111014
186.99650,9.130666275
186.99700,9.741055091
186.99750,10.0462495
186.99800,11.26702713
186.99850,12.18261035
186.99900,12.79299917
186.99950,12.48780476
187.00000,11.57222154
187.00050,10.35144391
187.00100,8.215083052
187.00150,5.468333383
187.00200,3.637166937
187.00250,3.942361344
187.00300,5.163138975
187.00350,6.078722198
187.00400,4.55275016
187.00450,0.5852228597
187.00500,-4.603082071
187.00550,-9.180998187
187.00600,-12.23294226
187.00650,-13.14852549
187.00700,-12.53813667
187.00750,-11.31735904
187.00800,-11.01216463
187.00850,-12.23294226
187.00900,-13.7589143
187.00950,-13.45371989
187.01000,-10.70697023
187.01050,-8.875803779
187.01100,-10.70697023
187.01150,-13.45371989
187.01200,-12.53813667
187.01250,-6.739442925
187.01300,0.280028452
187.01350,4.55275016
187.01400,5.773527791
187.01450,4.857944568
187.01500,3.637166937
187.01550,3.026778121
187.01600,3.026778121
187.01650,3.026778121
187.01700,1.195611675
187.01750,-2.16152681
187.01800,-4.908276479
187.01850,-4.908276479
187.01900,-2.466721217
187.01950,-0.6355547711
187.02000,-1.551137994
187.02050,-4.908276479
187.02100,-8.265414964
187.02150,-9.486192594
187.02200,-7.044637333
187.02250,-2.466721217
187.02300,1.500806083
187.02350,2.721583714
187.02400,1.195611675
187.02450,0.5852228597
187.02500,4.55275016
187.02550,10.0462495
187.02600,11.87741594
187.02650,6.383916606
187.02700,-1.856332402
187.02750,-5.518665294
187.02800,-1.856332402
187.02850,4.247555752
187.02900,8.215083052
187.02950,9.741055091
187.03000,13.09819358
187.03050,19.81247054
187.03100,26.83194192
187.03150,30.18908041
187.03200,30.18908041
187.03250,29.57869159
187.03300,27.44233074
187.03350,19.81247054
187.03400,5.468333383
187.03450,-11.01216463
187.03500,-25.35630179
187.03550,-33.2913564
187.03600,-34.20693962
187.03650,-27.18746824
187.03700,-14.97969193
187.03750,-2.771915625
187.03800,3.637166937
187.03850,5.773527791
187.03900,6.994305421
187.03950,8.52027746
187.04000,8.215083052
187.04050,6.994305421
187.04100,6.383916606
187.04150,7.299499829
187.04200,7.299499829
187.04250,6.078722198
187.04300,4.857944568
187.04350,4.857944568
187.04400,3.637166937
187.04450,1.195611675
187.04500,-0.02516595566
187.04550,-0.3303603634
187.04600,-1.551137994
187.04650,-3.687498848
187.04700,-4.908276479
187.04750,-3.687498848
187.04800,-2.771915625
187.04850,-3.687498848
187.04900,-3.992693256
187.04950,-2.771915625
187.05000,-1.856332402
187.05050,-4.908276479
187.05100,-11.01216463
187.05150,-14.97969193
187.05200,-14.97969193
187.05250,-12.23294226
187.05300,-9.486192594
187.05350,-7.044637333
187.05400,-3.992693256
187.05450,-0.9407491788
187.05500,2.111194898
187.05550,5.773527791
187.05600,10.35144391
187.05650,13.70858239
187.05700,13.09819358
187.05750,10.35144391
187.05800,9.435860683
187.05850,12.18261035
187.05900,14.92936002
187.05950,13.40338798
187.06000,7.909888645
187.06050,3.331972529
187.06100,2.721583714
187.06150,4.247555752
187.06200,5.163138975
187.06250,5.468333383
187.06300,6.689111014
187.06350,8.215083052
187.06400,9.130666275
187.06450,9.435860683
187.06500,9.435860683
187.06550,9.435860683
187.06600,10.65663831
187.06650,14.62416561
187.06700,19.81247054
187.06750,21.03324818
187.06800,15.53974884
187.06850,5.468333383
187.06900,-4.603082071
187.06950,-13.14852549
187.07000,-18.03163601
187.07050,-17.11605279
187.07100,-12.84333108
187.07150,-11.01216463
187.07200,-13.7589143
187.07250,-16.81085838
187.07300,-14.67449753
187.07350,-8.875803779
187.07400,-5.518665294
187.07450,-5.518665294
187.07500,-4.603082071
187.07550,-1.551137994
187.07600,0.8904172674
187.07650,1.806000491
187.07700,3.026778121
187.07750,6.078722198
187.07800,10.35144391
187.07850,14.92936002
187.07900,18.59169291
187.07950,19.81247054
187.08000,16.76052647
187.08050,10.65663831
187.08100,5.468333383
187.08150,2.416389306
187.08200,0.8904172674
187.08250,-0.02516595566
187.08300,-1.245943586
187.08350,-3.38230444
187.08400,-8.570609371
187.08450,-15.28488634
187.08500,-19.86280246
187.08550,-19.55760805
187.08600,-16.20046956
187.08650,-12.23294226
187.08700,-8.570609371
187.08750,-6.12905411
187.08800,-6.12905411
187.08850,-7.34983174
187.08900,-8.265414964
187.08950,-7.960220556
187.09000,-8.570609371
187.09050,-9.791387002
187.09100,-9.180998187
187.09150,-6.739442925
187.09200,-4.908276479
187.09250,-4.908276479
187.09300,-4.603082071
187.09350,-3.077110033
187.09400,-2.771915625
187.09450,-5.213470887
187.09500,-7.34983174
187.09550,-6.12905411
187.09600,-1.551137994
187.09650,2.721583714
187.09700,6.078722198
187.09750,8.52027746
187.09800,10.35144391
187.09850,10.96183272
187.09900,10.0462495
187.09950,8.215083052
187.10000,5.773527791
187.10050,4.247555752
187.10100,5.468333383
187.10150,6.994305421
187.10200,5.163138975
187.10250,-0.9407491788
187.10300,-7.044637333
187.10350,-9.486192594
187.10400,-9.180998187
187.10450,-8.570609371
187.10500,-8.570609371
187.10550,-8.570609371
187.10600,-8.875803779
187.10650,-10.70697023
187.10700,-11.92774786
187.10750,-11.31735904
187.10800,-9.791387002
187.10850,-8.875803779
187.10900,-9.180998187
187.10950,-8.875803779
187.11000,-7.655026148
187.11050,-5.823859702
187.11100,-3.38230444
187.11150,-1.245943586
187.11200,-0.6355547711
187.11250,-1.245943586
187.11300,-1.245943586
187.11350,0.5852228597
187.11400,2.721583714
187.11450,3.026778121
187.11500,3.331972529
187.11550,5.773527791
187.11600,9.435860683
187.11650,10.96183272
187.11700,10.65663831
187.11750,11.26702713
187.11800,12.79299917
187.11850,13.09819358
187.11900,11.87741594
187.11950,10.96183272
187.12000,10.65663831
187.12050,9.435860683
187.12100,6.689111014
187.12150,3.331972529
187.12200,1.195611675
187.12250,-0.02516595566
187.12300,-1.551137994
187.12350,-3.687498848
187.12400,-5.823859702
187.12450,-8.570609371
187.12500,-10.09658141
187.12550,-8.570609371
187.12600,-4.908276479
187.12650,-2.466721217
187.12700,-2.466721217
187.12750,-3.077110033
187.12800,-1.245943586
187.12850,0.280028452
187.12900,-1.245943586
187.12950,-5.518665294
187.13000,-7.960220556
187.13050,-7.655026148
187.13100,-6.12905411
187.13150,-5.213470887
187.13200,-4.603082071
187.13250,-3.38230444
187.13300,-2.771915625
187.13350,-2.466721217
187.13400,-1.856332402
187.13450,-0.6355547711
187.13500,-0.3303603634
187.13550,-1.856332402
187.13600,-1.551137994
187.13650,3.942361344
187.13700,12.48780476
187.13750,17.67610969
187.13800,16.76052647
187.13850,12.48780476
187.13900,9.435860683
187.13950,7.909888645
187.14000,6.078722198
187.14050,4.247555752
187.14100,4.247555752
187.14150,6.078722198
187.14200,6.689111014
187.14250,4.247555752
187.14300,0.280028452
187.14350,-0.9407491788
187.14400,-0.3303603634
187.14450,0.5852228597
187.14500,0.8904172674
187.14550,-0.02516595566
187.14600,-1.551137994
187.14650,-4.603082071
187.14700,-8.570609371
187.14750,-11.31735904
187.14800,-12.23294226
187.14850,-12.23294226
187.14900,-11.92774786
187.14950,-11.31735904
187.15000,-10.40177582
187.15050,-9.791387002
187.15100,-9.791387002
187.15150,-9.791387002
187.15200,-8.875803779
187.15250,-7.044637333
187.15300,-3.687498848
187.15350,-0.9407491788
187.15400,-0.3303603634
187.15450,-0.9407491788
187.15500,0.5852228597
187.15550,5.468333383
187.15600,10.0462495
187.15650,12.48780476
187.15700,13.40338798
187.15750,16.45533206
187.15800,21.03324818
187.15850,24.08519225
187.15900,23.77999785
187.15950,20.72805377
187.16000,15.23455443
187.16050,7.909888645
187.16100,1.195611675
187.16150,-2.16152681
187.16200,-3.38230444
187.16250,-3.077110033
187.16300,-0.6355547711
187.16350,4.857944568
187.16400,11.57222154
187.16450,15.53974884
187.16500,15.23455443
187.16550,10.96183272
187.16600,3.026778121
187.16650,-7.34983174
187.16700,-18.03163601
187.16750,-26.27188502
187.16800,-32.07057876
187.16850,-34.81732843
187.16900,-31.46018995
187.16950,-20.16799686
187.17000,-7.34983174
187.17050,-0.9407491788
187.17100,-2.771915625
187.17150,-7.34983174
187.17200,-8.265414964
187.17250,-5.213470887
187.17300,-0.6355547711
187.17350,3.331972529
187.17400,5.163138975
187.17450,3.026778121
187.17500,-0.9407491788
187.17550,-3.38230444
187.17600,-1.245943586
187.17650,3.637166937
187.17700,8.215083052
187.17750,10.96183272
187.17800,12.79299917
187.17850,14.31897121
187.17900,15.53974884
187.17950,16.15013765
187.18000,16.45533206
187.18050,15.84494324
187.18100,14.62416561
187.18150,13.09819358
187.18200,11.57222154
187.18250,9.741055091
187.18300,7.604694237
187.18350,5.773527791
187.18400,4.857944568
187.18450,3.331972529
187.18500,0.280028452
187.18550,-5.213470887
187.18600,-13.14852549
187.18650,-21.38877449
187.18700,-28.10305146
187.18750,-30.84980113
187.18800,-29.6290235
187.18850,-26.27188502
187.18900,-22.91474653
187.18950,-19.55760805
187.19000,-15.59008075
187.19050,-12.23294226
187.19100,-10.70697023
187.19150,-10.70697023
187.19200,-9.486192594
187.19250,-6.434248517
187.19300,-3.077110033
187.19350,-0.02516595566
187.19400,4.55275016
187.19450,10.35144391
187.19500,15.23455443
187.19550,18.89688732
187.19600,23.47480344
187.19650,29.57869159
187.19700,34.46180211
187.19750,34.76699652
187.19800,30.18908041
187.19850,23.77999785
187.19900,17.06572088
187.19950,10.0462495
187.20000,3.637166937
187.20050,-1.551137994
187.20100,-6.739442925
187.20150,-11.31735904
187.20200,-14.67449753
187.20250,-14.97969193
187.20300,-11.62255345
187.20350,-7.655026148
187.20400,-6.12905411
187.20450,-6.434248517
187.20500,-5.823859702
187.20550,-2.16152681
187.20600,0.280028452
187.20650,-1.245943586
187.20700,-4.908276479
187.20750,-5.213470887
187.20800,-1.245943586
187.20850,0.8904172674
187.20900,-1.245943586
187.20950,-4.908276479
187.21000,-5.823859702
187.21050,-6.739442925
187.21100,-10.40177582
187.21150,-14.36930312
187.21200,-13.45371989
187.21250,-9.486192594
187.21300,-7.960220556
187.21350,-9.486192594
187.21400,-8.875803779
187.21450,-4.297887663
187.21500,0.280028452
187.21550,3.026778121
187.21600,4.55275016
187.21650,7.299499829
187.21700,9.435860683
187.21750,9.130666275
187.21800,8.825471868
187.21850,10.35144391
187.21900,12.79299917
187.21950,13.70858239
187.22000,12.48780476
187.22050,11.87741594
187.22100,12.48780476
187.22150,13.40338798
187.22200,12.79299917
187.22250,11.87741594
187.22300,11.87741594
187.22350,11.57222154
187.22400,9.130666275
187.22450,4.857944568
187.22500,0.8904172674
187.22550,-1.245943586
187.22600,-3.077110033
187.22650,-5.518665294
187.22700,-8.265414964
187.22750,-10.40177582
187.22800,-12.53813667
187.22850,-14.97969193
187.22900,-16.81085838
187.22950,-17.42124719
187.23000,-17.42124719
187.23050,-17.7264416
187.23100,-16.81085838
187.23150,-11.92774786
187.23200,-5.518665294
187.23250,-1.551137994
187.23300,-3.077110033
187.23350,-6.434248517
187.23400,-7.044637333
187.23450,-4.297887663
187.23500,-1.245943586
187.23550,-0.02516595566
187.23600,-0.02516595566
187.23650,1.195611675
187.23700,4.247555752
187.23750,6.383916606
187.23800,6.383916606
187.23850,4.857944568
187.23900,4.247555752
187.23950,6.078722198
187.24000,10.0462495
187.24050,13.70858239
187.24100,15.23455443
187.24150,14.62416561
187.24200,14.62416561
187.24250,16.76052647
187.24300,19.20208173
187.24350,20.42285936
187.24400,20.11766495
187.24450,19.20208173
187.24500,17.37091528
187.24550,13.70858239
187.24600,8.825471868
187.24650,4.55275016
187.24700,0.8904172674
187.24750,-3.687498848
187.24800,-9.791387002
187.24850,-14.67449753
187.24900,-15.89527516
187.24950,-14.67449753
187.25000,-13.7589143
187.25050,-14.67449753
187.25100,-15.59008075
187.25150,-13.14852549
187.25200,-7.044637333
187.25250,-0.02516595566
187.25300,3.942361344
187.25350,3.026778121
187.25400,0.8904172674
187.25450,1.806000491
187.25500,5.163138975
187.25550,6.689111014
187.25600,3.942361344
187.25650,-0.9407491788
187.25700,-4.297887663
187.25750,-3.38230444
187.25800,-0.9407491788
187.25850,0.5852228597
187.25900,1.195611675
187.25950,2.111194898
187.26000,3.637166937
187.26050,3.637166937
187.26100,0.8904172674
187.26150,-1.856332402
187.26200,-4.603082071
187.26250,-7.044637333
187.26300,-9.791387002
187.26350,-11.62255345
187.26400,-11.92774786
187.26450,-12.53813667
187.26500,-13.7589143
187.26550,-13.45371989
187.26600,-10.40177582
187.26650,-7.34983174
187.26700,-8.265414964
187.26750,-11.01216463
187.26800,-11.92774786
187.26850,-10.09658141
187.26900,-7.34983174
187.26950,-5.213470887
187.27000,-1.551137994
187.27050,3.942361344
187.27100,11.26702713
187.27150,17.37091528
187.27200,20.11766495
187.27250,16.76052647
187.27300,6.078722198
187.27350,-6.739442925
187.27400,-15.59008075
187.27450,-17.11605279
187.27500,-11.92774786
187.27550,-4.908276479
187.27600,0.280028452
187.27650,2.721583714
187.27700,3.637166937
187.27750,6.689111014
187.27800,11.26702713
187.27850,14.0137768
187.27900,11.57222154
187.27950,6.994305421
187.28000,4.247555752
187.28050,4.247555752
187.28100,4.55275016
187.28150,4.55275016
187.28200,4.55275016
187.28250,4.55275016
187.28300,2.721583714
187.28350,-0.02516595566
187.28400,-1.856332402
187.28450,-2.771915625
187.28500,-3.687498848
187.28550,-5.213470887
187.28600,-6.12905411
187.28650,-7.044637333
187.28700,-10.09658141
187.28750,-13.14852549
187.28800,-13.14852549
187.28850,-9.486192594
187.28900,-7.34983174
187.28950,-8.570609371
187.29000,-10.09658141
187.29050,-8.875803779
187.29100,-7.34983174
187.29150,-8.875803779
187.29200,-11.01216463
187.29250,-7.960220556
187.29300,-1.245943586
187.29350,3.026778121
187.29400,3.026778121
187.29450,2.416389306
187.29500,4.857944568
187.29550,9.130666275
187.29600,12.48780476
187.29650,16.76052647
187.29700,21.33844258
187.29750,23.16960903
187.29800,20.42285936
187.29850,17.37091528
187.29900,18.59169291
187.29950,21.9488314
187.30000,23.16960903
187.30050,21.33844258
187.30100,20.11766495
187.30150,18.89688732
187.30200,14.92936002
187.30250,9.130666275
187.30300,5.468333383
187.30350,5.163138975
187.30400,5.163138975
187.30450,3.637166937
187.30500,2.111194898
187.30550,1.806000491
187.30600,0.8904172674
187.30650,-3.38230444
187.30700,-9.180998187
187.30750,-14.06410871
187.30800,-18.33683042
187.30850,-22.91474653
187.30900,-25.05110739
187.30950,-21.38877449
187.31000,-14.67449753
187.31050,-9.791387002
187.31100,-8.265414964
187.31150,-6.739442925
187.31200,-3.687498848
187.31250,-3.687498848
187.31300,-10.40177582
187.31350,-18.94721923
187.31400,-22.30435772
187.31450,-19.86280246
187.31500,-16.20046956
187.31550,-12.84333108
187.31600,-8.265414964
187.31650,-1.551137994
187.31700,4.55275016
187.31750,8.52027746
187.31800,11.26702713
187.31850,13.09819358
187.31900,10.96183272
187.31950,3.331972529
187.32000,-4.908276479
187.32050,-9.180998187
187.32100,-7.960220556
187.32150,-3.992693256
187.32200,1.195611675
187.32250,7.604694237
187.32300,13.70858239
187.32350,17.9813041
187.32400,21.33844258
187.32450,24.69558107
187.32500,26.83194192
187.32550,24.08519225
187.32600,16.45533206
187.32650,7.299499829
187.32700,-1.856332402
187.32750,-12.84333108
187.32800,-24.13552416
187.32850,-30.54460673
187.32900,-28.40824587
187.32950,-20.77838568
187.33000,-14.36930312
187.33050,-12.84333108
187.33100,-13.45371989
187.33150,-12.84333108
187.33200,-9.486192594
187.33250,-4.603082071
187.33300,-0.02516595566
187.33350,3.331972529
187.33400,4.857944568
187.33450,5.773527791
187.33500,8.215083052
187.33550,10.96183272
187.33600,11.26702713
187.33650,7.909888645
187.33700,3.331972529
187.33750,1.500806083
187.33800,3.026778121
187.33850,6.994305421
187.33900,11.26702713
187.33950,15.23455443
187.34000,18.59169291
187.34050,19.50727614
187.34100,17.37091528
187.34150,13.70858239
187.34200,9.741055091
187.34250,6.994305421
187.34300,5.163138975
187.34350,3.637166937
187.34400,3.026778121
187.34450,3.026778121
187.34500,2.721583714
187.34550,1.806000491
187.34600,0.5852228597
187.34650,-0.6355547711
187.34700,-1.551137994
187.34750,-2.16152681
187.34800,-2.771915625
187.34850,-4.908276479
187.34900,-8.875803779
187.34950,-12.23294226
187.35000,-11.62255345
187.35050,-7.34983174
187.35100,-4.908276479
187.35150,-7.960220556
187.35200,-13.14852549
187.35250,-13.7589143
187.35300,-9.180998187
187.35350,-5.213470887
187.35400,-5.213470887
187.35450,-5.823859702
187.35500,-3.687498848
187.35550,-1.551137994
187.35600,-3.077110033
187.35650,-5.213470887
187.35700,-2.16152681
187.35750,4.857944568
187.35800,10.0462495
187.35850,10.0462495
187.35900,8.52027746
187.35950,9.130666275
187.36000,9.435860683
187.36050,6.689111014
187.36100,2.416389306
187.36150,-0.02516595566
187.36200,-0.6355547711
187.36250,-3.077110033
187.36300,-7.34983174
187.36350,-9.180998187
187.36400,-5.518665294
187.36450,0.8904172674
187.36500,4.857944568
187.36550,3.331972529
187.36600,-0.3303603634
187.36650,-3.687498848
187.36700,-5.213470887
187.36750,-5.518665294
187.36800,-3.992693256
187.36850,-0.3303603634
187.36900,1.806000491
187.36950,0.5852228597
187.37000,-2.466721217
187.37050,-4.297887663
187.37100,-3.687498848
187.37150,-4.603082071
187.37200,-7.34983174
187.37250,-8.570609371
187.37300,-5.823859702
187.37350,-2.466721217
187.37400,-2.771915625
187.37450,-4.908276479
187.37500,-4.908276479
187.37550,-2.771915625
187.37600,-0.6355547711
187.37650,-0.3303603634
187.37700,0.280028452
187.37750,3.942361344
187.37800,8.825471868
187.37850,14.0137768
187.37900,18.28649851
187.37950,21.03324818
187.38000,22.25402581
187.38050,21.64363699
187.38100,19.81247054
187.38150,16.45533206
187.38200,9.741055091
187.38250,0.5852228597
187.38300,-7.34983174
187.38350,-11.01216463
187.38400,-9.180998187
187.38450,-4.603082071
187.38500,-0.9407491788
187.38550,-0.02516595566
187.38600,-2.466721217
187.38650,-6.434248517
187.38700,-8.265414964
187.38750,-7.044637333
187.38800,-7.044637333
187.38850,-11.01216463
187.38900,-16.50566397
187.38950,-18.64202483
187.39000,-16.81085838
187.39050,-13.7589143
187.39100,-11.62255345
187.39150,-9.791387002
187.39200,-8.265414964
187.39250,-8.875803779
187.39300,-9.791387002
187.39350,-7.34983174
187.39400,-2.16152681
187.39450,0.8904172674
187.39500,0.8904172674
187.39550,1.195611675
187.39600,3.026778121
187.39650,3.637166937
187.39700,1.806000491
187.39750,1.806000491
187.39800,5.163138975
187.39850,8.52027746
187.39900,6.689111014
187.39950,3.026778121
187.40000,1.195611675
187.40050,1.806000491
187.40100,2.111194898
187.40150,1.500806083
187.40200,0.8904172674
187.40250,0.280028452
187.40300,-0.3303603634
187.40350,-0.9407491788
187.40400,-0.6355547711
187.40450,-0.9407491788
187.40500,-0.9407491788
187.40550,-0.3303603634
187.40600,0.280028452
187.40650,-0.02516595566
187.40700,-1.245943586
187.40750,-2.466721217
187.40800,-3.992693256
187.40850,-7.655026148
187.40900,-11.31735904
187.40950,-11.31735904
187.41000,-8.875803779
187.41050,-7.960220556
187.41100,-8.875803779
187.41150,-8.570609371
187.41200,-4.908276479
187.41250,-0.6355547711
187.41300,1.806000491
187.41350,3.942361344
187.41400,6.994305421
187.41450,8.52027746
187.41500,7.604694237
187.41550,6.078722198
187.41600,5.468333383
187.41650,4.55275016
187.41700,2.721583714
187.41750,1.806000491
187.41800,1.500806083
187.41850,1.195611675
187.41900,1.195611675
187.41950,3.637166937
187.42000,7.299499829
187.42050,8.215083052
187.42100,5.773527791
187.42150,4.247555752
187.42200,6.994305421
187.42250,11.87741594
187.42300,15.53974884
187.42350,18.28649851
187.42400,20.11766495
187.42450,20.11766495
187.42500,16.76052647
187.42550,11.26702713
187.42600,5.468333383
187.42650,0.8904172674
187.42700,-1.856332402
187.42750,-3.38230444
187.42800,-5.213470887
187.42850,-8.570609371
187.42900,-12.84333108
187.42950,-14.06410871
187.43000,-10.70697023
187.43050,-6.12905411
187.43100,-3.077110033
187.43150,-1.856332402
187.43200,-1.245943586
187.43250,-0.3303603634
187.43300,0.8904172674
187.43350,3.026778121
187.43400,4.857944568
187.43450,4.55275016
187.43500,1.806000491
187.43550,-1.856332402
187.43600,-3.38230444
187.43650,-2.466721217
187.43700,-0.02516595566
187.43750,1.195611675
187.43800,1.806000491
187.43850,2.721583714
187.43900,4.857944568
187.43950,7.909888645
187.44000,10.96183272
187.44050,13.40338798
187.44100,14.92936002
187.44150,15.53974884
187.44200,14.62416561
187.44250,11.26702713
187.44300,6.689111014
187.44350,0.5852228597
187.44400,-5.823859702
187.44450,-11.92774786
187.44500,-14.36930312
187.44550,-11.62255345
187.44600,-4.297887663
187.44650,3.026778121
187.44700,7.299499829
187.44750,6.383916606
187.44800,2.721583714
187.44850,-0.6355547711
187.44900,-2.16152681
187.44950,-2.771915625
187.45000,-3.38230444
187.45050,-3.38230444
187.45100,-1.856332402
187.45150,-0.6355547711
187.45200,-1.551137994
187.45250,-2.771915625
187.45300,-1.245943586
187.45350,2.721583714
187.45400,6.994305421
187.45450,9.130666275
187.45500,10.0462495
187.45550,10.0462495
187.45600,8.52027746
187.45650,6.689111014
187.45700,6.689111014
187.45750,7.604694237
187.45800,4.857944568
187.45850,-2.16152681
187.45900,-8.875803779
187.45950,-8.875803779
187.46000,-5.213470887
187.46050,-4.603082071
187.46100,-8.570609371
187.46150,-12.84333108
187.46200,-13.7589143
187.46250,-12.23294226
187.46300,-11.31735904
187.46350,-11.31735904
187.46400,-10.09658141
187.46450,-7.960220556
187.46500,-7.655026148
187.46550,-11.31735904
187.46600,-17.42124719
187.46650,-21.99916331
187.46700,-22.91474653
187.46750,-21.38877449
187.46800,-18.64202483
187.46850,-14.67449753
187.46900,-9.180998187
187.46950,-3.687498848
187.47000,-2.466721217
187.47050,-5.518665294
187.47100,-9.486192594
187.47150,-11.01216463
187.47200,-11.92774786
187.47250,-13.45371989
187.47300,-13.7589143
187.47350,-10.40177582
187.47400,-5.518665294
187.47450,-3.992693256
187.47500,-6.12905411
187.47550,-7.655026148
187.47600,-4.297887663
187.47650,0.8904172674
187.47700,4.857944568
187.47750,6.994305421
187.47800,9.130666275
187.47850,11.26702713
187.47900,12.79299917
187.47950,14.31897121
187.48000,16.15013765
187.48050,18.89688732
187.48100,21.64363699
187.48150,25.00077548
187.48200,28.05271955
187.48250,30.49427481
187.48300,31.40985804
187.48350,30.49427481
187.48400,28.05271955
187.48450,22.86441462
187.48500,15.84494324
187.48550,6.994305421
187.48600,-2.466721217
187.48650,-11.62255345
187.48700,-17.42124719
187.48750,-17.42124719
187.48800,-13.7589143
187.48850,-10.09658141
187.48900,-7.34983174
187.48950,-5.518665294
187.49000,-4.297887663
187.49050,-4.908276479
187.49100,-6.739442925
187.49150,-7.044637333
187.49200,-6.12905411
187.49250,-6.434248517
187.49300,-8.265414964
187.49350,-9.486192594
187.49400,-7.34983174
187.49450,-4.297887663
187.49500,-2.771915625
187.49550,-2.466721217
187.49600,-1.245943586
187.49650,1.500806083
187.49700,5.468333383
187.49750,8.215083052
187.49800,10.0462495
187.49850,11.87741594
187.49900,15.23455443
187.49950,20.42285936
187.50000,25.30596988
187.50050,27.74752515
187.50100,26.22155311
187.50150,22.25402581
187.50200,17.06572088
187.50250,12.18261035
187.50300,7.909888645
187.50350,3.026778121
187.50400,-2.466721217
187.50450,-7.34983174
187.50500,-8.875803779
187.50550,-7.044637333
187.50600,-4.603082071
187.50650,-4.297887663
187.50700,-5.518665294
187.50750,-6.434248517
187.50800,-6.739442925
187.50850,-7.960220556
187.50900,-9.486192594
187.50950,-11.31735904
187.51000,-12.53813667
187.51050,-12.84333108
187.51100,-11.92774786
187.51150,-11.01216463
187.51200,-11.62255345
187.51250,-14.36930312
187.51300,-17.11605279
187.51350,-17.7264416
187.51400,-16.50566397
187.51450,-14.36930312
187.51500,-11.31735904
187.51550,-7.960220556
187.51600,-5.213470887
187.51650,-3.992693256
187.51700,-3.077110033
187.51750,-2.16152681
187.51800,-1.551137994
187.51850,-2.466721217
187.51900,-2.16152681
187.51950,2.416389306
187.52000,9.130666275
187.52050,14.31897121
187.52100,15.53974884
187.52150,14.92936002
187.52200,13.70858239
187.52250,12.48780476
187.52300,10.65663831
187.52350,8.215083052
187.52400,5.468333383
187.52450,3.331972529
187.52500,3.637166937
187.52550,8.52027746
187.52600,14.62416561
187.52650,16.45533206
187.52700,13.70858239
187.52750,9.741055091
187.52800,7.299499829
187.52850,4.857944568
187.52900,-0.3303603634
187.52950,-8.875803779
187.53000,-17.42124719
187.53050,-22.60955213
187.53100,-21.99916331
187.53150,-17.11605279
187.53200,-11.92774786
187.53250,-9.486192594
187.53300,-7.655026148
187.53350,-3.077110033
187.53400,2.721583714
187.53450,6.689111014
187.53500,6.994305421
187.53550,6.994305421
187.53600,7.909888645
187.53650,7.604694237
187.53700,6.078722198
187.53750,5.163138975
187.53800,4.857944568
187.53850,1.500806083
187.53900,-4.908276479
187.53950,-9.486192594
187.54000,-8.265414964
187.54050,-4.297887663
187.54100,-2.16152681
187.54150,-0.6355547711
187.54200,3.026778121
187.54250,8.215083052
187.54300,9.435860683
187.54350,6.689111014
187.54400,3.942361344
187.54450,4.247555752
187.54500,5.468333383
187.54550,6.078722198
187.54600,8.215083052
187.54650,12.48780476
187.54700,14.62416561
187.54750,9.741055091
187.54800,-0.6355547711
187.54850,-10.70697023
187.54900,-15.59008075
187.54950,-16.20046956
187.55000,-15.89527516
187.55050,-16.50566397
187.55100,-17.11605279
187.55150,-15.28488634
187.55200,-11.31735904
187.55250,-7.34983174
187.55300,-4.297887663
187.55350,-1.856332402
187.55400,0.5852228597
187.55450,2.416389306
187.55500,1.806000491
187.55550,-2.16152681
187.55600,-6.434248517
187.55650,-6.12905411
187.55700,-0.02516595566
187.55750,4.857944568
187.55800,3.942361344
187.55850,-1.245943586
187.55900,-5.518665294
187.55950,-4.908276479
187.56000,-3.077110033
187.56050,-2.771915625
187.56100,-2.16152681
187.56150,0.8904172674
187.56200,5.468333383
187.56250,6.994305421
187.56300,3.637166937
187.56350,-1.856332402
187.56400,-6.739442925
187.56450,-7.960220556
187.56500,-5.518665294
187.56550,-1.551137994
187.56600,-0.3303603634
187.56650,-3.38230444
187.56700,-7.34983174
187.56750,-9.180998187
187.56800,-9.180998187
187.56850,-9.486192594
187.56900,-9.486192594
187.56950,-7.960220556
187.57000,-8.265414964
187.57050,-13.45371989
187.57100,-21.99916331
187.57150,-26.57707943
187.57200,-23.52513535
187.57250,-16.20046956
187.57300,-9.791387002
187.57350,-3.992693256
187.57400,3.026778121
187.57450,10.0462495
187.57500,14.62416561
187.57550,15.84494324
187.57600,16.15013765
187.57650,16.15013765
187.57700,15.53974884
187.57750,15.53974884
187.57800,16.45533206
187.57850,18.28649851
187.57900,19.20208173
187.57950,20.11766495
187.58000,22.86441462
187.58050,25.61116429
187.58100,25.9163587
187.58150,23.77999785
187.58200,23.16960903
187.58250,26.83194192
187.58300,30.79946922
187.58350,31.10466363
187.58400,26.52674751
187.58450,19.20208173
187.58500,9.741055091
187.58550,-1.245943586
187.58600,-11.92774786
187.58650,-18.94721923
187.58700,-20.47319127
187.58750,-18.94721923
187.58800,-17.7264416
187.58850,-17.42124719
187.58900,-17.11605279
187.58950,-15.28488634
187.59000,-12.53813667
187.59050,-9.486192594
187.59100,-6.12905411
187.59150,-3.687498848
187.59200,-3.38230444
187.59250,-5.823859702
187.59300,-9.486192594
187.59350,-10.09658141
187.59400,-5.823859702
187.59450,-0.02516595566
187.59500,2.416389306
187.59550,1.806000491
187.59600,1.500806083
187.59650,4.247555752
187.59700,7.604694237
187.59750,7.299499829
187.59800,3.942361344
187.59850,0.8904172674
187.59900,0.280028452
187.59950,1.500806083
187.60000,3.942361344
187.60050,6.383916606
187.60100,8.215083052
187.60150,9.130666275
187.60200,9.435860683
187.60250,9.741055091
187.60300,9.130666275
187.60350,8.215083052
187.60400,7.299499829
187.60450,7.604694237
187.60500,6.994305421
187.60550,2.721583714
187.60600,-3.992693256
187.60650,-9.791387002
187.60700,-12.84333108
187.60750,-14.36930312
187.60800,-15.28488634
187.60850,-14.97969193
187.60900,-12.84333108
187.60950,-9.791387002
187.61000,-7.34983174
187.61050,-5.518665294
187.61100,-4.297887663
187.61150,-5.823859702
187.61200,-11.01216463
187.61250,-16.50566397
187.61300,-19.25241364
187.61350,-17.7264416
187.61400,-14.67449753
187.61450,-12.53813667
187.61500,-11.62255345
187.61550,-10.40177582
187.61600,-8.265414964
187.61650,-4.297887663
187.61700,-0.6355547711
187.61750,1.195611675
187.61800,1.500806083
187.61850,1.806000491
187.61900,3.637166937
187.61950,4.857944568
187.62000,3.942361344
187.62050,2.416389306
187.62100,4.55275016
187.62150,10.65663831
187.62200,16.76052647
187.62250,19.50727614
187.62300,19.50727614
187.62350,18.28649851
187.62400,16.15013765
187.62450,13.09819358
187.62500,10.65663831
187.62550,11.26702713
187.62600,13.70858239
187.62650,15.53974884
187.62700,14.62416561
187.62750,12.79299917
187.62800,10.35144391
187.62850,6.383916606
187.62900,-0.02516595566
187.62950,-7.960220556
187.63000,-14.67449753
187.63050,-17.7264416
187.63100,-16.81085838
187.63150,-14.06410871
187.63200,-11.31735904
187.63250,-9.486192594
187.63300,-7.655026148
187.63350,-4.297887663
187.63400,-0.6355547711
187.63450,0.280028452
187.63500,-0.9407491788
187.63550,-2.466721217
187.63600,-0.3303603634
187.63650,3.331972529
187.63700,6.078722198
187.63750,6.383916606
187.63800,5.468333383
187.63850,4.857944568
187.63900,5.163138975
187.63950,5.773527791
187.64000,6.383916606
187.64050,6.078722198
187.64100,5.468333383
187.64150,6.078722198
187.64200,7.909888645
187.64250,9.435860683
187.64300,9.435860683
187.64350,8.52027746
187.64400,7.604694237
187.64450,6.078722198
187.64500,2.721583714
187.64550,-0.02516595566
187.64600,-2.771915625
187.64650,-5.823859702
187.64700,-9.486192594
187.64750,-11.62255345
187.64800,-10.09658141
187.64850,-7.655026148
187.64900,-8.265414964
187.64950,-11.31735904
187.65000,-13.7589143
187.65050,-14.36930312
187.65100,-14.36930312
187.65150,-14.67449753
187.65200,-12.84333108
187.65250,-7.960220556
187.65300,-3.077110033
187.65350,-1.551137994
187.65400,-2.466721217
187.65450,-2.771915625
187.65500,-2.16152681
187.65550,-0.9407491788
187.65600,-0.02516595566
187.65650,0.280028452
187.65700,0.8904172674
187.65750,2.111194898
187.65800,4.247555752
187.65850,6.383916606
187.65900,7.604694237
187.65950,7.299499829
187.66000,6.078722198
187.66050,5.163138975
187.66100,4.857944568
187.66150,5.163138975
187.66200,4.857944568
187.66250,2.416389306
187.66300,-1.245943586
187.66350,-3.992693256
187.66400,-4.603082071
187.66450,-3.992693256
187.66500,-4.603082071
187.66550,-4.297887663
187.66600,-0.9407491788
187.66650,3.331972529
187.66700,4.55275016
187.66750,1.500806083
187.66800,-2.16152681
187.66850,-4.297887663
187.66900,-5.518665294
187.66950,-7.655026148
187.67000,-10.09658141
187.67050,-11.01216463
187.67100,-11.62255345
187.67150,-13.7589143
187.67200,-15.28488634
187.67250,-13.7589143
187.67300,-10.70697023
187.67350,-10.70697023
187.67400,-13.45371989
187.67450,-14.67449753
187.67500,-11.01216463
187.67550,-5.518665294
187.67600,-3.38230444
187.67650,-4.908276479
187.67700,-7.044637333
187.67750,-6.739442925
187.67800,-3.992693256
187.67850,-0.6355547711
187.67900,2.721583714
187.67950,7.604694237
187.68000,14.92936002
187.68050,24.69558107
187.68100,35.37738534
187.68150,44.53321757
187.68200,50.63710572
187.68250,52.77346658
187.68300,50.02671691
187.68350,41.17607908
187.68400,27.44233074
187.68450,13.40338798
187.68500,4.247555752
187.68550,1.195611675
187.68600,2.721583714
187.68650,4.857944568
187.68700,3.942361344
187.68750,-0.3303603634
187.68800,-6.739442925
187.68850,-11.01216463
187.68900,-11.31735904
187.68950,-9.791387002
187.69000,-7.34983174
187.69050,-5.213470887
187.69100,-4.297887663
187.69150,-6.12905411
187.69200,-9.791387002
187.69250,-12.23294226
187.69300,-11.62255345
187.69350,-7.655026148
187.69400,-3.077110033
187.69450,0.8904172674
187.69500,3.942361344
187.69550,6.078722198
187.69600,6.689111014
187.69650,5.773527791
187.69700,4.55275016
187.69750,4.55275016
187.69800,6.078722198
187.69850,8.52027746
187.69900,10.35144391
187.69950,10.96183272
187.70000,10.65663831
187.70050,8.215083052
187.70100,3.637166937
187.70150,-1.551137994
187.70200,-4.297887663
187.70250,-1.551137994
187.70300,1.195611675
187.70350,-0.02516595566
187.70400,-4.603082071
187.70450,-6.12905411
187.70500,-2.466721217
187.70550,1.500806083
187.70600,0.8904172674
187.70650,-3.687498848
187.70700,-9.180998187
187.70750,-13.45371989
187.70800,-16.81085838
187.70850,-18.64202483
187.70900,-18.64202483
187.70950,-18.64202483
187.71000,-19.86280246
187.71050,-20.47319127
187.71100,-18.03163601
187.71150,-16.50566397
187.71200,-20.47319127
187.71250,-29.01863469
187.71300,-34.20693962
187.71350,-32.37577317
187.71400,-25.6614962
187.71450,-18.94721923
187.71500,-12.23294226
187.71550,-4.603082071
187.71600,1.500806083
187.71650,5.163138975
187.71700,6.689111014
187.71750,6.994305421
187.71800,5.773527791
187.71850,3.942361344
187.71900,3.942361344
187.71950,6.689111014
187.72000,6.689111014
187.72050,-0.3303603634
187.72100,-11.31735904
187.72150,-18.03163601
187.72200,-18.03163601
187.72250,-15.28488634
187.72300,-13.14852549
187.72350,-9.180998187
187.72400,-2.16152681
187.72450,4.55275016
187.72500,8.215083052
187.72550,10.65663831
187.72600,13.70858239
187.72650,16.45533206
187.72700,17.06572088
187.72750,16.76052647
187.72800,17.9813041
187.72850,19.20208173
187.72900,18.59169291
187.72950,15.53974884
187.73000,11.87741594
187.73050,7.299499829
187.73100,1.195611675
187.73150,-5.823859702
187.73200,-11.92774786
187.73250,-14.97969193
187.73300,-14.97969193
187.73350,-12.53813667
187.73400,-7.960220556
187.73450,-2.771915625
187.73500,0.5852228597
187.73550,1.500806083
187.73600,1.806000491
187.73650,3.026778121
187.73700,4.857944568
187.73750,6.078722198
187.73800,7.604694237
187.73850,9.130666275
187.73900,10.35144391
187.73950,10.35144391
187.74000,9.130666275
187.74050,7.299499829
187.74100,5.468333383
187.74150,3.026778121
187.74200,0.5852228597
187.74250,-0.02516595566
187.74300,0.5852228597
187.74350,2.721583714
187.74400,4.247555752
187.74450,4.857944568
187.74500,4.55275016
187.74550,3.637166937
187.74600,2.721583714
187.74650,0.8904172674
187.74700,-1.551137994
187.74750,-4.297887663
187.74800,-6.12905411
187.74850,-6.12905411
187.74900,-6.434248517
187.74950,-9.180998187
187.75000,-14.36930312
187.75050,-18.03163601
187.75100,-15.59008075
187.75150,-7.34983174
187.75200,2.111194898
187.75250,10.0462495
187.75300,15.53974884
187.75350,19.50727614
187.75400,21.03324818
187.75450,17.06572088
187.75500,8.215083052
187.75550,-1.551137994
187.75600,-7.960220556
187.75650,-8.265414964
187.75700,-3.38230444
187.75750,3.942361344
187.75800,10.96183272
187.75850,15.84494324
187.75900,19.20208173
187.75950,22.55922021
187.76000,25.30596988
187.76050,26.52674751
187.76100,25.61116429
187.76150,22.86441462
187.76200,19.50727614
187.76250,15.84494324
187.76300,11.57222154
187.76350,6.689111014
187.76400,1.500806083
187.76450,-3.38230444
187.76500,-6.12905411
187.76550,-5.518665294
187.76600,-2.771915625
187.76650,-0.9407491788
187.76700,-1.245943586
187.76750,-2.771915625
187.76800,-3.992693256
187.76850,-5.213470887
187.76900,-7.044637333
187.76950,-8.570609371
187.77000,-8.875803779
187.77050,-8.570609371
187.77100,-9.791387002
187.77150,-11.92774786
187.77200,-14.06410871
187.77250,-14.97969193
187.77300,-16.81085838
187.77350,-18.33683042
187.77400,-17.11605279
187.77450,-11.01216463
187.77500,-3.077110033
187.77550,2.721583714
187.77600,5.773527791
187.77650,7.909888645
187.77700,9.435860683
187.77750,9.130666275
187.77800,7.299499829
187.77850,6.078722198
187.77900,6.078722198
187.77950,6.383916606
187.78000,6.383916606
187.78050,6.689111014
187.78100,7.604694237
187.78150,7.299499829
187.78200,3.637166937
187.78250,-0.9407491788
187.78300,-4.297887663
187.78350,-3.992693256
187.78400,-2.466721217
187.78450,-2.771915625
187.78500,-3.992693256
187.78550,-3.077110033
187.78600,2.111194898
187.78650,9.435860683
187.78700,13.09819358
187.78750,10.65663831
187.78800,4.857944568
187.78850,-0.02516595566
187.78900,-2.16152681
187.78950,-4.603082071
187.79000,-7.655026148
187.79050,-8.875803779
187.79100,-5.823859702
187.79150,-0.9407491788
187.79200,0.5852228597
187.79250,-3.077110033
187.79300,-10.70697023
187.79350,-18.64202483
187.79400,-23.83032976
187.79450,-24.44071857
187.79500,-21.6939689
187.79550,-18.94721923
187.79600,-18.33683042
187.79650,-19.25241364
187.79700,-18.03163601
187.79750,-14.67449753
187.79800,-10.70697023
187.79850,-7.34983174
187.79900,-4.297887663
187.79950,-0.6355547711
187.80000,1.195611675
187.80050,2.111194898
187.80100,2.416389306
187.80150,3.331972529
187.80200,5.163138975
187.80250,8.825471868
187.80300,14.31897121
187.80350,19.20208173
187.80400,20.11766495
187.80450,16.45533206
187.80500,13.09819358
187.80550,13.09819358
187.80600,13.40338798
187.80650,10.35144391
187.80700,4.857944568
187.80750,1.195611675
187.80800,-0.3303603634
187.80850,-3.077110033
187.80900,-8.265414964
187.80950,-13.14852549
187.81000,-16.20046956
187.81050,-18.33683042
187.81100,-20.77838568
187.81150,-21.38877449
187.81200,-18.03163601
187.81250,-12.53813667
187.81300,-9.180998187
187.81350,-9.180998187
187.81400,-8.265414964
187.81450,-3.077110033
187.81500,3.026778121
187.81550,5.163138975
187.81600,3.026778121
187.81650,0.8904172674
187.81700,1.806000491
187.81750,3.942361344
187.81800,4.247555752
187.81850,5.163138975
187.81900,7.909888645
187.81950,10.65663831
187.82000,10.35144391
187.82050,8.52027746
187.82100,7.604694237
187.82150,8.215083052
187.82200,9.435860683
187.82250,11.57222154
187.82300,14.31897121
187.82350,14.62416561
187.82400,10.65663831
187.82450,4.857944568
187.82500,0.5852228597
187.82550,-0.3303603634
187.82600,-0.9407491788
187.82650,-2.16152681
187.82700,-3.077110033
187.82750,-3.077110033
187.82800,-3.38230444
187.82850,-3.687498848
187.82900,-3.687498848
187.82950,-3.687498848
187.83000,-3.38230444
187.83050,-2.466721217
187.83100,-2.16152681
187.83150,-2.771915625
187.83200,-1.856332402
187.83250,1.500806083
187.83300,6.689111014
187.83350,9.435860683
187.83400,9.435860683
187.83450,9.741055091
187.83500,11.26702713
187.83550,12.79299917
187.83600,12.18261035
187.83650,10.96183272
187.83700,9.741055091
187.83750,6.994305421
187.83800,4.247555752
187.83850,2.111194898
187.83900,-0.02516595566
187.83950,-7.960220556
187.84000,-20.16799686
187.84050,-29.93421791
187.84100,-33.2913564
187.84150,-32.98616199
187.84200,-32.68096758
187.84250,-31.15499554
187.84300,-25.6614962
187.84350,-18.33683042
187.84400,-12.23294226
187.84450,-6.12905411
187.84500,1.500806083
187.84550,8.52027746
187.84600,11.26702713
187.84650,10.35144391
187.84700,10.35144391
187.84750,12.18261035
187.84800,14.62416561
187.84850,15.23455443
187.84900,14.31897121
187.84950,11.87741594
187.85000,7.909888645
187.85050,2.416389306
187.85100,-5.823859702
187.85150,-18.64202483
187.85200,-31.15499554
187.85250,-36.64849488
187.85300,-32.68096758
187.85350,-24.13552416
187.85400,-17.42124719
187.85450,-11.92774786
187.85500,-4.908276479
187.85550,3.637166937
187.85600,12.18261035
187.85650,20.42285936
187.85700,28.35791396
187.85750,35.68257975
187.85800,40.56569027
187.85850,43.61763435
187.85900,44.22802316
187.85950,40.56569027
187.86000,30.18908041
187.86050,13.70858239
187.86100,-4.297887663
187.86150,-18.94721923
187.86200,-25.6614962
187.86250,-23.21994094
187.86300,-13.7589143
187.86350,-3.992693256
187.86400,1.500806083
187.86450,3.331972529
187.86500,4.857944568
187.86550,7.299499829
187.86600,8.825471868
187.86650,8.215083052
187.86700,5.163138975
187.86750,1.500806083
187.86800,-0.3303603634
187.86850,-0.02516595566
187.86900,1.195611675
187.86950,-0.3303603634
187.87000,-5.823859702
187.87050,-11.01216463
187.87100,-11.62255345
187.87150,-8.570609371
187.87200,-5.823859702
187.87250,-5.518665294
187.87300,-4.908276479
187.87350,-1.856332402
187.87400,1.500806083
187.87450,2.721583714
187.87500,2.111194898
187.87550,0.8904172674
187.87600,1.195611675
187.87650,2.111194898
187.87700,3.026778121
187.87750,2.721583714
187.87800,1.806000491
187.87850,2.721583714
187.87900,6.994305421
187.87950,13.40338798
187.88000,17.67610969
187.88050,18.89688732
187.88100,17.9813041
187.88150,17.67610969
187.88200,17.67610969
187.88250,17.67610969
187.88300,17.37091528
187.88350,17.67610969
187.88400,15.53974884
187.88450,7.299499829
187.88500,-5.823859702
187.88550,-18.94721923
187.88600,-25.35630179
187.88650,-25.96669061
187.88700,-24.74591298
187.88750,-25.05110739
187.88800,-24.44071857
187.88850,-21.38877449
187.88900,-18.03163601
187.88950,-15.89527516
187.89000,-14.97969193
187.89050,-12.53813667
187.89100,-8.265414964
187.89150,-4.603082071
187.89200,-3.38230444
187.89250,-2.771915625
187.89300,-1.245943586
187.89350,-0.02516595566
187.89400,0.280028452
187.89450,-0.02516595566
187.89500,-0.3303603634
187.89550,-0.6355547711
187.89600,-0.02516595566
187.89650,3.026778121
187.89700,6.689111014
187.89750,9.130666275
187.89800,10.65663831
187.89850,12.79299917
187.89900,14.92936002
187.89950,14.62416561
187.90000,10.65663831
187.90050,6.383916606
187.90100,4.247555752
187.90150,4.55275016
187.90200,4.857944568
187.90250,4.857944568
187.90300,5.468333383
187.90350,6.383916606
187.90400,6.383916606
187.90450,5.468333383
187.90500,2.416389306
187.90550,-1.856332402
187.90600,-4.908276479
187.90650,-2.466721217
187.90700,3.942361344
187.90750,7.604694237
187.90800,4.55275016
187.90850,-0.9407491788
187.90900,-5.518665294
187.90950,-8.875803779
187.91000,-13.45371989
187.91050,-17.11605279
187.91100,-16.50566397
187.91150,-13.7589143
187.91200,-13.7589143
187.91250,-16.81085838
187.91300,-18.33683042
187.91350,-17.11605279
187.91400,-14.67449753
187.91450,-11.62255345
187.91500,-5.823859702
187.91550,3.942361344
187.91600,14.92936002
187.91650,20.72805377
187.91700,20.11766495
187.91750,16.15013765
187.91800,13.70858239
187.91850,13.40338798
187.91900,14.0137768
187.91950,14.62416561
187.92000,16.15013765
187.92050,18.28649851
187.92100,18.89688732
187.92150,17.9813041
187.92200,15.84494324
187.92250,14.31897121
187.92300,12.18261035
187.92350,8.825471868
187.92400,6.994305421
187.92450,7.909888645
187.92500,9.130666275
187.92550,7.299499829
187.92600,2.111194898
187.92650,-2.771915625
187.92700,-4.908276479
187.92750,-3.687498848
187.92800,-2.16152681
187.92850,-4.603082071
187.92900,-13.45371989
187.92950,-24.74591298
187.93000,-33.5965508
187.93050,-37.5640781
187.93100,-40.00563336
187.93150,-42.14199422
187.93200,-41.226411
187.93250,-36.03810606
187.93300,-28.40824587
187.93350,-20.77838568
187.93400,-11.92774786
187.93450,-1.245943586
187.93500,9.435860683
187.93550,17.9813041
187.93600,24.08519225
187.93650,28.66310837
187.93700,32.02024685
187.93750,33.8514133
187.93800,35.07219093
187.93850,34.15660771
187.93900,28.66310837
187.93950,17.67610969
187.94000,4.55275016
187.94050,-6.739442925
187.94100,-13.45371989
187.94150,-15.28488634
187.94200,-12.53813667
187.94250,-7.960220556
187.94300,-3.687498848
187.94350,-0.9407491788
187.94400,0.280028452
187.94450,-0.02516595566
187.94500,-1.551137994
187.94550,-4.603082071
187.94600,-7.960220556
187.94650,-12.23294226
187.94700,-16.81085838
187.94750,-18.03163601
187.94800,-14.67449753
187.94850,-11.62255345
187.94900,-13.7589143
187.94950,-19.55760805
187.95000,-22.60955213
187.95050,-20.47319127
187.95100,-16.20046956
187.95150,-11.62255345
187.95200,-7.655026148
187.95250,-4.908276479
187.95300,-4.908276479
187.95350,-6.12905411
187.95400,-5.518665294
187.95450,-3.38230444
187.95500,-1.245943586
187.95550,-0.02516595566
187.95600,3.331972529
187.95650,7.299499829
187.95700,9.741055091
187.95750,10.96183272
187.95800,13.70858239
187.95850,17.9813041
187.95900,21.9488314
187.95950,23.77999785
187.96000,24.08519225
187.96050,23.47480344
187.96100,23.16960903
187.96150,25.30596988
187.96200,30.18908041
187.96250,33.54621889
187.96300,30.79946922
187.96350,23.77999785
187.96400,18.59169291
187.96450,15.53974884
187.96500,7.299499829
187.96550,-11.01216463
187.96600,-32.68096758
187.96650,-44.58354948
187.96700,-42.44718863
187.96750,-33.2913564
187.96800,-26.88227383
187.96850,-25.35630179
187.96900,-25.05110739
187.96950,-25.05110739
187.97000,-25.96669061
187.97050,-25.35630179
187.97100,-21.08358009
187.97150,-15.28488634
187.97200,-14.06410871
187.97250,-17.42124719
187.97300,-19.86280246
187.97350,-17.11605279
187.97400,-12.53813667
187.97450,-10.70697023
187.97500,-10.40177582
187.97550,-7.960220556
187.97600,-3.077110033
187.97650,1.500806083
187.97700,5.163138975
187.97750,10.0462495
187.97800,15.53974884
187.97850,20.72805377
187.97900,23.77999785
187.97950,24.39038666
187.98000,23.16960903
187.98050,21.64363699
187.98100,21.33844258
187.98150,21.9488314
187.98200,20.72805377
187.98250,17.37091528
187.98300,17.37091528
187.98350,22.25402581
187.98400,27.74752515
187.98450,26.22155311
187.98500,18.59169291
187.98550,11.57222154
187.98600,9.130666275
187.98650,8.825471868
187.98700,6.689111014
187.98750,3.942361344
187.98800,3.026778121
187.98850,3.637166937
187.98900,2.416389306
187.98950,-1.245943586
187.99000,-5.823859702
187.99050,-8.875803779
187.99100,-11.62255345
187.99150,-14.06410871
187.99200,-16.20046956
187.99250,-16.81085838
187.99300,-15.59008075
187.99350,-13.7589143
187.99400,-12.23294226
187.99450,-9.791387002
187.99500,-5.823859702
187.99550,-0.9407491788
187.99600,3.637166937
187.99650,7.604694237
187.99700,10.0462495
187.99750,11.57222154
187.99800,11.87741594
187.99850,11.26702713
187.99900,10.65663831
187.99950,10.0462495
188.00000,9.435860683
188.00050,8.825471868
188.00100,7.909888645
188.00150,8.215083052
188.00200,9.130666275
188.00250,9.435860683
188.00300,7.604694237
188.00350,5.468333383
188.00400,4.857944568
188.00450,6.383916606
188.00500,7.299499829
188.00550,5.163138975
188.00600,2.416389306
188.00650,1.500806083
188.00700,0.5852228597
188.00750,-3.992693256
188.00800,-12.53813667
188.00850,-21.38877449
188.00900,-28.10305146
188.00950,-33.2913564
188.01000,-36.64849488
188.01050,-37.5640781
188.01100,-36.64849488
188.01150,-36.03810606
188.01200,-35.73291166
188.01250,-32.98616199
188.01300,-27.49266265
188.01350,-21.08358009
188.01400,-16.81085838
188.01450,-11.31735904
188.01500,-1.856332402
188.01550,9.130666275
188.01600,17.06572088
188.01650,21.03324818
188.01700,25.00077548
188.01750,31.10466363
188.01800,36.29296856
188.01850,38.73452382
188.01900,40.26049586
188.01950,44.22802316
188.02000,47.89035605
188.02050,45.7539952
188.02100,36.90335738
188.02150,25.9163587
188.02200,16.45533206
188.02250,5.163138975
188.02300,-8.265414964
188.02350,-19.25241364
188.02400,-20.47319127
188.02450,-14.06410871
188.02500,-8.265414964
188.02550,-7.960220556
188.02600,-9.791387002
188.02650,-9.486192594
188.02700,-8.875803779
188.02750,-10.70697023
188.02800,-14.67449753
188.02850,-16.81085838
188.02900,-15.59008075
188.02950,-13.7589143
188.03000,-14.97969193
188.03050,-18.64202483
188.03100,-20.77838568
188.03150,-19.25241364
188.03200,-15.28488634
188.03250,-13.14852549
188.03300,-13.14852549
188.03350,-12.84333108
188.03400,-9.486192594
188.03450,-5.213470887
188.03500,-2.771915625
188.03550,-2.466721217
188.03600,-2.16152681
188.03650,-1.551137994
188.03700,-0.6355547711
188.03750,-0.02516595566
188.03800,1.500806083
188.03850,2.111194898
188.03900,2.111194898
188.03950,2.721583714
188.04000,5.773527791
188.04050,10.35144391
188.04100,14.31897121
188.04150,15.53974884
188.04200,14.0137768
188.04250,10.96183272
188.04300,7.604694237
188.04350,4.857944568
188.04400,4.247555752
188.04450,5.468333383
188.04500,8.215083052
188.04550,11.57222154
188.04600,14.92936002
188.04650,16.45533206
188.04700,13.40338798
188.04750,6.689111014
188.04800,0.8904172674
188.04850,-1.245943586
188.04900,-3.38230444
188.04950,-9.486192594
188.05000,-18.64202483
188.05050,-22.91474653
188.05100,-17.11605279
188.05150,-5.823859702
188.05200,3.637166937
188.05250,9.435860683
188.05300,14.62416561
188.05350,19.50727614
188.05400,21.03324818
188.05450,17.9813041
188.05500,13.40338798
188.05550,9.741055091
188.05600,6.383916606
188.05650,3.026778121
188.05700,0.280028452
188.05750,0.8904172674
188.05800,4.857944568
188.05850,10.96183272
188.05900,15.53974884
188.05950,13.40338798
188.06000,2.111194898
188.06050,-13.14852549
188.06100,-25.6614962
188.06150,-31.46018995
188.06200,-32.68096758
188.06250,-31.76538436
188.06300,-28.71344028
188.06350,-22.30435772
188.06400,-14.97969193
188.06450,-8.570609371
188.06500,-3.077110033
188.06550,0.8904172674
188.06600,0.5852228597
188.06650,-6.434248517
188.06700,-17.11605279
188.06750,-25.96669061
188.06800,-29.6290235
188.06850,-28.10305146
188.06900,-22.30435772
188.06950,-14.06410871
188.07000,-6.434248517
188.07050,-1.551137994
188.07100,-0.02516595566
188.07150,1.195611675
188.07200,5.468333383
188.07250,11.87741594
188.07300,16.76052647
188.07350,17.37091528
188.07400,14.62416561
188.07450,12.79299917
188.07500,13.70858239
188.07550,15.84494324
188.07600,16.45533206
188.07650,14.31897121
188.07700,11.57222154
188.07750,9.130666275
188.07800,7.604694237
188.07850,6.689111014
188.07900,4.857944568
188.07950,1.806000491
188.08000,-2.771915625
188.08050,-6.739442925
188.08100,-7.960220556
188.08150,-4.908276479
188.08200,0.8904172674
188.08250,6.383916606
188.08300,7.604694237
188.08350,5.163138975
188.08400,3.331972529
188.08450,9.130666275
188.08500,21.64363699
188.08550,34.46180211
188.08600,41.17607908
188.08650,43.61763435
188.08700,44.83841198
188.08750,43.31243994
188.08800,35.68257975
188.08850,24.69558107
188.08900,17.06572088
188.08950,10.96183272
188.09000,-1.551137994
188.09050,-23.83032976
188.09100,-44.58354948
188.09150,-51.60302086
188.09200,-46.71991033
188.09250,-39.70043896
188.09300,-34.20693962
188.09350,-27.49266265
188.09400,-18.94721923
188.09450,-12.23294226
188.09500,-10.09658141
188.09550,-10.09658141
188.09600,-10.70697023
188.09650,-11.31735904
188.09700,-10.09658141
188.09750,-4.908276479
188.09800,1.806000491
188.09850,4.247555752
188.09900,2.111194898
188.09950,0.8904172674
188.10000,6.078722198
188.10050,14.0137768
188.10100,19.20208173
188.10150,20.11766495
188.10200,20.72805377
188.10250,24.69558107
188.10300,30.49427481
188.10350,33.24102448
188.10400,28.35791396
188.10450,17.06572088
188.10500,4.857944568
188.10550,-3.687498848
188.10600,-9.791387002
188.10650,-15.89527516
188.10700,-21.99916331
188.10750,-26.88227383
188.10800,-30.54460673
188.10850,-30.54460673
188.10900,-25.35630179
188.10950,-16.50566397
188.11000,-10.70697023
188.11050,-11.01216463
188.11100,-13.14852549
188.11150,-11.92774786
188.11200,-10.09658141
188.11250,-12.53813667
188.11300,-18.03163601
188.11350,-19.55760805
188.11400,-16.20046956
188.11450,-13.7589143
188.11500,-15.89527516
188.11550,-19.55760805
188.11600,-20.77838568
188.11650,-20.47319127
188.11700,-19.86280246
188.11750,-17.7264416
188.11800,-12.84333108
188.11850,-5.823859702
188.11900,0.280028452
188.11950,6.994305421
188.12000,13.40338798
188.12050,17.9813041
188.12100,20.11766495
188.12150,22.55922021
188.12200,27.74752515
188.12250,32.32544126
188.12300,32.63063567
188.12350,29.27349718
188.12400,26.52674751
188.12450,25.61116429
188.12500,24.08519225
188.12550,19.81247054
188.12600,14.92936002
188.12650,12.18261035
188.12700,11.57222154
188.12750,9.741055091
188.12800,6.078722198
188.12850,2.721583714
188.12900,1.806000491
188.12950,3.026778121
188.13000,4.857944568
188.13050,5.468333383
188.13100,4.55275016
188.13150,1.500806083
188.13200,-1.856332402
188.13250,-2.771915625
188.13300,-0.9407491788
188.13350,-0.3303603634
188.13400,-4.603082071
188.13450,-10.09658141
188.13500,-10.70697023
188.13550,-5.518665294
188.13600,-1.245943586
188.13650,-2.771915625
188.13700,-6.434248517
188.13750,-6.12905411
188.13800,-0.9407491788
188.13850,6.078722198
188.13900,11.26702713
188.13950,14.62416561
188.14000,15.84494324
188.14050,16.45533206
188.14100,17.37091528
188.14150,19.50727614
188.14200,22.25402581
188.14250,24.39038666
188.14300,24.39038666
188.14350,22.86441462
188.14400,20.42285936
188.14450,19.20208173
188.14500,18.89688732
188.14550,19.50727614
188.14600,18.89688732
188.14650,15.23455443
188.14700,8.825471868
188.14750,-0.02516595566
188.14800,-9.486192594
188.14850,-18.94721923
188.14900,-27.79785706
188.14950,-33.90174521
188.15000,-35.73291166
188.15050,-32.37577317
188.15100,-26.88227383
188.15150,-22.91474653
188.15200,-22.30435772
188.15250,-23.83032976
188.15300,-24.13552416
188.15350,-21.99916331
188.15400,-17.7264416
188.15450,-11.92774786
188.15500,-5.823859702
188.15550,-1.245943586
188.15600,-0.02516595566
188.15650,-0.3303603634
188.15700,0.8904172674
188.15750,5.468333383
188.15800,10.0462495
188.15850,9.741055091
188.15900,4.55275016
188.15950,-1.245943586
188.16000,-4.297887663
188.16050,-4.908276479
188.16100,-6.434248517
188.16150,-7.960220556
188.16200,-5.518665294
188.16250,0.280028452
188.16300,3.942361344
188.16350,1.500806083
188.16400,-3.992693256
188.16450,-7.044637333
188.16500,-7.044637333
188.16550,-6.739442925
188.16600,-7.655026148
188.16650,-7.34983174
188.16700,-6.739442925
188.16750,-7.655026148
188.16800,-10.70697023
188.16850,-13.7589143
188.16900,-15.28488634
188.16950,-15.89527516
188.17000,-14.97969193
188.17050,-9.791387002
188.17100,-1.245943586
188.17150,5.468333383
188.17200,7.604694237
188.17250,6.078722198
188.17300,4.857944568
188.17350,5.468333383
188.17400,5.468333383
188.17450,4.247555752
188.17500,3.026778121
188.17550,3.637166937
188.17600,5.773527791
188.17650,8.52027746
188.17700,9.435860683
188.17750,7.909888645
188.17800,4.857944568
188.17850,2.111194898
188.17900,1.500806083
188.17950,1.195611675
188.18000,0.5852228597
188.18050,-0.02516595566
188.18100,-0.02516595566
188.18150,-0.02516595566
188.18200,-0.3303603634
188.18250,-0.9407491788
188.18300,0.5852228597
188.18350,3.637166937
188.18400,4.55275016
188.18450,1.806000491
188.18500,-0.3303603634
188.18550,0.5852228597
188.18600,3.026778121
188.18650,3.331972529
188.18700,1.806000491
188.18750,0.8904172674
188.18800,1.500806083
188.18850,1.195611675
188.18900,-0.6355547711
188.18950,-3.992693256
188.19000,-6.739442925
188.19050,-9.180998187
188.19100,-11.92774786
188.19150,-13.7589143
188.19200,-15.89527516
188.19250,-19.55760805
188.19300,-23.52513535
188.19350,-25.35630179
188.19400,-24.44071857
188.19450,-23.83032976
188.19500,-24.13552416
188.19550,-23.83032976
188.19600,-20.47319127
188.19650,-14.36930312
188.19700,-7.34983174
188.19750,0.5852228597
188.19800,7.604694237
188.19850,10.65663831
188.19900,9.435860683
188.19950,8.215083052
188.20000,10.0462495
188.20050,13.70858239
188.20100,14.31897121
188.20150,13.09819358
188.20200,14.31897121
188.20250,17.9813041
188.20300,19.20208173
188.20350,16.15013765
188.20400,13.09819358
188.20450,11.87741594
188.20500,10.96183272
188.20550,7.604694237
188.20600,5.163138975
188.20650,8.215083052
188.20700,14.0137768
188.20750,16.15013765
188.20800,12.18261035
188.20850,6.383916606
188.20900,2.721583714
188.20950,0.5852228597
188.21000,-1.856332402
188.21050,-4.908276479
188.21100,-6.739442925
188.21150,-7.960220556
188.21200,-8.570609371
188.21250,-8.570609371
188.21300,-8.570609371
188.21350,-9.486192594
188.21400,-11.31735904
188.21450,-11.92774786
188.21500,-11.92774786
188.21550,-12.53813667
188.21600,-13.45371989
188.21650,-11.01216463
188.21700,-4.603082071
188.21750,0.8904172674
188.21800,3.026778121
188.21850,3.637166937
188.21900,6.994305421
188.21950,12.18261035
188.22000,14.0137768
188.22050,11.26702713
188.22100,9.130666275
188.22150,10.35144391
188.22200,11.87741594
188.22250,10.65663831
188.22300,8.215083052
188.22350,8.52027746
188.22400,10.35144391
188.22450,9.130666275
188.22500,4.247555752
188.22550,-0.9407491788
188.22600,-4.603082071
188.22650,-7.34983174
188.22700,-8.570609371
188.22750,-7.655026148
188.22800,-4.297887663
188.22850,-0.6355547711
188.22900,1.195611675
188.22950,1.806000491
188.23000,2.111194898
188.23050,2.721583714
188.23100,4.247555752
188.23150,6.383916606
188.23200,7.299499829
188.23250,5.773527791
188.23300,1.500806083
188.23350,-4.297887663
188.23400,-11.01216463
188.23450,-18.64202483
188.23500,-25.05110739
188.23550,-27.18746824
188.23600,-22.91474653
188.23650,-13.14852549
188.23700,-1.856332402
188.23750,8.825471868
188.23800,19.20208173
188.23850,29.57869159
188.23900,39.03971823
188.23950,43.92282875
188.24000,42.09166231
188.24050,33.54621889
188.24100,23.16960903
188.24150,15.23455443
188.24200,10.65663831
188.24250,7.299499829
188.24300,1.500806083
188.24350,-5.518665294
188.24400,-10.09658141
188.24450,-10.09658141
188.24500,-7.960220556
188.24550,-6.434248517
188.24600,-6.12905411
188.24650,-5.823859702
188.24700,-6.434248517
188.24750,-8.875803779
188.24800,-10.09658141
188.24850,-7.34983174
188.24900,-3.38230444
188.24950,-2.771915625
188.25000,-4.908276479
188.25050,-5.823859702
188.25100,-4.297887663
188.25150,-4.908276479
188.25200,-8.265414964
188.25250,-9.486192594
188.25300,-5.518665294
188.25350,-1.551137994
188.25400,-2.771915625
188.25450,-7.044637333
188.25500,-9.791387002
188.25550,-10.09658141
188.25600,-9.180998187
188.25650,-7.655026148
188.25700,-4.603082071
188.25750,-2.466721217
188.25800,-3.38230444
188.25850,-4.297887663
188.25900,-1.856332402
188.25950,2.721583714
188.26000,6.383916606
188.26050,6.689111014
188.26100,6.383916606
188.26150,6.689111014
188.26200,8.215083052
188.26250,11.26702713
188.26300,15.84494324
188.26350,18.89688732
188.26400,18.28649851
188.26450,16.15013765
188.26500,14.31897121
188.26550,13.70858239
188.26600,12.18261035
188.26650,9.741055091
188.26700,8.215083052
188.26750,7.299499829
188.26800,5.163138975
188.26850,1.500806083
188.26900,-1.245943586
188.26950,-1.551137994
188.27000,-1.551137994
188.27050,-4.297887663
188.27100,-8.875803779
188.27150,-12.84333108
188.27200,-14.67449753
188.27250,-14.06410871
188.27300,-12.23294226
188.27350,-9.486192594
188.27400,-7.655026148
188.27450,-7.044637333
188.27500,-7.044637333
188.27550,-6.12905411
188.27600,-3.992693256
188.27650,-3.077110033
188.27700,-3.38230444
188.27750,-3.077110033
188.27800,-1.551137994
188.27850,-0.6355547711
188.27900,-1.551137994
188.27950,-2.466721217
188.28000,-0.02516595566
188.28050,4.857944568
188.28100,7.909888645
188.28150,8.215083052
188.28200,7.604694237
188.28250,7.604694237
188.28300,7.299499829
188.28350,5.468333383
188.28400,2.721583714
188.28450,0.280028452
188.28500,-1.245943586
188.28550,-3.077110033
188.28600,-3.687498848
188.28650,-3.38230444
188.28700,-2.771915625
188.28750,-3.992693256
188.28800,-7.044637333
188.28850,-11.31735904
188.28900,-14.67449753
188.28950,-16.20046956
188.29000,-14.97969193
188.29050,-11.31735904
188.29100,-7.34983174
188.29150,-5.213470887
188.29200,-6.12905411
188.29250,-8.265414964
188.29300,-7.655026148
188.29350,-1.551137994
188.29400,7.909888645
188.29450,17.37091528
188.29500,22.25402581
188.29550,22.86441462
188.29600,21.9488314
188.29650,21.64363699
188.29700,22.86441462
188.29750,23.16960903
188.29800,21.9488314
188.29850,18.89688732
188.29900,14.31897121
188.29950,9.435860683
188.30000,5.163138975
188.30050,3.331972529
188.30100,3.637166937
188.30150,4.857944568
188.30200,5.163138975
188.30250,2.721583714
188.30300,-2.771915625
188.30350,-10.40177582
188.30400,-14.97969193
188.30450,-13.45371989
188.30500,-7.960220556
188.30550,-2.771915625
188.30600,-1.245943586
188.30650,-2.16152681
188.30700,-2.466721217
188.30750,-1.551137994
188.30800,-1.551137994
188.30850,-2.771915625
188.30900,-3.687498848
188.30950,-3.077110033
188.31000,-1.245943586
188.31050,-0.6355547711
188.31100,-1.856332402
188.31150,-3.687498848
188.31200,-3.687498848
188.31250,-3.077110033
188.31300,-3.687498848
188.31350,-6.12905411
188.31400,-8.875803779
188.31450,-10.70697023
188.31500,-12.84333108
188.31550,-14.06410871
188.31600,-13.7589143
188.31650,-12.23294226
188.31700,-10.40177582
188.31750,-9.180998187
188.31800,-7.960220556
188.31850,-6.434248517
188.31900,-6.12905411
188.31950,-7.655026148
188.32000,-7.655026148
188.32050,-4.603082071
188.32100,-0.02516595566
188.32150,2.416389306
188.32200,1.500806083
188.32250,-0.9407491788
188.32300,-2.16152681
188.32350,-0.02516595566
188.32400,3.942361344
188.32450,7.604694237
188.32500,8.825471868
188.32550,9.130666275
188.32600,9.130666275
188.32650,10.0462495
188.32700,10.65663831
188.32750,10.0462495
188.32800,7.299499829
188.32850,2.111194898
188.32900,-2.771915625
188.32950,-6.739442925
188.33000,-11.01216463
188.33050,-16.81085838
188.33100,-22.30435772
188.33150,-23.52513535
188.33200,-19.86280246
188.33250,-15.28488634
188.33300,-13.7589143
188.33350,-14.36930312
188.33400,-14.06410871
188.33450,-10.40177582
188.33500,-5.823859702
188.33550,-1.856332402
188.33600,0.5852228597
188.33650,1.500806083
188.33700,0.280028452
188.33750,-1.551137994
188.33800,-1.551137994
188.33850,2.416389306
188.33900,10.0462495
188.33950,17.67610969
188.34000,22.55922021
188.34050,25.00077548
188.34100,25.61116429
188.34150,24.08519225
188.34200,18.59169291
188.34250,8.52027746
188.34300,-2.771915625
188.34350,-11.92774786
188.34400,-15.59008075
188.34450,-13.14852549
188.34500,-7.34983174
188.34550,-1.856332402
188.34600,-0.6355547711
188.34650,-3.077110033
188.34700,-5.518665294
188.34750,-6.434248517
188.34800,-7.34983174
188.34850,-8.875803779
188.34900,-9.791387002
188.34950,-9.486192594
188.35000,-8.875803779
188.35050,-9.180998187
188.35100,-9.486192594
188.35150,-9.791387002
188.35200,-10.70697023
188.35250,-10.09658141
188.35300,-5.213470887
188.35350,3.026778121
188.35400,10.96183272
188.35450,15.23455443
188.35500,17.06572088
188.35550,18.89688732
188.35600,19.20208173
188.35650,17.37091528
188.35700,17.06572088
188.35750,19.81247054
188.35800,21.9488314
188.35850,20.42285936
188.35900,17.9813041
188.35950,16.76052647
188.36000,12.79299917
188.36050,3.637166937
188.36100,-4.603082071
188.36150,-5.518665294
188.36200,-1.856332402
188.36250,-0.9407491788
188.36300,-2.16152681
188.36350,0.280028452
188.36400,7.604694237
188.36450,12.48780476
188.36500,10.65663831
188.36550,4.857944568
188.36600,-1.856332402
188.36650,-8.570609371
188.36700,-14.67449753
188.36750,-17.7264416
188.36800,-16.50566397
188.36850,-13.7589143
188.36900,-10.70697023
188.36950,-8.265414964
188.37000,-9.791387002
188.37050,-15.59008075
188.37100,-21.6939689
188.37150,-23.52513535
188.37200,-21.99916331
188.37250,-20.77838568
188.37300,-20.47319127
188.37350,-18.33683042
188.37400,-15.89527516
188.37450,-14.97969193
188.37500,-13.45371989
188.37550,-8.570609371
188.37600,-2.16152681
188.37650,0.8904172674
188.37700,1.806000491
188.37750,4.247555752
188.37800,7.604694237
188.37850,8.52027746
188.37900,6.994305421
188.37950,7.909888645
188.38000,12.79299917
188.38050,17.37091528
188.38100,17.67610969
188.38150,15.84494324
188.38200,15.84494324
188.38250,18.28649851
188.38300,21.9488314
188.38350,23.47480344
188.38400,21.33844258
188.38450,17.67610969
188.38500,14.62416561
188.38550,12.18261035
188.38600,6.689111014
188.38650,-1.551137994
188.38700,-7.044637333
188.38750,-4.603082071
188.38800,3.026778121
188.38850,9.130666275
188.38900,10.35144391
188.38950,7.299499829
188.39000,1.500806083
188.39050,-4.603082071
188.39100,-7.960220556
188.39150,-5.518665294
188.39200,-0.6355547711
188.39250,1.500806083
188.39300,1.195611675
188.39350,-1.856332402
188.39400,-9.791387002
188.39450,-22.60955213
188.39500,-34.20693962
188.39550,-38.17446692
188.39600,-35.12252284
188.39650,-29.3238291
188.39700,-22.30435772
188.39750,-13.45371989
188.39800,-4.297887663
188.39850,2.111194898
188.39900,4.857944568
188.39950,6.383916606
188.40000,7.909888645
188.40050,8.825471868
188.40100,10.0462495
188.40150,12.18261035
188.40200,14.31897121
188.40250,14.31897121
188.40300,12.79299917
188.40350,11.87741594
188.40400,10.35144391
188.40450,6.078722198
188.40500,1.500806083
188.40550,-0.02516595566
188.40600,3.026778121
188.40650,6.078722198
188.40700,6.689111014
188.40750,5.773527791
188.40800,4.857944568
188.40850,4.247555752
188.40900,2.416389306
188.40950,0.280028452
188.41000,-0.9407491788
188.41050,-1.551137994
188.41100,-2.466721217
188.41150,-4.603082071
188.41200,-7.960220556
188.41250,-11.01216463
188.41300,-11.92774786
188.41350,-11.31735904
188.41400,-10.70697023
188.41450,-9.486192594
188.41500,-5.823859702
188.41550,-1.245943586
188.41600,0.8904172674
188.41650,0.5852228597
188.41700,1.500806083
188.41750,5.163138975
188.41800,9.130666275
188.41850,11.26702713
188.41900,12.79299917
188.41950,14.62416561
188.42000,14.31897121
188.42050,11.57222154
188.42100,10.35144391
188.42150,13.70858239
188.42200,18.89688732
188.42250,20.11766495
188.42300,16.45533206
188.42350,12.18261035
188.42400,10.65663831
188.42450,10.65663831
188.42500,9.130666275
188.42550,5.773527791
188.42600,1.195611675
188.42650,-1.856332402
188.42700,-3.077110033
188.42750,-1.551137994
188.42800,1.500806083
188.42850,4.857944568
188.42900,5.773527791
188.42950,3.331972529
188.43000,-0.9407491788
188.43050,-3.38230444
188.43100,-2.771915625
188.43150,-3.077110033
188.43200,-9.486192594
188.43250,-19.86280246
188.43300,-26.57707943
188.43350,-24.44071857
188.43400,-16.81085838
188.43450,-8.570609371
188.43500,-0.9407491788
188.43550,5.163138975
188.43600,7.604694237
188.43650,5.163138975
188.43700,3.942361344
188.43750,8.825471868
188.43800,17.37091528
188.43850,23.16960903
188.43900,23.16960903
188.43950,19.50727614
188.44000,15.23455443
188.44050,10.96183272
188.44100,6.994305421
188.44150,3.637166937
188.44200,-0.02516595566
188.44250,-3.38230444
188.44300,-5.823859702
188.44350,-7.34983174
188.44400,-11.62255345
188.44450,-18.03163601
188.44500,-20.77838568
188.44550,-16.50566397
188.44600,-10.09658141
188.44650,-9.486192594
188.44700,-14.36930312
188.44750,-17.42124719
188.44800,-16.20046956
188.44850,-14.36930312
188.44900,-14.36930312
188.44950,-14.67449753
188.45000,-12.84333108
188.45050,-11.31735904
188.45100,-11.62255345
188.45150,-11.92774786
188.45200,-9.486192594
188.45250,-4.908276479
188.45300,-1.856332402
188.45350,-0.9407491788
188.45400,-2.16152681
188.45450,-4.908276479
188.45500,-7.34983174
188.45550,-7.044637333
188.45600,-3.077110033
188.45650,1.195611675
188.45700,2.721583714
188.45750,0.8904172674
188.45800,-1.856332402
188.45850,-3.992693256
188.45900,-4.297887663
188.45950,-3.38230444
188.46000,-0.3303603634
188.46050,4.247555752
188.46100,9.130666275
188.46150,12.48780476
188.46200,14.0137768
188.46250,14.31897121
188.46300,15.23455443
188.46350,16.15013765
188.46400,14.92936002
188.46450,11.26702713
188.46500,7.299499829
188.46550,5.773527791
188.46600,5.468333383
188.46650,4.247555752
188.46700,0.280028452
188.46750,-3.077110033
188.46800,-4.908276479
188.46850,-5.518665294
188.46900,-6.739442925
188.46950,-8.875803779
188.47000,-10.09658141
188.47050,-10.70697023
188.47100,-10.70697023
188.47150,-9.791387002
188.47200,-7.655026148
188.47250,-5.823859702
188.47300,-5.518665294
188.47350,-6.434248517
188.47400,-6.12905411
188.47450,-4.908276479
188.47500,-4.603082071
188.47550,-4.297887663
188.47600,-0.3303603634
188.47650,6.994305421
188.47700,14.0137768
188.47750,15.84494324
188.47800,13.40338798
188.47850,9.435860683
188.47900,6.078722198
188.47950,3.331972529
188.48000,3.026778121
188.48050,6.994305421
188.48100,13.70858239
188.48150,17.9813041
188.48200,18.28649851
188.48250,15.23455443
188.48300,10.96183272
188.48350,7.299499829
188.48400,5.468333383
188.48450,5.468333383
188.48500,6.689111014
188.48550,8.215083052
188.48600,9.741055091
188.48650,10.65663831
188.48700,9.741055091
188.48750,7.604694237
188.48800,7.299499829
188.48850,10.35144391
188.48900,14.0137768
188.48950,15.53974884
188.49000,14.31897121
188.49050,11.57222154
188.49100,5.773527791
188.49150,-1.856332402
188.49200,-8.265414964
188.49250,-9.791387002
188.49300,-10.09658141
188.49350,-13.45371989
188.49400,-18.33683042
188.49450,-19.55760805
188.49500,-16.50566397
188.49550,-13.7589143
188.49600,-12.53813667
188.49650,-11.31735904
188.49700,-8.875803779
188.49750,-8.570609371
188.49800,-11.92774786
188.49850,-15.89527516
188.49900,-16.20046956
188.49950,-12.23294226
188.50000,-7.044637333
188.50050,-2.771915625
188.50100,-1.551137994
188.50150,-2.466721217
188.50200,-3.38230444
188.50250,-1.856332402
188.50300,0.5852228597
188.50350,2.111194898
188.50400,1.806000491
188.50450,2.111194898
188.50500,3.026778121
188.50550,3.637166937
188.50600,2.416389306
188.50650,0.8904172674
188.50700,-0.02516595566
188.50750,-0.9407491788
188.50800,-2.16152681
188.50850,-3.077110033
188.50900,-3.687498848
188.50950,-4.297887663
188.51000,-5.213470887
188.51050,-5.823859702
188.51100,-6.739442925
188.51150,-7.960220556
188.51200,-9.180998187
188.51250,-11.01216463
188.51300,-14.67449753
188.51350,-19.25241364
188.51400,-20.16799686
188.51450,-15.28488634
188.51500,-8.265414964
188.51550,-4.297887663
188.51600,-2.771915625
188.51650,-0.6355547711
188.51700,3.637166937
188.51750,7.909888645
188.51800,9.741055091
188.51850,10.35144391
188.51900,11.26702713
188.51950,12.48780476
188.52000,13.40338798
188.52050,14.92936002
188.52100,16.15013765
188.52150,15.23455443
188.52200,12.18261035
188.52250,10.0462495
188.52300,10.65663831
188.52350,11.87741594
188.52400,11.26702713
188.52450,9.435860683
188.52500,7.909888645
188.52550,5.468333383
188.52600,0.280028452
188.52650,-5.823859702
188.52700,-10.40177582
188.52750,-13.14852549
188.52800,-15.89527516
188.52850,-18.03163601
188.52900,-17.11605279
188.52950,-12.53813667
188.53000,-8.265414964
188.53050,-7.044637333
188.53100,-7.960220556
188.53150,-7.960220556
188.53200,-5.518665294
188.53250,-2.16152681
188.53300,0.280028452
188.53350,1.806000491
188.53400,3.331972529
188.53450,5.468333383
188.53500,7.604694237
188.53550,8.215083052
188.53600,7.604694237
188.53650,8.52027746
188.53700,11.57222154
188.53750,13.09819358
188.53800,11.26702713
188.53850,8.825471868
188.53900,10.35144391
188.53950,14.31897121
188.54000,16.45533206
188.54050,14.31897121
188.54100,10.65663831
188.54150,7.604694237
188.54200,5.468333383
188.54250,5.773527791
188.54300,9.130666275
188.54350,13.09819358
188.54400,14.62416561
188.54450,13.70858239
188.54500,11.87741594
188.54550,7.909888645
188.54600,-1.551137994
188.54650,-14.97969193
188.54700,-25.35630179
188.54750,-29.01863469
188.54800,-28.40824587
188.54850,-28.40824587
188.54900,-29.3238291
188.54950,-29.3238291
188.55000,-28.10305146
188.55050,-26.88227383
188.55100,-27.18746824
188.55150,-29.6290235
188.55200,-32.98616199
188.55250,-34.20693962
188.55300,-30.23941232
188.55350,-21.99916331
188.55400,-13.7589143
188.55450,-8.265414964
188.55500,-5.518665294
188.55550,-3.992693256
188.55600,-2.16152681
188.55650,0.5852228597
188.55700,6.383916606
188.55750,11.87741594
188.55800,13.70858239
188.55850,11.87741594
188.55900,10.35144391
188.55950,12.48780476
188.56000,17.37091528
188.56050,20.42285936
188.56100,17.67610969
188.56150,10.65663831
188.56200,1.806000491
188.56250,-3.687498848
188.56300,-3.38230444
188.56350,3.637166937
188.56400,13.40338798
188.56450,20.72805377
188.56500,24.08519225
188.56550,24.39038666
188.56600,24.08519225
188.56650,22.86441462
188.56700,18.28649851
188.56750,10.65663831
188.56800,2.416389306
188.56850,-3.687498848
188.56900,-8.265414964
188.56950,-11.31735904
188.57000,-12.23294226
188.57050,-9.791387002
188.57100,-5.518665294
188.57150,-2.466721217
188.57200,-1.245943586
188.57250,-0.6355547711
188.57300,0.280028452
188.57350,1.500806083
188.57400,3.331972529
188.57450,5.163138975
188.57500,5.773527791
188.57550,4.857944568
188.57600,3.942361344
188.57650,6.994305421
188.57700,13.70858239
188.57750,20.42285936
188.57800,23.77999785
188.57850,23.77999785
188.57900,21.64363699
188.57950,16.45533206
188.58000,9.130666275
188.58050,3.637166937
188.58100,3.637166937
188.58150,8.52027746
188.58200,12.79299917
188.58250,12.79299917
188.58300,9.741055091
188.58350,6.383916606
188.58400,3.331972529
188.58450,-0.02516595566
188.58500,-2.771915625
188.58550,-5.213470887
188.58600,-6.739442925
188.58650,-7.34983174
188.58700,-7.655026148
188.58750,-7.044637333
188.58800,-5.823859702
188.58850,-3.687498848
188.58900,-0.6355547711
188.58950,3.942361344
188.59000,7.299499829
188.59050,5.468333383
188.59100,-2.466721217
188.59150,-12.84333108
188.59200,-18.33683042
188.59250,-16.81085838
188.59300,-10.40177582
188.59350,-4.297887663
188.59400,-0.02516595566
188.59450,2.416389306
188.59500,5.163138975
188.59550,6.078722198
188.59600,3.026778121
188.59650,-3.687498848
188.59700,-9.791387002
188.59750,-11.31735904
188.59800,-8.570609371
188.59850,-5.518665294
188.59900,-5.823859702
188.59950,-7.960220556
188.60000,-8.875803779
188.60050,-6.434248517
188.60100,-2.16152681
188.60150,1.500806083
188.60200,1.806000491
188.60250,-0.6355547711
188.60300,-3.687498848
188.60350,-3.687498848
188.60400,-0.6355547711
188.60450,2.111194898
188.60500,2.111194898
188.60550,0.280028452
188.60600,-0.9407491788
188.60650,-1.551137994
188.60700,-2.466721217
188.60750,-3.992693256
188.60800,-5.518665294
188.60850,-6.12905411
188.60900,-7.34983174
188.60950,-9.180998187
188.61000,-11.62255345
188.61050,-12.53813667
188.61100,-12.53813667
188.61150,-13.45371989
188.61200,-15.89527516
188.61250,-17.42124719
188.61300,-14.36930312
188.61350,-7.960220556
188.61400,-2.16152681
188.61450,-0.3303603634
188.61500,-1.245943586
188.61550,-1.551137994
188.61600,-0.02516595566
188.61650,3.026778121
188.61700,5.468333383
188.61750,6.994305421
188.61800,8.52027746
188.61850,10.0462495
188.61900,10.65663831
188.61950,10.65663831
188.62000,9.741055091
188.62050,9.130666275
188.62100,7.909888645
188.62150,6.078722198
188.62200,4.55275016
188.62250,3.942361344
188.62300,3.942361344
188.62350,3.026778121
188.62400,2.111194898
188.62450,2.721583714
188.62500,5.163138975
188.62550,7.909888645
188.62600,7.909888645
188.62650,5.468333383
188.62700,3.331972529
188.62750,4.55275016
188.62800,7.909888645
188.62850,10.65663831
188.62900,10.35144391
188.62950,9.130666275
188.63000,9.435860683
188.63050,10.96183272
188.63100,10.35144391
188.63150,6.689111014
188.63200,1.806000491
188.63250,-1.245943586
188.63300,-2.771915625
188.63350,-4.297887663
188.63400,-5.823859702
188.63450,-5.213470887
188.63500,-1.856332402
188.63550,0.8904172674
188.63600,-0.6355547711
188.63650,-6.739442925
188.63700,-12.53813667
188.63750,-12.84333108
188.63800,-8.570609371
188.63850,-3.38230444
188.63900,0.5852228597
188.63950,3.026778121
188.64000,4.857944568
188.64050,6.078722198
188.64100,5.468333383
188.64150,2.111194898
188.64200,-3.992693256
188.64250,-10.09658141
188.64300,-10.70697023
188.64350,-4.297887663
188.64400,3.026778121
188.64450,5.773527791
188.64500,3.637166937
188.64550,2.721583714
188.64600,4.857944568
188.64650,7.604694237
188.64700,8.825471868
188.64750,10.0462495
188.64800,10.0462495
188.64850,6.383916606
188.64900,-0.02516595566
188.64950,-3.992693256
188.65000,-2.771915625
188.65050,-0.6355547711
188.65100,-2.466721217
188.65150,-7.960220556
188.65200,-12.84333108
188.65250,-14.97969193
188.65300,-14.97969193
188.65350,-14.06410871
188.65400,-12.23294226
188.65450,-11.01216463
188.65500,-12.23294226
188.65550,-14.97969193
188.65600,-17.7264416
188.65650,-18.64202483
188.65700,-16.81085838
188.65750,-11.31735904
188.65800,-3.38230444
188.65850,3.026778121
188.65900,6.689111014
188.65950,9.130666275
188.66000,12.18261035
188.66050,14.92936002
188.66100,14.31897121
188.66150,11.26702713
188.66200,7.909888645
188.66250,5.468333383
188.66300,4.55275016
188.66350,4.247555752
188.66400,3.637166937
188.66450,2.721583714
188.66500,2.416389306
188.66550,3.026778121
188.66600,3.026778121
188.66650,1.500806083
188.66700,-0.02516595566
188.66750,-0.6355547711
188.66800,-0.02516595566
188.66850,-0.02516595566
188.66900,-1.856332402
188.66950,-4.603082071
188.67000,-7.655026148
188.67050,-9.486192594
188.67100,-10.09658141
188.67150,-8.875803779
188.67200,-7.044637333
188.67250,-6.739442925
188.67300,-8.570609371
188.67350,-10.70697023
188.67400,-11.01216463
188.67450,-9.791387002
188.67500,-7.34983174
188.67550,-4.297887663
188.67600,-0.9407491788
188.67650,1.195611675
188.67700,4.247555752
188.67750,7.909888645
188.67800,10.96183272
188.67850,12.48780476
188.67900,14.0137768
188.67950,16.45533206
188.68000,17.37091528
188.68050,14.62416561
188.68100,10.0462495
188.68150,6.994305421
188.68200,6.689111014
188.68250,5.163138975
188.68300,1.500806083
188.68350,-1.856332402
188.68400,-3.687498848
188.68450,-4.297887663
188.68500,-4.908276479
188.68550,-7.044637333
188.68600,-9.791387002
188.68650,-12.23294226
188.68700,-11.92774786
188.68750,-8.265414964
188.68800,-3.38230444
188.68850,-0.3303603634
188.68900,0.5852228597
188.68950,1.500806083
188.69000,2.416389306
188.69050,0.280028452
188.69100,-5.518665294
188.69150,-11.92774786
188.69200,-13.7589143
188.69250,-11.62255345
188.69300,-9.791387002
188.69350,-10.09658141
188.69400,-10.09658141
188.69450,-5.518665294
188.69500,2.416389306
188.69550,9.130666275
188.69600,9.130666275
188.69650,4.55275016
188.69700,0.8904172674
188.69750,0.8904172674
188.69800,1.195611675
188.69850,-0.3303603634
188.69900,-2.16152681
188.69950,-1.856332402
188.70000,-0.3303603634
188.70050,-0.6355547711
188.70100,-3.38230444
188.70150,-5.518665294
188.70200,-5.213470887
188.70250,-2.16152681
188.70300,1.195611675
188.70350,3.637166937
188.70400,4.55275016
188.70450,4.247555752
188.70500,4.247555752
188.70550,4.857944568
188.70600,4.857944568
188.70650,4.857944568
188.70700,6.689111014
188.70750,10.35144391
188.70800,12.79299917
188.70850,13.09819358
188.70900,13.70858239
188.70950,17.37091528
188.71000,21.9488314
188.71050,25.30596988
188.71100,26.83194192
188.71150,26.83194192
188.71200,25.00077548
188.71250,19.50727614
188.71300,10.35144391
188.71350,-1.245943586
188.71400,-14.06410871
188.71450,-23.52513535
188.71500,-25.05110739
188.71550,-18.33683042
188.71600,-7.960220556
188.71650,-0.3303603634
188.71700,3.942361344
188.71750,6.078722198
188.71800,5.773527791
188.71850,2.721583714
188.71900,-0.3303603634
188.71950,-2.16152681
188.72000,-1.551137994
188.72050,-0.3303603634
188.72100,1.500806083
188.72150,4.247555752
188.72200,5.468333383
188.72250,5.163138975
188.72300,4.247555752
188.72350,3.637166937
188.72400,1.806000491
188.72450,-2.16152681
188.72500,-5.823859702
188.72550,-7.655026148
188.72600,-7.960220556
188.72650,-8.265414964
188.72700,-7.044637333
188.72750,-3.687498848
188.72800,-0.6355547711
188.72850,-0.6355547711
188.72900,-2.16152681
188.72950,-2.771915625
188.73000,-3.077110033
188.73050,-4.908276479
188.73100,-7.655026148
188.73150,-7.655026148
188.73200,-4.908276479
188.73250,-4.297887663
188.73300,-8.265414964
188.73350,-14.67449753
188.73400,-19.55760805
188.73450,-20.47319127
188.73500,-17.7264416
188.73550,-14.36930312
188.73600,-12.84333108
188.73650,-14.67449753
188.73700,-16.20046956
188.73750,-14.67449753
188.73800,-9.486192594
188.73850,-4.603082071
188.73900,-2.16152681
188.73950,-0.9407491788
188.74000,0.5852228597
188.74050,2.721583714
188.74100,4.55275016
188.74150,5.773527791
188.74200,5.468333383
188.74250,3.637166937
188.74300,0.5852228597
188.74350,-0.02516595566
188.74400,2.721583714
188.74450,5.163138975
188.74500,5.468333383
188.74550,4.55275016
188.74600,4.247555752
188.74650,4.55275016
188.74700,3.942361344
188.74750,2.721583714
188.74800,1.806000491
188.74850,-0.02516595566
188.74900,-3.992693256
188.74950,-8.265414964
188.75000,-9.486192594
188.75050,-9.180998187
188.75100,-10.70697023
188.75150,-12.84333108
188.75200,-11.01216463
188.75250,-4.603082071
188.75300,0.280028452
188.75350,1.500806083
188.75400,0.8904172674
188.75450,1.500806083
188.75500,2.721583714
188.75550,3.942361344
188.75600,8.52027746
188.75650,15.84494324
188.75700,20.11766495
188.75750,19.20208173
188.75800,17.67610969
188.75850,19.50727614
188.75900,21.9488314
188.75950,19.81247054
188.76000,16.45533206
188.76050,15.23455443
188.76100,15.23455443
188.76150,13.40338798
188.76200,12.48780476
188.76250,15.23455443
188.76300,18.59169291
188.76350,15.53974884
188.76400,5.773527791
188.76450,-3.687498848
188.76500,-9.180998187
188.76550,-11.01216463
188.76600,-11.01216463
188.76650,-8.875803779
188.76700,-5.823859702
188.76750,-5.518665294
188.76800,-8.570609371
188.76850,-11.62255345
188.76900,-12.53813667
188.76950,-11.62255345
188.77000,-9.791387002
188.77050,-6.739442925
188.77100,-3.687498848
188.77150,-2.16152681
188.77200,-1.551137994
188.77250,-0.9407491788
188.77300,-0.02516595566
188.77350,-0.02516595566
188.77400,-0.02516595566
188.77450,0.5852228597
188.77500,2.416389306
188.77550,4.247555752
188.77600,6.689111014
188.77650,9.741055091
188.77700,12.48780476
188.77750,13.40338798
188.77800,11.57222154
188.77850,8.52027746
188.77900,5.163138975
188.77950,3.026778121
188.78000,3.026778121
188.78050,4.857944568
188.78100,6.383916606
188.78150,6.383916606
188.78200,5.468333383
188.78250,4.55275016
188.78300,3.942361344
188.78350,3.331972529
188.78400,2.416389306
188.78450,-0.3303603634
188.78500,-6.12905411
188.78550,-11.92774786
188.78600,-12.53813667
188.78650,-7.960220556
188.78700,-3.687498848
188.78750,-3.992693256
188.78800,-6.12905411
188.78850,-7.34983174
188.78900,-8.570609371
188.78950,-12.53813667
188.79000,-17.7264416
188.79050,-19.86280246
188.79100,-19.55760805
188.79150,-18.33683042
188.79200,-16.50566397
188.79250,-12.84333108
188.79300,-7.655026148
188.79350,-3.992693256
188.79400,-2.16152681
188.79450,-0.02516595566
188.79500,3.942361344
188.79550,6.383916606
188.79600,6.383916606
188.79650,5.773527791
188.79700,6.994305421
188.79750,7.909888645
188.79800,7.909888645
188.79850,7.604694237
188.79900,7.299499829
188.79950,5.773527791
188.80000,3.331972529
188.80050,1.806000491
188.80100,2.111194898
188.80150,2.416389306
188.80200,1.500806083
188.80250,-0.02516595566
188.80300,-0.9407491788
188.80350,-1.856332402
188.80400,-4.603082071
188.80450,-6.12905411
188.80500,-3.992693256
188.80550,1.806000491
188.80600,6.689111014
188.80650,6.994305421
188.80700,4.247555752
188.80750,1.806000491
188.80800,0.5852228597
188.80850,0.5852228597
188.80900,1.500806083
188.80950,3.637166937
188.81000,6.078722198
188.81050,8.825471868
188.81100,12.18261035
188.81150,16.45533206
188.81200,20.11766495
188.81250,21.33844258
188.81300,20.72805377
188.81350,20.11766495
188.81400,19.50727614
188.81450,17.37091528
188.81500,11.87741594
188.81550,4.55275016
188.81600,-2.16152681
188.81650,-8.875803779
188.81700,-14.36930312
188.81750,-18.03163601
188.81800,-17.7264416
188.81850,-14.06410871
188.81900,-9.180998187
188.81950,-6.434248517
188.82000,-6.12905411
188.82050,-6.12905411
188.82100,-4.603082071
188.82150,-1.245943586
188.82200,1.500806083
188.82250,1.806000491
188.82300,-0.02516595566
188.82350,-0.9407491788
188.82400,-0.3303603634
188.82450,-0.02516595566
188.82500,-2.16152681
188.82550,-5.518665294
188.82600,-7.34983174
188.82650,-7.655026148
188.82700,-7.960220556
188.82750,-9.791387002
188.82800,-10.70697023
188.82850,-10.40177582
188.82900,-9.180998187
188.82950,-9.180998187
188.83000,-10.70697023
188.83050,-12.84333108
188.83100,-14.06410871
188.83150,-14.36930312
188.83200,-13.7589143
188.83250,-12.53813667
188.83300,-12.23294226
188.83350,-11.92774786
188.83400,-11.31735904
188.83450,-8.875803779
188.83500,-5.823859702
188.83550,-2.771915625
188.83600,-1.245943586
188.83650,-0.3303603634
188.83700,-0.02516595566
188.83750,0.280028452
188.83800,-0.02516595566
188.83850,-0.9407491788
188.83900,-1.856332402
188.83950,-1.551137994
188.84000,-0.6355547711
188.84050,0.5852228597
188.84100,2.111194898
188.84150,2.416389306
188.84200,1.195611675
188.84250,-0.02516595566
188.84300,-0.02516595566
188.84350,2.416389306
188.84400,3.942361344
188.84450,5.163138975
188.84500,7.299499829
188.84550,10.65663831
188.84600,12.18261035
188.84650,10.65663831
188.84700,9.741055091
188.84750,12.48780476
188.84800,15.23455443
188.84850,13.40338798
188.84900,7.909888645
188.84950,2.721583714
188.85000,-2.466721217
188.85050,-9.486192594
188.85100,-16.81085838
188.85150,-19.55760805
188.85200,-18.64202483
188.85250,-18.03163601
188.85300,-18.64202483
188.85350,-17.11605279
188.85400,-12.23294226
188.85450,-7.044637333
188.85500,-3.077110033
188.85550,0.280028452
188.85600,3.942361344
188.85650,5.773527791
188.85700,6.689111014
188.85750,9.130666275
188.85800,13.09819358
188.85850,14.0137768
188.85900,10.65663831
188.85950,7.909888645
188.86000,9.741055091
188.86050,13.09819358
188.86100,13.70858239
188.86150,13.40338798
188.86200,13.70858239
188.86250,13.09819358
188.86300,9.741055091
188.86350,5.163138975
188.86400,2.721583714
188.86450,3.026778121
188.86500,3.026778121
188.86550,3.026778121
188.86600,4.55275016
188.86650,7.604694237
188.86700,8.825471868
188.86750,6.078722198
188.86800,-0.3303603634
188.86850,-8.570609371
188.86900,-14.97969193
188.86950,-17.11605279
188.87000,-16.81085838
188.87050,-15.89527516
188.87100,-15.89527516
188.87150,-16.20046956
188.87200,-16.50566397
188.87250,-17.42124719
188.87300,-17.7264416
188.87350,-15.28488634
188.87400,-10.09658141
188.87450,-4.603082071
188.87500,0.5852228597
188.87550,7.604694237
188.87600,14.62416561
188.87650,18.59169291
188.87700,18.89688732
188.87750,19.20208173
188.87800,19.81247054
188.87850,14.92936002
188.87900,0.5852228597
188.87950,-15.89527516
188.88000,-24.13552416
188.88050,-21.6939689
188.88100,-13.7589143
188.88150,-5.823859702
188.88200,0.5852228597
188.88250,6.383916606
188.88300,9.741055091
188.88350,9.741055091
188.88400,8.825471868
188.88450,7.909888645
188.88500,5.773527791
188.88550,1.195611675
188.88600,-2.16152681
188.88650,-3.077110033
188.88700,-2.466721217
188.88750,-4.297887663
188.88800,-8.875803779
188.88850,-13.14852549
188.88900,-14.67449753
188.88950,-13.14852549
188.89000,-9.791387002
188.89050,-6.739442925
188.89100,-4.908276479
188.89150,-4.603082071
188.89200,-2.466721217
188.89250,2.111194898
188.89300,7.909888645
188.89350,11.26702713
188.89400,10.96183272
188.89450,10.0462495
188.89500,10.96183272
188.89550,13.09819358
188.89600,14.0137768
188.89650,13.40338798
188.89700,13.09819358
188.89750,13.70858239
188.89800,14.31897121
188.89850,13.70858239
188.89900,11.57222154
188.89950,7.909888645
188.90000,5.468333383
188.90050,6.994305421
188.90100,11.57222154
188.90150,14.31897121
188.90200,12.18261035
188.90250,6.994305421
188.90300,3.637166937
188.90350,3.331972529
188.90400,3.637166937
188.90450,3.026778121
188.90500,1.806000491
188.90550,0.8904172674
188.90600,-0.6355547711
188.90650,-3.077110033
188.90700,-4.908276479
188.90750,-3.992693256
188.90800,-2.16152681
188.90850,-2.466721217
188.90900,-4.603082071
188.90950,-6.12905411
188.91000,-6.434248517
188.91050,-6.739442925
188.91100,-8.265414964
188.91150,-9.486192594
188.91200,-8.570609371
188.91250,-5.518665294
188.91300,-2.466721217
188.91350,-0.02516595566
188.91400,1.500806083
188.91450,2.416389306
188.91500,2.111194898
188.91550,1.500806083
188.91600,2.111194898
188.91650,2.721583714
188.91700,2.416389306
188.91750,1.195611675
188.91800,0.8904172674
188.91850,2.416389306
188.91900,4.857944568
188.91950,6.078722198
188.92000,6.078722198
188.92050,5.468333383
188.92100,5.468333383
188.92150,6.383916606
188.92200,7.299499829
188.92250,7.299499829
188.92300,6.383916606
188.92350,5.468333383
188.92400,5.468333383
188.92450,6.078722198
188.92500,6.994305421
188.92550,7.909888645
188.92600,8.825471868
188.92650,9.741055091
188.92700,11.26702713
188.92750,13.70858239
188.92800,15.53974884
188.92850,14.0137768
188.92900,9.741055091
188.92950,4.247555752
188.93000,-1.856332402
188.93050,-10.40177582
188.93100,-19.55760805
188.93150,-24.44071857
188.93200,-22.60955213
188.93250,-16.81085838
188.93300,-11.92774786
188.93350,-8.570609371
188.93400,-3.687498848
188.93450,1.195611675
188.93500,3.026778121
188.93550,0.5852228597
188.93600,-2.466721217
188.93650,-3.687498848
188.93700,-3.38230444
188.93750,-1.856332402
188.93800,-0.02516595566
188.93850,1.500806083
188.93900,1.195611675
188.93950,-0.02516595566
188.94000,-1.856332402
188.94050,-2.771915625
188.94100,-2.771915625
188.94150,-1.551137994
188.94200,0.280028452
188.94250,1.195611675
188.94300,-0.9407491788
188.94350,-5.518665294
188.94400,-7.960220556
188.94450,-6.739442925
188.94500,-3.992693256
188.94550,-2.466721217
188.94600,-3.077110033
188.94650,-4.603082071
188.94700,-6.739442925
188.94750,-7.960220556
188.94800,-7.960220556
188.94850,-7.655026148
188.94900,-8.570609371
188.94950,-11.01216463
188.95000,-13.7589143
188.95050,-14.67449753
188.95100,-14.67449753
188.95150,-15.28488634
188.95200,-16.50566397
188.95250,-15.59008075
188.95300,-10.70697023
188.95350,-2.466721217
188.95400,5.468333383
188.95450,10.65663831
188.95500,11.57222154
188.95550,8.52027746
188.95600,3.942361344
188.95650,1.500806083
188.95700,3.942361344
188.95750,10.0462495
188.95800,15.53974884
188.95850,17.06572088
188.95900,15.84494324
188.95950,14.92936002
188.96000,15.84494324
188.96050,17.9813041
188.96100,19.81247054
188.96150,20.42285936
188.96200,18.59169291
188.96250,14.0137768
188.96300,8.52027746
188.96350,3.942361344
188.96400,0.280028452
188.96450,-4.297887663
188.96500,-10.09658141
188.96550,-15.59008075
188.96600,-19.25241364
188.96650,-21.99916331
188.96700,-23.52513535
188.96750,-23.83032976
188.96800,-22.30435772
188.96850,-20.16799686
188.96900,-21.08358009
188.96950,-27.18746824
188.97000,-34.81732843
188.97050,-38.78485573
188.97100,-38.17446692
188.97150,-35.42771725
188.97200,-32.07057876
188.97250,-27.79785706
188.97300,-21.38877449
188.97350,-14.97969193
188.97400,-11.01216463
188.97450,-9.486192594
188.97500,-8.570609371
188.97550,-7.655026148
188.97600,-5.823859702
188.97650,-3.38230444
188.97700,-0.02516595566
188.97750,3.637166937
188.97800,5.773527791
188.97850,6.689111014
188.97900,7.909888645
188.97950,10.96183272
188.98000,16.76052647
188.98050,23.77999785
188.98100,30.18908041
188.98150,33.54621889
188.98200,32.93583008
188.98250,30.49427481
188.98300,28.66310837
188.98350,27.13713633
188.98400,25.00077548
188.98450,22.25402581
188.98500,20.42285936
188.98550,19.50727614
188.98600,16.76052647
188.98650,10.65663831
188.98700,2.721583714
188.98750,-2.16152681
188.98800,-3.38230444
188.98850,-3.077110033
188.98900,-4.297887663
188.98950,-8.265414964
188.99000,-11.01216463
188.99050,-11.01216463
188.99100,-9.791387002
188.99150,-9.791387002
188.99200,-10.70697023
188.99250,-9.486192594
188.99300,-7.044637333
188.99350,-5.213470887
188.99400,-5.518665294
188.99450,-6.12905411
188.99500,-5.518665294
188.99550,-3.992693256
188.99600,-2.771915625
188.99650,-1.245943586
188.99700,0.8904172674
188.99750,4.55275016
188.99800,7.604694237
188.99850,10.0462495
188.99900,11.57222154
188.99950,11.57222154
189.00000,10.96183272
189.00050,11.57222154
189.00100,14.31897121
189.00150,17.67610969
189.00200,20.11766495
189.00250,21.33844258
189.00300,22.25402581
189.00350,21.9488314
189.00400,19.20208173
189.00450,14.62416561
189.00500,9.130666275
189.00550,3.331972529
189.00600,-3.687498848
189.00650,-11.62255345
189.00700,-17.42124719
189.00750,-18.33683042
189.00800,-15.89527516
189.00850,-13.14852549
189.00900,-12.53813667
189.00950,-12.53813667
189.01000,-11.62255345
189.01050,-10.09658141
189.01100,-8.570609371
189.01150,-7.960220556
189.01200,-8.265414964
189.01250,-8.265414964
189.01300,-7.044637333
189.01350,-4.603082071
189.01400,-1.551137994
189.01450,1.806000491
189.01500,5.773527791
189.01550,9.741055091
189.01600,13.40338798
189.01650,16.76052647
189.01700,19.81247054
189.01750,21.9488314
189.01800,22.25402581
189.01850,21.03324818
189.01900,19.81247054
189.01950,17.9813041
189.02000,13.70858239
189.02050,6.689111014
189.02100,1.500806083
189.02150,1.195611675
189.02200,4.247555752
189.02250,6.383916606
189.02300,6.689111014
189.02350,6.078722198
189.02400,5.163138975
189.02450,2.111194898
189.02500,-2.466721217
189.02550,-4.603082071
189.02600,-3.077110033
189.02650,-1.856332402
189.02700,-5.823859702
189.02750,-13.14852549
189.02800,-18.03163601
189.02850,-18.33683042
189.02900,-16.81085838
189.02950,-16.81085838
189.03000,-17.11605279
189.03050,-16.20046956
189.03100,-14.67449753
189.03150,-13.14852549
189.03200,-12.53813667
189.03250,-12.84333108
189.03300,-12.53813667
189.03350,-11.01216463
189.03400,-7.960220556
189.03450,-5.213470887
189.03500,-3.38230444
189.03550,-1.856332402
189.03600,-0.02516595566
189.03650,2.416389306
189.03700,3.331972529
189.03750,3.331972529
189.03800,3.637166937
189.03850,5.163138975
189.03900,6.689111014
189.03950,7.299499829
189.04000,6.994305421
189.04050,6.994305421
189.04100,6.994305421
189.04150,6.383916606
189.04200,5.468333383
189.04250,3.942361344
189.04300,2.111194898
189.04350,0.5852228597
189.04400,-0.3303603634
189.04450,-2.16152681
189.04500,-4.603082071
189.04550,-6.12905411
189.04600,-5.823859702
189.04650,-4.603082071
189.04700,-5.213470887
189.04750,-7.044637333
189.04800,-8.875803779
189.04850,-9.180998187
189.04900,-10.09658141
189.04950,-13.14852549
189.05000,-15.59008075
189.05050,-15.89527516
189.05100,-15.28488634
189.05150,-14.97969193
189.05200,-14.06410871
189.05250,-10.70697023
189.05300,-6.739442925
189.05350,-5.823859702
189.05400,-7.960220556
189.05450,-8.570609371
189.05500,-4.603082071
189.05550,1.806000491
189.05600,7.909888645
189.05650,12.48780476
189.05700,17.06572088
189.05750,22.55922021
189.05800,26.83194192
189.05850,28.66310837
189.05900,28.35791396
189.05950,26.83194192
189.06000,24.08519225
189.06050,18.89688732
189.06100,10.96183272
189.06150,1.195611675
189.06200,-7.960220556
189.06250,-14.97969193
189.06300,-16.50566397
189.06350,-12.53813667
189.06400,-4.603082071
189.06450,2.416389306
189.06500,5.468333383
189.06550,4.247555752
189.06600,3.026778121
189.06650,5.773527791
189.06700,10.65663831
189.06750,12.48780476
189.06800,7.909888645
189.06850,0.8904172674
189.06900,-3.38230444
189.06950,-5.518665294
189.07000,-7.960220556
189.07050,-11.62255345
189.07100,-14.67449753
189.07150,-15.59008075
189.07200,-15.28488634
189.07250,-15.89527516
189.07300,-17.42124719
189.07350,-18.03163601
189.07400,-17.11605279
189.07450,-14.67449753
189.07500,-11.31735904
189.07550,-7.655026148
189.07600,-4.603082071
189.07650,-2.466721217
189.07700,-0.6355547711
189.07750,2.111194898
189.07800,6.078722198
189.07850,8.825471868
189.07900,10.0462495
189.07950,9.435860683
189.08000,8.52027746
189.08050,7.299499829
189.08100,6.994305421
189.08150,7.299499829
189.08200,7.604694237
189.08250,6.383916606
189.08300,3.942361344
189.08350,2.416389306
189.08400,2.416389306
189.08450,2.416389306
189.08500,1.500806083
189.08550,-0.3303603634
189.08600,-1.856332402
189.08650,-2.466721217
189.08700,-3.077110033
189.08750,-4.603082071
189.08800,-6.739442925
189.08850,-7.960220556
189.08900,-5.823859702
189.08950,-0.9407491788
189.09000,2.416389306
189.09050,0.8904172674
189.09100,-3.077110033
189.09150,-4.603082071
189.09200,-0.6355547711
189.09250,4.857944568
189.09300,9.130666275
189.09350,10.96183272
189.09400,11.87741594
189.09450,11.57222154
189.09500,9.741055091
189.09550,7.604694237
189.09600,6.689111014
189.09650,5.773527791
189.09700,5.163138975
189.09750,5.773527791
189.09800,7.909888645
189.09850,9.741055091
189.09900,10.65663831
189.09950,12.18261035
189.10000,15.53974884
189.10050,18.89688732
189.10100,18.89688732
189.10150,17.37091528
189.10200,16.45533206
189.10250,16.15013765
189.10300,14.0137768
189.10350,9.435860683
189.10400,5.163138975
189.10450,2.111194898
189.10500,-0.02516595566
189.10550,-2.771915625
189.10600,-3.992693256
189.10650,-2.771915625
189.10700,-1.551137994
189.10750,-2.771915625
189.10800,-5.823859702
189.10850,-8.570609371
189.10900,-9.180998187
189.10950,-9.180998187
189.11000,-10.09658141
189.11050,-11.31735904
189.11100,-12.53813667
189.11150,-12.84333108
189.11200,-12.53813667
189.11250,-12.23294226
189.11300,-11.92774786
189.11350,-10.70697023
189.11400,-8.570609371
189.11450,-4.908276479
189.11500,-0.3303603634
189.11550,3.942361344
189.11600,5.773527791
189.11650,4.857944568
189.11700,2.111194898
189.11750,0.5852228597
189.11800,0.8904172674
189.11850,2.111194898
189.11900,2.416389306
189.11950,1.806000491
189.12000,0.5852228597
189.12050,-0.02516595566
189.12100,-0.3303603634
189.12150,-0.02516595566
189.12200,0.280028452
189.12250,-0.6355547711
189.12300,-2.771915625
189.12350,-3.992693256
189.12400,-2.771915625
189.12450,-2.16152681
189.12500,-3.38230444
189.12550,-4.603082071
189.12600,-3.077110033
189.12650,-0.9407491788
189.12700,-1.245943586
189.12750,-4.908276479
189.12800,-8.265414964
189.12850,-9.180998187
189.12900,-9.486192594
189.12950,-10.70697023
189.13000,-11.62255345
189.13050,-12.23294226
189.13100,-13.7589143
189.13150,-16.81085838
189.13200,-19.25241364
189.13250,-19.55760805
189.13300,-18.64202483
189.13350,-18.03163601
189.13400,-17.11605279
189.13450,-14.36930312
189.13500,-10.40177582
189.13550,-5.823859702
189.13600,-1.245943586
189.13650,2.721583714
189.13700,6.689111014
189.13750,10.65663831
189.13800,14.62416561
189.13850,17.9813041
189.13900,19.50727614
189.13950,19.20208173
189.14000,20.11766495
189.14050,22.86441462
189.14100,25.61116429
189.14150,25.61116429
189.14200,23.77999785
189.14250,22.55922021
189.14300,21.33844258
189.14350,17.9813041
189.14400,12.79299917
189.14450,9.741055091
189.14500,9.435860683
189.14550,7.299499829
189.14600,1.195611675
189.14650,-7.044637333
189.14700,-14.06410871
189.14750,-17.11605279
189.14800,-17.11605279
189.14850,-15.89527516
189.14900,-14.36930312
189.14950,-13.7589143
189.15000,-14.06410871
189.15050,-14.06410871
189.15100,-13.45371989
189.15150,-12.53813667
189.15200,-11.92774786
189.15250,-11.62255345
189.15300,-11.62255345
189.15350,-11.01216463
189.15400,-9.486192594
189.15450,-7.34983174
189.15500,-5.518665294
189.15550,-5.213470887
189.15600,-4.603082071
189.15650,-1.551137994
189.15700,3.026778121
189.15750,6.383916606
189.15800,6.078722198
189.15850,3.637166937
189.15900,1.806000491
189.15950,1.806000491
189.16000,3.637166937
189.16050,6.689111014
189.16100,9.741055091
189.16150,10.65663831
189.16200,9.435860683
189.16250,7.909888645
189.16300,7.604694237
189.16350,7.604694237
189.16400,7.299499829
189.16450,6.689111014
189.16500,6.689111014
189.16550,5.468333383
189.16600,3.331972529
189.16650,2.416389306
189.16700,2.416389306
189.16750,0.8904172674
189.16800,-3.38230444
189.16850,-7.960220556
189.16900,-9.180998187
189.16950,-7.960220556
189.17000,-7.34983174
189.17050,-7.34983174
189.17100,-6.12905411
189.17150,-4.908276479
189.17200,-6.739442925
189.17250,-10.70697023
189.17300,-14.06410871
189.17350,-14.97969193
189.17400,-15.89527516
189.17450,-18.03163601
189.17500,-20.47319127
189.17550,-21.08358009
189.17600,-19.86280246
189.17650,-17.11605279
189.17700,-12.23294226
189.17750,-5.213470887
189.17800,2.416389306
189.17850,8.825471868
189.17900,11.57222154
189.17950,12.18261035
189.18000,14.31897121
189.18050,20.11766495
189.18100,26.22155311
189.18150,27.74752515
189.18200,22.86441462
189.18250,14.92936002
189.18300,9.435860683
189.18350,7.299499829
189.18400,6.994305421
189.18450,6.994305421
189.18500,6.689111014
189.18550,5.163138975
189.18600,2.416389306
189.18650,-0.02516595566
189.18700,-1.245943586
189.18750,-1.551137994
189.18800,-0.9407491788
189.18850,-0.3303603634
189.18900,0.8904172674
189.18950,2.721583714
189.19000,3.637166937
189.19050,3.026778121
189.19100,2.111194898
189.19150,1.500806083
189.19200,1.195611675
189.19250,0.5852228597
189.19300,-0.02516595566
189.19350,-0.9407491788
189.19400,-1.245943586
189.19450,-0.3303603634
189.19500,2.111194898
189.19550,6.689111014
189.19600,11.26702713
189.19650,13.09819358
189.19700,10.96183272
189.19750,8.215083052
189.19800,8.215083052
189.19850,10.0462495
189.19900,8.825471868
189.19950,2.416389306
189.20000,-5.823859702
189.20050,-11.62255345
189.20100,-13.45371989
189.20150,-12.23294226
189.20200,-9.791387002
189.20250,-5.213470887
189.20300,-0.9407491788
189.20350,0.280028452
189.20400,-0.9407491788
189.20450,-1.856332402
189.20500,-1.245943586
189.20550,0.5852228597
189.20600,2.111194898
189.20650,3.026778121
189.20700,3.942361344
189.20750,4.55275016
189.20800,4.55275016
189.20850,4.857944568
189.20900,5.163138975
189.20950,6.383916606
189.21000,8.52027746
189.21050,11.87741594
189.21100,14.0137768
189.21150,13.09819358
189.21200,11.26702713
189.21250,10.65663831
189.21300,10.0462495
189.21350,5.163138975
189.21400,-2.466721217
189.21450,-9.486192594
189.21500,-13.45371989
189.21550,-16.50566397
189.21600,-16.50566397
189.21650,-11.01216463
189.21700,-1.551137994
189.21750,3.026778121
189.21800,-0.3303603634
189.21850,-7.34983174
189.21900,-10.40177582
189.21950,-10.09658141
189.22000,-9.791387002
189.22050,-8.875803779
189.22100,-3.687498848
189.22150,3.637166937
189.22200,9.130666275
189.22250,10.35144391
189.22300,9.130666275
189.22350,6.383916606
189.22400,1.195611675
189.22450,-3.992693256
189.22500,-5.823859702
189.22550,-3.992693256
189.22600,-2.771915625
189.22650,-3.077110033
189.22700,-4.603082071
189.22750,-6.739442925
189.22800,-10.09658141
189.22850,-14.36930312
189.22900,-17.42124719
189.22950,-19.25241364
189.23000,-20.77838568
189.23050,-21.08358009
189.23100,-18.03163601
189.23150,-13.7589143
189.23200,-14.36930312
189.23250,-20.47319127
189.23300,-25.6614962
189.23350,-23.52513535
189.23400,-16.50566397
189.23450,-10.09658141
189.23500,-7.044637333
189.23550,-3.992693256
189.23600,1.806000491
189.23650,9.435860683
189.23700,15.53974884
189.23750,17.9813041
189.23800,17.9813041
189.23850,18.59169291
189.23900,20.11766495
189.23950,21.03324818
189.24000,21.03324818
189.24050,20.11766495
189.24100,19.50727614
189.24150,19.50727614
189.24200,19.81247054
189.24250,20.42285936
189.24300,21.64363699
189.24350,22.55922021
189.24400,21.33844258
189.24450,17.9813041
189.24500,13.40338798
189.24550,9.741055091
189.24600,8.215083052
189.24650,9.741055091
189.24700,12.18261035
189.24750,12.48780476
189.24800,9.130666275
189.24850,4.857944568
189.24900,2.111194898
189.24950,1.195611675
189.25000,-0.02516595566
189.25050,-1.856332402
189.25100,-3.992693256
189.25150,-6.12905411
189.25200,-8.875803779
189.25250,-12.23294226
189.25300,-14.97969193
189.25350,-14.97969193
189.25400,-11.31735904
189.25450,-6.434248517
189.25500,-3.077110033
189.25550,-1.856332402
189.25600,-1.245943586
189.25650,0.280028452
189.25700,2.721583714
189.25750,3.637166937
189.25800,3.637166937
189.25850,4.55275016
189.25900,6.078722198
189.25950,7.604694237
189.26000,8.825471868
189.26050,9.435860683
189.26100,9.130666275
189.26150,7.299499829
189.26200,4.247555752
189.26250,2.416389306
189.26300,0.280028452
189.26350,-4.603082071
189.26400,-12.84333108
189.26450,-20.16799686
189.26500,-22.60955213
189.26550,-21.38877449
189.26600,-19.86280246
189.26650,-18.33683042
189.26700,-15.28488634
189.26750,-12.84333108
189.26800,-13.45371989
189.26850,-17.7264416
189.26900,-22.30435772
189.26950,-24.44071857
189.27000,-25.35630179
189.27050,-25.6614962
189.27100,-23.52513535
189.27150,-18.33683042
189.27200,-12.53813667
189.27250,-8.265414964
189.27300,-6.12905411
189.27350,-2.771915625
189.27400,1.500806083
189.27450,5.773527791
189.27500,7.909888645
189.27550,10.0462495
189.27600,12.79299917
189.27650,15.23455443
189.27700,14.31897121
189.27750,9.741055091
189.27800,3.942361344
189.27850,0.8904172674
189.27900,0.5852228597
189.27950,0.5852228597
189.28000,-1.856332402
189.28050,-6.434248517
189.28100,-8.265414964
189.28150,-4.297887663
189.28200,3.026778121
189.28250,8.825471868
189.28300,9.130666275
189.28350,6.078722198
189.28400,3.331972529
189.28450,3.331972529
189.28500,5.773527791
189.28550,7.909888645
189.28600,6.994305421
189.28650,3.331972529
189.28700,-1.245943586
189.28750,-6.12905411
189.28800,-11.01216463
189.28850,-14.67449753
189.28900,-15.89527516
189.28950,-14.36930312
189.29000,-12.53813667
189.29050,-11.62255345
189.29100,-10.70697023
189.29150,-8.570609371
189.29200,-7.34983174
189.29250,-8.265414964
189.29300,-10.09658141
189.29350,-9.180998187
189.29400,-6.12905411
189.29450,-3.992693256
189.29500,-3.38230444
189.29550,-2.771915625
189.29600,-1.245943586
189.29650,0.5852228597
189.29700,1.500806083
189.29750,2.721583714
189.29800,5.773527791
189.29850,10.35144391
189.29900,14.62416561
189.29950,17.67610969
189.30000,19.50727614
189.30050,20.11766495
189.30100,20.42285936
189.30150,20.11766495
189.30200,19.81247054
189.30250,20.72805377
189.30300,23.47480344
189.30350,26.52674751
189.30400,27.44233074
189.30450,25.61116429
189.30500,22.25402581
189.30550,18.28649851
189.30600,14.62416561
189.30650,10.65663831
189.30700,6.994305421
189.30750,2.111194898
189.30800,-4.603082071
189.30850,-13.14852549
189.30900,-18.64202483
189.30950,-19.55760805
189.31000,-17.42124719
189.31050,-15.89527516
189.31100,-15.59008075
189.31150,-15.59008075
189.31200,-15.28488634
189.31250,-14.06410871
189.31300,-11.62255345
189.31350,-8.265414964
189.31400,-5.213470887
189.31450,-3.38230444
189.31500,-2.466721217
189.31550,-1.245943586
189.31600,-0.02516595566
189.31650,1.500806083
189.31700,3.331972529
189.31750,5.468333383
189.31800,6.994305421
189.31850,7.909888645
189.31900,9.741055091
189.31950,13.40338798
189.32000,18.59169291
189.32050,23.47480344
189.32100,25.30596988
189.32150,21.9488314
189.32200,14.92936002
189.32250,8.215083052
189.32300,4.247555752
189.32350,1.806000491
189.32400,-1.245943586
189.32450,-5.518665294
189.32500,-8.875803779
189.32550,-10.09658141
189.32600,-9.791387002
189.32650,-7.960220556
189.32700,-4.908276479
189.32750,-2.16152681
189.32800,-0.9407491788
189.32850,-0.02516595566
189.32900,3.331972529
189.32950,8.825471868
189.33000,13.09819358
189.33050,14.0137768
189.33100,12.18261035
189.33150,7.604694237
189.33200,-0.6355547711
189.33250,-11.92774786
189.33300,-21.99916331
189.33350,-26.27188502
189.33400,-24.44071857
189.33450,-20.16799686
189.33500,-15.28488634
189.33550,-11.31735904
189.33600,-8.265414964
189.33650,-6.12905411
189.33700,-3.992693256
189.33750,-1.856332402
189.33800,-0.6355547711
189.33850,-0.9407491788
189.33900,-1.856332402
189.33950,-2.771915625
189.34000,-3.687498848
189.34050,-3.077110033
189.34100,-0.02516595566
189.34150,5.773527791
189.34200,11.26702713
189.34250,14.0137768
189.34300,14.0137768
189.34350,12.48780476
189.34400,9.435860683
189.34450,6.383916606
189.34500,5.773527791
189.34550,6.994305421
189.34600,7.909888645
189.34650,6.078722198
189.34700,2.721583714
189.34750,0.5852228597
189.34800,0.5852228597
189.34850,-0.02516595566
189.34900,-1.245943586
189.34950,-3.38230444
189.35000,-5.518665294
189.35050,-7.044637333
189.35100,-8.265414964
189.35150,-9.180998187
189.35200,-9.486192594
189.35250,-9.791387002
189.35300,-11.01216463
189.35350,-13.14852549
189.35400,-14.67449753
189.35450,-13.45371989
189.35500,-7.960220556
189.35550,-0.6355547711
189.35600,4.247555752
189.35650,6.383916606
189.35700,7.604694237
189.35750,10.65663831
189.35800,14.0137768
189.35850,15.23455443
189.35900,14.0137768
189.35950,11.87741594
189.36000,10.35144391
189.36050,10.0462495
189.36100,9.741055091
189.36150,9.130666275
189.36200,8.52027746
189.36250,7.604694237
189.36300,5.773527791
189.36350,3.026778121
189.36400,-0.3303603634
189.36450,-3.38230444
189.36500,-4.908276479
189.36550,-6.12905411
189.36600,-8.570609371
189.36650,-11.62255345
189.36700,-12.53813667
189.36750,-9.791387002
189.36800,-4.603082071
189.36850,0.5852228597
189.36900,4.247555752
189.36950,4.857944568
189.37000,3.331972529
189.37050,2.721583714
189.37100,6.383916606
189.37150,11.87741594
189.37200,14.62416561
189.37250,11.57222154
189.37300,4.55275016
189.37350,-3.077110033
189.37400,-8.875803779
189.37450,-11.01216463
189.37500,-9.486192594
189.37550,-7.044637333
189.37600,-7.34983174
189.37650,-10.09658141
189.37700,-12.53813667
189.37750,-13.14852549
189.37800,-12.84333108
189.37850,-11.62255345
189.37900,-7.34983174
189.37950,-1.245943586
189.38000,3.026778121
189.38050,3.942361344
189.38100,3.026778121
189.38150,3.942361344
189.38200,4.857944568
189.38250,3.331972529
189.38300,-0.3303603634
189.38350,-5.213470887
189.38400,-10.09658141
189.38450,-14.67449753
189.38500,-17.42124719
189.38550,-15.89527516
189.38600,-11.92774786
189.38650,-9.791387002
189.38700,-10.40177582
189.38750,-12.23294226
189.38800,-12.84333108
189.38850,-11.92774786
189.38900,-11.01216463
189.38950,-11.62255345
189.39000,-13.45371989
189.39050,-13.7589143
189.39100,-11.01216463
189.39150,-5.823859702
189.39200,-0.9407491788
189.39250,2.721583714
189.39300,6.994305421
189.39350,11.87741594
189.39400,13.09819358
189.39450,9.130666275
189.39500,3.637166937
189.39550,1.195611675
189.39600,1.806000491
189.39650,0.8904172674
189.39700,-1.245943586
189.39750,-3.38230444
189.39800,-4.297887663
189.39850,-5.213470887
189.39900,-6.434248517
189.39950,-4.297887663
189.40000,1.500806083
189.40050,7.604694237
189.40100,10.96183272
189.40150,12.79299917
189.40200,17.06572088
189.40250,22.55922021
189.40300,26.22155311
189.40350,26.22155311
189.40400,24.39038666
189.40450,23.16960903
189.40500,21.33844258
189.40550,17.67610969
189.40600,13.70858239
189.40650,10.96183272
189.40700,9.130666275
189.40750,5.773527791
189.40800,0.280028452
189.40850,-5.823859702
189.40900,-11.62255345
189.40950,-18.03163601
189.41000,-26.27188502
189.41050,-33.90174521
189.41100,-37.2588837
189.41150,-35.73291166
189.41200,-30.23941232
189.41250,-22.30435772
189.41300,-13.7589143
189.41350,-7.655026148
189.41400,-5.518665294
189.41450,-6.12905411
189.41500,-6.12905411
189.41550,-3.992693256
189.41600,-1.856332402
189.41650,-2.16152681
189.41700,-3.077110033
189.41750,-1.245943586
189.41800,2.721583714
189.41850,7.909888645
189.41900,10.65663831
189.41950,11.57222154
189.42000,12.48780476
189.42050,14.31897121
189.42100,16.15013765
189.42150,16.45533206
189.42200,14.92936002
189.42250,12.79299917
189.42300,11.57222154
189.42350,10.96183272
189.42400,10.96183272
189.42450,10.0462495
189.42500,6.383916606
189.42550,0.8904172674
189.42600,-3.992693256
189.42650,-6.739442925
189.42700,-7.655026148
189.42750,-7.960220556
189.42800,-7.044637333
189.42850,-5.518665294
189.42900,-4.603082071
189.42950,-5.823859702
189.43000,-7.34983174
189.43050,-7.960220556
189.43100,-8.265414964
189.43150,-10.09658141
189.43200,-11.92774786
189.43250,-11.92774786
189.43300,-10.40177582
189.43350,-8.570609371
189.43400,-5.823859702
189.43450,-2.771915625
189.43500,-0.3303603634
189.43550,0.5852228597
189.43600,3.026778121
189.43650,8.52027746
189.43700,16.45533206
189.43750,23.77999785
189.43800,28.35791396
189.43850,28.96830278
189.43900,26.52674751
189.43950,24.08519225
189.44000,22.86441462
189.44050,22.25402581
189.44100,19.20208173
189.44150,15.53974884
189.44200,15.84494324
189.44250,21.64363699
189.44300,27.13713633
189.44350,27.44233074
189.44400,23.77999785
189.44450,19.50727614
189.44500,13.09819358
189.44550,2.721583714
189.44600,-8.875803779
189.44650,-15.89527516
189.44700,-16.20046956
189.44750,-12.84333108
189.44800,-8.570609371
189.44850,-4.603082071
189.44900,-2.466721217
189.44950,-2.466721217
189.45000,-5.213470887
189.45050,-7.960220556
189.45100,-10.70697023
189.45150,-12.84333108
189.45200,-13.45371989
189.45250,-11.92774786
189.45300,-11.01216463
189.45350,-12.23294226
189.45400,-14.36930312
189.45450,-15.28488634
189.45500,-14.97969193
189.45550,-13.7589143
189.45600,-11.62255345
189.45650,-7.655026148
189.45700,-3.687498848
189.45750,-0.9407491788
189.45800,0.280028452
189.45850,2.111194898
189.45900,3.637166937
189.45950,4.857944568
189.46000,5.773527791
189.46050,7.604694237
189.46100,7.909888645
189.46150,5.773527791
189.46200,3.637166937
189.46250,3.942361344
189.46300,5.773527791
189.46350,5.773527791
189.46400,3.637166937
189.46450,2.111194898
189.46500,2.721583714
189.46550,2.416389306
189.46600,-0.02516595566
189.46650,-2.466721217
189.46700,-2.771915625
189.46750,-3.077110033
189.46800,-4.603082071
189.46850,-5.823859702
189.46900,-5.213470887
189.46950,-4.297887663
189.47000,-5.518665294
189.47050,-8.570609371
189.47100,-10.70697023
189.47150,-12.23294226
189.47200,-13.7589143
189.47250,-14.97969193
189.47300,-15.28488634
189.47350,-15.28488634
189.47400,-16.20046956
189.47450,-15.89527516
189.47500,-12.84333108
189.47550,-8.875803779
189.47600,-8.265414964
189.47650,-10.09658141
189.47700,-8.570609371
189.47750,-1.551137994
189.47800,6.994305421
189.47850,12.48780476
189.47900,14.62416561
189.47950,14.92936002
189.48000,13.09819358
189.48050,9.435860683
189.48100,8.52027746
189.48150,11.26702713
189.48200,13.70858239
189.48250,11.57222154
189.48300,9.130666275
189.48350,12.48780476
189.48400,19.81247054
189.48450,23.16960903
189.48500,18.28649851
189.48550,10.65663831
189.48600,6.078722198
189.48650,5.773527791
189.48700,6.078722198
189.48750,5.468333383
189.48800,2.721583714
189.48850,-0.6355547711
189.48900,-3.687498848
189.48950,-4.603082071
189.49000,-5.213470887
189.49050,-7.960220556
189.49100,-11.31735904
189.49150,-11.62255345
189.49200,-9.180998187
189.49250,-7.960220556
189.49300,-9.180998187
189.49350,-10.70697023
189.49400,-11.31735904
189.49450,-11.01216463
189.49500,-10.09658141
189.49550,-6.12905411
189.49600,-0.02516595566
189.49650,5.468333383
189.49700,8.52027746
189.49750,10.65663831
189.49800,12.79299917
189.49850,13.70858239
189.49900,13.70858239
189.49950,14.92936002
189.50000,16.45533206
189.50050,15.23455443
189.50100,10.35144391
189.50150,5.163138975
189.50200,4.247555752
189.50250,6.078722198
189.50300,8.215083052
189.50350,7.604694237
189.50400,4.55275016
189.50450,0.5852228597
189.50500,-2.771915625
189.50550,-5.518665294
189.50600,-9.486192594
189.50650,-15.89527516
189.50700,-22.60955213
189.50750,-24.74591298
189.50800,-20.77838568
189.50850,-15.59008075
189.50900,-13.7589143
189.50950,-14.36930312
189.51000,-14.67449753
189.51050,-12.53813667
189.51100,-8.875803779
189.51150,-5.213470887
189.51200,-1.856332402
189.51250,-0.6355547711
189.51300,-2.466721217
189.51350,-6.434248517
189.51400,-11.31735904
189.51450,-13.7589143
189.51500,-11.62255345
189.51550,-6.434248517
189.51600,-2.466721217
189.51650,-1.856332402
189.51700,-3.38230444
189.51750,-4.297887663
189.51800,-3.992693256
189.51850,-3.992693256
189.51900,-3.992693256
189.51950,-2.771915625
189.52000,-0.9407491788
189.52050,0.5852228597
189.52100,2.721583714
189.52150,6.078722198
189.52200,9.741055091
189.52250,10.35144391
189.52300,7.604694237
189.52350,3.331972529
189.52400,0.280028452
189.52450,-0.9407491788
189.52500,-2.466721217
189.52550,-3.687498848
189.52600,-3.992693256
189.52650,-4.297887663
189.52700,-4.297887663
189.52750,-3.992693256
189.52800,-2.466721217
189.52850,-0.9407491788
189.52900,-0.02516595566
189.52950,0.280028452
189.53000,1.500806083
189.53050,2.721583714
189.53100,1.806000491
189.53150,0.5852228597
189.53200,2.416389306
189.53250,9.130666275
189.53300,17.06572088
189.53350,21.9488314
189.53400,22.86441462
189.53450,21.64363699
189.53500,20.72805377
189.53550,19.50727614
189.53600,17.9813041
189.53650,16.15013765
189.53700,14.62416561
189.53750,13.70858239
189.53800,13.70858239
189.53850,12.79299917
189.53900,8.825471868
189.53950,3.331972529
189.54000,0.280028452
189.54050,-0.02516595566
189.54100,0.280028452
189.54150,-1.856332402
189.54200,-5.518665294
189.54250,-7.960220556
189.54300,-8.570609371
189.54350,-8.875803779
189.54400,-8.265414964
189.54450,-4.908276479
189.54500,-0.02516595566
189.54550,4.55275016
189.54600,8.825471868
189.54650,12.18261035
189.54700,13.09819358
189.54750,9.130666275
189.54800,1.806000491
189.54850,-6.12905411
189.54900,-14.97969193
189.54950,-25.35630179
189.55000,-34.51213403
189.55050,-37.86927251
189.55100,-33.90174521
189.55150,-26.57707943
189.55200,-21.38877449
189.55250,-18.33683042
189.55300,-15.89527516
189.55350,-12.84333108
189.55400,-10.09658141
189.55450,-8.570609371
189.55500,-7.34983174
189.55550,-6.12905411
189.55600,-4.603082071
189.55650,-2.771915625
189.55700,-0.9407491788
189.55750,0.8904172674
189.55800,2.721583714
189.55850,4.55275016
189.55900,6.689111014
189.55950,8.825471868
189.56000,10.0462495
189.56050,11.26702713
189.56100,12.18261035
189.56150,12.79299917
189.56200,12.79299917
189.56250,12.18261035
189.56300,11.26702713
189.56350,10.65663831
189.56400,10.0462495
189.56450,9.130666275
189.56500,7.909888645
189.56550,6.994305421
189.56600,6.078722198
189.56650,5.163138975
189.56700,3.637166937
189.56750,1.500806083
189.56800,-1.856332402
189.56850,-6.739442925
189.56900,-9.180998187
189.56950,-8.875803779
189.57000,-7.655026148
189.57050,-8.875803779
189.57100,-11.62255345
189.57150,-12.53813667
189.57200,-11.01216463
189.57250,-8.570609371
189.57300,-6.12905411
189.57350,-2.771915625
189.57400,1.195611675
189.57450,2.721583714
189.57500,1.500806083
189.57550,-0.02516595566
189.57600,0.280028452
189.57650,1.195611675
189.57700,1.806000491
189.57750,2.111194898
189.57800,3.026778121
189.57850,4.857944568
189.57900,6.689111014
189.57950,6.994305421
189.58000,6.383916606
189.58050,4.247555752
189.58100,2.721583714
189.58150,3.637166937
189.58200,5.773527791
189.58250,6.383916606
189.58300,5.468333383
189.58350,4.247555752
189.58400,3.942361344
189.58450,3.637166937
189.58500,3.026778121
189.58550,3.637166937
189.58600,4.55275016
189.58650,4.857944568
189.58700,4.55275016
189.58750,6.994305421
189.58800,12.48780476
189.58850,16.15013765
189.58900,14.0137768
189.58950,7.299499829
189.59000,2.111194898
189.59050,0.5852228597
189.59100,0.280028452
189.59150,-1.245943586
189.59200,-4.908276479
189.59250,-8.570609371
189.59300,-10.40177582
189.59350,-11.31735904
189.59400,-12.53813667
189.59450,-14.36930312
189.59500,-14.97969193
189.59550,-13.45371989
189.59600,-10.40177582
189.59650,-7.655026148
189.59700,-4.908276479
189.59750,-0.6355547711
189.59800,4.247555752
189.59850,7.299499829
189.59900,7.299499829
189.59950,5.468333383
189.60000,4.857944568
189.60050,5.468333383
189.60100,5.773527791
189.60150,5.163138975
189.60200,4.247555752
189.60250,3.637166937
189.60300,3.942361344
189.60350,5.163138975
189.60400,5.773527791
189.60450,4.857944568
189.60500,2.416389306
189.60550,0.280028452
189.60600,-0.9407491788
189.60650,-2.466721217
189.60700,-4.603082071
189.60750,-7.34983174
189.60800,-9.486192594
189.60850,-10.40177582
189.60900,-11.31735904
189.60950,-12.53813667
189.61000,-13.45371989
189.61050,-12.53813667
189.61100,-9.180998187
189.61150,-6.434248517
189.61200,-6.434248517
189.61250,-9.180998187
189.61300,-10.09658141
189.61350,-7.044637333
189.61400,-3.38230444
189.61450,-2.466721217
189.61500,-4.297887663
189.61550,-3.992693256
189.61600,-0.6355547711
189.61650,3.331972529
189.61700,5.773527791
189.61750,6.994305421
189.61800,8.52027746
189.61850,10.65663831
189.61900,12.79299917
189.61950,15.53974884
189.62000,18.89688732
189.62050,19.81247054
189.62100,14.92936002
189.62150,4.55275016
189.62200,-7.655026148
