"type","name","time_units","begin_time","frequency","count","units"
"signal","Ultium EMG-FLEX.CAPR.U RT","s",186.96000,2000,22000,"uV"

"time","value"
186.96000,-0.3099225569
186.96050,-0.3099225569
186.96100,-0.9203113723
186.96150,-2.141089003
186.96200,-3.056672226
186.96250,-2.751477819
186.96300,-2.446283411
186.96350,-3.056672226
186.96400,-3.667061042
186.96450,-3.361866634
186.96500,-3.361866634
186.96550,-3.667061042
186.96600,-3.361866634
186.96650,-1.22550578
186.96700,0.6056606662
186.96750,0.9108550739
186.96800,0.3004662585
186.96850,-0.3099225569
186.96900,-0.9203113723
186.96950,-2.141089003
186.97000,-2.446283411
186.97050,-1.835894595
186.97100,-0.3099225569
186.97150,-0.004728149245
186.97200,-0.004728149245
186.97250,0.3004662585
186.97300,0.9108550739
186.97350,1.216049482
186.97400,0.9108550739
186.97450,1.216049482
186.97500,0.9108550739
186.97550,-0.004728149245
186.97600,-1.530700188
186.97650,-1.530700188
186.97700,-0.004728149245
186.97750,0.6056606662
186.97800,-0.004728149245
186.97850,-0.3099225569
186.97900,-0.3099225569
186.97950,-0.004728149245
186.98000,-0.004728149245
186.98050,-1.530700188
186.98100,-2.751477819
186.98150,-2.751477819
186.98200,-1.530700188
186.98250,-0.9203113723
186.98300,-2.141089003
186.98350,-4.277449857
186.98400,-4.887838672
186.98450,-3.361866634
186.98500,-2.141089003
186.98550,-2.446283411
186.98600,-2.446283411
186.98650,-1.22550578
186.98700,0.3004662585
186.98750,0.3004662585
186.98800,-0.004728149245
186.98850,1.216049482
186.98900,3.657604743
186.98950,4.878382374
186.99000,4.267993559
186.99050,3.047215928
186.99100,2.436827112
186.99150,1.521243889
186.99200,0.3004662585
186.99250,-0.004728149245
186.99300,0.6056606662
186.99350,1.521243889
186.99400,0.9108550739
186.99450,-0.004728149245
186.99500,-0.6151169646
186.99550,-0.6151169646
186.99600,-0.6151169646
186.99650,-0.6151169646
186.99700,-0.6151169646
186.99750,-1.22550578
186.99800,-2.751477819
186.99850,-3.361866634
186.99900,-2.141089003
186.99950,-0.3099225569
187.00000,-0.6151169646
187.00050,-1.530700188
187.00100,-0.6151169646
187.00150,1.826438297
187.00200,3.352410335
187.00250,1.521243889
187.00300,-1.835894595
187.00350,-3.667061042
187.00400,-3.972255449
187.00450,-3.972255449
187.00500,-3.972255449
187.00550,-2.751477819
187.00600,-0.6151169646
187.00650,-0.004728149245
187.00700,-0.6151169646
187.00750,-0.9203113723
187.00800,0.3004662585
187.00850,1.216049482
187.00900,0.9108550739
187.00950,0.6056606662
187.01000,0.9108550739
187.01050,0.9108550739
187.01100,-0.004728149245
187.01150,-0.3099225569
187.01200,0.3004662585
187.01250,0.9108550739
187.01300,-0.9203113723
187.01350,-3.667061042
187.01400,-4.277449857
187.01450,-1.530700188
187.01500,1.521243889
187.01550,3.657604743
187.01600,4.267993559
187.01650,3.657604743
187.01700,2.74202152
187.01750,2.436827112
187.01800,3.047215928
187.01850,4.573187966
187.01900,4.878382374
187.01950,3.657604743
187.02000,2.131632705
187.02050,1.521243889
187.02100,1.216049482
187.02150,0.6056606662
187.02200,-0.004728149245
187.02250,-0.004728149245
187.02300,-0.3099225569
187.02350,-1.22550578
187.02400,-3.056672226
187.02450,-4.887838672
187.02500,-6.108616303
187.02550,-6.413810711
187.02600,-5.803421896
187.02650,-4.277449857
187.02700,-2.446283411
187.02750,-1.530700188
187.02800,-2.141089003
187.02850,-3.667061042
187.02900,-4.277449857
187.02950,-2.751477819
187.03000,-0.6151169646
187.03050,-0.6151169646
187.03100,-2.751477819
187.03150,-4.887838672
187.03200,-6.413810711
187.03250,-7.329393934
187.03300,-6.719005119
187.03350,-3.056672226
187.03400,2.74202152
187.03450,7.930326451
187.03500,10.67707612
187.03550,11.28746494
187.03600,10.98227053
187.03650,10.0666873
187.03700,8.235520859
187.03750,6.70954882
187.03800,5.488771189
187.03850,4.267993559
187.03900,2.436827112
187.03950,1.216049482
187.04000,0.6056606662
187.04050,0.3004662585
187.04100,-0.3099225569
187.04150,-0.9203113723
187.04200,-0.9203113723
187.04250,-0.6151169646
187.04300,-0.6151169646
187.04350,-0.9203113723
187.04400,-1.835894595
187.04450,-3.361866634
187.04500,-4.277449857
187.04550,-4.277449857
187.04600,-3.667061042
187.04650,-3.972255449
187.04700,-5.19303308
187.04750,-5.19303308
187.04800,-3.361866634
187.04850,-2.141089003
187.04900,-2.751477819
187.04950,-3.667061042
187.05000,-3.056672226
187.05050,-1.530700188
187.05100,-0.004728149245
187.05150,1.216049482
187.05200,2.131632705
187.05250,2.436827112
187.05300,1.216049482
187.05350,-0.004728149245
187.05400,-0.004728149245
187.05450,-0.004728149245
187.05500,-0.3099225569
187.05550,-1.22550578
187.05600,-2.141089003
187.05650,-2.446283411
187.05700,-2.446283411
187.05750,-1.835894595
187.05800,-0.6151169646
187.05850,0.3004662585
187.05900,0.3004662585
187.05950,-0.004728149245
187.06000,-0.6151169646
187.06050,-0.9203113723
187.06100,-0.9203113723
187.06150,-1.22550578
187.06200,-1.530700188
187.06250,-2.446283411
187.06300,-3.056672226
187.06350,-2.446283411
187.06400,-1.22550578
187.06450,-0.3099225569
187.06500,-0.3099225569
187.06550,-1.22550578
187.06600,-2.751477819
187.06650,-3.667061042
187.06700,-2.751477819
187.06750,-0.9203113723
187.06800,-0.004728149245
187.06850,-0.004728149245
187.06900,0.9108550739
187.06950,3.657604743
187.07000,5.183576782
187.07050,3.352410335
187.07100,-0.004728149245
187.07150,-1.22550578
187.07200,0.6056606662
187.07250,2.74202152
187.07300,3.047215928
187.07350,2.74202152
187.07400,3.962799151
187.07450,5.183576782
187.07500,3.962799151
187.07550,1.521243889
187.07600,-0.004728149245
187.07650,0.3004662585
187.07700,-0.004728149245
187.07750,-0.6151169646
187.07800,-2.141089003
187.07850,-3.056672226
187.07900,-3.667061042
187.07950,-4.277449857
187.08000,-4.277449857
187.08050,-3.972255449
187.08100,-3.667061042
187.08150,-2.446283411
187.08200,-0.3099225569
187.08250,0.9108550739
187.08300,0.9108550739
187.08350,-0.004728149245
187.08400,0.6056606662
187.08450,2.74202152
187.08500,4.573187966
187.08550,5.183576782
187.08600,4.878382374
187.08650,3.352410335
187.08700,1.521243889
187.08750,-0.004728149245
187.08800,-0.004728149245
187.08850,0.6056606662
187.08900,0.9108550739
187.08950,0.6056606662
187.09000,-0.004728149245
187.09050,-0.3099225569
187.09100,-0.9203113723
187.09150,-1.530700188
187.09200,-1.530700188
187.09250,-1.22550578
187.09300,-1.530700188
187.09350,-1.835894595
187.09400,-1.22550578
187.09450,0.3004662585
187.09500,1.826438297
187.09550,1.826438297
187.09600,1.216049482
187.09650,-0.004728149245
187.09700,-0.6151169646
187.09750,-0.9203113723
187.09800,-0.3099225569
187.09850,-0.004728149245
187.09900,-0.004728149245
187.09950,-0.3099225569
187.10000,-0.6151169646
187.10050,-1.22550578
187.10100,-2.751477819
187.10150,-4.887838672
187.10200,-6.108616303
187.10250,-4.582644265
187.10300,-2.446283411
187.10350,-0.6151169646
187.10400,-0.3099225569
187.10450,-0.6151169646
187.10500,-0.6151169646
187.10550,-0.004728149245
187.10600,1.216049482
187.10650,2.74202152
187.10700,3.047215928
187.10750,1.826438297
187.10800,0.9108550739
187.10850,1.521243889
187.10900,2.74202152
187.10950,3.352410335
187.11000,2.74202152
187.11050,2.131632705
187.11100,2.131632705
187.11150,3.047215928
187.11200,3.352410335
187.11250,2.436827112
187.11300,1.216049482
187.11350,0.9108550739
187.11400,2.74202152
187.11450,4.573187966
187.11500,4.267993559
187.11550,2.436827112
187.11600,1.521243889
187.11650,2.131632705
187.11700,2.74202152
187.11750,1.521243889
187.11800,0.3004662585
187.11850,0.6056606662
187.11900,1.826438297
187.11950,2.436827112
187.12000,1.826438297
187.12050,0.6056606662
187.12100,0.3004662585
187.12150,0.6056606662
187.12200,0.3004662585
187.12250,-0.3099225569
187.12300,-1.22550578
187.12350,-1.22550578
187.12400,-0.6151169646
187.12450,-0.004728149245
187.12500,-0.3099225569
187.12550,-2.141089003
187.12600,-3.667061042
187.12650,-4.277449857
187.12700,-3.667061042
187.12750,-2.446283411
187.12800,-2.141089003
187.12850,-2.446283411
187.12900,-3.361866634
187.12950,-4.277449857
187.13000,-4.277449857
187.13050,-3.361866634
187.13100,-2.141089003
187.13150,-1.22550578
187.13200,-0.9203113723
187.13250,-0.6151169646
187.13300,-0.6151169646
187.13350,-0.6151169646
187.13400,-0.3099225569
187.13450,0.9108550739
187.13500,2.74202152
187.13550,3.352410335
187.13600,2.74202152
187.13650,2.131632705
187.13700,2.131632705
187.13750,2.436827112
187.13800,2.131632705
187.13850,1.826438297
187.13900,2.131632705
187.13950,2.74202152
187.14000,1.826438297
187.14050,-0.004728149245
187.14100,-1.22550578
187.14150,-0.9203113723
187.14200,0.6056606662
187.14250,1.521243889
187.14300,1.521243889
187.14350,0.9108550739
187.14400,0.6056606662
187.14450,0.3004662585
187.14500,-0.004728149245
187.14550,-0.3099225569
187.14600,0.3004662585
187.14650,2.131632705
187.14700,3.047215928
187.14750,2.436827112
187.14800,-0.004728149245
187.14850,-1.530700188
187.14900,-2.446283411
187.14950,-2.446283411
187.15000,-1.835894595
187.15050,-1.530700188
187.15100,-0.9203113723
187.15150,-0.6151169646
187.15200,-0.004728149245
187.15250,0.9108550739
187.15300,1.826438297
187.15350,2.131632705
187.15400,1.826438297
187.15450,1.826438297
187.15500,1.826438297
187.15550,2.131632705
187.15600,1.521243889
187.15650,0.9108550739
187.15700,1.216049482
187.15750,2.74202152
187.15800,3.657604743
187.15850,3.047215928
187.15900,2.131632705
187.15950,1.826438297
187.16000,2.131632705
187.16050,2.131632705
187.16100,2.131632705
187.16150,2.74202152
187.16200,4.267993559
187.16250,5.183576782
187.16300,4.267993559
187.16350,1.826438297
187.16400,-0.3099225569
187.16450,-1.22550578
187.16500,-0.004728149245
187.16550,1.521243889
187.16600,3.657604743
187.16650,4.878382374
187.16700,5.488771189
187.16750,5.183576782
187.16800,4.573187966
187.16850,3.047215928
187.16900,1.216049482
187.16950,-0.6151169646
187.17000,-3.056672226
187.17050,-4.582644265
187.17100,-4.582644265
187.17150,-2.751477819
187.17200,-0.6151169646
187.17250,-0.004728149245
187.17300,-0.004728149245
187.17350,-0.9203113723
187.17400,-1.530700188
187.17450,-2.141089003
187.17500,-1.22550578
187.17550,-0.004728149245
187.17600,1.521243889
187.17650,1.826438297
187.17700,0.9108550739
187.17750,-0.004728149245
187.17800,-0.6151169646
187.17850,-2.141089003
187.17900,-3.361866634
187.17950,-3.667061042
187.18000,-3.056672226
187.18050,-2.446283411
187.18100,-2.751477819
187.18150,-4.277449857
187.18200,-6.108616303
187.18250,-7.634588342
187.18300,-7.024199526
187.18350,-4.887838672
187.18400,-3.667061042
187.18450,-5.19303308
187.18500,-7.939782749
187.18550,-8.550171565
187.18600,-6.413810711
187.18650,-3.361866634
187.18700,-1.22550578
187.18750,-0.004728149245
187.18800,1.216049482
187.18850,1.521243889
187.18900,0.3004662585
187.18950,-0.9203113723
187.19000,-1.530700188
187.19050,-1.22550578
187.19100,-0.9203113723
187.19150,-0.9203113723
187.19200,-1.530700188
187.19250,-1.835894595
187.19300,-1.22550578
187.19350,-0.004728149245
187.19400,-0.004728149245
187.19450,-1.835894595
187.19500,-4.277449857
187.19550,-4.277449857
187.19600,-1.835894595
187.19650,-0.004728149245
187.19700,-0.6151169646
187.19750,-1.835894595
187.19800,-2.141089003
187.19850,-1.835894595
187.19900,-1.835894595
187.19950,-1.22550578
187.20000,-0.6151169646
187.20050,-0.3099225569
187.20100,-0.3099225569
187.20150,-0.004728149245
187.20200,1.826438297
187.20250,2.74202152
187.20300,2.131632705
187.20350,0.6056606662
187.20400,0.3004662585
187.20450,0.3004662585
187.20500,-0.004728149245
187.20550,-0.9203113723
187.20600,-1.530700188
187.20650,-1.530700188
187.20700,-0.6151169646
187.20750,-0.004728149245
187.20800,-0.004728149245
187.20850,-0.004728149245
187.20900,0.3004662585
187.20950,1.216049482
187.21000,1.826438297
187.21050,1.826438297
187.21100,2.131632705
187.21150,3.352410335
187.21200,3.657604743
187.21250,2.436827112
187.21300,1.826438297
187.21350,3.047215928
187.21400,4.878382374
187.21450,4.267993559
187.21500,2.131632705
187.21550,1.521243889
187.21600,3.352410335
187.21650,4.573187966
187.21700,3.047215928
187.21750,1.521243889
187.21800,2.131632705
187.21850,3.657604743
187.21900,3.657604743
187.21950,2.436827112
187.22000,1.826438297
187.22050,2.131632705
187.22100,2.436827112
187.22150,1.826438297
187.22200,0.3004662585
187.22250,-1.530700188
187.22300,-3.056672226
187.22350,-3.361866634
187.22400,-3.056672226
187.22450,-3.056672226
187.22500,-3.056672226
187.22550,-2.141089003
187.22600,-0.3099225569
187.22650,0.6056606662
187.22700,-0.004728149245
187.22750,-0.3099225569
187.22800,-0.004728149245
187.22850,0.6056606662
187.22900,1.216049482
187.22950,1.216049482
187.23000,1.216049482
187.23050,2.131632705
187.23100,3.352410335
187.23150,2.74202152
187.23200,1.216049482
187.23250,-0.3099225569
187.23300,-0.9203113723
187.23350,-0.3099225569
187.23400,-0.004728149245
187.23450,-0.6151169646
187.23500,-1.835894595
187.23550,-2.446283411
187.23600,-1.530700188
187.23650,-0.3099225569
187.23700,-0.004728149245
187.23750,-0.6151169646
187.23800,-0.004728149245
187.23850,1.521243889
187.23900,3.047215928
187.23950,2.74202152
187.24000,0.9108550739
187.24050,-0.3099225569
187.24100,-0.004728149245
187.24150,1.216049482
187.24200,1.826438297
187.24250,0.9108550739
187.24300,-0.004728149245
187.24350,-0.004728149245
187.24400,0.3004662585
187.24450,0.6056606662
187.24500,0.9108550739
187.24550,1.521243889
187.24600,1.826438297
187.24650,2.131632705
187.24700,2.74202152
187.24750,3.657604743
187.24800,4.267993559
187.24850,4.573187966
187.24900,3.962799151
187.24950,3.352410335
187.25000,3.047215928
187.25050,3.657604743
187.25100,3.657604743
187.25150,1.826438297
187.25200,-0.3099225569
187.25250,-2.446283411
187.25300,-2.751477819
187.25350,-1.835894595
187.25400,-1.835894595
187.25450,-2.141089003
187.25500,-2.446283411
187.25550,-2.141089003
187.25600,-1.835894595
187.25650,-1.22550578
187.25700,-0.6151169646
187.25750,-0.004728149245
187.25800,-0.004728149245
187.25850,-0.6151169646
187.25900,-1.835894595
187.25950,-3.056672226
187.26000,-4.277449857
187.26050,-4.887838672
187.26100,-4.582644265
187.26150,-3.972255449
187.26200,-3.056672226
187.26250,-2.446283411
187.26300,-2.751477819
187.26350,-3.056672226
187.26400,-3.056672226
187.26450,-2.446283411
187.26500,-1.835894595
187.26550,-1.22550578
187.26600,-1.530700188
187.26650,-3.056672226
187.26700,-4.277449857
187.26750,-4.277449857
187.26800,-2.751477819
187.26850,-0.9203113723
187.26900,-0.3099225569
187.26950,-1.22550578
187.27000,-2.446283411
187.27050,-3.361866634
187.27100,-3.972255449
187.27150,-3.667061042
187.27200,-2.446283411
187.27250,-0.3099225569
187.27300,1.826438297
187.27350,3.962799151
187.27400,5.183576782
187.27450,5.183576782
187.27500,4.267993559
187.27550,3.657604743
187.27600,3.352410335
187.27650,2.74202152
187.27700,1.521243889
187.27750,-0.004728149245
187.27800,-0.6151169646
187.27850,-1.22550578
187.27900,-1.22550578
187.27950,-0.004728149245
187.28000,1.216049482
187.28050,1.826438297
187.28100,0.9108550739
187.28150,-0.004728149245
187.28200,0.3004662585
187.28250,0.6056606662
187.28300,-0.004728149245
187.28350,-0.9203113723
187.28400,-0.3099225569
187.28450,-0.004728149245
187.28500,-0.3099225569
187.28550,-1.530700188
187.28600,-1.22550578
187.28650,-0.004728149245
187.28700,0.6056606662
187.28750,-0.3099225569
187.28800,-1.530700188
187.28850,-1.835894595
187.28900,-1.22550578
187.28950,-0.6151169646
187.29000,0.3004662585
187.29050,0.9108550739
187.29100,-0.3099225569
187.29150,-3.056672226
187.29200,-3.667061042
187.29250,-1.835894595
187.29300,-0.6151169646
187.29350,-1.530700188
187.29400,-3.056672226
187.29450,-2.446283411
187.29500,-0.004728149245
187.29550,1.216049482
187.29600,0.3004662585
187.29650,-1.835894595
187.29700,-3.056672226
187.29750,-3.361866634
187.29800,-2.751477819
187.29850,-2.446283411
187.29900,-2.751477819
187.29950,-3.667061042
187.30000,-3.667061042
187.30050,-2.751477819
187.30100,-1.835894595
187.30150,-1.835894595
187.30200,-1.835894595
187.30250,-0.9203113723
187.30300,-0.004728149245
187.30350,-0.3099225569
187.30400,-1.530700188
187.30450,-2.141089003
187.30500,-2.751477819
187.30550,-3.972255449
187.30600,-5.19303308
187.30650,-4.277449857
187.30700,-2.141089003
187.30750,-0.004728149245
187.30800,1.216049482
187.30850,3.047215928
187.30900,5.488771189
187.30950,6.099160005
187.31000,4.267993559
187.31050,2.131632705
187.31100,2.436827112
187.31150,3.352410335
187.31200,2.436827112
187.31250,0.6056606662
187.31300,0.6056606662
187.31350,2.131632705
187.31400,3.657604743
187.31450,3.962799151
187.31500,3.657604743
187.31550,3.657604743
187.31600,2.74202152
187.31650,0.9108550739
187.31700,-0.004728149245
187.31750,-0.004728149245
187.31800,-0.3099225569
187.31850,-1.530700188
187.31900,-2.141089003
187.31950,-0.6151169646
187.32000,2.74202152
187.32050,6.404354412
187.32100,8.540715266
187.32150,9.45629849
187.32200,8.540715266
187.32250,6.099160005
187.32300,4.267993559
187.32350,3.657604743
187.32400,3.962799151
187.32450,3.047215928
187.32500,0.6056606662
187.32550,-0.004728149245
187.32600,0.9108550739
187.32650,2.74202152
187.32700,3.657604743
187.32750,4.878382374
187.32800,7.014743228
187.32850,8.540715266
187.32900,7.930326451
187.32950,5.793965597
187.33000,3.962799151
187.33050,3.047215928
187.33100,1.521243889
187.33150,0.3004662585
187.33200,-0.6151169646
187.33250,-1.835894595
187.33300,-3.972255449
187.33350,-6.108616303
187.33400,-6.413810711
187.33450,-4.887838672
187.33500,-3.361866634
187.33550,-2.751477819
187.33600,-1.835894595
187.33650,-0.3099225569
187.33700,1.216049482
187.33750,2.436827112
187.33800,2.74202152
187.33850,2.436827112
187.33900,1.521243889
187.33950,-0.004728149245
187.34000,-1.530700188
187.34050,-3.056672226
187.34100,-3.667061042
187.34150,-2.446283411
187.34200,-0.3099225569
187.34250,-0.004728149245
187.34300,-0.6151169646
187.34350,-0.6151169646
187.34400,0.3004662585
187.34450,1.826438297
187.34500,0.9108550739
187.34550,-1.22550578
187.34600,-2.446283411
187.34650,-2.446283411
187.34700,-2.141089003
187.34750,-1.530700188
187.34800,-0.3099225569
187.34850,0.3004662585
187.34900,-0.004728149245
187.34950,-0.9203113723
187.35000,-1.22550578
187.35050,-1.530700188
187.35100,-2.141089003
187.35150,-2.751477819
187.35200,-1.530700188
187.35250,0.3004662585
187.35300,0.9108550739
187.35350,-0.004728149245
187.35400,-0.004728149245
187.35450,1.216049482
187.35500,2.131632705
187.35550,2.131632705
187.35600,3.352410335
187.35650,5.488771189
187.35700,5.793965597
187.35750,3.047215928
187.35800,-0.6151169646
187.35850,-1.835894595
187.35900,-1.22550578
187.35950,-1.22550578
187.36000,-1.835894595
187.36050,-1.835894595
187.36100,-0.9203113723
187.36150,-1.530700188
187.36200,-3.667061042
187.36250,-5.803421896
187.36300,-6.108616303
187.36350,-5.19303308
187.36400,-5.19303308
187.36450,-6.108616303
187.36500,-6.413810711
187.36550,-5.498227488
187.36600,-3.667061042
187.36650,-3.056672226
187.36700,-3.361866634
187.36750,-3.667061042
187.36800,-3.361866634
187.36850,-3.056672226
187.36900,-2.751477819
187.36950,-2.141089003
187.37000,-1.530700188
187.37050,-0.9203113723
187.37100,-0.6151169646
187.37150,-0.004728149245
187.37200,1.521243889
187.37250,1.521243889
187.37300,-0.004728149245
187.37350,-1.835894595
187.37400,-1.530700188
187.37450,-0.6151169646
187.37500,-1.22550578
187.37550,-2.751477819
187.37600,-3.667061042
187.37650,-2.751477819
187.37700,-0.9203113723
187.37750,-0.004728149245
187.37800,-0.004728149245
187.37850,-0.6151169646
187.37900,-1.835894595
187.37950,-2.141089003
187.38000,-2.446283411
187.38050,-3.361866634
187.38100,-4.582644265
187.38150,-3.972255449
187.38200,-1.835894595
187.38250,0.3004662585
187.38300,2.131632705
187.38350,4.267993559
187.38400,4.878382374
187.38450,2.436827112
187.38500,-1.835894595
187.38550,-3.972255449
187.38600,-2.751477819
187.38650,-0.3099225569
187.38700,-0.3099225569
187.38750,-1.530700188
187.38800,-1.835894595
187.38850,-0.6151169646
187.38900,0.6056606662
187.38950,1.521243889
187.39000,2.131632705
187.39050,2.131632705
187.39100,1.521243889
187.39150,1.826438297
187.39200,2.74202152
187.39250,3.657604743
187.39300,3.352410335
187.39350,2.436827112
187.39400,2.131632705
187.39450,1.826438297
187.39500,1.521243889
187.39550,1.826438297
187.39600,2.74202152
187.39650,2.74202152
187.39700,1.216049482
187.39750,-0.3099225569
187.39800,-0.9203113723
187.39850,-0.004728149245
187.39900,0.6056606662
187.39950,1.216049482
187.40000,2.131632705
187.40050,2.74202152
187.40100,2.131632705
187.40150,1.216049482
187.40200,0.6056606662
187.40250,0.6056606662
187.40300,-0.004728149245
187.40350,-1.22550578
187.40400,-1.22550578
187.40450,-0.3099225569
187.40500,-0.004728149245
187.40550,-0.9203113723
187.40600,-1.835894595
187.40650,-1.835894595
187.40700,-1.22550578
187.40750,-0.3099225569
187.40800,0.3004662585
187.40850,1.521243889
187.40900,2.436827112
187.40950,2.436827112
187.41000,3.047215928
187.41050,4.267993559
187.41100,4.878382374
187.41150,3.657604743
187.41200,1.826438297
187.41250,0.6056606662
187.41300,0.3004662585
187.41350,-0.004728149245
187.41400,-0.6151169646
187.41450,-1.835894595
187.41500,-2.141089003
187.41550,-1.22550578
187.41600,0.6056606662
187.41650,3.352410335
187.41700,3.962799151
187.41750,2.436827112
187.41800,0.3004662585
187.41850,0.3004662585
187.41900,1.521243889
187.41950,1.216049482
187.42000,-0.3099225569
187.42050,-1.530700188
187.42100,-0.6151169646
187.42150,0.3004662585
187.42200,-0.004728149245
187.42250,-0.3099225569
187.42300,0.9108550739
187.42350,3.352410335
187.42400,3.962799151
187.42450,2.74202152
187.42500,2.131632705
187.42550,3.962799151
187.42600,6.099160005
187.42650,6.404354412
187.42700,4.878382374
187.42750,3.352410335
187.42800,2.74202152
187.42850,3.047215928
187.42900,3.047215928
187.42950,2.436827112
187.43000,0.9108550739
187.43050,-0.004728149245
187.43100,0.3004662585
187.43150,1.521243889
187.43200,2.131632705
187.43250,1.216049482
187.43300,-0.004728149245
187.43350,-1.22550578
187.43400,-1.835894595
187.43450,-1.530700188
187.43500,-0.6151169646
187.43550,-0.004728149245
187.43600,-0.9203113723
187.43650,-3.056672226
187.43700,-3.667061042
187.43750,-1.835894595
187.43800,-0.3099225569
187.43850,-0.6151169646
187.43900,-1.835894595
187.43950,-1.835894595
187.44000,-0.3099225569
187.44050,0.3004662585
187.44100,0.3004662585
187.44150,0.3004662585
187.44200,0.6056606662
187.44250,1.521243889
187.44300,3.047215928
187.44350,4.878382374
187.44400,5.183576782
187.44450,3.962799151
187.44500,1.826438297
187.44550,0.9108550739
187.44600,0.9108550739
187.44650,0.3004662585
187.44700,-0.6151169646
187.44750,-0.9203113723
187.44800,-0.9203113723
187.44850,-0.3099225569
187.44900,0.6056606662
187.44950,2.131632705
187.45000,2.74202152
187.45050,0.6056606662
187.45100,-2.141089003
187.45150,-3.667061042
187.45200,-3.972255449
187.45250,-3.972255449
187.45300,-4.582644265
187.45350,-4.277449857
187.45400,-3.056672226
187.45450,-2.446283411
187.45500,-2.141089003
187.45550,-1.22550578
187.45600,-0.3099225569
187.45650,-0.6151169646
187.45700,-1.835894595
187.45750,-2.751477819
187.45800,-1.835894595
187.45850,-0.6151169646
187.45900,-0.9203113723
187.45950,-2.141089003
187.46000,-3.361866634
187.46050,-2.751477819
187.46100,-1.22550578
187.46150,-0.004728149245
187.46200,0.6056606662
187.46250,-0.004728149245
187.46300,-0.3099225569
187.46350,-0.6151169646
187.46400,-0.3099225569
187.46450,-0.3099225569
187.46500,-0.004728149245
187.46550,1.826438297
187.46600,3.962799151
187.46650,5.488771189
187.46700,5.183576782
187.46750,3.657604743
187.46800,1.216049482
187.46850,-0.9203113723
187.46900,-2.751477819
187.46950,-3.361866634
187.47000,-3.056672226
187.47050,-2.446283411
187.47100,-1.530700188
187.47150,-0.3099225569
187.47200,0.3004662585
187.47250,0.6056606662
187.47300,0.9108550739
187.47350,1.826438297
187.47400,3.047215928
187.47450,2.74202152
187.47500,1.521243889
187.47550,-0.004728149245
187.47600,-1.530700188
187.47650,-2.141089003
187.47700,-2.446283411
187.47750,-1.530700188
187.47800,-1.22550578
187.47850,-2.446283411
187.47900,-4.277449857
187.47950,-4.582644265
187.48000,-3.361866634
187.48050,-2.751477819
187.48100,-3.361866634
187.48150,-3.667061042
187.48200,-3.056672226
187.48250,-2.751477819
187.48300,-3.667061042
187.48350,-4.887838672
187.48400,-5.19303308
187.48450,-3.972255449
187.48500,-2.446283411
187.48550,-0.3099225569
187.48600,1.521243889
187.48650,2.74202152
187.48700,2.436827112
187.48750,1.521243889
187.48800,0.6056606662
187.48850,-0.004728149245
187.48900,-1.22550578
187.48950,-2.446283411
187.49000,-2.446283411
187.49050,-2.141089003
187.49100,-2.446283411
187.49150,-3.361866634
187.49200,-3.667061042
187.49250,-3.667061042
187.49300,-4.277449857
187.49350,-5.19303308
187.49400,-4.887838672
187.49450,-3.361866634
187.49500,-2.446283411
187.49550,-2.751477819
187.49600,-3.056672226
187.49650,-2.141089003
187.49700,-0.6151169646
187.49750,0.6056606662
187.49800,0.6056606662
187.49850,-0.3099225569
187.49900,-2.446283411
187.49950,-3.972255449
187.50000,-3.361866634
187.50050,-2.446283411
187.50100,-1.835894595
187.50150,-1.22550578
187.50200,-0.3099225569
187.50250,0.6056606662
187.50300,1.826438297
187.50350,2.74202152
187.50400,4.878382374
187.50450,6.404354412
187.50500,5.488771189
187.50550,3.047215928
187.50600,1.216049482
187.50650,1.521243889
187.50700,2.436827112
187.50750,1.521243889
187.50800,0.3004662585
187.50850,0.3004662585
187.50900,1.521243889
187.50950,2.74202152
187.51000,2.74202152
187.51050,1.826438297
187.51100,1.216049482
187.51150,1.521243889
187.51200,2.436827112
187.51250,3.047215928
187.51300,2.131632705
187.51350,0.6056606662
187.51400,0.3004662585
187.51450,0.6056606662
187.51500,0.3004662585
187.51550,-0.004728149245
187.51600,-0.3099225569
187.51650,0.3004662585
187.51700,0.9108550739
187.51750,0.6056606662
187.51800,-0.004728149245
187.51850,-0.004728149245
187.51900,-0.004728149245
187.51950,0.6056606662
187.52000,1.521243889
187.52050,2.74202152
187.52100,3.047215928
187.52150,2.131632705
187.52200,0.3004662585
187.52250,-0.9203113723
187.52300,-0.9203113723
187.52350,-0.004728149245
187.52400,0.6056606662
187.52450,0.3004662585
187.52500,-0.6151169646
187.52550,-1.835894595
187.52600,-1.835894595
187.52650,-1.22550578
187.52700,-0.6151169646
187.52750,-0.004728149245
187.52800,0.3004662585
187.52850,1.216049482
187.52900,2.436827112
187.52950,3.657604743
187.53000,5.488771189
187.53050,7.319937636
187.53100,7.625132043
187.53150,6.404354412
187.53200,4.573187966
187.53250,3.657604743
187.53300,3.352410335
187.53350,1.826438297
187.53400,-0.3099225569
187.53450,-1.530700188
187.53500,-0.6151169646
187.53550,-0.004728149245
187.53600,-0.004728149245
187.53650,-0.004728149245
187.53700,0.3004662585
187.53750,1.216049482
187.53800,1.216049482
187.53850,0.3004662585
187.53900,0.9108550739
187.53950,2.131632705
187.54000,2.436827112
187.54050,1.216049482
187.54100,0.3004662585
187.54150,0.6056606662
187.54200,0.3004662585
187.54250,-1.22550578
187.54300,-2.751477819
187.54350,-2.751477819
187.54400,-2.141089003
187.54450,-2.751477819
187.54500,-3.972255449
187.54550,-5.19303308
187.54600,-5.803421896
187.54650,-7.329393934
187.54700,-8.244977157
187.54750,-6.413810711
187.54800,-2.446283411
187.54850,1.216049482
187.54900,2.74202152
187.54950,3.657604743
187.55000,5.793965597
187.55050,8.235520859
187.55100,9.151104082
187.55150,7.625132043
187.55200,5.488771189
187.55250,4.267993559
187.55300,3.962799151
187.55350,3.047215928
187.55400,1.521243889
187.55450,1.216049482
187.55500,3.047215928
187.55550,4.573187966
187.55600,3.962799151
187.55650,1.521243889
187.55700,-0.3099225569
187.55750,-0.6151169646
187.55800,0.3004662585
187.55850,2.436827112
187.55900,4.878382374
187.55950,6.70954882
187.56000,6.099160005
187.56050,3.657604743
187.56100,1.216049482
187.56150,-0.004728149245
187.56200,-1.530700188
187.56250,-2.446283411
187.56300,-2.141089003
187.56350,-0.6151169646
187.56400,-0.004728149245
187.56450,-1.530700188
187.56500,-4.582644265
187.56550,-5.803421896
187.56600,-4.887838672
187.56650,-3.667061042
187.56700,-3.667061042
187.56750,-3.667061042
187.56800,-2.446283411
187.56850,-0.9203113723
187.56900,-0.9203113723
187.56950,-2.751477819
187.57000,-3.361866634
187.57050,-1.835894595
187.57100,-0.3099225569
187.57150,-0.9203113723
187.57200,-2.751477819
187.57250,-3.056672226
187.57300,-1.835894595
187.57350,-0.6151169646
187.57400,-0.9203113723
187.57450,-1.835894595
187.57500,-1.530700188
187.57550,-0.3099225569
187.57600,0.9108550739
187.57650,1.826438297
187.57700,1.521243889
187.57750,0.3004662585
187.57800,-1.22550578
187.57850,-2.141089003
187.57900,-2.141089003
187.57950,-2.141089003
187.58000,-2.751477819
187.58050,-2.751477819
187.58100,-1.22550578
187.58150,-1.22550578
187.58200,-6.108616303
187.58250,-15.26444853
187.58300,-23.80989195
187.58350,-27.77741925
187.58400,-27.77741925
187.58450,-25.33586399
187.58500,-21.36833669
187.58550,-14.65405972
187.58600,-7.024199526
187.58650,-0.9203113723
187.58700,4.573187966
187.58750,14.33940901
187.58800,27.76796295
187.58850,38.14457281
187.58900,37.83937841
187.58950,28.37835177
187.59000,17.08615868
187.59050,10.67707612
187.59100,8.845909674
187.59150,7.930326451
187.59200,6.404354412
187.59250,5.793965597
187.59300,6.099160005
187.59350,5.793965597
187.59400,3.657604743
187.59450,0.9108550739
187.59500,-0.004728149245
187.59550,-0.004728149245
187.59600,0.6056606662
187.59650,1.521243889
187.59700,1.826438297
187.59750,2.436827112
187.59800,2.74202152
187.59850,3.047215928
187.59900,3.352410335
187.59950,3.047215928
187.60000,1.521243889
187.60050,0.6056606662
187.60100,0.3004662585
187.60150,0.3004662585
187.60200,-0.9203113723
187.60250,-2.751477819
187.60300,-2.751477819
187.60350,-2.141089003
187.60400,-3.056672226
187.60450,-4.887838672
187.60500,-4.887838672
187.60550,-3.361866634
187.60600,-3.361866634
187.60650,-5.803421896
187.60700,-7.939782749
187.60750,-7.024199526
187.60800,-4.582644265
187.60850,-3.667061042
187.60900,-3.972255449
187.60950,-4.277449857
187.61000,-4.887838672
187.61050,-5.498227488
187.61100,-4.582644265
187.61150,-2.141089003
187.61200,-0.004728149245
187.61250,-0.004728149245
187.61300,-0.004728149245
187.61350,0.6056606662
187.61400,1.216049482
187.61450,0.3004662585
187.61500,0.3004662585
187.61550,1.216049482
187.61600,1.521243889
187.61650,-0.3099225569
187.61700,-3.361866634
187.61750,-3.056672226
187.61800,-0.9203113723
187.61850,0.3004662585
187.61900,0.3004662585
187.61950,0.9108550739
187.62000,1.826438297
187.62050,0.6056606662
187.62100,-3.056672226
187.62150,-7.024199526
187.62200,-9.16056038
187.62250,-9.16056038
187.62300,-8.550171565
187.62350,-7.329393934
187.62400,-6.108616303
187.62450,-4.887838672
187.62500,-3.667061042
187.62550,-2.751477819
187.62600,-1.835894595
187.62650,-1.835894595
187.62700,-2.141089003
187.62750,-1.22550578
187.62800,-0.004728149245
187.62850,-0.004728149245
187.62900,-0.9203113723
187.62950,-1.530700188
187.63000,-1.22550578
187.63050,-0.9203113723
187.63100,-2.446283411
187.63150,-3.972255449
187.63200,-3.972255449
187.63250,-2.751477819
187.63300,-2.141089003
187.63350,-2.141089003
187.63400,-1.835894595
187.63450,0.3004662585
187.63500,3.352410335
187.63550,4.267993559
187.63600,3.047215928
187.63650,1.216049482
187.63700,0.6056606662
187.63750,0.3004662585
187.63800,-0.004728149245
187.63850,-0.004728149245
187.63900,0.9108550739
187.63950,1.521243889
187.64000,1.216049482
187.64050,0.9108550739
187.64100,1.826438297
187.64150,1.826438297
187.64200,-0.6151169646
187.64250,-3.667061042
187.64300,-3.056672226
187.64350,-0.004728149245
187.64400,1.826438297
187.64450,0.3004662585
187.64500,-0.9203113723
187.64550,-0.004728149245
187.64600,2.436827112
187.64650,3.657604743
187.64700,3.657604743
187.64750,3.962799151
187.64800,3.962799151
187.64850,3.352410335
187.64900,2.436827112
187.64950,2.436827112
187.65000,2.74202152
187.65050,2.436827112
187.65100,2.436827112
187.65150,2.74202152
187.65200,2.436827112
187.65250,1.216049482
187.65300,0.9108550739
187.65350,2.436827112
187.65400,4.573187966
187.65450,4.878382374
187.65500,4.573187966
187.65550,4.573187966
187.65600,4.267993559
187.65650,3.047215928
187.65700,1.216049482
187.65750,0.6056606662
187.65800,1.216049482
187.65850,1.216049482
187.65900,1.216049482
187.65950,1.826438297
187.66000,2.131632705
187.66050,1.521243889
187.66100,0.3004662585
187.66150,0.6056606662
187.66200,2.131632705
187.66250,2.436827112
187.66300,0.9108550739
187.66350,-0.9203113723
187.66400,-2.141089003
187.66450,-2.446283411
187.66500,-1.835894595
187.66550,-0.004728149245
187.66600,2.131632705
187.66650,3.657604743
187.66700,3.962799151
187.66750,3.657604743
187.66800,3.657604743
187.66850,3.657604743
187.66900,3.352410335
187.66950,3.352410335
187.67000,3.657604743
187.67050,3.657604743
187.67100,3.657604743
187.67150,3.657604743
187.67200,3.657604743
187.67250,1.826438297
187.67300,-1.530700188
187.67350,-2.751477819
187.67400,-0.004728149245
187.67450,3.657604743
187.67500,4.267993559
187.67550,1.216049482
187.67600,-1.530700188
187.67650,-1.835894595
187.67700,-1.530700188
187.67750,-2.141089003
187.67800,-2.751477819
187.67850,-3.056672226
187.67900,-3.361866634
187.67950,-4.277449857
187.68000,-5.498227488
187.68050,-5.19303308
187.68100,-3.972255449
187.68150,-2.446283411
187.68200,-2.446283411
187.68250,-3.056672226
187.68300,-3.361866634
187.68350,-1.530700188
187.68400,1.521243889
187.68450,4.878382374
187.68500,6.404354412
187.68550,4.878382374
187.68600,1.826438297
187.68650,-0.3099225569
187.68700,-1.22550578
187.68750,-0.6151169646
187.68800,0.9108550739
187.68850,2.74202152
187.68900,3.962799151
187.68950,4.878382374
187.69000,5.793965597
187.69050,5.488771189
187.69100,2.74202152
187.69150,-0.004728149245
187.69200,-0.004728149245
187.69250,1.216049482
187.69300,1.521243889
187.69350,-0.3099225569
187.69400,-1.835894595
187.69450,-0.9203113723
187.69500,0.6056606662
187.69550,-0.004728149245
187.69600,-2.141089003
187.69650,-2.751477819
187.69700,-1.22550578
187.69750,-0.004728149245
187.69800,-0.3099225569
187.69850,-0.9203113723
187.69900,-0.9203113723
187.69950,-1.22550578
187.70000,-1.835894595
187.70050,-1.835894595
187.70100,-1.22550578
187.70150,-0.9203113723
187.70200,-2.141089003
187.70250,-3.972255449
187.70300,-4.887838672
187.70350,-5.498227488
187.70400,-5.19303308
187.70450,-4.582644265
187.70500,-3.972255449
187.70550,-3.667061042
187.70600,-3.667061042
187.70650,-3.056672226
187.70700,-0.9203113723
187.70750,1.216049482
187.70800,2.436827112
187.70850,1.826438297
187.70900,0.3004662585
187.70950,-0.6151169646
187.71000,-0.9203113723
187.71050,-0.9203113723
187.71100,-0.9203113723
187.71150,-0.6151169646
187.71200,0.3004662585
187.71250,2.436827112
187.71300,4.573187966
187.71350,5.488771189
187.71400,5.183576782
187.71450,4.573187966
187.71500,3.657604743
187.71550,1.521243889
187.71600,-0.6151169646
187.71650,-2.446283411
187.71700,-3.361866634
187.71750,-3.667061042
187.71800,-3.056672226
187.71850,-2.141089003
187.71900,-2.446283411
187.71950,-3.667061042
187.72000,-3.667061042
187.72050,-1.22550578
187.72100,1.216049482
187.72150,2.74202152
187.72200,3.047215928
187.72250,3.657604743
187.72300,3.047215928
187.72350,0.3004662585
187.72400,-2.141089003
187.72450,-2.751477819
187.72500,-1.835894595
187.72550,-2.141089003
187.72600,-3.667061042
187.72650,-4.582644265
187.72700,-3.361866634
187.72750,-1.530700188
187.72800,-0.004728149245
187.72850,0.9108550739
187.72900,1.826438297
187.72950,2.131632705
187.73000,1.521243889
187.73050,1.216049482
187.73100,1.521243889
187.73150,2.436827112
187.73200,3.047215928
187.73250,3.657604743
187.73300,3.352410335
187.73350,1.216049482
187.73400,-0.3099225569
187.73450,-0.6151169646
187.73500,-0.004728149245
187.73550,-0.004728149245
187.73600,-0.6151169646
187.73650,-0.9203113723
187.73700,-0.3099225569
187.73750,-0.6151169646
187.73800,-2.446283411
187.73850,-3.667061042
187.73900,-2.751477819
187.73950,-1.530700188
187.74000,-0.9203113723
187.74050,-0.3099225569
187.74100,0.9108550739
187.74150,2.74202152
187.74200,3.657604743
187.74250,3.962799151
187.74300,4.573187966
187.74350,4.573187966
187.74400,3.657604743
187.74450,2.436827112
187.74500,2.131632705
187.74550,1.826438297
187.74600,0.3004662585
187.74650,-2.446283411
187.74700,-4.277449857
187.74750,-3.972255449
187.74800,-1.835894595
187.74850,-0.6151169646
187.74900,-0.004728149245
187.74950,0.9108550739
187.75000,2.436827112
187.75050,3.657604743
187.75100,3.047215928
187.75150,2.436827112
187.75200,3.047215928
187.75250,3.962799151
187.75300,3.047215928
187.75350,0.9108550739
187.75400,0.3004662585
187.75450,1.521243889
187.75500,2.74202152
187.75550,3.047215928
187.75600,3.047215928
187.75650,3.962799151
187.75700,4.267993559
187.75750,2.74202152
187.75800,0.6056606662
187.75850,-0.6151169646
187.75900,-0.3099225569
187.75950,-0.004728149245
187.76000,-0.004728149245
187.76050,-0.6151169646
187.76100,-1.835894595
187.76150,-3.361866634
187.76200,-4.277449857
187.76250,-4.277449857
187.76300,-3.361866634
187.76350,-1.835894595
187.76400,-0.6151169646
187.76450,-0.004728149245
187.76500,-0.004728149245
187.76550,-0.9203113723
187.76600,-1.835894595
187.76650,-2.141089003
187.76700,-2.141089003
187.76750,-2.446283411
187.76800,-3.056672226
187.76850,-3.056672226
187.76900,-2.141089003
187.76950,-1.22550578
187.77000,-1.530700188
187.77050,-2.141089003
187.77100,-2.751477819
187.77150,-1.835894595
187.77200,-0.3099225569
187.77250,0.6056606662
187.77300,0.9108550739
187.77350,1.521243889
187.77400,1.826438297
187.77450,1.521243889
187.77500,-0.6151169646
187.77550,-3.667061042
187.77600,-5.19303308
187.77650,-4.582644265
187.77700,-3.361866634
187.77750,-3.056672226
187.77800,-3.361866634
187.77850,-3.361866634
187.77900,-2.751477819
187.77950,-2.446283411
187.78000,-2.751477819
187.78050,-3.361866634
187.78100,-3.972255449
187.78150,-4.582644265
187.78200,-4.582644265
187.78250,-3.361866634
187.78300,-0.9203113723
187.78350,-0.004728149245
187.78400,-0.004728149245
187.78450,-0.3099225569
187.78500,-0.004728149245
187.78550,0.6056606662
187.78600,0.6056606662
187.78650,0.6056606662
187.78700,1.521243889
187.78750,2.131632705
187.78800,1.521243889
187.78850,-0.3099225569
187.78900,-2.446283411
187.78950,-3.361866634
187.79000,-3.361866634
187.79050,-3.056672226
187.79100,-3.361866634
187.79150,-3.972255449
187.79200,-4.887838672
187.79250,-4.582644265
187.79300,-2.141089003
187.79350,0.9108550739
187.79400,3.657604743
187.79450,4.878382374
187.79500,4.878382374
187.79550,3.352410335
187.79600,1.216049482
187.79650,-0.6151169646
187.79700,-1.22550578
187.79750,-0.6151169646
187.79800,-1.22550578
187.79850,-2.751477819
187.79900,-3.361866634
187.79950,-3.361866634
187.80000,-3.361866634
187.80050,-3.972255449
187.80100,-3.667061042
187.80150,-2.446283411
187.80200,-1.835894595
187.80250,-2.446283411
187.80300,-2.751477819
187.80350,-2.141089003
187.80400,-1.530700188
187.80450,-1.22550578
187.80500,-1.530700188
187.80550,-0.9203113723
187.80600,-0.6151169646
187.80650,-0.6151169646
187.80700,-0.004728149245
187.80750,1.826438297
187.80800,3.047215928
187.80850,1.826438297
187.80900,0.6056606662
187.80950,0.9108550739
187.81000,2.436827112
187.81050,3.352410335
187.81100,3.657604743
187.81150,3.962799151
187.81200,3.962799151
187.81250,2.74202152
187.81300,0.9108550739
187.81350,1.216049482
187.81400,2.131632705
187.81450,1.216049482
187.81500,-0.9203113723
187.81550,-2.141089003
187.81600,-0.3099225569
187.81650,1.826438297
187.81700,2.436827112
187.81750,1.826438297
187.81800,1.521243889
187.81850,2.131632705
187.81900,2.436827112
187.81950,2.131632705
187.82000,2.131632705
187.82050,2.436827112
187.82100,1.826438297
187.82150,1.216049482
187.82200,0.6056606662
187.82250,-0.004728149245
187.82300,-0.3099225569
187.82350,-0.9203113723
187.82400,-0.6151169646
187.82450,0.6056606662
187.82500,1.826438297
187.82550,2.131632705
187.82600,1.826438297
187.82650,1.826438297
187.82700,2.131632705
187.82750,2.131632705
187.82800,2.436827112
187.82850,3.047215928
187.82900,4.267993559
187.82950,4.573187966
187.83000,3.657604743
187.83050,2.74202152
187.83100,2.436827112
187.83150,2.131632705
187.83200,1.826438297
187.83250,0.9108550739
187.83300,0.6056606662
187.83350,0.6056606662
187.83400,0.6056606662
187.83450,1.216049482
187.83500,2.131632705
187.83550,2.74202152
187.83600,1.826438297
187.83650,-0.004728149245
187.83700,-0.3099225569
187.83750,0.6056606662
187.83800,1.216049482
187.83850,-0.6151169646
187.83900,-2.446283411
187.83950,-0.9203113723
187.84000,2.74202152
187.84050,4.573187966
187.84100,2.436827112
187.84150,-0.004728149245
187.84200,-0.3099225569
187.84250,-0.004728149245
187.84300,-0.6151169646
187.84350,-1.530700188
187.84400,-0.9203113723
187.84450,-0.3099225569
187.84500,-1.22550578
187.84550,-3.667061042
187.84600,-5.498227488
187.84650,-4.887838672
187.84700,-3.361866634
187.84750,-2.446283411
187.84800,-2.141089003
187.84850,-2.141089003
187.84900,-2.141089003
187.84950,-3.361866634
187.85000,-4.582644265
187.85050,-4.887838672
187.85100,-2.751477819
187.85150,0.3004662585
187.85200,3.047215928
187.85250,3.657604743
187.85300,3.047215928
187.85350,3.047215928
187.85400,3.962799151
187.85450,4.573187966
187.85500,3.657604743
187.85550,2.436827112
187.85600,1.826438297
187.85650,1.826438297
187.85700,1.826438297
187.85750,1.521243889
187.85800,-0.004728149245
187.85850,-2.751477819
187.85900,-5.19303308
187.85950,-4.887838672
187.86000,-1.835894595
187.86050,2.131632705
187.86100,6.404354412
187.86150,10.0666873
187.86200,12.81343697
187.86250,13.11863138
187.86300,10.37188171
187.86350,5.793965597
187.86400,2.131632705
187.86450,-0.004728149245
187.86500,-0.3099225569
187.86550,-0.9203113723
187.86600,-1.835894595
187.86650,-2.141089003
187.86700,-1.22550578
187.86750,-0.004728149245
187.86800,-0.004728149245
187.86850,-1.530700188
187.86900,-4.582644265
187.86950,-6.413810711
187.87000,-4.887838672
187.87050,-0.6151169646
187.87100,2.436827112
187.87150,2.74202152
187.87200,1.216049482
187.87250,0.3004662585
187.87300,0.9108550739
187.87350,1.826438297
187.87400,2.131632705
187.87450,3.047215928
187.87500,3.657604743
187.87550,2.436827112
187.87600,-0.004728149245
187.87650,-2.446283411
187.87700,-1.835894595
187.87750,-0.004728149245
187.87800,1.216049482
187.87850,0.6056606662
187.87900,-0.3099225569
187.87950,-1.22550578
187.88000,-2.141089003
187.88050,-3.056672226
187.88100,-3.361866634
187.88150,-2.751477819
187.88200,-1.22550578
187.88250,-0.004728149245
187.88300,-0.004728149245
187.88350,-2.446283411
187.88400,-5.498227488
187.88450,-5.19303308
187.88500,-1.22550578
187.88550,2.436827112
187.88600,3.657604743
187.88650,3.047215928
187.88700,3.047215928
187.88750,3.657604743
187.88800,3.352410335
187.88850,2.131632705
187.88900,1.216049482
187.88950,0.3004662585
187.89000,-0.6151169646
187.89050,-2.446283411
187.89100,-3.056672226
187.89150,-2.751477819
187.89200,-2.141089003
187.89250,-1.835894595
187.89300,-0.9203113723
187.89350,-0.9203113723
187.89400,-3.972255449
187.89450,-10.38133801
187.89500,-17.40080939
187.89550,-21.36833669
187.89600,-21.6735311
187.89650,-20.14755906
187.89700,-18.0111982
187.89750,-14.34886531
187.89800,-9.465754788
187.89850,-4.887838672
187.89900,0.6056606662
187.89950,10.67707612
187.90000,24.10563006
187.90050,35.09262874
187.90100,36.61860077
187.90150,28.98874058
187.90200,18.91732513
187.90250,11.59265934
187.90300,7.319937636
187.90350,3.962799151
187.90400,0.6056606662
187.90450,-1.530700188
187.90500,-2.141089003
187.90550,-1.530700188
187.90600,-1.835894595
187.90650,-3.667061042
187.90700,-5.803421896
187.90750,-6.719005119
187.90800,-5.803421896
187.90850,-4.277449857
187.90900,-3.361866634
187.90950,-2.141089003
187.91000,-0.004728149245
187.91050,0.9108550739
187.91100,0.3004662585
187.91150,-0.6151169646
187.91200,-0.6151169646
187.91250,0.6056606662
187.91300,1.216049482
187.91350,-0.3099225569
187.91400,-2.446283411
187.91450,-3.667061042
187.91500,-4.582644265
187.91550,-5.498227488
187.91600,-6.413810711
187.91650,-5.803421896
187.91700,-3.972255449
187.91750,-2.141089003
187.91800,-1.530700188
187.91850,-0.9203113723
187.91900,-0.3099225569
187.91950,-0.004728149245
187.92000,-1.22550578
187.92050,-3.056672226
187.92100,-4.582644265
187.92150,-3.972255449
187.92200,-2.446283411
187.92250,-1.530700188
187.92300,-2.751477819
187.92350,-4.887838672
187.92400,-6.719005119
187.92450,-7.024199526
187.92500,-6.108616303
187.92550,-5.498227488
187.92600,-5.19303308
187.92650,-4.887838672
187.92700,-4.887838672
187.92750,-5.803421896
187.92800,-7.024199526
187.92850,-6.719005119
187.92900,-4.582644265
187.92950,-1.835894595
187.93000,-0.3099225569
187.93050,0.3004662585
187.93100,3.047215928
187.93150,6.70954882
187.93200,8.540715266
187.93250,7.930326451
187.93300,6.70954882
187.93350,6.099160005
187.93400,5.183576782
187.93450,3.047215928
187.93500,0.9108550739
187.93550,0.6056606662
187.93600,1.521243889
187.93650,2.131632705
187.93700,2.131632705
187.93750,1.216049482
187.93800,-0.6151169646
187.93850,-2.446283411
187.93900,-3.361866634
187.93950,-2.446283411
187.94000,-0.3099225569
187.94050,1.521243889
187.94100,3.352410335
187.94150,3.962799151
187.94200,3.352410335
187.94250,2.131632705
187.94300,1.521243889
187.94350,1.216049482
187.94400,0.9108550739
187.94450,-0.004728149245
187.94500,-0.3099225569
187.94550,-0.6151169646
187.94600,-0.3099225569
187.94650,-0.004728149245
187.94700,0.3004662585
187.94750,-0.004728149245
187.94800,-1.835894595
187.94850,-3.361866634
187.94900,-2.141089003
187.94950,0.6056606662
187.95000,2.131632705
187.95050,0.3004662585
187.95100,-2.141089003
187.95150,-3.361866634
187.95200,-3.667061042
187.95250,-3.972255449
187.95300,-3.056672226
187.95350,-0.9203113723
187.95400,1.216049482
187.95450,1.521243889
187.95500,0.9108550739
187.95550,0.6056606662
187.95600,0.6056606662
187.95650,0.3004662585
187.95700,0.3004662585
187.95750,0.6056606662
187.95800,-0.004728149245
187.95850,-1.530700188
187.95900,-1.530700188
187.95950,-2.141089003
187.96000,-8.244977157
187.96050,-20.75794787
187.96100,-32.05014096
187.96150,-35.71247385
187.96200,-33.8813074
187.96250,-31.74494655
187.96300,-28.38780807
187.96350,-19.84236465
187.96400,-8.244977157
187.96450,0.9108550739
187.96500,10.0666873
187.96550,25.93679651
187.96600,46.07962741
187.96650,55.54065405
187.96700,46.07962741
187.96750,25.93679651
187.96800,9.761492897
187.96850,0.9108550739
187.96900,-5.19303308
187.96950,-8.855365973
187.97000,-4.887838672
187.97050,3.657604743
187.97100,10.67707612
187.97150,14.94979783
187.97200,23.80043565
187.97250,38.14457281
187.97300,48.52118268
187.97350,46.07962741
187.97400,35.09262874
187.97450,25.02121328
187.97500,18.91732513
187.97550,14.64460342
187.97600,10.98227053
187.97650,9.151104082
187.97700,8.235520859
187.97750,6.404354412
187.97800,2.436827112
187.97850,-1.530700188
187.97900,-3.056672226
187.97950,-3.056672226
187.98000,-3.361866634
187.98050,-5.498227488
187.98100,-7.024199526
187.98150,-6.108616303
187.98200,-3.056672226
187.98250,-1.22550578
187.98300,-3.667061042
187.98350,-7.939782749
187.98400,-10.38133801
187.98450,-9.465754788
187.98500,-7.329393934
187.98550,-5.498227488
187.98600,-4.277449857
187.98650,-3.056672226
187.98700,-1.835894595
187.98750,-2.141089003
187.98800,-3.361866634
187.98850,-4.887838672
187.98900,-6.108616303
187.98950,-5.803421896
187.99000,-3.972255449
187.99050,-2.141089003
187.99100,-1.22550578
187.99150,-1.530700188
187.99200,-1.530700188
187.99250,-0.6151169646
187.99300,-0.004728149245
187.99350,-0.004728149245
187.99400,-0.6151169646
187.99450,-1.22550578
187.99500,-0.6151169646
187.99550,0.3004662585
187.99600,0.6056606662
187.99650,-0.004728149245
187.99700,-1.835894595
187.99750,-3.056672226
187.99800,-3.361866634
187.99850,-3.972255449
187.99900,-4.887838672
187.99950,-4.887838672
188.00000,-4.277449857
188.00050,-4.277449857
188.00100,-5.498227488
188.00150,-7.024199526
188.00200,-7.329393934
188.00250,-7.329393934
188.00300,-8.244977157
188.00350,-9.770949196
188.00400,-10.0761436
188.00450,-9.16056038
188.00500,-8.244977157
188.00550,-7.939782749
188.00600,-7.634588342
188.00650,-7.024199526
188.00700,-5.803421896
188.00750,-5.19303308
188.00800,-4.887838672
188.00850,-5.19303308
188.00900,-5.803421896
188.00950,-5.19303308
188.01000,-3.056672226
188.01050,-1.530700188
188.01100,-2.141089003
188.01150,-3.972255449
188.01200,-4.582644265
188.01250,-3.667061042
188.01300,-3.361866634
188.01350,-4.887838672
188.01400,-6.413810711
188.01450,-6.108616303
188.01500,-5.19303308
188.01550,-5.803421896
188.01600,-6.719005119
188.01650,-4.582644265
188.01700,-0.9203113723
188.01750,0.6056606662
188.01800,-0.004728149245
188.01850,-0.004728149245
188.01900,1.216049482
188.01950,1.216049482
188.02000,-1.530700188
188.02050,-4.582644265
188.02100,-3.667061042
188.02150,-0.6151169646
188.02200,1.521243889
188.02250,1.826438297
188.02300,2.74202152
188.02350,5.183576782
188.02400,6.70954882
188.02450,5.488771189
188.02500,3.047215928
188.02550,1.826438297
188.02600,1.216049482
188.02650,-0.004728149245
188.02700,-1.835894595
188.02750,-2.446283411
188.02800,-1.530700188
188.02850,-0.6151169646
188.02900,-0.6151169646
188.02950,-0.6151169646
188.03000,-0.6151169646
188.03050,-0.9203113723
188.03100,-1.530700188
188.03150,-0.6151169646
188.03200,0.6056606662
188.03250,1.826438297
188.03300,2.436827112
188.03350,2.74202152
188.03400,3.047215928
188.03450,2.436827112
188.03500,1.216049482
188.03550,0.3004662585
188.03600,0.6056606662
188.03650,0.6056606662
188.03700,-0.004728149245
188.03750,-0.3099225569
188.03800,-0.004728149245
188.03850,-0.004728149245
188.03900,-0.004728149245
188.03950,-0.004728149245
188.04000,-0.004728149245
188.04050,-0.9203113723
188.04100,-3.056672226
188.04150,-4.582644265
188.04200,-3.361866634
188.04250,-2.141089003
188.04300,-1.835894595
188.04350,-1.22550578
188.04400,0.3004662585
188.04450,1.216049482
188.04500,0.3004662585
188.04550,-0.004728149245
188.04600,0.6056606662
188.04650,1.521243889
188.04700,1.521243889
188.04750,3.047215928
188.04800,7.930326451
188.04850,10.37188171
188.04900,5.488771189
188.04950,-3.972255449
188.05000,-11.60211564
188.05050,-14.34886531
188.05100,-16.48522617
188.05150,-19.53717024
188.05200,-20.14755906
188.05250,-16.79042057
188.05300,-10.0761436
188.05350,-0.6151169646
188.05400,10.98227053
188.05450,21.05368598
188.05500,21.96926921
188.05550,11.89785375
188.05600,-1.835894595
188.05650,-11.60211564
188.05700,-15.26444853
188.05750,-15.26444853
188.05800,-12.51769887
188.05850,-6.413810711
188.05900,2.74202152
188.05950,16.17057546
188.06000,32.04068466
188.06050,46.99521064
188.06100,55.84584846
188.06150,56.45623728
188.06200,51.26793234
188.06250,42.41729452
188.06300,31.43029584
188.06350,20.74849157
188.06400,12.81343697
188.06450,7.014743228
188.06500,2.131632705
188.06550,-1.530700188
188.06600,-1.530700188
188.06650,1.521243889
188.06700,3.962799151
188.06750,4.267993559
188.06800,3.962799151
188.06850,4.573187966
188.06900,3.352410335
188.06950,-0.6151169646
188.07000,-5.498227488
188.07050,-7.024199526
188.07100,-5.498227488
188.07150,-3.972255449
188.07200,-3.361866634
188.07250,-3.972255449
188.07300,-4.887838672
188.07350,-5.498227488
188.07400,-5.498227488
188.07450,-5.498227488
188.07500,-6.108616303
188.07550,-7.634588342
188.07600,-7.939782749
188.07650,-6.108616303
188.07700,-3.056672226
188.07750,-1.22550578
188.07800,-1.530700188
188.07850,-2.446283411
188.07900,-2.446283411
188.07950,-0.9203113723
188.08000,0.6056606662
188.08050,2.436827112
188.08100,3.657604743
188.08150,2.131632705
188.08200,-6.108616303
188.08250,-21.9787255
188.08300,-38.45922352
188.08350,-47.92025016
188.08400,-50.36180542
188.08450,-53.10855509
188.08500,-57.07608239
188.08550,-55.24491594
188.08600,-43.64752845
188.08650,-28.69300247
188.08700,-17.40080939
188.08750,-6.413810711
188.08800,10.37188171
188.08850,29.29393499
188.08900,39.97573926
188.08950,42.41729452
188.09000,44.85884978
188.09050,48.21598827
188.09100,44.24846097
188.09150,30.81990703
188.09200,18.91732513
188.09250,16.47576987
188.09300,17.08615868
188.09350,12.50824257
188.09400,5.793965597
188.09450,5.183576782
188.09500,10.98227053
188.09550,15.56018664
188.09600,15.56018664
188.09650,14.33940901
188.09700,13.11863138
188.09750,10.0666873
188.09800,5.488771189
188.09850,3.352410335
188.09900,5.183576782
188.09950,6.404354412
188.10000,2.131632705
188.10050,-6.108616303
188.10100,-12.51769887
188.10150,-11.90731005
188.10200,-9.16056038
188.10250,-11.90731005
188.10300,-21.9787255
188.10350,-31.43975214
188.10400,-33.27091859
188.10450,-28.38780807
188.10500,-23.80989195
188.10550,-20.14755906
188.10600,-12.51769887
188.10650,0.6056606662
188.10700,15.25499224
188.10750,26.54718532
188.10800,34.78743433
188.10850,39.97573926
188.10900,38.75496163
188.10950,29.90432381
188.11000,18.61213072
188.11050,10.98227053
188.11100,6.404354412
188.11150,1.826438297
188.11200,-2.751477819
188.11250,-4.277449857
188.11300,-3.056672226
188.11350,-2.446283411
188.11400,-4.887838672
188.11450,-7.329393934
188.11500,-7.329393934
188.11550,-6.108616303
188.11600,-5.498227488
188.11650,-5.498227488
188.11700,-4.277449857
188.11750,-2.751477819
188.11800,-3.056672226
188.11850,-5.19303308
188.11900,-7.329393934
188.11950,-8.244977157
188.12000,-9.16056038
188.12050,-10.38133801
188.12100,-10.99172683
188.12150,-9.770949196
188.12200,-8.550171565
188.12250,-7.939782749
188.12300,-7.939782749
188.12350,-7.939782749
188.12400,-7.939782749
188.12450,-8.244977157
188.12500,-9.16056038
188.12550,-9.770949196
188.12600,-9.770949196
188.12650,-9.465754788
188.12700,-8.550171565
188.12750,-7.939782749
188.12800,-7.634588342
188.12850,-8.550171565
188.12900,-9.465754788
188.12950,-9.770949196
188.13000,-9.16056038
188.13050,-8.855365973
188.13100,-8.244977157
188.13150,-7.634588342
188.13200,-7.024199526
188.13250,-6.719005119
188.13300,-6.719005119
188.13350,-6.413810711
188.13400,-5.19303308
188.13450,-4.277449857
188.13500,-3.361866634
188.13550,-3.361866634
188.13600,-3.667061042
188.13650,-3.056672226
188.13700,-2.141089003
188.13750,-1.530700188
188.13800,-2.446283411
188.13850,-4.277449857
188.13900,-4.887838672
188.13950,-3.972255449
188.14000,-3.056672226
188.14050,-3.667061042
188.14100,-4.887838672
188.14150,-5.19303308
188.14200,-4.582644265
188.14250,-4.277449857
188.14300,-3.972255449
188.14350,-3.361866634
188.14400,-2.141089003
188.14450,-2.141089003
188.14500,-3.361866634
188.14550,-4.887838672
188.14600,-4.887838672
188.14650,-3.361866634
188.14700,-0.9203113723
188.14750,1.521243889
188.14800,3.657604743
188.14850,5.183576782
188.14900,6.70954882
188.14950,7.930326451
188.15000,8.235520859
188.15050,7.014743228
188.15100,6.404354412
188.15150,6.70954882
188.15200,7.930326451
188.15250,8.540715266
188.15300,8.845909674
188.15350,9.151104082
188.15400,9.151104082
188.15450,7.625132043
188.15500,5.183576782
188.15550,3.657604743
188.15600,4.573187966
188.15650,5.183576782
188.15700,3.962799151
188.15750,0.9108550739
188.15800,-0.9203113723
188.15850,-0.6151169646
188.15900,1.826438297
188.15950,3.962799151
188.16000,4.573187966
188.16050,4.573187966
188.16100,5.488771189
188.16150,6.099160005
188.16200,5.183576782
188.16250,2.131632705
188.16300,0.9108550739
188.16350,1.826438297
188.16400,3.352410335
188.16450,3.047215928
188.16500,1.826438297
188.16550,1.826438297
188.16600,2.74202152
188.16650,2.436827112
188.16700,1.521243889
188.16750,1.826438297
188.16800,4.267993559
188.16850,6.404354412
188.16900,6.404354412
188.16950,5.488771189
188.17000,6.099160005
188.17050,7.930326451
188.17100,9.761492897
188.17150,9.761492897
188.17200,8.235520859
188.17250,6.099160005
188.17300,4.573187966
188.17350,4.267993559
188.17400,4.267993559
188.17450,4.267993559
188.17500,3.962799151
188.17550,3.047215928
188.17600,1.826438297
188.17650,0.3004662585
188.17700,0.6056606662
188.17750,2.74202152
188.17800,5.488771189
188.17850,6.70954882
188.17900,4.878382374
188.17950,2.131632705
188.18000,-0.004728149245
188.18050,0.3004662585
188.18100,1.826438297
188.18150,2.436827112
188.18200,1.216049482
188.18250,0.3004662585
188.18300,1.216049482
188.18350,2.436827112
188.18400,2.436827112
188.18450,2.131632705
188.18500,3.047215928
188.18550,5.183576782
188.18600,4.878382374
188.18650,0.9108550739
188.18700,-2.446283411
188.18750,-3.361866634
188.18800,-3.361866634
188.18850,-3.972255449
188.18900,-4.277449857
188.18950,-2.751477819
188.19000,-1.22550578
188.19050,-1.530700188
188.19100,-3.056672226
188.19150,-2.141089003
188.19200,0.6056606662
188.19250,2.74202152
188.19300,2.436827112
188.19350,2.436827112
188.19400,3.962799151
188.19450,5.793965597
188.19500,6.099160005
188.19550,6.099160005
188.19600,7.014743228
188.19650,7.930326451
188.19700,6.404354412
188.19750,3.352410335
188.19800,0.9108550739
188.19850,-0.004728149245
188.19900,-0.3099225569
188.19950,-0.3099225569
188.20000,-0.004728149245
188.20050,-0.004728149245
188.20100,-0.3099225569
188.20150,-1.530700188
188.20200,-3.056672226
188.20250,-4.582644265
188.20300,-5.19303308
188.20350,-4.582644265
188.20400,-3.361866634
188.20450,-3.056672226
188.20500,-3.361866634
188.20550,-3.667061042
188.20600,-3.056672226
188.20650,-3.056672226
188.20700,-3.667061042
188.20750,-4.887838672
188.20800,-4.887838672
188.20850,-3.667061042
188.20900,-2.751477819
188.20950,-3.056672226
188.21000,-4.277449857
188.21050,-5.498227488
188.21100,-6.413810711
188.21150,-7.024199526
188.21200,-6.719005119
188.21250,-4.887838672
188.21300,-1.530700188
188.21350,0.6056606662
188.21400,0.9108550739
188.21450,0.3004662585
188.21500,0.6056606662
188.21550,1.826438297
188.21600,1.826438297
188.21650,-0.004728149245
188.21700,-1.530700188
188.21750,-2.446283411
188.21800,-2.751477819
188.21850,-3.361866634
188.21900,-3.667061042
188.21950,-2.751477819
188.22000,-1.22550578
188.22050,-1.22550578
188.22100,-2.446283411
188.22150,-3.361866634
188.22200,-2.751477819
188.22250,-1.835894595
188.22300,-1.530700188
188.22350,-2.446283411
188.22400,-3.667061042
188.22450,-4.277449857
188.22500,-3.667061042
188.22550,-2.446283411
188.22600,-0.6151169646
188.22650,0.9108550739
188.22700,2.131632705
188.22750,2.436827112
188.22800,1.521243889
188.22850,0.3004662585
188.22900,-0.3099225569
188.22950,-0.9203113723
188.23000,-1.835894595
188.23050,-2.141089003
188.23100,-1.22550578
188.23150,-0.004728149245
188.23200,-0.004728149245
188.23250,-0.6151169646
188.23300,-0.3099225569
188.23350,0.9108550739
188.23400,1.826438297
188.23450,2.436827112
188.23500,4.267993559
188.23550,7.319937636
188.23600,8.235520859
188.23650,4.878382374
188.23700,0.3004662585
188.23750,-2.141089003
188.23800,-3.667061042
188.23850,-5.803421896
188.23900,-8.550171565
188.23950,-8.550171565
188.24000,-5.803421896
188.24050,-2.141089003
188.24100,0.6056606662
188.24150,2.131632705
188.24200,3.047215928
188.24250,3.047215928
188.24300,3.962799151
188.24350,5.488771189
188.24400,5.183576782
188.24450,2.436827112
188.24500,-0.004728149245
188.24550,0.9108550739
188.24600,1.826438297
188.24650,-3.361866634
188.24700,-13.43328209
188.24750,-20.75794787
188.24800,-22.28391991
188.24850,-21.9787255
188.24900,-22.28391991
188.24950,-20.45275347
188.25000,-14.0436709
188.25050,-6.413810711
188.25100,0.9108550739
188.25150,11.89785375
188.25200,27.15757414
188.25250,38.44976722
188.25300,38.14457281
188.25350,28.98874058
188.25400,19.83290835
188.25450,15.25499224
188.25500,12.50824257
188.25550,8.540715266
188.25600,4.878382374
188.25650,2.74202152
188.25700,1.216049482
188.25750,-0.004728149245
188.25800,-0.6151169646
188.25850,-1.530700188
188.25900,-3.667061042
188.25950,-6.108616303
188.26000,-6.413810711
188.26050,-4.277449857
188.26100,-2.446283411
188.26150,-2.751477819
188.26200,-3.361866634
188.26250,-3.056672226
188.26300,-2.751477819
188.26350,-3.361866634
188.26400,-3.972255449
188.26450,-3.667061042
188.26500,-3.667061042
188.26550,-4.887838672
188.26600,-6.413810711
188.26650,-6.108616303
188.26700,-4.582644265
188.26750,-3.972255449
188.26800,-4.887838672
188.26850,-4.582644265
188.26900,-2.751477819
188.26950,-1.835894595
188.27000,-2.751477819
188.27050,-3.056672226
188.27100,-0.004728149245
188.27150,3.352410335
188.27200,3.962799151
188.27250,1.826438297
188.27300,0.3004662585
188.27350,-0.004728149245
188.27400,-0.6151169646
188.27450,-1.835894595
188.27500,-0.6151169646
188.27550,2.74202152
188.27600,6.404354412
188.27650,7.319937636
188.27700,6.404354412
188.27750,5.793965597
188.27800,6.099160005
188.27850,5.793965597
188.27900,4.267993559
188.27950,2.131632705
188.28000,1.521243889
188.28050,1.826438297
188.28100,2.436827112
188.28150,2.436827112
188.28200,2.74202152
188.28250,3.352410335
188.28300,3.352410335
188.28350,1.826438297
188.28400,-0.004728149245
188.28450,-1.22550578
188.28500,-2.751477819
188.28550,-4.277449857
188.28600,-6.108616303
188.28650,-7.634588342
188.28700,-7.939782749
188.28750,-6.719005119
188.28800,-4.887838672
188.28850,-3.056672226
188.28900,-1.835894595
188.28950,-0.9203113723
188.29000,-0.3099225569
188.29050,-0.004728149245
188.29100,-1.22550578
188.29150,-2.751477819
188.29200,-2.141089003
188.29250,-0.004728149245
188.29300,1.216049482
188.29350,-0.004728149245
188.29400,-3.056672226
188.29450,-5.19303308
188.29500,-4.582644265
188.29550,-3.056672226
188.29600,-2.446283411
188.29650,-2.446283411
188.29700,-2.141089003
188.29750,-1.22550578
188.29800,-0.6151169646
188.29850,-0.9203113723
188.29900,-0.6151169646
188.29950,-0.004728149245
188.30000,0.6056606662
188.30050,0.3004662585
188.30100,-0.6151169646
188.30150,-0.9203113723
188.30200,-0.004728149245
188.30250,1.521243889
188.30300,3.352410335
188.30350,4.573187966
188.30400,4.267993559
188.30450,1.521243889
188.30500,-1.530700188
188.30550,-3.056672226
188.30600,-1.530700188
188.30650,0.3004662585
188.30700,1.216049482
188.30750,0.6056606662
188.30800,-0.004728149245
188.30850,-0.004728149245
188.30900,-0.004728149245
188.30950,0.3004662585
188.31000,0.9108550739
188.31050,1.521243889
188.31100,1.521243889
188.31150,1.521243889
188.31200,1.521243889
188.31250,1.521243889
188.31300,1.521243889
188.31350,1.826438297
188.31400,2.436827112
188.31450,3.657604743
188.31500,4.573187966
188.31550,4.878382374
188.31600,3.657604743
188.31650,1.521243889
188.31700,-0.004728149245
188.31750,-0.9203113723
188.31800,-0.9203113723
188.31850,-0.004728149245
188.31900,2.131632705
188.31950,3.657604743
188.32000,2.131632705
188.32050,-0.9203113723
188.32100,-3.056672226
188.32150,-2.446283411
188.32200,-1.22550578
188.32250,-1.530700188
188.32300,-2.141089003
188.32350,-2.446283411
188.32400,-2.751477819
188.32450,-4.277449857
188.32500,-4.887838672
188.32550,-2.446283411
188.32600,0.6056606662
188.32650,1.826438297
188.32700,-0.004728149245
188.32750,-1.530700188
188.32800,-2.446283411
188.32850,-3.056672226
188.32900,-2.446283411
188.32950,-0.3099225569
188.33000,1.826438297
188.33050,1.521243889
188.33100,-0.3099225569
188.33150,-1.835894595
188.33200,-1.530700188
188.33250,-1.530700188
188.33300,-2.751477819
188.33350,-3.361866634
188.33400,-2.141089003
188.33450,-1.530700188
188.33500,-2.446283411
188.33550,-3.056672226
188.33600,-1.835894595
188.33650,-0.004728149245
188.33700,0.6056606662
188.33750,-0.004728149245
188.33800,-0.004728149245
188.33850,0.6056606662
188.33900,0.6056606662
188.33950,-0.004728149245
188.34000,-0.3099225569
188.34050,-1.530700188
188.34100,-2.751477819
188.34150,-2.446283411
188.34200,-0.3099225569
188.34250,1.521243889
188.34300,2.436827112
188.34350,1.521243889
188.34400,0.3004662585
188.34450,-0.6151169646
188.34500,-2.141089003
188.34550,-3.056672226
188.34600,-1.835894595
188.34650,0.3004662585
188.34700,2.436827112
188.34750,3.047215928
188.34800,3.047215928
188.34850,3.352410335
188.34900,3.657604743
188.34950,3.352410335
188.35000,2.131632705
188.35050,1.216049482
188.35100,1.826438297
188.35150,4.573187966
188.35200,6.70954882
188.35250,6.70954882
188.35300,4.267993559
188.35350,0.6056606662
188.35400,-1.22550578
188.35450,-1.835894595
188.35500,-0.9203113723
188.35550,-0.004728149245
188.35600,-0.3099225569
188.35650,-0.3099225569
188.35700,-0.004728149245
188.35750,-0.004728149245
188.35800,-0.9203113723
188.35850,-2.446283411
188.35900,-2.751477819
188.35950,-3.361866634
188.36000,-3.361866634
188.36050,-1.835894595
188.36100,0.9108550739
188.36150,-0.004728149245
188.36200,-7.634588342
188.36250,-18.31639261
188.36300,-23.19950313
188.36350,-21.6735311
188.36400,-18.62158702
188.36450,-16.79042057
188.36500,-13.12808768
188.36550,-4.887838672
188.36600,5.793965597
188.36650,17.6965475
188.36700,31.43029584
188.36750,43.94326656
188.36800,48.21598827
188.36850,40.28093367
188.36900,27.15757414
188.36950,17.6965475
188.37000,14.03421461
188.37050,11.59265934
188.37100,8.540715266
188.37150,6.404354412
188.37200,5.488771189
188.37250,4.267993559
188.37300,2.131632705
188.37350,0.3004662585
188.37400,-0.3099225569
188.37450,-1.835894595
188.37500,-3.972255449
188.37550,-4.887838672
188.37600,-4.582644265
188.37650,-3.972255449
188.37700,-3.056672226
188.37750,-0.9203113723
188.37800,2.131632705
188.37850,4.573187966
188.37900,4.267993559
188.37950,3.352410335
188.38000,3.352410335
188.38050,2.131632705
188.38100,-0.004728149245
188.38150,-0.3099225569
188.38200,0.6056606662
188.38250,-0.004728149245
188.38300,-3.361866634
188.38350,-5.498227488
188.38400,-5.19303308
188.38450,-9.16056038
188.38500,-22.58911432
188.38550,-38.76441793
188.38600,-44.56311167
188.38650,-39.06961234
188.38700,-31.74494655
188.38750,-28.38780807
188.38800,-24.11508636
188.38850,-14.0436709
188.38900,-0.3099225569
188.38950,12.81343697
188.39000,26.54718532
188.39050,40.58612808
188.39100,48.82637708
188.39150,47.30040504
188.39200,38.14457281
188.39250,26.85237973
188.39300,16.47576987
188.39350,8.540715266
188.39400,5.183576782
188.39450,6.70954882
188.39500,8.845909674
188.39550,8.845909674
188.39600,6.70954882
188.39650,3.962799151
188.39700,1.216049482
188.39750,-0.9203113723
188.39800,-2.141089003
188.39850,-2.141089003
188.39900,-2.751477819
188.39950,-3.667061042
188.40000,-3.972255449
188.40050,-3.667061042
188.40100,-4.582644265
188.40150,-7.024199526
188.40200,-8.855365973
188.40250,-8.855365973
188.40300,-9.16056038
188.40350,-10.68653242
188.40400,-11.60211564
188.40450,-10.38133801
188.40500,-8.244977157
188.40550,-6.719005119
188.40600,-6.719005119
188.40650,-7.634588342
188.40700,-9.465754788
188.40750,-10.68653242
188.40800,-9.770949196
188.40850,-7.939782749
188.40900,-7.329393934
188.40950,-8.244977157
188.41000,-8.550171565
188.41050,-7.939782749
188.41100,-7.329393934
188.41150,-7.329393934
188.41200,-6.108616303
188.41250,-3.361866634
188.41300,-1.835894595
188.41350,-2.141089003
188.41400,-3.056672226
188.41450,-3.972255449
188.41500,-5.19303308
188.41550,-6.413810711
188.41600,-7.024199526
188.41650,-5.803421896
188.41700,-4.582644265
188.41750,-3.972255449
188.41800,-4.277449857
188.41850,-5.803421896
188.41900,-8.244977157
188.41950,-9.465754788
188.42000,-8.855365973
188.42050,-9.465754788
188.42100,-15.56964294
188.42150,-25.6410584
188.42200,-33.8813074
188.42250,-35.71247385
188.42300,-32.35533537
188.42350,-25.9462528
188.42400,-18.31639261
188.42450,-10.38133801
188.42500,-1.835894595
188.42550,10.0666873
188.42600,26.24199091
188.42650,41.5017113
188.42700,47.60559945
188.42750,42.72248893
188.42800,32.34587907
188.42850,21.96926921
188.42900,13.11863138
188.42950,6.70954882
188.43000,3.962799151
188.43050,3.962799151
188.43100,2.74202152
188.43150,-0.004728149245
188.43200,0.9108550739
188.43250,6.099160005
188.43300,9.761492897
188.43350,7.319937636
188.43400,2.436827112
188.43450,-0.004728149245
188.43500,-0.6151169646
188.43550,-3.972255449
188.43600,-8.855365973
188.43650,-8.855365973
188.43700,-4.582644265
188.43750,-1.530700188
188.43800,-3.667061042
188.43850,-6.719005119
188.43900,-7.329393934
188.43950,-4.887838672
188.44000,-0.3099225569
188.44050,5.793965597
188.44100,12.50824257
188.44150,15.86538105
188.44200,15.86538105
188.44250,14.94979783
188.44300,14.94979783
188.44350,14.03421461
188.44400,11.59265934
188.44450,9.45629849
188.44500,9.151104082
188.44550,8.235520859
188.44600,5.488771189
188.44650,2.436827112
188.44700,2.131632705
188.44750,2.74202152
188.44800,1.521243889
188.44850,-0.004728149245
188.44900,-0.004728149245
188.44950,0.6056606662
188.45000,0.9108550739
188.45050,0.6056606662
188.45100,1.216049482
188.45150,1.521243889
188.45200,-0.004728149245
188.45250,-2.141089003
188.45300,-3.667061042
188.45350,-3.972255449
188.45400,-3.972255449
188.45450,-3.361866634
188.45500,-1.835894595
188.45550,-1.530700188
188.45600,-3.056672226
188.45650,-4.887838672
188.45700,-4.277449857
188.45750,-2.446283411
188.45800,-2.446283411
188.45850,-2.446283411
188.45900,-0.9203113723
188.45950,1.216049482
188.46000,2.131632705
188.46050,0.6056606662
188.46100,-0.6151169646
188.46150,-1.835894595
188.46200,-2.446283411
188.46250,-3.361866634
188.46300,-3.972255449
188.46350,-3.667061042
188.46400,-3.667061042
188.46450,-3.361866634
188.46500,-2.751477819
188.46550,-2.751477819
188.46600,-3.361866634
188.46650,-2.751477819
188.46700,-0.3099225569
188.46750,1.826438297
188.46800,1.521243889
188.46850,-0.6151169646
188.46900,-2.141089003
188.46950,-2.141089003
188.47000,-1.530700188
188.47050,-1.22550578
188.47100,-0.9203113723
188.47150,-1.22550578
188.47200,-2.141089003
188.47250,-2.141089003
188.47300,-0.6151169646
188.47350,1.521243889
188.47400,2.436827112
188.47450,1.521243889
188.47500,0.9108550739
188.47550,1.521243889
188.47600,3.047215928
188.47650,4.573187966
188.47700,5.183576782
188.47750,4.878382374
188.47800,3.962799151
188.47850,2.74202152
188.47900,2.436827112
188.47950,3.047215928
188.48000,3.047215928
188.48050,2.131632705
188.48100,-0.004728149245
188.48150,-1.835894595
188.48200,-2.141089003
188.48250,-1.22550578
188.48300,-0.3099225569
188.48350,-0.004728149245
188.48400,0.3004662585
188.48450,0.6056606662
188.48500,-0.004728149245
188.48550,-1.22550578
188.48600,-2.141089003
188.48650,-0.9203113723
188.48700,0.3004662585
188.48750,-0.004728149245
188.48800,-1.530700188
188.48850,-2.446283411
188.48900,-1.530700188
188.48950,-0.9203113723
188.49000,-1.835894595
188.49050,-2.141089003
188.49100,-0.004728149245
188.49150,2.74202152
188.49200,3.657604743
188.49250,2.436827112
188.49300,2.131632705
188.49350,3.657604743
188.49400,5.488771189
188.49450,5.488771189
188.49500,4.267993559
188.49550,3.657604743
188.49600,4.267993559
188.49650,3.962799151
188.49700,2.131632705
188.49750,1.521243889
188.49800,3.657604743
188.49850,6.099160005
188.49900,5.793965597
188.49950,3.657604743
188.50000,2.74202152
188.50050,3.962799151
188.50100,4.878382374
188.50150,3.352410335
188.50200,1.216049482
188.50250,-0.004728149245
188.50300,-0.004728149245
188.50350,-0.6151169646
188.50400,-2.141089003
188.50450,-2.141089003
188.50500,-0.9203113723
188.50550,-0.004728149245
188.50600,-0.6151169646
188.50650,-1.530700188
188.50700,-1.22550578
188.50750,-0.3099225569
188.50800,-0.004728149245
188.50850,-0.004728149245
188.50900,-0.004728149245
188.50950,-0.3099225569
188.51000,-0.6151169646
188.51050,-1.530700188
188.51100,-2.446283411
188.51150,-3.361866634
188.51200,-3.361866634
188.51250,-2.141089003
188.51300,-0.3099225569
188.51350,-0.004728149245
188.51400,-0.3099225569
188.51450,-1.530700188
188.51500,-2.141089003
188.51550,-1.835894595
188.51600,-1.22550578
188.51650,-0.9203113723
188.51700,-1.22550578
188.51750,-2.446283411
188.51800,-3.056672226
188.51850,-2.751477819
188.51900,-1.530700188
188.51950,-0.3099225569
188.52000,-0.004728149245
188.52050,-0.004728149245
188.52100,0.6056606662
188.52150,1.826438297
188.52200,2.74202152
188.52250,3.352410335
188.52300,3.352410335
188.52350,2.436827112
188.52400,1.216049482
188.52450,0.3004662585
188.52500,0.6056606662
188.52550,0.9108550739
188.52600,1.521243889
188.52650,1.826438297
188.52700,1.826438297
188.52750,1.216049482
188.52800,1.521243889
188.52850,2.436827112
188.52900,2.74202152
188.52950,1.521243889
188.53000,-1.22550578
188.53050,-3.972255449
188.53100,-4.887838672
188.53150,-4.887838672
188.53200,-4.277449857
188.53250,-3.972255449
188.53300,-3.056672226
188.53350,-2.141089003
188.53400,-0.9203113723
188.53450,-0.004728149245
188.53500,-0.004728149245
188.53550,-1.22550578
188.53600,-1.835894595
188.53650,-1.835894595
188.53700,-1.22550578
188.53750,-0.6151169646
188.53800,-0.3099225569
188.53850,-0.9203113723
188.53900,-2.446283411
188.53950,-4.277449857
188.54000,-4.887838672
188.54050,-3.972255449
188.54100,-1.835894595
188.54150,-0.004728149245
188.54200,0.6056606662
188.54250,-0.6151169646
188.54300,-3.667061042
188.54350,-6.719005119
188.54400,-7.634588342
188.54450,-6.413810711
188.54500,-4.277449857
188.54550,-2.751477819
188.54600,-1.22550578
188.54650,0.3004662585
188.54700,1.826438297
188.54750,2.436827112
188.54800,2.436827112
188.54850,3.352410335
188.54900,4.878382374
188.54950,5.793965597
188.55000,5.183576782
188.55050,3.352410335
188.55100,1.826438297
188.55150,2.436827112
188.55200,3.962799151
188.55250,4.573187966
188.55300,3.047215928
188.55350,0.6056606662
188.55400,-0.6151169646
188.55450,-1.22550578
188.55500,-1.22550578
188.55550,-0.004728149245
188.55600,0.6056606662
188.55650,-2.141089003
188.55700,-11.60211564
188.55750,-23.19950313
188.55800,-30.52416892
188.55850,-31.13455773
188.55900,-27.47222484
188.55950,-22.28391991
188.56000,-16.79042057
188.56050,-11.29692123
188.56100,-4.887838672
188.56150,5.183576782
188.56200,20.13810276
188.56250,34.17704551
188.56300,39.97573926
188.56350,34.78743433
188.56400,24.10563006
188.56450,14.64460342
188.56500,8.540715266
188.56550,4.573187966
188.56600,1.826438297
188.56650,-0.004728149245
188.56700,-0.3099225569
188.56750,-0.004728149245
188.56800,1.521243889
188.56850,2.74202152
188.56900,3.047215928
188.56950,3.047215928
188.57000,2.74202152
188.57050,2.131632705
188.57100,0.9108550739
188.57150,-0.9203113723
188.57200,-1.835894595
188.57250,-1.530700188
188.57300,-0.9203113723
188.57350,-2.141089003
188.57400,-4.277449857
188.57450,-5.803421896
188.57500,-5.19303308
188.57550,-3.361866634
188.57600,-1.530700188
188.57650,-0.9203113723
188.57700,-0.004728149245
188.57750,1.216049482
188.57800,1.826438297
188.57850,1.521243889
188.57900,0.9108550739
188.57950,2.436827112
188.58000,5.183576782
188.58050,6.404354412
188.58100,3.962799151
188.58150,-0.004728149245
188.58200,-3.056672226
188.58250,-3.972255449
188.58300,-4.582644265
188.58350,-4.887838672
188.58400,-3.667061042
188.58450,-1.530700188
188.58500,-0.004728149245
188.58550,-0.3099225569
188.58600,-0.9203113723
188.58650,-0.9203113723
188.58700,-0.9203113723
188.58750,-1.530700188
188.58800,-1.22550578
188.58850,-0.3099225569
188.58900,-0.9203113723
188.58950,-4.277449857
188.59000,-7.939782749
188.59050,-8.244977157
188.59100,-4.582644265
188.59150,-0.3099225569
188.59200,1.216049482
188.59250,0.9108550739
188.59300,-0.004728149245
188.59350,-2.141089003
188.59400,-4.277449857
188.59450,-5.19303308
188.59500,-4.277449857
188.59550,-1.530700188
188.59600,0.3004662585
188.59650,1.521243889
188.59700,2.131632705
188.59750,2.131632705
188.59800,1.521243889
188.59850,0.9108550739
188.59900,0.9108550739
188.59950,1.826438297
188.60000,3.047215928
188.60050,3.352410335
188.60100,1.521243889
188.60150,-1.22550578
188.60200,-3.667061042
188.60250,-3.361866634
188.60300,-1.530700188
188.60350,-0.004728149245
188.60400,-0.004728149245
188.60450,-0.9203113723
188.60500,-1.22550578
188.60550,-0.9203113723
188.60600,-1.22550578
188.60650,-2.141089003
188.60700,-2.751477819
188.60750,-2.141089003
188.60800,-0.9203113723
188.60850,-0.6151169646
188.60900,-1.22550578
188.60950,-2.141089003
188.61000,-2.751477819
188.61050,-2.751477819
188.61100,-1.530700188
188.61150,0.3004662585
188.61200,2.436827112
188.61250,3.962799151
188.61300,3.657604743
188.61350,1.826438297
188.61400,-0.004728149245
188.61450,-0.6151169646
188.61500,0.6056606662
188.61550,3.352410335
188.61600,4.573187966
188.61650,3.962799151
188.61700,3.352410335
188.61750,3.352410335
188.61800,3.352410335
188.61850,2.436827112
188.61900,0.9108550739
188.61950,-0.004728149245
188.62000,0.3004662585
188.62050,1.521243889
188.62100,1.826438297
188.62150,1.216049482
188.62200,0.9108550739
188.62250,1.521243889
188.62300,2.131632705
188.62350,1.826438297
188.62400,-0.004728149245
188.62450,-2.141089003
188.62500,-2.141089003
188.62550,-0.6151169646
188.62600,-0.004728149245
188.62650,-0.004728149245
188.62700,-0.004728149245
188.62750,-0.004728149245
188.62800,-0.3099225569
188.62850,-2.141089003
188.62900,-3.361866634
188.62950,-3.361866634
188.63000,-2.751477819
188.63050,-3.056672226
188.63100,-3.361866634
188.63150,-2.751477819
188.63200,-1.22550578
188.63250,-0.6151169646
188.63300,-0.6151169646
188.63350,-0.004728149245
188.63400,0.9108550739
188.63450,2.74202152
188.63500,3.657604743
188.63550,4.267993559
188.63600,4.878382374
188.63650,5.183576782
188.63700,4.878382374
188.63750,4.267993559
188.63800,3.962799151
188.63850,3.657604743
188.63900,2.74202152
188.63950,1.826438297
188.64000,1.216049482
188.64050,0.9108550739
188.64100,0.6056606662
188.64150,0.9108550739
188.64200,2.74202152
188.64250,4.878382374
188.64300,4.878382374
188.64350,3.047215928
188.64400,0.6056606662
188.64450,0.3004662585
188.64500,1.521243889
188.64550,3.047215928
188.64600,3.657604743
188.64650,3.657604743
188.64700,2.74202152
188.64750,1.216049482
188.64800,0.9108550739
188.64850,1.521243889
188.64900,2.131632705
188.64950,1.521243889
188.65000,0.3004662585
188.65050,0.3004662585
188.65100,0.9108550739
188.65150,0.9108550739
188.65200,0.6056606662
188.65250,0.3004662585
188.65300,0.3004662585
188.65350,-0.3099225569
188.65400,-1.530700188
188.65450,-1.835894595
188.65500,-0.3099225569
188.65550,1.216049482
188.65600,1.826438297
188.65650,2.131632705
188.65700,2.74202152
188.65750,3.657604743
188.65800,3.657604743
188.65850,2.74202152
188.65900,1.216049482
188.65950,-0.3099225569
188.66000,-2.141089003
188.66050,-2.751477819
188.66100,-2.446283411
188.66150,-1.835894595
188.66200,-2.446283411
188.66250,-3.667061042
188.66300,-4.277449857
188.66350,-4.277449857
188.66400,-4.277449857
188.66450,-5.19303308
188.66500,-5.803421896
188.66550,-5.498227488
188.66600,-4.582644265
188.66650,-3.667061042
188.66700,-3.972255449
188.66750,-4.582644265
188.66800,-4.887838672
188.66850,-4.277449857
188.66900,-2.751477819
188.66950,-2.446283411
188.67000,-3.056672226
188.67050,-3.972255449
188.67100,-3.667061042
188.67150,-2.751477819
188.67200,-1.530700188
188.67250,-1.22550578
188.67300,-1.22550578
188.67350,-1.22550578
188.67400,-0.004728149245
188.67450,2.131632705
188.67500,3.657604743
188.67550,3.352410335
188.67600,1.521243889
188.67650,0.3004662585
188.67700,0.3004662585
188.67750,0.9108550739
188.67800,0.6056606662
188.67850,-0.004728149245
188.67900,-0.9203113723
188.67950,-2.446283411
188.68000,-3.056672226
188.68050,-1.530700188
188.68100,0.3004662585
188.68150,0.9108550739
188.68200,-0.004728149245
188.68250,-0.3099225569
188.68300,0.6056606662
188.68350,1.216049482
188.68400,1.826438297
188.68450,3.962799151
188.68500,5.793965597
188.68550,2.74202152
188.68600,-5.803421896
188.68650,-14.34886531
188.68700,-19.23197583
188.68750,-21.36833669
188.68800,-23.80989195
188.68850,-23.80989195
188.68900,-18.92678143
188.68950,-10.99172683
188.69000,-3.361866634
188.69050,6.404354412
188.69100,21.96926921
188.69150,37.22898959
188.69200,41.80690571
188.69250,33.87185111
188.69300,21.6640748
188.69350,13.11863138
188.69400,8.845909674
188.69450,5.183576782
188.69500,2.131632705
188.69550,1.826438297
188.69600,4.267993559
188.69650,6.099160005
188.69700,4.573187966
188.69750,0.6056606662
188.69800,-1.835894595
188.69850,-1.835894595
188.69900,-0.004728149245
188.69950,1.216049482
188.70000,-0.004728149245
188.70050,-0.9203113723
188.70100,-0.004728149245
188.70150,2.436827112
188.70200,1.521243889
188.70250,-3.056672226
188.70300,-7.634588342
188.70350,-7.634588342
188.70400,-5.19303308
188.70450,-4.277449857
188.70500,-5.498227488
188.70550,-5.803421896
188.70600,-3.972255449
188.70650,-2.141089003
188.70700,-2.751477819
188.70750,-3.972255449
188.70800,-3.667061042
188.70850,-2.141089003
188.70900,-1.835894595
188.70950,-2.446283411
188.71000,-3.056672226
188.71050,-3.056672226
188.71100,-2.751477819
188.71150,-2.751477819
188.71200,-2.751477819
188.71250,-2.446283411
188.71300,-1.530700188
188.71350,0.6056606662
188.71400,4.267993559
188.71450,7.014743228
188.71500,7.014743228
188.71550,4.573187966
188.71600,1.521243889
188.71650,-0.6151169646
188.71700,-2.751477819
188.71750,-3.667061042
188.71800,-3.361866634
188.71850,-2.141089003
188.71900,-1.22550578
188.71950,-0.6151169646
188.72000,0.3004662585
188.72050,1.216049482
188.72100,-0.004728149245
188.72150,-3.056672226
188.72200,-5.19303308
188.72250,-4.887838672
188.72300,-4.277449857
188.72350,-4.887838672
188.72400,-5.803421896
188.72450,-5.803421896
188.72500,-4.887838672
188.72550,-4.582644265
188.72600,-4.582644265
188.72650,-4.277449857
188.72700,-4.277449857
188.72750,-4.887838672
188.72800,-5.803421896
188.72850,-5.803421896
188.72900,-5.498227488
188.72950,-4.582644265
188.73000,-2.751477819
188.73050,-0.6151169646
188.73100,-0.6151169646
188.73150,-3.361866634
188.73200,-5.498227488
188.73250,-4.277449857
188.73300,-0.3099225569
188.73350,2.436827112
188.73400,2.436827112
188.73450,1.826438297
188.73500,2.131632705
188.73550,2.74202152
188.73600,3.352410335
188.73650,3.962799151
188.73700,3.962799151
188.73750,3.352410335
188.73800,1.826438297
188.73850,1.521243889
188.73900,2.74202152
188.73950,3.047215928
188.74000,1.826438297
188.74050,1.521243889
188.74100,2.74202152
188.74150,4.267993559
188.74200,4.267993559
188.74250,3.657604743
188.74300,4.267993559
188.74350,5.183576782
188.74400,4.267993559
188.74450,1.826438297
188.74500,0.3004662585
188.74550,0.3004662585
188.74600,0.3004662585
188.74650,-0.004728149245
188.74700,-0.3099225569
188.74750,0.3004662585
188.74800,0.9108550739
188.74850,-0.004728149245
188.74900,-0.9203113723
188.74950,-1.22550578
188.75000,-1.22550578
188.75050,-0.9203113723
188.75100,-0.004728149245
188.75150,1.521243889
188.75200,2.436827112
188.75250,1.826438297
188.75300,0.6056606662
188.75350,0.9108550739
188.75400,1.826438297
188.75450,1.826438297
188.75500,0.6056606662
188.75550,0.3004662585
188.75600,1.216049482
188.75650,1.826438297
188.75700,1.826438297
188.75750,2.131632705
188.75800,3.047215928
188.75850,3.047215928
188.75900,2.436827112
188.75950,2.436827112
188.76000,3.657604743
188.76050,4.878382374
188.76100,4.267993559
188.76150,2.436827112
188.76200,0.6056606662
188.76250,-0.3099225569
188.76300,-0.9203113723
188.76350,-0.004728149245
188.76400,1.826438297
188.76450,4.573187966
188.76500,7.014743228
188.76550,8.540715266
188.76600,8.540715266
188.76650,7.319937636
188.76700,5.488771189
188.76750,4.267993559
188.76800,4.573187966
188.76850,5.488771189
188.76900,6.099160005
188.76950,5.488771189
188.77000,3.962799151
188.77050,2.74202152
188.77100,1.826438297
188.77150,1.216049482
188.77200,0.6056606662
188.77250,-0.004728149245
188.77300,-0.6151169646
188.77350,-0.9203113723
188.77400,-0.3099225569
188.77450,0.9108550739
188.77500,0.9108550739
188.77550,-0.3099225569
188.77600,-2.141089003
188.77650,-2.446283411
188.77700,-2.141089003
188.77750,-1.530700188
188.77800,-0.9203113723
188.77850,-0.004728149245
188.77900,-0.004728149245
188.77950,-1.22550578
188.78000,-3.361866634
188.78050,-4.277449857
188.78100,-4.582644265
188.78150,-5.19303308
188.78200,-6.413810711
188.78250,-5.803421896
188.78300,-3.361866634
188.78350,-1.530700188
188.78400,-0.6151169646
188.78450,1.216049482
188.78500,5.183576782
188.78550,7.014743228
188.78600,3.657604743
188.78650,-1.22550578
188.78700,-3.667061042
188.78750,-3.361866634
188.78800,-3.361866634
188.78850,-4.582644265
188.78900,-3.667061042
188.78950,-0.9203113723
188.79000,0.3004662585
188.79050,-0.3099225569
188.79100,-1.22550578
188.79150,0.3004662585
188.79200,2.131632705
188.79250,1.216049482
188.79300,-1.835894595
188.79350,-3.972255449
188.79400,-3.056672226
188.79450,-2.141089003
188.79500,-2.751477819
188.79550,-3.667061042
188.79600,-3.056672226
188.79650,-1.835894595
188.79700,-1.22550578
188.79750,-1.835894595
188.79800,-2.141089003
188.79850,-2.141089003
188.79900,-2.751477819
188.79950,-3.056672226
188.80000,-2.446283411
188.80050,-0.9203113723
188.80100,0.3004662585
188.80150,0.3004662585
188.80200,-0.004728149245
188.80250,-0.6151169646
188.80300,-0.9203113723
188.80350,-0.6151169646
188.80400,-0.3099225569
188.80450,-0.3099225569
188.80500,-0.6151169646
188.80550,-0.6151169646
188.80600,-0.004728149245
188.80650,-0.004728149245
188.80700,-0.004728149245
188.80750,-0.3099225569
188.80800,-1.530700188
188.80850,-2.446283411
188.80900,-3.056672226
188.80950,-3.361866634
188.81000,-3.361866634
188.81050,-3.972255449
188.81100,-4.277449857
188.81150,-4.887838672
188.81200,-5.498227488
188.81250,-6.108616303
188.81300,-5.803421896
188.81350,-4.277449857
188.81400,-2.446283411
188.81450,-1.530700188
188.81500,-0.004728149245
188.81550,2.436827112
188.81600,4.573187966
188.81650,5.183576782
188.81700,4.573187966
188.81750,4.878382374
188.81800,5.793965597
188.81850,5.488771189
188.81900,4.267993559
188.81950,3.962799151
188.82000,4.267993559
188.82050,3.352410335
188.82100,0.9108550739
188.82150,-1.835894595
188.82200,-3.056672226
188.82250,-3.056672226
188.82300,-3.361866634
188.82350,-3.056672226
188.82400,-2.446283411
188.82450,-1.835894595
188.82500,-2.446283411
188.82550,-3.056672226
188.82600,-3.056672226
188.82650,-2.751477819
188.82700,-2.751477819
188.82750,-2.446283411
188.82800,-0.9203113723
188.82850,0.9108550739
188.82900,1.521243889
188.82950,0.9108550739
188.83000,0.3004662585
188.83050,0.3004662585
188.83100,0.3004662585
188.83150,-0.004728149245
188.83200,-0.3099225569
188.83250,-0.004728149245
188.83300,0.3004662585
188.83350,0.3004662585
188.83400,-0.004728149245
188.83450,-0.004728149245
188.83500,0.6056606662
188.83550,1.216049482
188.83600,1.826438297
188.83650,2.74202152
188.83700,3.047215928
188.83750,1.826438297
188.83800,-0.004728149245
188.83850,-0.004728149245
188.83900,0.3004662585
188.83950,-0.004728149245
188.84000,-1.22550578
188.84050,-1.835894595
188.84100,-0.9203113723
188.84150,-0.004728149245
188.84200,-0.004728149245
188.84250,-0.004728149245
188.84300,0.3004662585
188.84350,-0.004728149245
188.84400,-1.530700188
188.84450,-2.446283411
188.84500,-0.9203113723
188.84550,1.521243889
188.84600,2.74202152
188.84650,1.826438297
188.84700,-0.004728149245
188.84750,-0.9203113723
188.84800,-1.22550578
188.84850,-1.530700188
188.84900,-1.530700188
188.84950,-1.22550578
188.85000,-0.3099225569
188.85050,0.6056606662
188.85100,2.436827112
188.85150,2.436827112
188.85200,1.216049482
188.85250,0.6056606662
188.85300,2.131632705
188.85350,3.352410335
188.85400,2.436827112
188.85450,0.6056606662
188.85500,0.6056606662
188.85550,1.216049482
188.85600,0.9108550739
188.85650,-0.004728149245
188.85700,-0.004728149245
188.85750,1.521243889
188.85800,1.826438297
188.85850,0.6056606662
188.85900,-0.004728149245
188.85950,1.216049482
188.86000,2.74202152
188.86050,2.74202152
188.86100,2.131632705
188.86150,2.131632705
188.86200,2.436827112
188.86250,3.352410335
188.86300,3.657604743
188.86350,3.047215928
188.86400,1.521243889
188.86450,-0.3099225569
188.86500,-2.141089003
188.86550,-3.361866634
188.86600,-3.361866634
188.86650,-3.056672226
188.86700,-2.751477819
188.86750,-3.056672226
188.86800,-2.446283411
188.86850,-1.530700188
188.86900,-1.22550578
188.86950,-2.446283411
188.87000,-4.582644265
188.87050,-4.277449857
188.87100,-1.835894595
188.87150,-0.004728149245
188.87200,0.3004662585
188.87250,1.521243889
188.87300,3.657604743
188.87350,3.047215928
188.87400,-3.972255449
188.87450,-13.7384765
188.87500,-19.53717024
188.87550,-20.14755906
188.87600,-18.92678143
188.87650,-17.09561498
188.87700,-13.7384765
188.87750,-7.939782749
188.87800,-1.530700188
188.87850,7.319937636
188.87900,22.27446361
188.87950,39.67054485
188.88000,49.13157149
188.88050,45.16404419
188.88100,32.95626788
188.88150,21.96926921
188.88200,15.56018664
188.88250,10.37188171
188.88300,5.488771189
188.88350,2.74202152
188.88400,1.521243889
188.88450,-0.004728149245
188.88500,-2.446283411
188.88550,-3.361866634
188.88600,-2.751477819
188.88650,-2.751477819
188.88700,-3.667061042
188.88750,-3.361866634
188.88800,-2.446283411
188.88850,-2.446283411
188.88900,-4.277449857
188.88950,-5.803421896
188.89000,-6.413810711
188.89050,-6.413810711
188.89100,-6.108616303
188.89150,-5.19303308
188.89200,-5.19303308
188.89250,-7.024199526
188.89300,-9.465754788
188.89350,-8.855365973
188.89400,-5.803421896
188.89450,-3.667061042
188.89500,-3.667061042
188.89550,-3.361866634
188.89600,-1.530700188
188.89650,-0.6151169646
188.89700,-2.141089003
188.89750,-4.277449857
188.89800,-4.887838672
188.89850,-3.972255449
188.89900,-4.582644265
188.89950,-5.803421896
188.90000,-6.719005119
188.90050,-6.719005119
188.90100,-7.024199526
188.90150,-7.024199526
188.90200,-5.19303308
188.90250,-3.056672226
188.90300,-2.751477819
188.90350,-3.667061042
188.90400,-4.582644265
188.90450,-4.277449857
188.90500,-3.667061042
188.90550,-3.667061042
188.90600,-3.667061042
188.90650,-2.446283411
188.90700,-1.22550578
188.90750,-1.22550578
188.90800,-1.835894595
188.90850,-1.835894595
188.90900,0.3004662585
188.90950,3.047215928
188.91000,3.962799151
188.91050,3.352410335
188.91100,2.74202152
188.91150,3.352410335
188.91200,3.352410335
188.91250,1.826438297
188.91300,0.3004662585
188.91350,-0.004728149245
188.91400,0.3004662585
188.91450,0.6056606662
188.91500,0.9108550739
188.91550,2.131632705
188.91600,3.352410335
188.91650,3.047215928
188.91700,2.131632705
188.91750,2.436827112
188.91800,3.657604743
188.91850,3.657604743
188.91900,2.131632705
188.91950,0.6056606662
188.92000,0.3004662585
188.92050,0.6056606662
188.92100,0.3004662585
188.92150,-0.004728149245
188.92200,-0.004728149245
188.92250,-0.004728149245
188.92300,0.6056606662
188.92350,1.216049482
188.92400,1.216049482
188.92450,0.3004662585
188.92500,-0.3099225569
188.92550,-0.9203113723
188.92600,-0.3099225569
188.92650,0.3004662585
188.92700,0.9108550739
188.92750,0.3004662585
188.92800,-0.004728149245
188.92850,-0.004728149245
188.92900,0.6056606662
188.92950,0.9108550739
188.93000,0.9108550739
188.93050,1.826438297
188.93100,3.962799151
188.93150,5.183576782
188.93200,3.657604743
188.93250,1.216049482
188.93300,0.6056606662
188.93350,0.9108550739
188.93400,-0.004728149245
188.93450,-2.141089003
188.93500,-2.446283411
188.93550,-0.6151169646
188.93600,0.9108550739
188.93650,1.521243889
188.93700,1.521243889
188.93750,2.131632705
188.93800,2.131632705
188.93850,1.521243889
188.93900,1.521243889
188.93950,2.131632705
188.94000,1.521243889
188.94050,-0.3099225569
188.94100,-1.835894595
188.94150,-1.530700188
188.94200,-0.6151169646
188.94250,-0.3099225569
188.94300,-0.3099225569
188.94350,-0.004728149245
188.94400,0.6056606662
188.94450,0.9108550739
188.94500,0.9108550739
188.94550,0.9108550739
188.94600,0.6056606662
188.94650,-0.004728149245
188.94700,-0.004728149245
188.94750,-0.004728149245
188.94800,-0.004728149245
188.94850,-0.9203113723
188.94900,-0.6151169646
188.94950,0.3004662585
188.95000,1.216049482
188.95050,0.9108550739
188.95100,1.521243889
188.95150,3.657604743
188.95200,4.267993559
188.95250,2.131632705
188.95300,-0.6151169646
188.95350,-0.6151169646
188.95400,1.521243889
188.95450,3.352410335
188.95500,3.047215928
188.95550,2.436827112
188.95600,2.436827112
188.95650,2.74202152
188.95700,3.352410335
188.95750,3.657604743
188.95800,3.962799151
188.95850,3.352410335
188.95900,2.131632705
188.95950,0.9108550739
188.96000,-0.004728149245
188.96050,-1.835894595
188.96100,-3.361866634
188.96150,-2.446283411
188.96200,0.3004662585
188.96250,2.131632705
188.96300,1.216049482
188.96350,-0.004728149245
188.96400,-0.3099225569
188.96450,-0.004728149245
188.96500,-0.004728149245
188.96550,0.3004662585
188.96600,1.826438297
188.96650,3.047215928
188.96700,1.826438297
188.96750,-0.3099225569
188.96800,-1.530700188
188.96850,-1.22550578
188.96900,-0.3099225569
188.96950,0.3004662585
188.97000,2.74202152
188.97050,5.793965597
188.97100,6.099160005
188.97150,3.352410335
188.97200,0.3004662585
188.97250,-0.6151169646
188.97300,-0.9203113723
188.97350,-1.530700188
188.97400,-2.751477819
188.97450,-2.751477819
188.97500,-1.22550578
188.97550,-0.6151169646
188.97600,-1.22550578
188.97650,-1.835894595
188.97700,-1.22550578
188.97750,-0.3099225569
188.97800,-0.004728149245
188.97850,0.3004662585
188.97900,0.6056606662
188.97950,0.3004662585
188.98000,-0.3099225569
188.98050,-0.6151169646
188.98100,-0.004728149245
188.98150,0.9108550739
188.98200,0.6056606662
188.98250,-0.6151169646
188.98300,-1.22550578
188.98350,-0.9203113723
188.98400,-1.530700188
188.98450,-3.361866634
188.98500,-5.803421896
188.98550,-6.413810711
188.98600,-4.887838672
188.98650,-3.361866634
188.98700,-2.446283411
188.98750,-1.22550578
188.98800,-0.004728149245
188.98850,0.3004662585
188.98900,0.3004662585
188.98950,0.6056606662
188.99000,1.216049482
188.99050,1.216049482
188.99100,0.3004662585
188.99150,-0.9203113723
188.99200,-2.141089003
188.99250,-3.056672226
188.99300,-3.972255449
188.99350,-3.667061042
188.99400,-2.446283411
188.99450,-1.835894595
188.99500,-2.141089003
188.99550,-2.141089003
188.99600,-0.9203113723
188.99650,0.6056606662
188.99700,0.6056606662
188.99750,-0.3099225569
188.99800,-1.835894595
188.99850,-2.446283411
188.99900,-1.530700188
188.99950,0.3004662585
189.00000,1.521243889
189.00050,0.6056606662
189.00100,-0.6151169646
189.00150,-1.22550578
189.00200,-0.004728149245
189.00250,0.3004662585
189.00300,-0.6151169646
189.00350,-1.22550578
189.00400,-1.22550578
189.00450,-0.9203113723
189.00500,-1.530700188
189.00550,-0.9203113723
189.00600,1.216049482
189.00650,3.352410335
189.00700,2.131632705
189.00750,-0.004728149245
189.00800,-1.22550578
189.00850,-0.9203113723
189.00900,-1.22550578
189.00950,-2.751477819
189.01000,-4.277449857
189.01050,-4.582644265
189.01100,-4.582644265
189.01150,-4.277449857
189.01200,-3.972255449
189.01250,-3.972255449
189.01300,-4.277449857
189.01350,-3.667061042
189.01400,-1.835894595
189.01450,-1.530700188
189.01500,-3.056672226
189.01550,-4.277449857
189.01600,-2.141089003
189.01650,-0.004728149245
189.01700,-0.004728149245
189.01750,-1.835894595
189.01800,-2.446283411
189.01850,-0.3099225569
189.01900,0.3004662585
189.01950,-0.6151169646
189.02000,-1.530700188
189.02050,-0.3099225569
189.02100,1.521243889
189.02150,1.521243889
189.02200,0.3004662585
189.02250,-0.004728149245
189.02300,-0.004728149245
189.02350,0.3004662585
189.02400,0.3004662585
189.02450,0.9108550739
189.02500,0.9108550739
189.02550,-0.004728149245
189.02600,-0.3099225569
189.02650,-0.004728149245
189.02700,1.216049482
189.02750,1.826438297
189.02800,0.9108550739
189.02850,-0.004728149245
189.02900,-0.9203113723
189.02950,-0.9203113723
189.03000,-0.3099225569
189.03050,-0.004728149245
189.03100,0.3004662585
189.03150,-0.004728149245
189.03200,-0.004728149245
189.03250,0.6056606662
189.03300,1.521243889
189.03350,1.826438297
189.03400,1.521243889
189.03450,1.521243889
189.03500,1.216049482
189.03550,0.9108550739
189.03600,0.6056606662
189.03650,0.9108550739
189.03700,1.521243889
189.03750,1.521243889
189.03800,1.216049482
189.03850,0.9108550739
189.03900,0.6056606662
189.03950,0.6056606662
189.04000,-0.004728149245
189.04050,-0.004728149245
189.04100,0.6056606662
189.04150,1.826438297
189.04200,2.131632705
189.04250,0.6056606662
189.04300,-1.22550578
189.04350,-2.751477819
189.04400,-2.446283411
189.04450,-1.530700188
189.04500,-1.530700188
189.04550,-2.141089003
189.04600,-2.141089003
189.04650,-1.530700188
189.04700,-1.530700188
189.04750,-1.835894595
189.04800,-1.530700188
189.04850,-0.6151169646
189.04900,-0.6151169646
189.04950,-1.835894595
189.05000,-1.530700188
189.05050,0.9108550739
189.05100,3.352410335
189.05150,3.352410335
189.05200,1.216049482
189.05250,-0.004728149245
189.05300,0.3004662585
189.05350,1.521243889
189.05400,1.826438297
189.05450,1.521243889
189.05500,0.9108550739
189.05550,0.6056606662
189.05600,1.216049482
189.05650,1.521243889
189.05700,0.6056606662
189.05750,-0.004728149245
189.05800,-0.6151169646
189.05850,-0.3099225569
189.05900,-0.3099225569
189.05950,-1.22550578
189.06000,-1.22550578
189.06050,-0.004728149245
189.06100,1.216049482
189.06150,2.131632705
189.06200,2.74202152
189.06250,4.267993559
189.06300,6.404354412
189.06350,7.319937636
189.06400,5.488771189
189.06450,2.131632705
189.06500,-0.3099225569
189.06550,-0.9203113723
189.06600,-0.004728149245
189.06650,0.6056606662
189.06700,1.216049482
189.06750,1.826438297
189.06800,2.74202152
189.06850,2.74202152
189.06900,0.6056606662
189.06950,-1.530700188
189.07000,-2.141089003
189.07050,-0.9203113723
189.07100,0.6056606662
189.07150,1.521243889
189.07200,3.047215928
189.07250,5.183576782
189.07300,7.625132043
189.07350,8.235520859
189.07400,7.625132043
189.07450,7.014743228
189.07500,7.014743228
189.07550,7.319937636
189.07600,6.099160005
189.07650,4.573187966
189.07700,3.962799151
189.07750,3.962799151
189.07800,3.962799151
189.07850,2.436827112
189.07900,0.3004662585
189.07950,-0.6151169646
189.08000,-0.9203113723
189.08050,-0.6151169646
189.08100,-0.004728149245
189.08150,0.6056606662
189.08200,0.3004662585
189.08250,-1.22550578
189.08300,-2.751477819
189.08350,-2.751477819
189.08400,-1.530700188
189.08450,-1.530700188
189.08500,-2.446283411
189.08550,-3.056672226
189.08600,-3.056672226
189.08650,-3.056672226
189.08700,-2.751477819
189.08750,-1.530700188
189.08800,-0.3099225569
189.08850,-0.004728149245
189.08900,-0.9203113723
189.08950,-1.22550578
189.09000,-0.3099225569
189.09050,1.216049482
189.09100,3.352410335
189.09150,3.962799151
189.09200,1.826438297
189.09250,-2.141089003
189.09300,-3.972255449
189.09350,-3.056672226
189.09400,-1.530700188
189.09450,-2.751477819
189.09500,-4.887838672
189.09550,-4.277449857
189.09600,-2.141089003
189.09650,-0.6151169646
189.09700,-0.6151169646
189.09750,0.3004662585
189.09800,2.131632705
189.09850,2.131632705
189.09900,-0.004728149245
189.09950,-1.22550578
189.10000,-2.141089003
189.10050,-3.056672226
189.10100,-3.667061042
189.10150,-3.056672226
189.10200,-2.446283411
189.10250,-3.361866634
189.10300,-4.582644265
189.10350,-4.277449857
189.10400,-2.446283411
189.10450,-1.530700188
189.10500,-2.141089003
189.10550,-2.751477819
189.10600,-1.835894595
189.10650,-1.22550578
189.10700,-1.530700188
189.10750,-2.141089003
189.10800,-2.751477819
189.10850,-3.667061042
189.10900,-3.972255449
189.10950,-2.751477819
189.11000,-0.9203113723
189.11050,-0.004728149245
189.11100,-0.3099225569
189.11150,-0.3099225569
189.11200,0.3004662585
189.11250,0.6056606662
189.11300,0.6056606662
189.11350,0.6056606662
189.11400,0.6056606662
189.11450,0.3004662585
189.11500,-0.004728149245
189.11550,0.3004662585
189.11600,2.131632705
189.11650,3.047215928
189.11700,2.74202152
189.11750,1.521243889
189.11800,0.9108550739
189.11850,1.216049482
189.11900,1.216049482
189.11950,0.9108550739
189.12000,0.6056606662
189.12050,1.216049482
189.12100,1.521243889
189.12150,1.521243889
189.12200,0.6056606662
189.12250,-0.004728149245
189.12300,-0.3099225569
189.12350,-0.004728149245
189.12400,-0.3099225569
189.12450,-0.9203113723
189.12500,-1.835894595
189.12550,-2.446283411
189.12600,-3.056672226
189.12650,-3.667061042
189.12700,-3.667061042
189.12750,-3.361866634
189.12800,-3.056672226
189.12850,-2.751477819
189.12900,-2.446283411
189.12950,-1.22550578
189.13000,0.3004662585
189.13050,2.436827112
189.13100,2.74202152
189.13150,1.826438297
189.13200,0.9108550739
189.13250,1.216049482
189.13300,2.131632705
189.13350,2.74202152
189.13400,2.436827112
189.13450,2.131632705
189.13500,3.047215928
189.13550,3.657604743
189.13600,3.352410335
189.13650,2.131632705
189.13700,0.6056606662
189.13750,-0.3099225569
189.13800,-0.004728149245
189.13850,0.6056606662
189.13900,1.521243889
189.13950,0.6056606662
189.14000,-0.3099225569
189.14050,-0.3099225569
189.14100,0.6056606662
189.14150,1.521243889
189.14200,1.216049482
189.14250,0.9108550739
189.14300,1.826438297
189.14350,3.962799151
189.14400,5.793965597
189.14450,5.793965597
189.14500,4.267993559
189.14550,1.826438297
189.14600,0.3004662585
189.14650,0.6056606662
189.14700,2.436827112
189.14750,3.657604743
189.14800,2.74202152
189.14850,0.3004662585
189.14900,-1.835894595
189.14950,-2.446283411
189.15000,-1.530700188
189.15050,-0.6151169646
189.15100,-0.3099225569
189.15150,-0.004728149245
189.15200,-0.004728149245
189.15250,-0.3099225569
189.15300,-1.835894595
189.15350,-3.056672226
189.15400,-3.056672226
189.15450,-2.141089003
189.15500,-2.141089003
189.15550,-2.446283411
189.15600,-2.751477819
189.15650,-2.751477819
189.15700,-3.056672226
189.15750,-3.361866634
189.15800,-2.751477819
189.15850,-2.141089003
189.15900,-1.835894595
189.15950,-2.141089003
189.16000,-1.835894595
189.16050,-1.22550578
189.16100,-1.530700188
189.16150,-2.141089003
189.16200,-1.835894595
189.16250,-0.004728149245
189.16300,0.9108550739
189.16350,-0.004728149245
189.16400,-1.530700188
189.16450,-1.835894595
189.16500,-0.9203113723
189.16550,0.3004662585
189.16600,1.521243889
189.16650,1.216049482
189.16700,0.6056606662
189.16750,-0.004728149245
189.16800,-0.004728149245
189.16850,0.6056606662
189.16900,1.521243889
189.16950,2.436827112
189.17000,2.436827112
189.17050,1.216049482
189.17100,-0.9203113723
189.17150,-2.446283411
189.17200,-1.530700188
189.17250,1.521243889
189.17300,3.962799151
189.17350,4.267993559
189.17400,3.352410335
189.17450,2.74202152
189.17500,3.047215928
189.17550,3.962799151
189.17600,4.878382374
189.17650,4.878382374
189.17700,3.352410335
189.17750,1.216049482
189.17800,-0.3099225569
189.17850,-1.530700188
189.17900,-2.446283411
189.17950,-2.751477819
189.18000,-2.141089003
189.18050,-1.835894595
189.18100,-1.835894595
189.18150,-2.141089003
189.18200,-2.141089003
189.18250,-0.9203113723
189.18300,-0.004728149245
189.18350,0.9108550739
189.18400,0.6056606662
189.18450,-0.004728149245
189.18500,-1.530700188
189.18550,-1.835894595
189.18600,-0.6151169646
189.18650,0.9108550739
189.18700,1.826438297
189.18750,1.521243889
189.18800,0.9108550739
189.18850,1.216049482
189.18900,1.826438297
189.18950,1.521243889
189.19000,-0.004728149245
189.19050,-0.9203113723
189.19100,-1.530700188
189.19150,-1.530700188
189.19200,-2.141089003
189.19250,-3.361866634
189.19300,-4.582644265
189.19350,-6.108616303
189.19400,-7.024199526
189.19450,-6.719005119
189.19500,-4.887838672
189.19550,-3.667061042
189.19600,-4.582644265
189.19650,-6.108616303
189.19700,-5.498227488
189.19750,-3.361866634
189.19800,-2.141089003
189.19850,-2.141089003
189.19900,-1.22550578
189.19950,0.9108550739
189.20000,2.74202152
189.20050,2.74202152
189.20100,2.436827112
189.20150,2.131632705
189.20200,1.216049482
189.20250,-1.22550578
189.20300,-3.056672226
189.20350,-2.751477819
189.20400,-1.530700188
189.20450,-2.141089003
189.20500,-3.972255449
189.20550,-4.887838672
189.20600,-4.582644265
189.20650,-4.277449857
189.20700,-3.972255449
189.20750,-2.751477819
189.20800,-1.530700188
189.20850,-0.6151169646
189.20900,-0.6151169646
189.20950,-0.6151169646
189.21000,-0.6151169646
189.21050,-0.004728149245
189.21100,0.9108550739
189.21150,2.74202152
189.21200,3.962799151
189.21250,2.74202152
189.21300,0.6056606662
189.21350,-0.004728149245
189.21400,1.826438297
189.21450,4.878382374
189.21500,6.404354412
189.21550,7.014743228
189.21600,6.404354412
189.21650,4.267993559
189.21700,1.216049482
189.21750,-0.6151169646
189.21800,-0.004728149245
189.21850,3.657604743
189.21900,7.319937636
189.21950,9.761492897
189.22000,10.98227053
189.22050,10.98227053
189.22100,9.45629849
189.22150,7.014743228
189.22200,4.573187966
189.22250,2.436827112
189.22300,1.216049482
189.22350,1.216049482
189.22400,3.352410335
189.22450,6.099160005
189.22500,6.099160005
189.22550,3.352410335
189.22600,-0.004728149245
189.22650,-0.9203113723
189.22700,-0.004728149245
189.22750,-0.004728149245
189.22800,-2.141089003
189.22850,-3.361866634
189.22900,-2.446283411
189.22950,-0.9203113723
189.23000,-0.9203113723
189.23050,-1.835894595
189.23100,-2.751477819
189.23150,-2.751477819
189.23200,-1.22550578
189.23250,0.3004662585
189.23300,2.131632705
189.23350,1.521243889
189.23400,-0.9203113723
189.23450,-3.056672226
189.23500,-2.446283411
189.23550,-0.3099225569
189.23600,-0.004728149245
189.23650,-0.6151169646
189.23700,-0.9203113723
189.23750,-0.004728149245
189.23800,0.9108550739
189.23850,-0.004728149245
189.23900,-0.6151169646
189.23950,-0.3099225569
189.24000,-0.004728149245
189.24050,-0.3099225569
189.24100,-1.530700188
189.24150,-1.22550578
189.24200,0.3004662585
189.24250,0.6056606662
189.24300,-0.9203113723
189.24350,-1.835894595
189.24400,-0.6151169646
189.24450,0.9108550739
189.24500,1.826438297
189.24550,1.826438297
189.24600,2.74202152
189.24650,2.74202152
189.24700,0.3004662585
189.24750,-2.751477819
189.24800,-4.277449857
189.24850,-3.361866634
189.24900,-2.446283411
189.24950,-2.141089003
189.25000,-2.141089003
189.25050,-1.22550578
189.25100,-0.9203113723
189.25150,-1.835894595
189.25200,-2.751477819
189.25250,-2.446283411
189.25300,-1.530700188
189.25350,-1.22550578
189.25400,-2.141089003
189.25450,-3.361866634
189.25500,-3.972255449
189.25550,-3.972255449
189.25600,-3.361866634
189.25650,-2.141089003
189.25700,-0.004728149245
189.25750,1.521243889
189.25800,1.826438297
189.25850,0.9108550739
189.25900,-0.004728149245
189.25950,-0.6151169646
189.26000,-0.3099225569
189.26050,-0.004728149245
189.26100,0.9108550739
189.26150,2.436827112
189.26200,3.352410335
189.26250,3.047215928
189.26300,2.74202152
189.26350,2.436827112
189.26400,2.131632705
189.26450,1.216049482
189.26500,0.3004662585
189.26550,-0.004728149245
189.26600,-0.6151169646
189.26650,-0.9203113723
189.26700,-0.9203113723
189.26750,-1.22550578
189.26800,-1.22550578
189.26850,-0.3099225569
189.26900,1.216049482
189.26950,2.74202152
189.27000,3.047215928
189.27050,2.436827112
189.27100,2.131632705
189.27150,-0.3099225569
189.27200,-7.634588342
189.27250,-17.40080939
189.27300,-23.50469754
189.27350,-25.03066958
189.27400,-25.03066958
189.27450,-24.72547517
189.27500,-21.36833669
189.27550,-13.43328209
189.27600,-5.19303308
189.27650,1.826438297
189.27700,12.20304816
189.27750,27.46276854
189.27800,39.36535044
189.27850,39.36535044
189.27900,29.5991294
189.27950,20.13810276
189.28000,15.86538105
189.28050,12.81343697
189.28100,8.540715266
189.28150,4.267993559
189.28200,2.436827112
189.28250,0.9108550739
189.28300,-1.22550578
189.28350,-1.835894595
189.28400,-0.004728149245
189.28450,0.9108550739
189.28500,-0.9203113723
189.28550,-3.972255449
189.28600,-3.972255449
189.28650,-1.530700188
189.28700,-0.004728149245
189.28750,0.3004662585
189.28800,-0.004728149245
189.28850,-0.004728149245
189.28900,0.3004662585
189.28950,0.9108550739
189.29000,1.216049482
189.29050,0.6056606662
189.29100,-0.004728149245
189.29150,-0.6151169646
189.29200,-0.6151169646
189.29250,-0.6151169646
189.29300,-1.530700188
189.29350,-2.751477819
189.29400,-2.141089003
189.29450,-0.9203113723
189.29500,-0.9203113723
189.29550,-2.141089003
189.29600,-3.361866634
189.29650,-3.667061042
189.29700,-3.361866634
189.29750,-3.361866634
189.29800,-3.361866634
189.29850,-3.361866634
189.29900,-3.972255449
189.29950,-5.498227488
189.30000,-7.024199526
189.30050,-6.413810711
189.30100,-4.277449857
189.30150,-3.361866634
189.30200,-4.582644265
189.30250,-6.108616303
189.30300,-5.803421896
189.30350,-4.277449857
189.30400,-3.972255449
189.30450,-5.498227488
189.30500,-6.413810711
189.30550,-5.19303308
189.30600,-3.056672226
189.30650,-1.835894595
189.30700,-1.530700188
189.30750,-0.6151169646
189.30800,1.216049482
189.30850,3.657604743
189.30900,4.878382374
189.30950,4.267993559
189.31000,3.047215928
189.31050,1.826438297
189.31100,0.9108550739
189.31150,-0.004728149245
189.31200,-0.004728149245
189.31250,-0.004728149245
189.31300,-0.004728149245
189.31350,-0.9203113723
189.31400,-2.141089003
189.31450,-3.361866634
189.31500,-4.277449857
189.31550,-5.19303308
189.31600,-5.19303308
189.31650,-3.667061042
189.31700,-2.141089003
189.31750,-1.835894595
189.31800,-3.056672226
189.31850,-3.361866634
189.31900,-2.141089003
189.31950,-0.6151169646
189.32000,-0.004728149245
189.32050,0.3004662585
189.32100,0.9108550739
189.32150,2.436827112
189.32200,3.352410335
189.32250,3.962799151
189.32300,4.267993559
189.32350,4.267993559
189.32400,4.267993559
189.32450,3.352410335
189.32500,2.436827112
189.32550,2.131632705
189.32600,2.436827112
189.32650,3.047215928
189.32700,3.352410335
189.32750,3.962799151
189.32800,4.267993559
189.32850,3.962799151
189.32900,3.047215928
189.32950,2.131632705
189.33000,1.826438297
189.33050,1.521243889
189.33100,0.3004662585
189.33150,-1.22550578
189.33200,-1.22550578
189.33250,0.6056606662
189.33300,3.657604743
189.33350,5.488771189
189.33400,4.878382374
189.33450,3.047215928
189.33500,1.521243889
189.33550,1.521243889
189.33600,2.131632705
189.33650,1.521243889
189.33700,-0.3099225569
189.33750,-2.141089003
189.33800,-2.141089003
189.33850,-0.6151169646
189.33900,0.3004662585
189.33950,1.216049482
189.34000,1.216049482
189.34050,0.9108550739
189.34100,-0.004728149245
189.34150,-0.6151169646
189.34200,-1.530700188
189.34250,-2.141089003
189.34300,-3.056672226
189.34350,-2.446283411
189.34400,-0.3099225569
189.34450,1.826438297
189.34500,2.74202152
189.34550,2.436827112
189.34600,2.436827112
189.34650,2.436827112
189.34700,2.131632705
189.34750,0.9108550739
189.34800,-0.004728149245
189.34850,-0.004728149245
189.34900,0.9108550739
189.34950,1.521243889
189.35000,1.216049482
189.35050,0.6056606662
189.35100,-0.004728149245
189.35150,-0.3099225569
189.35200,-0.9203113723
189.35250,-0.6151169646
189.35300,0.3004662585
189.35350,2.436827112
189.35400,2.74202152
189.35450,0.3004662585
189.35500,-1.835894595
189.35550,-1.530700188
189.35600,0.9108550739
189.35650,2.436827112
189.35700,0.6056606662
189.35750,-1.835894595
189.35800,-3.056672226
189.35850,-2.446283411
189.35900,-1.835894595
189.35950,-0.6151169646
189.36000,0.6056606662
189.36050,0.9108550739
189.36100,-0.6151169646
189.36150,-2.141089003
189.36200,-1.835894595
189.36250,-0.6151169646
189.36300,-0.6151169646
189.36350,-1.530700188
189.36400,-1.835894595
189.36450,-1.22550578
189.36500,-0.004728149245
189.36550,0.9108550739
189.36600,1.216049482
189.36650,0.3004662585
189.36700,-1.530700188
189.36750,-2.751477819
189.36800,-1.530700188
189.36850,0.9108550739
189.36900,3.352410335
189.36950,3.352410335
189.37000,0.9108550739
189.37050,-2.446283411
189.37100,-6.413810711
189.37150,-9.465754788
189.37200,-9.465754788
189.37250,-6.719005119
189.37300,-2.446283411
189.37350,0.9108550739
189.37400,2.436827112
189.37450,2.131632705
189.37500,2.436827112
189.37550,2.74202152
189.37600,2.74202152
189.37650,1.826438297
189.37700,1.826438297
189.37750,3.962799151
189.37800,5.793965597
189.37850,5.183576782
189.37900,3.047215928
189.37950,1.826438297
189.38000,2.436827112
189.38050,1.826438297
189.38100,-0.004728149245
189.38150,-1.835894595
189.38200,-1.22550578
189.38250,0.3004662585
189.38300,1.521243889
189.38350,2.131632705
189.38400,2.436827112
189.38450,2.436827112
189.38500,1.216049482
189.38550,-0.3099225569
189.38600,-0.9203113723
189.38650,-0.3099225569
189.38700,-0.3099225569
189.38750,-1.530700188
189.38800,-3.667061042
189.38850,-5.19303308
189.38900,-5.19303308
189.38950,-3.972255449
189.39000,-2.446283411
189.39050,-1.22550578
189.39100,-0.3099225569
189.39150,0.3004662585
189.39200,1.216049482
189.39250,1.216049482
189.39300,-0.004728149245
189.39350,-0.6151169646
189.39400,0.3004662585
189.39450,2.74202152
189.39500,4.878382374
189.39550,4.878382374
189.39600,3.962799151
189.39650,4.573187966
189.39700,5.488771189
189.39750,5.183576782
189.39800,3.657604743
189.39850,2.436827112
189.39900,2.436827112
189.39950,2.131632705
189.40000,-0.004728149245
189.40050,-3.056672226
189.40100,-3.667061042
189.40150,-2.141089003
189.40200,-1.22550578
189.40250,-1.22550578
189.40300,-0.9203113723
189.40350,-0.3099225569
189.40400,-1.22550578
189.40450,-3.056672226
189.40500,-3.667061042
189.40550,-1.835894595
189.40600,-0.6151169646
189.40650,-2.446283411
189.40700,-4.277449857
189.40750,-3.056672226
189.40800,-0.3099225569
189.40850,0.6056606662
189.40900,-0.004728149245
189.40950,1.216049482
189.41000,4.267993559
189.41050,7.014743228
189.41100,7.319937636
189.41150,6.404354412
189.41200,4.267993559
189.41250,1.521243889
189.41300,-0.004728149245
189.41350,-0.004728149245
189.41400,1.521243889
189.41450,1.216049482
189.41500,-0.9203113723
189.41550,-2.446283411
189.41600,-2.141089003
189.41650,-1.22550578
189.41700,-0.9203113723
189.41750,-0.9203113723
189.41800,-0.3099225569
189.41850,-0.004728149245
189.41900,-0.004728149245
189.41950,0.3004662585
189.42000,-1.835894595
189.42050,-9.770949196
189.42100,-20.14755906
189.42150,-26.25144721
189.42200,-26.55664162
189.42250,-23.80989195
189.42300,-20.14755906
189.42350,-15.56964294
189.42400,-9.465754788
189.42450,-3.056672226
189.42500,5.793965597
189.42550,20.13810276
189.42600,34.78743433
189.42650,40.28093367
189.42700,33.5666567
189.42750,22.27446361
189.42800,14.33940901
189.42850,9.45629849
189.42900,4.878382374
189.42950,1.521243889
189.43000,1.216049482
189.43050,2.131632705
189.43100,1.216049482
189.43150,-0.004728149245
189.43200,0.9108550739
189.43250,3.352410335
189.43300,3.352410335
189.43350,0.9108550739
189.43400,-0.6151169646
189.43450,-0.004728149245
189.43500,0.6056606662
189.43550,0.6056606662
189.43600,-0.004728149245
189.43650,-0.9203113723
189.43700,-1.835894595
189.43750,-3.361866634
189.43800,-4.582644265
189.43850,-4.887838672
189.43900,-5.19303308
189.43950,-5.19303308
189.44000,-5.19303308
189.44050,-4.887838672
189.44100,-4.277449857
189.44150,-3.361866634
189.44200,-3.056672226
189.44250,-3.667061042
189.44300,-4.277449857
189.44350,-4.277449857
189.44400,-3.667061042
189.44450,-2.751477819
189.44500,-0.6151169646
189.44550,1.826438297
189.44600,3.962799151
189.44650,4.573187966
189.44700,3.962799151
189.44750,2.74202152
189.44800,1.521243889
189.44850,0.6056606662
189.44900,-0.004728149245
189.44950,-0.6151169646
189.45000,-1.530700188
189.45050,-1.835894595
189.45100,-0.6151169646
189.45150,0.6056606662
189.45200,0.6056606662
189.45250,-0.3099225569
189.45300,-0.9203113723
189.45350,-0.004728149245
189.45400,0.3004662585
189.45450,-0.004728149245
189.45500,-0.6151169646
189.45550,0.3004662585
189.45600,1.216049482
189.45650,-0.004728149245
189.45700,-3.056672226
189.45750,-4.582644265
189.45800,-3.361866634
189.45850,-1.835894595
189.45900,-1.835894595
189.45950,-3.361866634
189.46000,-4.582644265
189.46050,-4.582644265
189.46100,-3.667061042
189.46150,-2.446283411
189.46200,-1.530700188
189.46250,-1.530700188
189.46300,-2.751477819
189.46350,-3.361866634
189.46400,-3.056672226
189.46450,-2.446283411
189.46500,-2.446283411
189.46550,-3.056672226
189.46600,-3.361866634
189.46650,-3.361866634
189.46700,-3.056672226
189.46750,-3.361866634
189.46800,-3.361866634
189.46850,-3.056672226
189.46900,-3.056672226
189.46950,-3.361866634
189.47000,-2.446283411
189.47050,-0.3099225569
189.47100,1.216049482
189.47150,0.9108550739
189.47200,-0.004728149245
189.47250,-0.004728149245
189.47300,1.521243889
189.47350,3.352410335
189.47400,4.573187966
189.47450,5.488771189
189.47500,5.488771189
189.47550,4.267993559
189.47600,3.047215928
189.47650,3.047215928
189.47700,3.047215928
189.47750,-0.004728149245
189.47800,-4.887838672
189.47850,-7.329393934
189.47900,-5.803421896
189.47950,-3.667061042
189.48000,-3.667061042
189.48050,-3.972255449
189.48100,-2.751477819
189.48150,-1.530700188
189.48200,-1.530700188
189.48250,-0.9203113723
189.48300,0.3004662585
189.48350,2.74202152
189.48400,3.657604743
189.48450,3.962799151
189.48500,4.267993559
189.48550,4.267993559
189.48600,3.047215928
189.48650,1.521243889
189.48700,0.9108550739
189.48750,0.9108550739
189.48800,0.9108550739
189.48850,1.521243889
189.48900,2.131632705
189.48950,2.74202152
189.49000,2.436827112
189.49050,1.521243889
189.49100,0.6056606662
189.49150,-0.6151169646
189.49200,-1.530700188
189.49250,-0.9203113723
189.49300,-0.004728149245
189.49350,0.3004662585
189.49400,-0.004728149245
189.49450,-0.004728149245
189.49500,1.216049482
189.49550,3.352410335
189.49600,4.267993559
189.49650,4.267993559
189.49700,3.962799151
189.49750,3.047215928
189.49800,1.521243889
189.49850,0.3004662585
189.49900,0.9108550739
189.49950,2.436827112
189.50000,3.352410335
189.50050,3.047215928
189.50100,3.047215928
189.50150,4.573187966
189.50200,6.70954882
189.50250,6.404354412
189.50300,3.657604743
189.50350,0.9108550739
189.50400,0.3004662585
189.50450,0.3004662585
189.50500,-0.9203113723
189.50550,-3.667061042
189.50600,-3.972255449
189.50650,-0.9203113723
189.50700,0.9108550739
189.50750,-0.004728149245
189.50800,-2.751477819
189.50850,-3.056672226
189.50900,-1.530700188
189.50950,-0.3099225569
189.51000,-0.3099225569
189.51050,-0.004728149245
189.51100,-0.004728149245
189.51150,-1.22550578
189.51200,-3.972255449
189.51250,-4.887838672
189.51300,-3.667061042
189.51350,-1.22550578
189.51400,0.6056606662
189.51450,2.131632705
189.51500,3.047215928
189.51550,1.521243889
189.51600,-0.3099225569
189.51650,-0.3099225569
189.51700,0.9108550739
189.51750,2.436827112
189.51800,2.436827112
189.51850,2.74202152
189.51900,3.657604743
189.51950,3.047215928
189.52000,0.9108550739
189.52050,-0.004728149245
189.52100,0.6056606662
189.52150,2.131632705
189.52200,2.131632705
189.52250,1.216049482
189.52300,0.6056606662
189.52350,0.3004662585
189.52400,-0.004728149245
189.52450,-0.9203113723
189.52500,-1.835894595
189.52550,-2.446283411
189.52600,-1.835894595
189.52650,-0.004728149245
189.52700,1.216049482
189.52750,-0.004728149245
189.52800,-2.446283411
189.52850,-2.446283411
189.52900,-1.22550578
189.52950,-1.530700188
189.53000,-3.361866634
189.53050,-4.277449857
189.53100,-3.361866634
189.53150,-3.361866634
189.53200,-4.887838672
189.53250,-6.108616303
189.53300,-5.498227488
189.53350,-4.887838672
189.53400,-4.582644265
189.53450,-3.056672226
189.53500,-0.6151169646
189.53550,-0.004728149245
189.53600,-0.9203113723
189.53650,-1.530700188
189.53700,-0.004728149245
189.53750,1.216049482
189.53800,1.826438297
189.53850,3.352410335
189.53900,6.099160005
189.53950,7.319937636
189.54000,5.488771189
189.54050,3.657604743
189.54100,4.267993559
189.54150,5.488771189
189.54200,5.183576782
189.54250,4.573187966
189.54300,4.878382374
189.54350,5.488771189
189.54400,4.267993559
189.54450,3.047215928
189.54500,2.74202152
189.54550,2.74202152
189.54600,0.9108550739
189.54650,-0.9203113723
189.54700,-0.9203113723
189.54750,0.3004662585
189.54800,0.6056606662
189.54850,-0.3099225569
189.54900,-0.004728149245
189.54950,3.047215928
189.55000,5.488771189
189.55050,4.878382374
189.55100,2.74202152
189.55150,1.521243889
189.55200,1.521243889
189.55250,1.521243889
189.55300,0.9108550739
189.55350,0.6056606662
189.55400,0.6056606662
189.55450,-0.3099225569
189.55500,-1.835894595
189.55550,-1.530700188
189.55600,-0.004728149245
189.55650,-0.3099225569
189.55700,-2.751477819
189.55750,-4.277449857
189.55800,-3.056672226
189.55850,-1.835894595
189.55900,-3.056672226
189.55950,-5.19303308
189.56000,-5.19303308
189.56050,-3.972255449
189.56100,-3.361866634
189.56150,-4.277449857
189.56200,-5.19303308
189.56250,-5.803421896
189.56300,-6.719005119
189.56350,-7.634588342
189.56400,-7.329393934
189.56450,-6.108616303
189.56500,-5.498227488
189.56550,-5.19303308
189.56600,-3.972255449
189.56650,-2.141089003
189.56700,-1.22550578
189.56750,-0.9203113723
189.56800,-0.6151169646
189.56850,-0.004728149245
189.56900,0.3004662585
189.56950,-0.3099225569
189.57000,-1.22550578
189.57050,-1.530700188
189.57100,-1.22550578
189.57150,-0.6151169646
189.57200,-0.6151169646
189.57250,-0.3099225569
189.57300,-0.3099225569
