"type","name","time_units","begin_time","frequency","count","units"
"signal","Ultium EMG-FLEX.CAPR.U RT","s",98.98000,2000,22000,"uV"

"time","value"
98.98000,4.313902363
98.98050,8.281429663
98.98100,11.02817933
98.98150,10.11259611
98.98200,8.281429663
98.98250,8.58662407
98.98300,8.58662407
98.98350,4.924291178
98.98400,0.6515694701
98.98450,4.313902363
98.98500,14.99570663
98.98550,21.09959479
98.98600,14.38531782
98.98650,0.3463750624
98.98700,-10.94581802
98.98750,-15.82892855
98.98800,-17.04970618
98.98850,-16.13412295
98.98900,-10.94581802
98.98950,-2.095180199
98.99000,4.924291178
98.99050,7.060652032
98.99100,5.534679993
98.99150,4.313902363
98.99200,4.008707955
98.99250,4.008707955
98.99300,2.482735916
98.99350,-0.5692081607
98.99400,-3.010763422
98.99450,-2.095180199
98.99500,0.9567638778
98.99550,3.398319139
98.99600,1.872347101
98.99650,-1.789985791
98.99700,-5.147124276
98.99750,-7.28348513
98.99800,-7.28348513
98.99850,-5.452318684
98.99900,-3.010763422
98.99950,-2.705569015
99.00000,-5.452318684
99.00050,-6.367901907
99.00100,-2.095180199
99.00150,3.703513547
99.00200,4.924291178
99.00250,2.482735916
99.00300,2.787930324
99.00350,7.060652032
99.00400,8.891818478
99.00450,4.61909677
99.00500,0.3463750624
99.00550,0.9567638778
99.00600,1.872347101
99.00650,-1.179596976
99.00700,-5.147124276
99.00750,-2.705569015
99.00800,2.787930324
99.00850,2.482735916
99.00900,-4.841929869
99.00950,-10.33542921
99.01000,-7.893873946
99.01050,-3.010763422
99.01100,-1.179596976
99.01150,0.04118065471
99.01200,3.703513547
99.01250,7.36584644
99.01300,6.145068809
99.01350,1.567152693
99.01400,-1.484791384
99.01450,-2.400374607
99.01500,-3.010763422
99.01550,-2.705569015
99.01600,0.3463750624
99.01650,6.145068809
99.01700,8.891818478
99.01750,5.534679993
99.01800,-1.484791384
99.01850,-9.419845984
99.01900,-15.52373414
99.01950,-17.66009499
99.02000,-14.60815091
99.02050,-8.809457169
99.02100,-3.926346645
99.02150,-1.179596976
99.02200,-0.264013753
99.02250,-1.789985791
99.02300,-5.147124276
99.02350,-6.978290722
99.02400,-4.536735461
99.02450,-0.8744025684
99.02500,-0.8744025684
99.02550,-3.926346645
99.02600,-3.926346645
99.02650,0.04118065471
99.02700,4.008707955
99.02750,5.839874401
99.02800,7.060652032
99.02850,9.807401701
99.02900,11.33337374
99.02950,10.72298492
99.03000,9.502207293
99.03050,7.671040847
99.03100,2.787930324
99.03150,-3.010763422
99.03200,-4.231541053
99.03250,0.04118065471
99.03300,3.703513547
99.03350,0.9567638778
99.03400,-3.621152238
99.03450,-3.926346645
99.03500,-1.789985791
99.03550,-1.179596976
99.03600,-0.8744025684
99.03650,3.703513547
99.03700,10.72298492
99.03750,14.08012341
99.03800,13.774929
99.03850,14.99570663
99.03900,17.7424563
99.03950,16.21648426
99.04000,9.502207293
99.04050,4.313902363
99.04100,3.398319139
99.04150,2.177541509
99.04200,-2.400374607
99.04250,-6.978290722
99.04300,-6.978290722
99.04350,-3.010763422
99.04400,-0.264013753
99.04450,-2.095180199
99.04500,-8.504262761
99.04550,-16.13412295
99.04600,-18.57567822
99.04650,-10.0302348
99.04700,4.008707955
99.04750,12.55415137
99.04800,9.502207293
99.04850,1.261958286
99.04900,-4.841929869
99.04950,-9.114651576
99.05000,-12.47179006
99.05050,-10.0302348
99.05100,1.567152693
99.05150,14.69051222
99.05200,19.26842834
99.05250,15.60609545
99.05300,13.774929
99.05350,15.60609545
99.05400,14.08012341
99.05450,7.060652032
99.05500,1.261958286
99.05550,3.093124732
99.05600,8.281429663
99.05650,8.58662407
99.05700,3.703513547
99.05750,-1.789985791
99.05800,-6.062707499
99.05850,-10.0302348
99.05900,-13.9977621
99.05950,-16.13412295
99.06000,-17.04970618
99.06050,-18.88087262
99.06100,-23.15359433
99.06150,-25.28995518
99.06200,-20.40684466
99.06250,-8.809457169
99.06300,0.3463750624
99.06350,0.04118065471
99.06400,-10.0302348
99.06450,-18.88087262
99.06500,-18.27048381
99.06550,-10.0302348
99.06600,-2.705569015
99.06650,-0.264013753
99.06700,0.3463750624
99.06750,2.177541509
99.06800,4.008707955
99.06850,4.61909677
99.06900,5.839874401
99.06950,7.36584644
99.07000,6.450263216
99.07050,3.703513547
99.07100,3.093124732
99.07150,5.839874401
99.07200,8.58662407
99.07250,8.891818478
99.07300,7.36584644
99.07350,2.177541509
99.07400,-9.725040392
99.07450,-24.98476078
99.07500,-31.69903775
99.07550,-24.37437196
99.07600,-11.55620684
99.07650,-4.841929869
99.07700,-3.010763422
99.07750,1.567152693
99.07800,8.891818478
99.07850,11.33337374
99.07900,7.060652032
99.07950,2.482735916
99.08000,0.9567638778
99.08050,-0.264013753
99.08100,-2.095180199
99.08150,0.9567638778
99.08200,9.502207293
99.08250,15.30090104
99.08300,14.38531782
99.08350,11.02817933
99.08400,9.807401701
99.08450,7.36584644
99.08500,1.567152693
99.08550,-1.789985791
99.08600,0.9567638778
99.08650,6.145068809
99.08700,5.229485586
99.08750,0.04118065471
99.08800,-0.8744025684
99.08850,3.398319139
99.08900,5.839874401
99.08950,1.567152693
99.09000,-3.010763422
99.09050,-2.095180199
99.09100,1.261958286
99.09150,0.6515694701
99.09200,-2.705569015
99.09250,-1.179596976
99.09300,6.145068809
99.09350,12.85934578
99.09400,11.94376256
99.09450,7.060652032
99.09500,3.703513547
99.09550,1.872347101
99.09600,-1.484791384
99.09650,-6.062707499
99.09700,-6.978290722
99.09750,-3.31595783
99.09800,0.3463750624
99.09850,1.567152693
99.09900,1.872347101
99.09950,2.482735916
99.10000,3.093124732
99.10050,0.9567638778
99.10100,-3.010763422
99.10150,-6.978290722
99.10200,-7.28348513
99.10250,-1.179596976
99.10300,7.36584644
99.10350,11.33337374
99.10400,7.060652032
99.10450,0.3463750624
99.10500,-0.8744025684
99.10550,1.872347101
99.10600,3.093124732
99.10650,1.261958286
99.10700,0.9567638778
99.10750,3.703513547
99.10800,5.534679993
99.10850,4.313902363
99.10900,3.398319139
99.10950,4.924291178
99.11000,5.534679993
99.11050,2.177541509
99.11100,-2.705569015
99.11150,-5.452318684
99.11200,-5.147124276
99.11250,-4.231541053
99.11300,-4.231541053
99.11350,-4.536735461
99.11400,-4.536735461
99.11450,-3.31595783
99.11500,-1.789985791
99.11550,-0.8744025684
99.11600,-0.8744025684
99.11650,-0.5692081607
99.11700,0.3463750624
99.11750,1.872347101
99.11800,1.872347101
99.11850,1.567152693
99.11900,1.261958286
99.11950,-0.5692081607
99.12000,-4.231541053
99.12050,-5.757513092
99.12100,-3.621152238
99.12150,-1.179596976
99.12200,-2.095180199
99.12250,-2.705569015
99.12300,0.04118065471
99.12350,2.482735916
99.12400,0.6515694701
99.12450,-3.31595783
99.12500,-4.231541053
99.12550,-2.095180199
99.12600,-0.8744025684
99.12650,-0.264013753
99.12700,3.398319139
99.12750,9.197012886
99.12800,12.24895696
99.12850,13.16454019
99.12900,16.52167867
99.12950,20.18401156
99.13000,17.7424563
99.13050,11.02817933
99.13100,5.839874401
99.13150,1.567152693
99.13200,-9.725040392
99.13250,-26.51073282
99.13300,-33.22500978
99.13350,-22.84839992
99.13400,-6.673096315
99.13450,1.567152693
99.13500,2.177541509
99.13550,3.093124732
99.13600,5.839874401
99.13650,6.755457624
99.13700,6.755457624
99.13750,7.671040847
99.13800,5.534679993
99.13850,-0.5692081607
99.13900,-6.673096315
99.13950,-8.199068353
99.14000,-9.114651576
99.14050,-13.69256769
99.14100,-17.35490058
99.14150,-13.08217888
99.14200,-6.673096315
99.14250,-6.062707499
99.14300,-8.199068353
99.14350,-4.841929869
99.14400,0.6515694701
99.14450,-1.179596976
99.14500,-9.114651576
99.14550,-9.419845984
99.14600,1.261958286
99.14650,11.94376256
99.14700,13.774929
99.14750,13.774929
99.14800,18.96323393
99.14850,23.23595564
99.14900,16.52167867
99.14950,3.703513547
99.15000,-2.095180199
99.15050,0.6515694701
99.15100,4.008707955
99.15150,0.6515694701
99.15200,-7.893873946
99.15250,-16.43931736
99.15300,-21.32242788
99.15350,-21.32242788
99.15400,-16.74451177
99.15450,-10.33542921
99.15500,-4.841929869
99.15550,-0.5692081607
99.15600,1.567152693
99.15650,0.6515694701
99.15700,-1.484791384
99.15750,0.04118065471
99.15800,9.807401701
99.15850,21.09959479
99.15900,24.15153886
99.15950,17.7424563
99.16000,9.807401701
99.16050,5.839874401
99.16100,4.313902363
99.16150,1.872347101
99.16200,1.872347101
99.16250,5.839874401
99.16300,9.807401701
99.16350,7.671040847
99.16400,0.6515694701
99.16450,-4.536735461
99.16500,-6.673096315
99.16550,-9.419845984
99.16600,-16.13412295
99.16650,-23.15359433
99.16700,-23.45878874
99.16750,-14.30295651
99.16800,-0.5692081607
99.16850,9.807401701
99.16900,13.774929
99.16950,13.46973459
99.17000,13.46973459
99.17050,12.85934578
99.17100,9.197012886
99.17150,0.9567638778
99.17200,-7.588679538
99.17250,-12.16659565
99.17300,-10.33542921
99.17350,-5.147124276
99.17400,-0.8744025684
99.17450,0.6515694701
99.17500,1.261958286
99.17550,2.482735916
99.17600,3.398319139
99.17650,1.872347101
99.17700,-0.264013753
99.17750,-1.484791384
99.17800,-0.5692081607
99.17850,0.04118065471
99.17900,-0.5692081607
99.17950,-1.179596976
99.18000,0.3463750624
99.18050,3.093124732
99.18100,5.534679993
99.18150,5.839874401
99.18200,3.093124732
99.18250,-4.536735461
99.18300,-14.30295651
99.18350,-19.18606703
99.18400,-17.66009499
99.18450,-14.91334532
99.18500,-14.60815091
99.18550,-11.55620684
99.18600,-3.010763422
99.18650,5.839874401
99.18700,8.58662407
99.18750,5.229485586
99.18800,1.872347101
99.18850,0.9567638778
99.18900,0.3463750624
99.18950,-0.5692081607
99.19000,-1.484791384
99.19050,-1.484791384
99.19100,-1.179596976
99.19150,0.3463750624
99.19200,3.703513547
99.19250,6.450263216
99.19300,6.755457624
99.19350,6.450263216
99.19400,7.976235255
99.19450,9.197012886
99.19500,7.060652032
99.19550,1.567152693
99.19600,-2.705569015
99.19650,-3.31595783
99.19700,-0.5692081607
99.19750,3.093124732
99.19800,5.534679993
99.19850,5.839874401
99.19900,4.924291178
99.19950,4.313902363
99.20000,4.61909677
99.20050,4.313902363
99.20100,2.787930324
99.20150,1.567152693
99.20200,0.9567638778
99.20250,-0.264013753
99.20300,-3.621152238
99.20350,-6.673096315
99.20400,-7.28348513
99.20450,-5.757513092
99.20500,-4.841929869
99.20550,-4.231541053
99.20600,-2.400374607
99.20650,0.04118065471
99.20700,3.398319139
99.20750,6.145068809
99.20800,8.891818478
99.20850,9.502207293
99.20900,6.755457624
99.20950,1.261958286
99.21000,-2.400374607
99.21050,-1.179596976
99.21100,3.703513547
99.21150,9.197012886
99.21200,11.94376256
99.21250,10.41779052
99.21300,7.060652032
99.21350,4.924291178
99.21400,4.924291178
99.21450,4.313902363
99.21500,1.567152693
99.21550,-1.789985791
99.21600,-2.400374607
99.21650,-1.179596976
99.21700,-3.010763422
99.21750,-9.725040392
99.21800,-16.74451177
99.21850,-17.66009499
99.21900,-11.55620684
99.21950,-5.452318684
99.22000,-3.010763422
99.22050,-1.789985791
99.22100,2.482735916
99.22150,8.281429663
99.22200,9.502207293
99.22250,4.61909677
99.22300,-0.264013753
99.22350,-0.8744025684
99.22400,0.04118065471
99.22450,-2.095180199
99.22500,-7.588679538
99.22550,-10.0302348
99.22600,-7.28348513
99.22650,-3.926346645
99.22700,-3.31595783
99.22750,-2.705569015
99.22800,2.482735916
99.22850,9.807401701
99.22900,11.02817933
99.22950,2.787930324
99.23000,-8.809457169
99.23050,-13.9977621
99.23100,-10.64062361
99.23150,-3.621152238
99.23200,0.3463750624
99.23250,0.6515694701
99.23300,-0.5692081607
99.23350,-1.179596976
99.23400,-0.8744025684
99.23450,-0.5692081607
99.23500,0.6515694701
99.23550,3.703513547
99.23600,6.145068809
99.23650,5.534679993
99.23700,3.093124732
99.23750,3.093124732
99.23800,4.61909677
99.23850,4.61909677
99.23900,1.567152693
99.23950,0.04118065471
99.24000,0.3463750624
99.24050,0.9567638778
99.24100,-1.179596976
99.24150,-3.31595783
99.24200,-3.621152238
99.24250,-2.095180199
99.24300,-0.8744025684
99.24350,1.872347101
99.24400,6.145068809
99.24450,7.671040847
99.24500,4.008707955
99.24550,1.872347101
99.24600,6.450263216
99.24650,14.38531782
99.24700,16.82687308
99.24750,11.94376256
99.24800,5.839874401
99.24850,4.61909677
99.24900,6.755457624
99.24950,7.976235255
99.25000,6.145068809
99.25050,1.567152693
99.25100,-3.621152238
99.25150,-7.588679538
99.25200,-9.114651576
99.25250,-9.725040392
99.25300,-10.0302348
99.25350,-7.28348513
99.25400,-0.8744025684
99.25450,4.008707955
99.25500,2.787930324
99.25550,-1.789985791
99.25600,-3.926346645
99.25650,-0.8744025684
99.25700,1.872347101
99.25750,2.177541509
99.25800,1.567152693
99.25850,4.008707955
99.25900,9.502207293
99.25950,10.72298492
99.26000,2.177541509
99.26050,-13.9977621
99.26100,-27.42631604
99.26150,-27.12112163
99.26200,-15.21853973
99.26250,-2.705569015
99.26300,2.787930324
99.26350,3.093124732
99.26400,0.6515694701
99.26450,-4.536735461
99.26500,-12.16659565
99.26550,-15.82892855
99.26600,-12.47179006
99.26650,-6.062707499
99.26700,-3.926346645
99.26750,-6.062707499
99.26800,-9.114651576
99.26850,-10.33542921
99.26900,-9.114651576
99.26950,-4.536735461
99.27000,0.3463750624
99.27050,2.177541509
99.27100,0.6515694701
99.27150,0.9567638778
99.27200,4.61909677
99.27250,5.229485586
99.27300,-0.5692081607
99.27350,-7.893873946
99.27400,-10.94581802
99.27450,-10.33542921
99.27500,-10.33542921
99.27550,-7.893873946
99.27600,-0.5692081607
99.27650,7.671040847
99.27700,9.197012886
99.27750,4.008707955
99.27800,-0.5692081607
99.27850,-1.179596976
99.27900,-0.8744025684
99.27950,-1.484791384
99.28000,-1.789985791
99.28050,-0.264013753
99.28100,0.6515694701
99.28150,0.04118065471
99.28200,0.9567638778
99.28250,4.313902363
99.28300,7.671040847
99.28350,7.060652032
99.28400,3.093124732
99.28450,0.04118065471
99.28500,0.04118065471
99.28550,1.567152693
99.28600,1.872347101
99.28650,2.482735916
99.28700,4.924291178
99.28750,7.671040847
99.28800,6.145068809
99.28850,-0.5692081607
99.28900,-6.673096315
99.28950,-4.841929869
99.29000,4.313902363
99.29050,12.85934578
99.29100,14.99570663
99.29150,12.85934578
99.29200,12.24895696
99.29250,13.774929
99.29300,14.08012341
99.29350,11.33337374
99.29400,8.891818478
99.29450,11.02817933
99.29500,16.21648426
99.29550,18.35284512
99.29600,13.774929
99.29650,6.145068809
99.29700,2.787930324
99.29750,6.450263216
99.29800,12.24895696
99.29850,12.24895696
99.29900,5.534679993
99.29950,-3.31595783
99.30000,-12.47179006
99.30050,-21.62762229
99.30100,-29.56267689
99.30150,-30.78345452
99.30200,-22.84839992
99.30250,-10.64062361
99.30300,-2.705569015
99.30350,-0.5692081607
99.30400,-1.484791384
99.30450,-3.621152238
99.30500,-7.893873946
99.30550,-13.08217888
99.30600,-13.38737328
99.30650,-5.757513092
99.30700,3.398319139
99.30750,5.839874401
99.30800,0.9567638778
99.30850,-3.926346645
99.30900,-3.31595783
99.30950,-0.264013753
99.31000,-0.8744025684
99.31050,-5.757513092
99.31100,-7.588679538
99.31150,-2.705569015
99.31200,3.703513547
99.31250,6.450263216
99.31300,5.534679993
99.31350,5.839874401
99.31400,7.976235255
99.31450,7.671040847
99.31500,3.703513547
99.31550,1.567152693
99.31600,3.703513547
99.31650,5.229485586
99.31700,1.872347101
99.31750,-1.484791384
99.31800,0.04118065471
99.31850,4.008707955
99.31900,2.482735916
99.31950,-0.8744025684
99.32000,1.567152693
99.32050,8.891818478
99.32100,9.807401701
99.32150,0.6515694701
99.32200,-7.28348513
99.32250,-6.367901907
99.32300,-1.789985791
99.32350,-3.010763422
99.32400,-7.588679538
99.32450,-7.28348513
99.32500,-1.789985791
99.32550,2.787930324
99.32600,3.398319139
99.32650,2.787930324
99.32700,2.177541509
99.32750,1.567152693
99.32800,2.177541509
99.32850,4.924291178
99.32900,8.281429663
99.32950,9.502207293
99.33000,8.891818478
99.33050,7.671040847
99.33100,7.671040847
99.33150,9.502207293
99.33200,11.94376256
99.33250,12.85934578
99.33300,9.807401701
99.33350,7.060652032
99.33400,10.11259611
99.33450,18.04765071
99.33500,20.79440038
99.33550,11.94376256
99.33600,-1.789985791
99.33650,-9.725040392
99.33700,-8.504262761
99.33750,-3.621152238
99.33800,-2.095180199
99.33850,-4.231541053
99.33900,-6.673096315
99.33950,-6.978290722
99.34000,-5.147124276
99.34050,-4.536735461
99.34100,-7.893873946
99.34150,-13.69256769
99.34200,-14.91334532
99.34250,-7.893873946
99.34300,1.567152693
99.34350,5.534679993
99.34400,1.567152693
99.34450,-5.757513092
99.34500,-11.55620684
99.34550,-15.21853973
99.34600,-16.13412295
99.34650,-14.60815091
99.34700,-11.55620684
99.34750,-8.809457169
99.34800,-6.062707499
99.34850,-2.705569015
99.34900,-1.179596976
99.34950,-3.926346645
99.35000,-7.28348513
99.35050,-3.31595783
99.35100,7.976235255
99.35150,16.21648426
99.35200,13.16454019
99.35250,3.703513547
99.35300,-1.484791384
99.35350,-1.179596976
99.35400,-1.789985791
99.35450,-5.757513092
99.35500,-7.588679538
99.35550,-4.231541053
99.35600,0.3463750624
99.35650,2.787930324
99.35700,3.093124732
99.35750,4.313902363
99.35800,5.534679993
99.35850,4.61909677
99.35900,0.04118065471
99.35950,-4.841929869
99.36000,-5.452318684
99.36050,-0.264013753
99.36100,4.61909677
99.36150,3.398319139
99.36200,-2.095180199
99.36250,-3.926346645
99.36300,0.9567638778
99.36350,6.145068809
99.36400,4.924291178
99.36450,-0.5692081607
99.36500,-3.31595783
99.36550,-0.5692081607
99.36600,3.703513547
99.36650,5.229485586
99.36700,2.482735916
99.36750,-0.264013753
99.36800,-0.264013753
99.36850,3.093124732
99.36900,6.755457624
99.36950,8.281429663
99.37000,7.36584644
99.37050,4.313902363
99.37100,-1.484791384
99.37150,-8.809457169
99.37200,-13.38737328
99.37250,-11.55620684
99.37300,-6.367901907
99.37350,-3.010763422
99.37400,-1.789985791
99.37450,0.3463750624
99.37500,5.229485586
99.37550,10.11259611
99.37600,12.55415137
99.37650,11.63856815
99.37700,6.145068809
99.37750,-1.484791384
99.37800,-7.588679538
99.37850,-7.588679538
99.37900,-4.231541053
99.37950,-1.484791384
99.38000,0.04118065471
99.38050,4.008707955
99.38100,11.33337374
99.38150,14.38531782
99.38200,6.755457624
99.38250,-8.199068353
99.38300,-19.79645585
99.38350,-18.57567822
99.38400,-7.893873946
99.38450,-0.264013753
99.38500,-1.484791384
99.38550,-6.978290722
99.38600,-10.0302348
99.38650,-12.47179006
99.38700,-17.04970618
99.38750,-19.79645585
99.38800,-14.60815091
99.38850,-2.095180199
99.38900,8.58662407
99.38950,12.55415137
99.39000,11.94376256
99.39050,11.33337374
99.39100,11.63856815
99.39150,11.94376256
99.39200,12.55415137
99.39250,12.55415137
99.39300,10.41779052
99.39350,6.755457624
99.39400,3.703513547
99.39450,4.008707955
99.39500,5.839874401
99.39550,4.313902363
99.39600,-3.010763422
99.39650,-13.38737328
99.39700,-17.9652894
99.39750,-13.69256769
99.39800,-6.367901907
99.39850,-4.231541053
99.39900,-6.367901907
99.39950,-6.062707499
99.40000,-1.179596976
99.40050,4.313902363
99.40100,7.060652032
99.40150,6.755457624
99.40200,2.787930324
99.40250,-3.31595783
99.40300,-6.367901907
99.40350,-0.5692081607
99.40400,9.807401701
99.40450,17.13206749
99.40500,16.82687308
99.40550,11.33337374
99.40600,2.177541509
99.40650,-6.367901907
99.40700,-8.809457169
99.40750,-0.8744025684
99.40800,7.976235255
99.40850,6.145068809
99.40900,-5.147124276
99.40950,-11.55620684
99.41000,-6.367901907
99.41050,0.04118065471
99.41100,-1.484791384
99.41150,-6.367901907
99.41200,-4.841929869
99.41250,0.04118065471
99.41300,-0.264013753
99.41350,-4.231541053
99.41400,-3.621152238
99.41450,2.787930324
99.41500,7.060652032
99.41550,4.924291178
99.41600,2.177541509
99.41650,4.008707955
99.41700,7.060652032
99.41750,6.450263216
99.41800,3.703513547
99.41850,2.482735916
99.41900,2.482735916
99.41950,1.872347101
99.42000,1.567152693
99.42050,3.093124732
99.42100,1.872347101
99.42150,-4.841929869
99.42200,-11.55620684
99.42250,-10.33542921
99.42300,-2.705569015
99.42350,1.261958286
99.42400,0.6515694701
99.42450,3.398319139
99.42500,11.94376256
99.42550,15.30090104
99.42600,5.534679993
99.42650,-7.588679538
99.42700,-10.0302348
99.42750,-1.789985791
99.42800,3.093124732
99.42850,-2.705569015
99.42900,-13.08217888
99.42950,-17.9652894
99.43000,-15.82892855
99.43050,-11.55620684
99.43100,-7.28348513
99.43150,-3.926346645
99.43200,-2.400374607
99.43250,-1.484791384
99.43300,0.3463750624
99.43350,3.398319139
99.43400,3.703513547
99.43450,0.3463750624
99.43500,-2.400374607
99.43550,-1.789985791
99.43600,0.9567638778
99.43650,2.177541509
99.43700,1.872347101
99.43750,2.177541509
99.43800,3.703513547
99.43850,5.534679993
99.43900,7.060652032
99.43950,7.060652032
99.44000,3.703513547
99.44050,-1.179596976
99.44100,-2.095180199
99.44150,3.398319139
99.44200,10.72298492
99.44250,12.55415137
99.44300,7.671040847
99.44350,0.9567638778
99.44400,-3.621152238
99.44450,-4.841929869
99.44500,-2.705569015
99.44550,0.04118065471
99.44600,0.04118065471
99.44650,-3.31595783
99.44700,-5.452318684
99.44750,-3.926346645
99.44800,-1.179596976
99.44850,-0.5692081607
99.44900,0.04118065471
99.44950,3.398319139
99.45000,7.060652032
99.45050,6.755457624
99.45100,3.398319139
99.45150,0.3463750624
99.45200,-1.484791384
99.45250,-3.621152238
99.45300,-3.926346645
99.45350,-1.484791384
99.45400,0.6515694701
99.45450,0.3463750624
99.45500,-1.179596976
99.45550,-3.31595783
99.45600,-6.062707499
99.45650,-7.893873946
99.45700,-4.841929869
99.45750,1.567152693
99.45800,3.703513547
99.45850,-1.789985791
99.45900,-6.367901907
99.45950,-1.789985791
99.46000,6.145068809
99.46050,5.839874401
99.46100,-3.926346645
99.46150,-11.86140125
99.46200,-10.94581802
99.46250,-6.062707499
99.46300,-3.621152238
99.46350,-3.010763422
99.46400,-1.789985791
99.46450,0.04118065471
99.46500,1.261958286
99.46550,1.872347101
99.46600,2.177541509
99.46650,1.567152693
99.46700,0.6515694701
99.46750,0.3463750624
99.46800,0.04118065471
99.46850,-2.095180199
99.46900,-4.231541053
99.46950,-3.621152238
99.47000,0.9567638778
99.47050,6.755457624
99.47100,9.502207293
99.47150,7.060652032
99.47200,2.482735916
99.47250,-0.5692081607
99.47300,-1.179596976
99.47350,-1.789985791
99.47400,-3.31595783
99.47450,-4.231541053
99.47500,-1.179596976
99.47550,3.093124732
99.47600,4.008707955
99.47650,1.872347101
99.47700,2.482735916
99.47750,8.281429663
99.47800,14.38531782
99.47850,14.38531782
99.47900,9.502207293
99.47950,4.61909677
99.48000,1.872347101
99.48050,0.04118065471
99.48100,0.9567638778
99.48150,5.229485586
99.48200,8.891818478
99.48250,4.924291178
99.48300,-4.841929869
99.48350,-11.55620684
99.48400,-9.114651576
99.48450,-2.400374607
99.48500,1.261958286
99.48550,2.177541509
99.48600,3.703513547
99.48650,5.839874401
99.48700,6.450263216
99.48750,6.145068809
99.48800,7.36584644
99.48850,7.36584644
99.48900,2.177541509
99.48950,-5.147124276
99.49000,-7.28348513
99.49050,-1.484791384
99.49100,4.924291178
99.49150,4.924291178
99.49200,-0.264013753
99.49250,-4.536735461
99.49300,-3.926346645
99.49350,-0.8744025684
99.49400,0.6515694701
99.49450,2.177541509
99.49500,5.229485586
99.49550,8.281429663
99.49600,9.502207293
99.49650,8.58662407
99.49700,7.976235255
99.49750,7.976235255
99.49800,4.924291178
99.49850,-4.536735461
99.49900,-17.66009499
99.49950,-25.900344
99.50000,-24.06917755
99.50050,-16.13412295
99.50100,-9.114651576
99.50150,-5.452318684
99.50200,-3.31595783
99.50250,0.04118065471
99.50300,2.482735916
99.50350,0.3463750624
99.50400,-6.978290722
99.50450,-14.91334532
99.50500,-16.43931736
99.50550,-12.47179006
99.50600,-8.809457169
99.50650,-8.199068353
99.50700,-6.673096315
99.50750,-0.5692081607
99.50800,5.839874401
99.50850,5.839874401
99.50900,0.9567638778
99.50950,-1.179596976
99.51000,2.177541509
99.51050,7.671040847
99.51100,8.281429663
99.51150,5.229485586
99.51200,2.787930324
99.51250,3.093124732
99.51300,4.924291178
99.51350,6.755457624
99.51400,8.891818478
99.51450,9.807401701
99.51500,8.58662407
99.51550,4.61909677
99.51600,0.6515694701
99.51650,-1.179596976
99.51700,-2.095180199
99.51750,-2.705569015
99.51800,-3.31595783
99.51850,-2.400374607
99.51900,-0.8744025684
99.51950,0.9567638778
99.52000,3.398319139
99.52050,5.839874401
99.52100,6.450263216
99.52150,4.313902363
99.52200,2.787930324
99.52250,4.61909677
99.52300,8.891818478
99.52350,10.41779052
99.52400,8.58662407
99.52450,7.060652032
99.52500,6.755457624
99.52550,4.61909677
99.52600,0.04118065471
99.52650,-2.095180199
99.52700,-0.264013753
99.52750,-0.264013753
99.52800,-8.504262761
99.52850,-18.27048381
99.52900,-19.49126144
99.52950,-11.55620684
99.53000,-3.926346645
99.53050,-4.841929869
99.53100,-10.0302348
99.53150,-10.64062361
99.53200,-3.31595783
99.53250,6.755457624
99.53300,11.63856815
99.53350,7.671040847
99.53400,0.04118065471
99.53450,-1.789985791
99.53500,4.008707955
99.53550,11.33337374
99.53600,12.85934578
99.53650,8.891818478
99.53700,5.534679993
99.53750,5.534679993
99.53800,8.58662407
99.53850,13.16454019
99.53900,14.69051222
99.53950,7.976235255
99.54000,-6.062707499
99.54050,-17.04970618
99.54100,-16.43931736
99.54150,-7.588679538
99.54200,-2.095180199
99.54250,-3.010763422
99.54300,-5.147124276
99.54350,-4.231541053
99.54400,-2.095180199
99.54450,-1.789985791
99.54500,-1.179596976
99.54550,1.261958286
99.54600,4.924291178
99.54650,7.36584644
99.54700,7.976235255
99.54750,7.976235255
99.54800,7.976235255
99.54850,7.976235255
99.54900,5.534679993
99.54950,-0.5692081607
99.55000,-6.978290722
99.55050,-6.978290722
99.55100,-2.095180199
99.55150,-1.179596976
99.55200,-8.809457169
99.55250,-17.04970618
99.55300,-16.13412295
99.55350,-9.419845984
99.55400,-7.588679538
99.55450,-11.55620684
99.55500,-11.55620684
99.55550,-3.010763422
99.55600,4.924291178
99.55650,5.229485586
99.55700,1.567152693
99.55750,0.9567638778
99.55800,4.008707955
99.55850,6.450263216
99.55900,7.060652032
99.55950,8.58662407
99.56000,8.891818478
99.56050,5.534679993
99.56100,0.9567638778
99.56150,0.04118065471
99.56200,3.703513547
99.56250,6.755457624
99.56300,6.145068809
99.56350,3.093124732
99.56400,-0.5692081607
99.56450,-6.062707499
99.56500,-12.16659565
99.56550,-15.21853973
99.56600,-13.08217888
99.56650,-6.673096315
99.56700,-0.264013753
99.56750,3.093124732
99.56800,3.093124732
99.56850,0.3463750624
99.56900,-0.5692081607
99.56950,2.787930324
99.57000,8.58662407
99.57050,10.41779052
99.57100,5.839874401
99.57150,0.04118065471
99.57200,-3.926346645
99.57250,-5.757513092
99.57300,-7.28348513
99.57350,-7.28348513
99.57400,-4.841929869
99.57450,-0.5692081607
99.57500,1.567152693
99.57550,0.6515694701
99.57600,-2.705569015
99.57650,-6.062707499
99.57700,-6.367901907
99.57750,-3.31595783
99.57800,-0.5692081607
99.57850,-0.264013753
99.57900,-1.179596976
99.57950,0.04118065471
99.58000,4.924291178
99.58050,7.060652032
99.58100,0.04118065471
99.58150,-13.38737328
99.58200,-21.9328167
99.58250,-19.49126144
99.58300,-10.33542921
99.58350,-3.621152238
99.58400,-1.484791384
99.58450,-0.264013753
99.58500,1.261958286
99.58550,3.093124732
99.58600,3.093124732
99.58650,3.093124732
99.58700,1.872347101
99.58750,-1.484791384
99.58800,-4.841929869
99.58850,-2.705569015
99.58900,4.313902363
99.58950,9.502207293
99.59000,8.58662407
99.59050,6.145068809
99.59100,8.281429663
99.59150,11.33337374
99.59200,7.671040847
99.59250,-1.179596976
99.59300,-6.673096315
99.59350,-3.621152238
99.59400,1.872347101
99.59450,3.093124732
99.59500,0.9567638778
99.59550,0.3463750624
99.59600,2.177541509
99.59650,4.008707955
99.59700,5.229485586
99.59750,6.755457624
99.59800,8.58662407
99.59850,9.502207293
99.59900,7.671040847
99.59950,4.924291178
99.60000,2.787930324
99.60050,1.872347101
99.60100,2.177541509
99.60150,3.093124732
99.60200,0.3463750624
99.60250,-6.978290722
99.60300,-14.91334532
99.60350,-14.30295651
99.60400,-3.926346645
99.60450,7.671040847
99.60500,10.72298492
99.60550,4.61909677
99.60600,-3.010763422
99.60650,-6.367901907
99.60700,-5.147124276
99.60750,-2.705569015
99.60800,-1.179596976
99.60850,-1.179596976
99.60900,-1.789985791
99.60950,0.04118065471
99.61000,6.145068809
99.61050,11.63856815
99.61100,10.41779052
99.61150,2.482735916
99.61200,-5.452318684
99.61250,-7.893873946
99.61300,-5.757513092
99.61350,-3.010763422
99.61400,-1.484791384
99.61450,-1.179596976
99.61500,-2.705569015
99.61550,-5.147124276
99.61600,-5.452318684
99.61650,-1.484791384
99.61700,4.61909677
99.61750,9.807401701
99.61800,10.41779052
99.61850,7.671040847
99.61900,3.398319139
99.61950,0.3463750624
99.62000,-0.8744025684
99.62050,-3.621152238
99.62100,-7.588679538
99.62150,-7.893873946
99.62200,-2.400374607
99.62250,5.229485586
99.62300,7.671040847
99.62350,3.703513547
99.62400,0.04118065471
99.62450,0.3463750624
99.62500,4.008707955
99.62550,6.145068809
99.62600,6.450263216
99.62650,5.534679993
99.62700,4.008707955
99.62750,0.6515694701
99.62800,-2.705569015
99.62850,-4.231541053
99.62900,-2.095180199
99.62950,0.6515694701
99.63000,0.9567638778
99.63050,-3.010763422
99.63100,-6.978290722
99.63150,-4.536735461
99.63200,2.482735916
99.63250,4.61909677
99.63300,-3.010763422
99.63350,-12.47179006
99.63400,-11.55620684
99.63450,-1.179596976
99.63500,7.060652032
99.63550,6.755457624
99.63600,2.177541509
99.63650,0.6515694701
99.63700,3.703513547
99.63750,7.976235255
99.63800,10.11259611
99.63850,8.58662407
99.63900,5.229485586
99.63950,4.008707955
99.64000,5.229485586
99.64050,3.398319139
99.64100,-3.621152238
99.64150,-10.64062361
99.64200,-9.725040392
99.64250,-3.926346645
99.64300,-2.705569015
99.64350,-7.588679538
99.64400,-9.725040392
99.64450,-5.147124276
99.64500,1.261958286
99.64550,4.313902363
99.64600,4.61909677
99.64650,4.008707955
99.64700,0.6515694701
99.64750,-5.757513092
99.64800,-11.55620684
99.64850,-12.16659565
99.64900,-10.94581802
99.64950,-10.64062361
99.65000,-7.893873946
99.65050,0.04118065471
99.65100,8.891818478
99.65150,11.02817933
99.65200,4.61909677
99.65250,-3.621152238
99.65300,-10.64062361
99.65350,-16.43931736
99.65400,-20.40684466
99.65450,-19.49126144
99.65500,-13.38737328
99.65550,-6.367901907
99.65600,-2.400374607
99.65650,-0.264013753
99.65700,1.567152693
99.65750,4.924291178
99.65800,8.281429663
99.65850,10.41779052
99.65900,10.72298492
99.65950,9.197012886
99.66000,6.450263216
99.66050,3.398319139
99.66100,0.9567638778
99.66150,0.3463750624
99.66200,2.177541509
99.66250,5.839874401
99.66300,8.58662407
99.66350,7.671040847
99.66400,3.703513547
99.66450,0.04118065471
99.66500,-1.484791384
99.66550,-0.264013753
99.66600,1.261958286
99.66650,3.398319139
99.66700,5.229485586
99.66750,6.755457624
99.66800,6.145068809
99.66850,4.61909677
99.66900,3.703513547
99.66950,3.398319139
99.67000,4.008707955
99.67050,4.924291178
99.67100,5.534679993
99.67150,4.61909677
99.67200,2.177541509
99.67250,0.9567638778
99.67300,1.872347101
99.67350,2.482735916
99.67400,1.261958286
99.67450,1.872347101
99.67500,9.197012886
99.67550,18.04765071
99.67600,18.04765071
99.67650,7.36584644
99.67700,-3.621152238
99.67750,-7.28348513
99.67800,-5.147124276
99.67850,-3.31595783
99.67900,-1.789985791
99.67950,1.872347101
99.68000,4.924291178
99.68050,1.261958286
99.68100,-6.673096315
99.68150,-8.809457169
99.68200,-1.484791384
99.68250,6.450263216
99.68300,4.61909677
99.68350,-6.062707499
99.68400,-15.82892855
99.68450,-16.43931736
99.68500,-10.64062361
99.68550,-5.147124276
99.68600,-2.095180199
99.68650,0.04118065471
99.68700,0.9567638778
99.68750,-0.8744025684
99.68800,-5.147124276
99.68850,-5.757513092
99.68900,-1.179596976
99.68950,2.177541509
99.69000,-0.264013753
99.69050,-4.841929869
99.69100,-4.231541053
99.69150,1.261958286
99.69200,5.229485586
99.69250,4.008707955
99.69300,0.9567638778
99.69350,-1.179596976
99.69400,-3.621152238
99.69450,-5.147124276
99.69500,-2.705569015
99.69550,3.398319139
99.69600,7.671040847
99.69650,5.839874401
99.69700,1.261958286
99.69750,-0.264013753
99.69800,0.3463750624
99.69850,1.567152693
99.69900,2.177541509
99.69950,2.787930324
99.70000,2.482735916
99.70050,3.093124732
99.70100,7.36584644
99.70150,12.55415137
99.70200,11.94376256
99.70250,4.61909677
99.70300,-0.264013753
99.70350,2.482735916
99.70400,9.502207293
99.70450,12.55415137
99.70500,11.02817933
99.70550,7.060652032
99.70600,-2.705569015
99.70650,-19.18606703
99.70700,-32.00423215
99.70750,-30.17306571
99.70800,-17.35490058
99.70850,-9.725040392
99.70900,-11.86140125
99.70950,-15.21853973
99.71000,-10.64062361
99.71050,-2.705569015
99.71100,0.6515694701
99.71150,0.3463750624
99.71200,0.9567638778
99.71250,3.398319139
99.71300,6.145068809
99.71350,8.281429663
99.71400,10.11259611
99.71450,9.197012886
99.71500,4.313902363
99.71550,-1.789985791
99.71600,-4.536735461
99.71650,-2.095180199
99.71700,1.872347101
99.71750,3.703513547
99.71800,1.567152693
99.71850,-2.095180199
99.71900,-5.147124276
99.71950,-6.367901907
99.72000,-5.452318684
99.72050,-2.400374607
99.72100,1.567152693
99.72150,4.61909677
99.72200,5.229485586
99.72250,4.61909677
99.72300,5.229485586
99.72350,6.450263216
99.72400,5.839874401
99.72450,3.703513547
99.72500,1.567152693
99.72550,-0.5692081607
99.72600,-4.841929869
99.72650,-8.504262761
99.72700,-8.504262761
99.72750,-6.062707499
99.72800,-6.062707499
99.72850,-9.725040392
99.72900,-10.94581802
99.72950,-5.452318684
99.73000,1.872347101
99.73050,6.755457624
99.73100,8.58662407
99.73150,10.11259611
99.73200,11.02817933
99.73250,9.197012886
99.73300,4.008707955
99.73350,-3.010763422
99.73400,-11.25101243
99.73450,-15.52373414
99.73500,-11.55620684
99.73550,-0.264013753
99.73600,12.24895696
99.73650,19.26842834
99.73700,18.65803952
99.73750,11.63856815
99.73800,2.177541509
99.73850,-5.757513092
99.73900,-10.0302348
99.73950,-12.16659565
99.74000,-15.82892855
99.74050,-17.66009499
99.74100,-12.77698447
99.74150,-2.095180199
99.74200,5.839874401
99.74250,6.755457624
99.74300,4.008707955
99.74350,4.313902363
99.74400,8.58662407
99.74450,12.85934578
99.74500,14.69051222
99.74550,14.69051222
99.74600,14.99570663
99.74650,15.30090104
99.74700,15.30090104
99.74750,13.774929
99.74800,10.11259611
99.74850,3.703513547
99.74900,-2.705569015
99.74950,-8.504262761
99.75000,-12.47179006
99.75050,-15.52373414
99.75100,-17.66009499
99.75150,-17.66009499
99.75200,-15.21853973
99.75250,-11.55620684
99.75300,-8.199068353
99.75350,-4.536735461
99.75400,-1.484791384
99.75450,-1.179596976
99.75500,-3.926346645
99.75550,-4.536735461
99.75600,1.872347101
99.75650,10.11259611
99.75700,9.807401701
99.75750,1.261958286
99.75800,-4.231541053
99.75850,-0.264013753
99.75900,5.534679993
99.75950,5.839874401
99.76000,3.093124732
99.76050,4.924291178
99.76100,10.11259611
99.76150,10.41779052
99.76200,6.145068809
99.76250,4.008707955
99.76300,5.839874401
99.76350,6.145068809
99.76400,2.482735916
99.76450,0.3463750624
99.76500,2.787930324
99.76550,5.534679993
99.76600,3.398319139
99.76650,-1.179596976
99.76700,-6.062707499
99.76750,-9.725040392
99.76800,-10.64062361
99.76850,-6.673096315
99.76900,0.04118065471
99.76950,2.482735916
99.77000,0.04118065471
99.77050,-0.264013753
99.77100,6.450263216
99.77150,14.99570663
99.77200,15.60609545
99.77250,7.976235255
99.77300,1.567152693
99.77350,0.9567638778
99.77400,2.787930324
99.77450,3.703513547
99.77500,4.313902363
99.77550,3.703513547
99.77600,0.6515694701
99.77650,-2.705569015
99.77700,-2.705569015
99.77750,0.04118065471
99.77800,2.177541509
99.77850,2.787930324
99.77900,4.924291178
99.77950,7.36584644
99.78000,2.482735916
99.78050,-10.0302348
99.78100,-20.71203907
99.78150,-22.23801111
99.78200,-19.49126144
99.78250,-21.01723348
99.78300,-23.76398315
99.78350,-19.49126144
99.78400,-9.419845984
99.78450,-3.010763422
99.78500,-3.926346645
99.78550,-6.367901907
99.78600,-6.062707499
99.78650,-4.536735461
99.78700,-3.926346645
99.78750,-2.705569015
99.78800,-0.264013753
99.78850,1.261958286
99.78900,2.177541509
99.78950,4.008707955
99.79000,5.839874401
99.79050,4.924291178
99.79100,1.261958286
99.79150,0.04118065471
99.79200,2.177541509
99.79250,3.398319139
99.79300,0.3463750624
99.79350,-3.621152238
99.79400,-4.231541053
99.79450,-0.8744025684
99.79500,3.093124732
99.79550,8.281429663
99.79600,14.38531782
99.79650,18.35284512
99.79700,17.43726189
99.79750,13.46973459
99.79800,11.63856815
99.79850,12.24895696
99.79900,11.02817933
99.79950,3.703513547
99.80000,-6.367901907
99.80050,-13.38737328
99.80100,-12.77698447
99.80150,-8.199068353
99.80200,-7.588679538
99.80250,-13.9977621
99.80300,-21.62762229
99.80350,-21.62762229
99.80400,-13.08217888
99.80450,-2.705569015
99.80500,2.787930324
99.80550,4.008707955
99.80600,3.703513547
99.80650,5.229485586
99.80700,8.58662407
99.80750,10.72298492
99.80800,10.11259611
99.80850,6.450263216
99.80900,3.398319139
99.80950,2.482735916
99.81000,1.261958286
99.81050,-3.31595783
99.81100,-9.725040392
99.81150,-11.55620684
99.81200,-8.199068353
99.81250,-5.147124276
99.81300,-4.841929869
99.81350,-4.231541053
99.81400,0.04118065471
99.81450,4.924291178
99.81500,5.534679993
99.81550,3.398319139
99.81600,2.177541509
99.81650,2.482735916
99.81700,2.177541509
99.81750,0.9567638778
99.81800,1.261958286
99.81850,4.008707955
99.81900,6.450263216
99.81950,6.450263216
99.82000,3.703513547
99.82050,0.04118065471
99.82100,-2.400374607
99.82150,-1.789985791
99.82200,0.9567638778
99.82250,3.398319139
99.82300,3.703513547
99.82350,4.008707955
99.82400,4.61909677
99.82450,4.008707955
99.82500,1.872347101
99.82550,0.9567638778
99.82600,2.482735916
99.82650,4.008707955
99.82700,3.703513547
99.82750,4.008707955
99.82800,5.534679993
99.82850,4.008707955
99.82900,-1.179596976
99.82950,-5.452318684
99.83000,-4.231541053
99.83050,-2.705569015
99.83100,-7.893873946
99.83150,-14.91334532
99.83200,-13.69256769
99.83250,-3.621152238
99.83300,3.703513547
99.83350,4.313902363
99.83400,4.008707955
99.83450,7.36584644
99.83500,8.58662407
99.83550,3.703513547
99.83600,-2.400374607
99.83650,-3.621152238
99.83700,-1.789985791
99.83750,-0.8744025684
99.83800,0.04118065471
99.83850,4.313902363
99.83900,8.891818478
99.83950,8.281429663
99.84000,4.313902363
99.84050,1.872347101
99.84100,2.787930324
99.84150,4.924291178
99.84200,6.145068809
99.84250,6.145068809
99.84300,3.398319139
99.84350,-3.926346645
99.84400,-12.77698447
99.84450,-17.9652894
99.84500,-17.04970618
99.84550,-10.94581802
99.84600,-1.789985791
99.84650,7.060652032
99.84700,10.41779052
99.84750,5.534679993
99.84800,-3.010763422
99.84850,-7.28348513
99.84900,-4.536735461
99.84950,0.3463750624
99.85000,3.398319139
99.85050,4.008707955
99.85100,3.703513547
99.85150,3.703513547
99.85200,4.313902363
99.85250,5.534679993
99.85300,5.534679993
99.85350,1.567152693
99.85400,-4.231541053
99.85450,-6.673096315
99.85500,-3.621152238
99.85550,0.6515694701
99.85600,0.04118065471
99.85650,-6.367901907
99.85700,-12.77698447
99.85750,-12.77698447
99.85800,-6.367901907
99.85850,-1.179596976
99.85900,-2.705569015
99.85950,-8.199068353
99.86000,-8.809457169
99.86050,-2.705569015
99.86100,1.567152693
99.86150,-1.179596976
99.86200,-7.893873946
99.86250,-10.0302348
99.86300,-6.062707499
99.86350,-1.789985791
99.86400,-0.5692081607
99.86450,-1.179596976
99.86500,-1.484791384
99.86550,-1.179596976
99.86600,-0.264013753
99.86650,1.261958286
99.86700,2.787930324
99.86750,3.093124732
99.86800,3.398319139
99.86850,4.924291178
99.86900,6.450263216
99.86950,5.839874401
99.87000,4.924291178
99.87050,5.534679993
99.87100,5.839874401
99.87150,3.093124732
99.87200,1.261958286
99.87250,2.482735916
99.87300,2.787930324
99.87350,-2.705569015
99.87400,-10.64062361
99.87450,-10.94581802
99.87500,-2.095180199
99.87550,6.450263216
99.87600,8.281429663
99.87650,5.229485586
99.87700,3.093124732
99.87750,3.093124732
99.87800,3.093124732
99.87850,2.482735916
99.87900,1.261958286
99.87950,0.04118065471
99.88000,0.6515694701
99.88050,3.703513547
99.88100,7.060652032
99.88150,8.58662407
99.88200,8.281429663
99.88250,7.36584644
99.88300,4.61909677
99.88350,-0.8744025684
99.88400,-5.147124276
99.88450,-3.31595783
99.88500,3.703513547
99.88550,9.807401701
99.88600,11.33337374
99.88650,10.11259611
99.88700,7.36584644
99.88750,2.177541509
99.88800,-3.926346645
99.88850,-7.588679538
99.88900,-7.588679538
99.88950,-6.978290722
99.89000,-8.199068353
99.89050,-10.33542921
99.89100,-12.47179006
99.89150,-12.77698447
99.89200,-8.809457169
99.89250,-0.8744025684
99.89300,6.145068809
99.89350,8.281429663
99.89400,7.36584644
99.89450,7.060652032
99.89500,8.281429663
99.89550,6.755457624
99.89600,2.787930324
99.89650,0.9567638778
99.89700,2.177541509
99.89750,2.177541509
99.89800,-0.8744025684
99.89850,-4.231541053
99.89900,-3.926346645
99.89950,-0.264013753
99.90000,2.482735916
99.90050,2.787930324
99.90100,0.04118065471
99.90150,-5.757513092
99.90200,-8.504262761
99.90250,-4.231541053
99.90300,3.398319139
99.90350,6.450263216
99.90400,3.398319139
99.90450,0.9567638778
99.90500,4.008707955
99.90550,8.58662407
99.90600,8.58662407
99.90650,5.534679993
99.90700,4.61909677
99.90750,3.703513547
99.90800,-0.5692081607
99.90850,-5.757513092
99.90900,-5.757513092
99.90950,-2.705569015
99.91000,-3.010763422
99.91050,-6.978290722
99.91100,-7.588679538
99.91150,-3.31595783
99.91200,0.04118065471
99.91250,-0.264013753
99.91300,-2.400374607
99.91350,-3.010763422
99.91400,-3.31595783
99.91450,-3.010763422
99.91500,0.04118065471
99.91550,5.534679993
99.91600,7.976235255
99.91650,6.145068809
99.91700,4.924291178
99.91750,5.839874401
99.91800,4.313902363
99.91850,-1.179596976
99.91900,-6.062707499
99.91950,-4.536735461
99.92000,0.04118065471
99.92050,1.872347101
99.92100,1.567152693
99.92150,3.093124732
99.92200,6.450263216
99.92250,7.671040847
99.92300,5.839874401
99.92350,4.008707955
99.92400,4.008707955
99.92450,4.924291178
99.92500,4.924291178
99.92550,2.787930324
99.92600,-1.484791384
99.92650,-8.199068353
99.92700,-14.60815091
99.92750,-19.18606703
99.92800,-21.32242788
99.92850,-19.79645585
99.92900,-14.30295651
99.92950,-7.28348513
99.93000,-3.926346645
99.93050,-3.926346645
99.93100,-2.705569015
99.93150,1.261958286
99.93200,5.229485586
99.93250,5.229485586
99.93300,2.482735916
99.93350,0.9567638778
99.93400,1.261958286
99.93450,1.872347101
99.93500,2.482735916
99.93550,2.787930324
99.93600,2.482735916
99.93650,2.787930324
99.93700,4.008707955
99.93750,5.534679993
99.93800,5.229485586
99.93850,4.924291178
99.93900,5.229485586
99.93950,4.924291178
99.94000,0.6515694701
99.94050,-4.536735461
99.94100,-7.28348513
99.94150,-6.978290722
99.94200,-6.978290722
99.94250,-7.28348513
99.94300,-5.757513092
99.94350,-3.621152238
99.94400,-2.705569015
99.94450,-0.264013753
99.94500,7.976235255
99.94550,17.7424563
99.94600,17.13206749
99.94650,5.229485586
99.94700,-5.757513092
99.94750,-6.673096315
99.94800,-2.400374607
99.94850,-1.484791384
99.94900,-3.621152238
99.94950,-3.010763422
99.95000,-0.264013753
99.95050,-0.8744025684
99.95100,-2.095180199
99.95150,0.6515694701
99.95200,7.36584644
99.95250,9.807401701
99.95300,6.145068809
99.95350,3.398319139
99.95400,5.534679993
99.95450,7.36584644
99.95500,3.703513547
99.95550,-2.705569015
99.95600,-5.147124276
99.95650,-1.484791384
99.95700,0.3463750624
99.95750,-3.621152238
99.95800,-11.86140125
99.95850,-16.74451177
99.95900,-14.91334532
99.95950,-11.25101243
99.96000,-9.725040392
99.96050,-9.419845984
99.96100,-6.673096315
99.96150,-1.484791384
99.96200,3.093124732
99.96250,4.313902363
99.96300,3.093124732
99.96350,1.261958286
99.96400,0.04118065471
99.96450,0.04118065471
99.96500,0.3463750624
99.96550,0.6515694701
99.96600,0.3463750624
99.96650,1.567152693
99.96700,4.008707955
99.96750,6.755457624
99.96800,7.976235255
99.96850,8.891818478
99.96900,10.11259611
99.96950,8.891818478
99.97000,5.229485586
99.97050,3.093124732
99.97100,4.924291178
99.97150,6.145068809
99.97200,0.9567638778
99.97250,-6.062707499
99.97300,-5.757513092
99.97350,2.787930324
99.97400,9.502207293
99.97450,6.145068809
99.97500,-3.621152238
99.97550,-10.33542921
99.97600,-10.94581802
99.97650,-7.893873946
99.97700,-3.926346645
99.97750,-0.264013753
99.97800,0.9567638778
99.97850,0.6515694701
99.97900,-0.264013753
99.97950,-0.8744025684
99.98000,-1.484791384
99.98050,-2.400374607
99.98100,-2.705569015
99.98150,-2.400374607
99.98200,-2.095180199
99.98250,-0.8744025684
99.98300,1.567152693
99.98350,4.924291178
99.98400,6.145068809
99.98450,5.534679993
99.98500,5.839874401
99.98550,6.145068809
99.98600,3.703513547
99.98650,0.04118065471
99.98700,-1.179596976
99.98750,0.9567638778
99.98800,2.482735916
99.98850,0.6515694701
99.98900,-0.264013753
99.98950,1.261958286
99.99000,3.703513547
99.99050,2.482735916
99.99100,-0.5692081607
99.99150,-2.705569015
99.99200,-2.705569015
99.99250,0.04118065471
99.99300,3.398319139
99.99350,5.229485586
99.99400,2.482735916
99.99450,-2.095180199
99.99500,-2.705569015
99.99550,2.482735916
99.99600,7.36584644
99.99650,7.060652032
99.99700,4.313902363
99.99750,2.787930324
99.99800,0.9567638778
99.99850,-3.31595783
99.99900,-6.062707499
99.99950,-3.621152238
100.00000,0.04118065471
100.00050,0.3463750624
100.00100,-0.5692081607
100.00150,0.04118065471
100.00200,-1.789985791
100.00250,-13.08217888
100.00300,-26.51073282
100.00350,-28.34189926
100.00400,-16.13412295
100.00450,-3.010763422
100.00500,1.872347101
100.00550,2.482735916
100.00600,4.924291178
100.00650,6.145068809
100.00700,2.787930324
100.00750,0.04118065471
100.00800,3.703513547
100.00850,9.502207293
100.00900,8.891818478
100.00950,2.787930324
100.01000,-0.5692081607
100.01050,0.04118065471
100.01100,0.04118065471
100.01150,-3.926346645
100.01200,-8.199068353
100.01250,-7.28348513
100.01300,-2.400374607
100.01350,1.567152693
100.01400,2.787930324
100.01450,0.9567638778
100.01500,-2.400374607
100.01550,-4.536735461
100.01600,-2.705569015
100.01650,1.872347101
100.01700,5.229485586
100.01750,4.924291178
100.01800,4.008707955
100.01850,6.450263216
100.01900,10.72298492
100.01950,12.55415137
100.02000,10.72298492
100.02050,8.281429663
100.02100,6.450263216
100.02150,2.787930324
100.02200,-4.536735461
100.02250,-11.86140125
100.02300,-12.77698447
100.02350,-6.673096315
100.02400,0.3463750624
100.02450,3.093124732
100.02500,2.482735916
100.02550,2.787930324
100.02600,4.924291178
100.02650,5.839874401
100.02700,4.313902363
100.02750,2.482735916
100.02800,2.482735916
100.02850,4.008707955
100.02900,4.924291178
100.02950,3.703513547
100.03000,0.9567638778
100.03050,-2.705569015
100.03100,-5.757513092
100.03150,-6.673096315
100.03200,-4.841929869
100.03250,-1.179596976
100.03300,1.567152693
100.03350,1.261958286
100.03400,-3.621152238
100.03450,-10.64062361
100.03500,-12.47179006
100.03550,-6.978290722
100.03600,-0.264013753
100.03650,1.261958286
100.03700,-0.8744025684
100.03750,-1.789985791
100.03800,-0.264013753
100.03850,0.6515694701
100.03900,0.9567638778
100.03950,2.482735916
100.04000,5.229485586
100.04050,5.229485586
100.04100,1.872347101
100.04150,-0.5692081607
100.04200,-0.264013753
100.04250,0.3463750624
100.04300,0.9567638778
100.04350,4.313902363
100.04400,11.94376256
100.04450,17.13206749
100.04500,11.63856815
100.04550,-1.789985791
100.04600,-12.47179006
100.04650,-11.55620684
100.04700,-3.31595783
100.04750,1.261958286
100.04800,-1.484791384
100.04850,-7.893873946
100.04900,-11.86140125
100.04950,-12.47179006
100.05000,-11.86140125
100.05050,-10.64062361
100.05100,-7.588679538
100.05150,-3.31595783
100.05200,-2.095180199
100.05250,-3.621152238
100.05300,-5.147124276
100.05350,-3.926346645
100.05400,-2.095180199
100.05450,-0.5692081607
100.05500,0.3463750624
100.05550,2.482735916
100.05600,4.313902363
100.05650,5.229485586
100.05700,6.145068809
100.05750,7.060652032
100.05800,7.060652032
100.05850,6.755457624
100.05900,7.671040847
100.05950,8.58662407
100.06000,8.281429663
100.06050,6.755457624
100.06100,6.755457624
100.06150,6.145068809
100.06200,0.9567638778
100.06250,-7.893873946
100.06300,-13.9977621
100.06350,-13.69256769
100.06400,-11.25101243
100.06450,-12.16659565
100.06500,-14.91334532
100.06550,-15.21853973
100.06600,-13.08217888
100.06650,-10.64062361
100.06700,-8.199068353
100.06750,-4.536735461
100.06800,-1.179596976
100.06850,0.3463750624
100.06900,1.261958286
100.06950,3.398319139
100.07000,6.145068809
100.07050,7.060652032
100.07100,6.145068809
100.07150,4.008707955
100.07200,1.261958286
100.07250,-0.8744025684
100.07300,-0.8744025684
100.07350,1.872347101
100.07400,6.755457624
100.07450,10.11259611
100.07500,9.807401701
100.07550,6.450263216
100.07600,3.703513547
100.07650,3.093124732
100.07700,4.61909677
100.07750,5.839874401
100.07800,5.534679993
100.07850,5.534679993
100.07900,6.755457624
100.07950,9.197012886
100.08000,11.02817933
100.08050,12.24895696
100.08100,12.85934578
100.08150,11.63856815
100.08200,8.891818478
100.08250,5.229485586
100.08300,1.261958286
100.08350,-2.400374607
100.08400,-6.367901907
100.08450,-8.199068353
100.08500,-7.893873946
100.08550,-6.367901907
100.08600,-5.757513092
100.08650,-4.841929869
100.08700,-1.789985791
100.08750,2.482735916
100.08800,5.229485586
100.08850,4.924291178
100.08900,4.313902363
100.08950,4.61909677
100.09000,5.229485586
100.09050,4.313902363
100.09100,2.787930324
100.09150,3.093124732
100.09200,4.61909677
100.09250,3.703513547
100.09300,0.04118065471
100.09350,-4.231541053
100.09400,-4.841929869
100.09450,-3.31595783
100.09500,-3.010763422
100.09550,-5.147124276
100.09600,-7.893873946
100.09650,-8.199068353
100.09700,-6.978290722
100.09750,-5.452318684
100.09800,-3.31595783
100.09850,0.04118065471
100.09900,3.703513547
100.09950,5.534679993
100.10000,4.008707955
100.10050,1.261958286
100.10100,-0.8744025684
100.10150,-3.010763422
100.10200,-4.841929869
100.10250,-6.673096315
100.10300,-5.757513092
100.10350,0.04118065471
100.10400,7.36584644
100.10450,10.72298492
100.10500,7.060652032
100.10550,1.261958286
100.10600,0.3463750624
100.10650,3.703513547
100.10700,5.534679993
100.10750,3.398319139
100.10800,0.6515694701
100.10850,0.04118065471
100.10900,0.04118065471
100.10950,0.04118065471
100.11000,1.567152693
100.11050,3.398319139
100.11100,0.04118065471
100.11150,-8.504262761
100.11200,-11.86140125
100.11250,-6.367901907
100.11300,0.04118065471
100.11350,-2.705569015
100.11400,-11.86140125
100.11450,-14.91334532
100.11500,-9.114651576
100.11550,-1.789985791
100.11600,0.3463750624
100.11650,-0.5692081607
100.11700,-2.095180199
100.11750,-4.231541053
100.11800,-6.367901907
100.11850,-5.757513092
100.11900,-2.095180199
100.11950,0.6515694701
100.12000,1.261958286
100.12050,2.177541509
100.12100,4.61909677
100.12150,5.839874401
100.12200,5.534679993
100.12250,7.36584644
100.12300,10.41779052
100.12350,9.502207293
100.12400,3.398319139
100.12450,-0.5692081607
100.12500,2.482735916
100.12550,6.755457624
100.12600,2.482735916
100.12650,-9.419845984
100.12700,-17.35490058
100.12750,-14.30295651
100.12800,-6.062707499
100.12850,-1.484791384
100.12900,-1.484791384
100.12950,-1.179596976
100.13000,0.04118065471
100.13050,-0.8744025684
100.13100,-5.757513092
100.13150,-10.0302348
100.13200,-8.504262761
100.13250,-1.789985791
100.13300,4.008707955
100.13350,5.839874401
100.13400,4.61909677
100.13450,5.229485586
100.13500,8.891818478
100.13550,12.24895696
100.13600,11.94376256
100.13650,7.671040847
100.13700,2.482735916
100.13750,0.3463750624
100.13800,0.9567638778
100.13850,1.567152693
100.13900,0.9567638778
100.13950,0.04118065471
100.14000,0.04118065471
100.14050,0.9567638778
100.14100,2.482735916
100.14150,4.008707955
100.14200,3.398319139
100.14250,-1.179596976
100.14300,-8.504262761
100.14350,-12.47179006
100.14400,-10.33542921
100.14450,-4.536735461
100.14500,-0.5692081607
100.14550,0.3463750624
100.14600,1.261958286
100.14650,1.872347101
100.14700,1.261958286
100.14750,-0.264013753
100.14800,-1.484791384
100.14850,-0.264013753
100.14900,1.567152693
100.14950,1.567152693
100.15000,0.3463750624
100.15050,-0.264013753
100.15100,0.04118065471
100.15150,0.04118065471
100.15200,-2.095180199
100.15250,-4.841929869
100.15300,-3.31595783
100.15350,3.093124732
100.15400,9.502207293
100.15450,10.41779052
100.15500,6.450263216
100.15550,4.008707955
100.15600,5.229485586
100.15650,6.755457624
100.15700,6.145068809
100.15750,4.61909677
100.15800,4.008707955
100.15850,2.177541509
100.15900,-2.705569015
100.15950,-8.809457169
100.16000,-11.25101243
100.16050,-8.809457169
100.16100,-5.147124276
100.16150,-2.095180199
100.16200,0.04118065471
100.16250,2.177541509
100.16300,3.703513547
100.16350,4.61909677
100.16400,4.313902363
100.16450,1.872347101
100.16500,-0.8744025684
100.16550,-2.705569015
100.16600,-3.926346645
100.16650,-4.536735461
100.16700,-3.926346645
100.16750,-0.8744025684
100.16800,1.567152693
100.16850,-1.179596976
100.16900,-10.0302348
100.16950,-15.82892855
100.17000,-11.25101243
100.17050,0.04118065471
100.17100,6.755457624
100.17150,4.924291178
100.17200,-0.8744025684
100.17250,-3.926346645
100.17300,-1.179596976
100.17350,4.008707955
100.17400,10.41779052
100.17450,17.13206749
100.17500,21.7099836
100.17550,21.7099836
100.17600,17.43726189
100.17650,13.16454019
100.17700,11.33337374
100.17750,8.891818478
100.17800,1.261958286
100.17850,-8.199068353
100.17900,-13.9977621
100.17950,-15.52373414
100.18000,-18.57567822
100.18050,-24.98476078
100.18100,-27.73151045
100.18150,-21.01723348
100.18200,-9.419845984
100.18250,-2.400374607
100.18300,-2.705569015
100.18350,-5.757513092
100.18400,-7.893873946
100.18450,-9.114651576
100.18500,-8.199068353
100.18550,-2.705569015
100.18600,5.839874401
100.18650,11.63856815
100.18700,8.891818478
100.18750,0.04118065471
100.18800,-7.588679538
100.18850,-9.725040392
100.18900,-6.367901907
100.18950,-1.484791384
100.19000,1.261958286
100.19050,1.567152693
100.19100,2.177541509
100.19150,4.008707955
100.19200,4.61909677
100.19250,3.093124732
100.19300,0.9567638778
100.19350,1.567152693
100.19400,4.924291178
100.19450,8.281429663
100.19500,8.891818478
100.19550,7.36584644
100.19600,4.313902363
100.19650,0.9567638778
100.19700,0.6515694701
100.19750,3.703513547
100.19800,7.976235255
100.19850,8.58662407
100.19900,5.229485586
100.19950,2.787930324
100.20000,4.008707955
100.20050,5.839874401
100.20100,4.313902363
100.20150,0.04118065471
100.20200,-2.400374607
100.20250,-1.484791384
100.20300,0.6515694701
100.20350,1.872347101
100.20400,2.482735916
100.20450,3.398319139
100.20500,4.008707955
100.20550,3.093124732
100.20600,2.177541509
100.20650,3.093124732
100.20700,4.61909677
100.20750,2.787930324
100.20800,-3.010763422
100.20850,-9.114651576
100.20900,-9.419845984
100.20950,-4.536735461
100.21000,0.9567638778
100.21050,4.61909677
100.21100,7.060652032
100.21150,9.502207293
100.21200,9.502207293
100.21250,5.534679993
100.21300,2.177541509
100.21350,7.060652032
100.21400,18.65803952
100.21450,25.98270531
100.21500,19.26842834
100.21550,2.177541509
100.21600,-13.9977621
100.21650,-21.9328167
100.21700,-22.84839992
100.21750,-20.40684466
100.21800,-15.82892855
100.21850,-10.0302348
100.21900,-4.536735461
100.21950,-0.8744025684
100.22000,0.9567638778
100.22050,1.261958286
100.22100,0.6515694701
100.22150,0.6515694701
100.22200,2.177541509
100.22250,2.787930324
100.22300,0.04118065471
100.22350,-4.231541053
100.22400,-7.588679538
100.22450,-10.33542921
100.22500,-12.77698447
100.22550,-10.94581802
100.22600,-2.705569015
100.22650,4.61909677
100.22700,4.008707955
100.22750,-3.010763422
100.22800,-6.062707499
100.22850,-1.789985791
100.22900,2.177541509
100.22950,2.177541509
100.23000,1.261958286
100.23050,3.093124732
100.23100,6.145068809
100.23150,8.281429663
100.23200,11.33337374
100.23250,14.99570663
100.23300,15.60609545
100.23350,12.85934578
100.23400,10.72298492
100.23450,8.891818478
100.23500,2.482735916
100.23550,-6.673096315
100.23600,-11.55620684
100.23650,-8.809457169
100.23700,-5.147124276
100.23750,-7.28348513
100.23800,-9.725040392
100.23850,-8.809457169
100.23900,-8.199068353
100.23950,-13.08217888
100.24000,-17.9652894
100.24050,-14.60815091
100.24100,-4.841929869
100.24150,1.261958286
100.24200,1.261958286
100.24250,-1.179596976
100.24300,-3.010763422
100.24350,-3.621152238
100.24400,-2.095180199
100.24450,0.6515694701
100.24500,3.093124732
100.24550,2.177541509
100.24600,0.6515694701
100.24650,1.872347101
100.24700,4.61909677
100.24750,4.924291178
100.24800,3.093124732
100.24850,1.872347101
100.24900,0.9567638778
100.24950,-1.179596976
100.25000,-2.705569015
100.25050,-1.484791384
100.25100,-0.5692081607
100.25150,-4.841929869
100.25200,-10.33542921
100.25250,-9.419845984
100.25300,-0.264013753
100.25350,8.58662407
100.25400,11.33337374
100.25450,9.502207293
100.25500,7.976235255
100.25550,6.755457624
100.25600,4.61909677
100.25650,2.482735916
100.25700,1.567152693
100.25750,0.3463750624
100.25800,-2.095180199
100.25850,-4.841929869
100.25900,-3.926346645
100.25950,0.04118065471
100.26000,4.008707955
100.26050,5.534679993
100.26100,4.313902363
100.26150,2.482735916
100.26200,1.261958286
100.26250,0.6515694701
100.26300,0.04118065471
100.26350,-1.179596976
100.26400,-1.484791384
100.26450,-0.5692081607
100.26500,1.567152693
100.26550,4.313902363
100.26600,5.534679993
100.26650,4.924291178
100.26700,2.177541509
100.26750,-0.264013753
100.26800,-1.484791384
100.26850,-0.5692081607
100.26900,-0.264013753
100.26950,-0.8744025684
100.27000,-0.5692081607
100.27050,1.261958286
100.27100,0.3463750624
100.27150,-5.452318684
100.27200,-12.47179006
100.27250,-13.9977621
100.27300,-10.64062361
100.27350,-8.504262761
100.27400,-9.725040392
100.27450,-10.33542921
100.27500,-6.978290722
100.27550,-3.010763422
100.27600,-2.400374607
100.27650,-2.705569015
100.27700,0.9567638778
100.27750,7.36584644
100.27800,11.02817933
100.27850,9.502207293
100.27900,6.145068809
100.27950,4.924291178
100.28000,4.61909677
100.28050,3.398319139
100.28100,2.787930324
100.28150,4.008707955
100.28200,5.839874401
100.28250,2.177541509
100.28300,-6.367901907
100.28350,-13.38737328
100.28400,-10.94581802
100.28450,0.04118065471
100.28500,10.11259611
100.28550,14.38531782
100.28600,12.85934578
100.28650,8.891818478
100.28700,4.313902363
100.28750,1.567152693
100.28800,0.3463750624
100.28850,-1.789985791
100.28900,-7.28348513
100.28950,-12.16659565
100.29000,-10.33542921
100.29050,-3.621152238
100.29100,-0.5692081607
100.29150,-2.400374607
100.29200,-3.31595783
100.29250,-0.264013753
100.29300,1.567152693
100.29350,0.3463750624
100.29400,0.6515694701
100.29450,5.534679993
100.29500,9.197012886
100.29550,7.060652032
100.29600,3.398319139
100.29650,2.787930324
100.29700,1.567152693
100.29750,-3.621152238
100.29800,-6.978290722
100.29850,-2.095180199
100.29900,5.229485586
100.29950,6.450263216
100.30000,3.093124732
100.30050,4.313902363
100.30100,8.891818478
100.30150,7.36584644
100.30200,-3.31595783
100.30250,-14.60815091
100.30300,-17.35490058
100.30350,-12.77698447
100.30400,-6.673096315
100.30450,-1.484791384
100.30500,0.6515694701
100.30550,-0.8744025684
100.30600,-3.926346645
100.30650,-3.31595783
100.30700,1.261958286
100.30750,3.398319139
100.30800,0.04118065471
100.30850,-4.841929869
100.30900,-5.147124276
100.30950,-1.484791384
100.31000,2.177541509
100.31050,4.313902363
100.31100,6.145068809
100.31150,8.281429663
100.31200,8.58662407
100.31250,6.755457624
100.31300,3.703513547
100.31350,1.261958286
100.31400,1.872347101
100.31450,5.229485586
100.31500,7.976235255
100.31550,7.36584644
100.31600,4.924291178
100.31650,4.008707955
100.31700,4.313902363
100.31750,2.177541509
100.31800,-3.31595783
100.31850,-8.199068353
100.31900,-7.28348513
100.31950,-2.095180199
100.32000,2.787930324
100.32050,6.450263216
100.32100,10.11259611
100.32150,13.46973459
100.32200,13.16454019
100.32250,7.976235255
100.32300,0.04118065471
100.32350,-6.367901907
100.32400,-6.978290722
100.32450,-2.705569015
100.32500,1.261958286
100.32550,-0.8744025684
100.32600,-10.0302348
100.32650,-17.9652894
100.32700,-17.9652894
100.32750,-10.94581802
100.32800,-3.926346645
100.32850,-0.264013753
100.32900,0.6515694701
100.32950,0.6515694701
100.33000,-1.789985791
100.33050,-6.367901907
100.33100,-7.588679538
100.33150,-2.705569015
100.33200,3.703513547
100.33250,6.145068809
100.33300,3.093124732
100.33350,0.04118065471
100.33400,0.3463750624
100.33450,0.6515694701
100.33500,-1.484791384
100.33550,-3.621152238
100.33600,-1.484791384
100.33650,2.787930324
100.33700,4.008707955
100.33750,1.567152693
100.33800,-0.5692081607
100.33850,-0.264013753
100.33900,0.04118065471
100.33950,-1.484791384
100.34000,-4.536735461
100.34050,-5.452318684
100.34100,-3.621152238
100.34150,-0.5692081607
100.34200,4.924291178
100.34250,14.08012341
100.34300,22.62556682
100.34350,25.6775109
100.34400,23.84634446
100.34450,19.87881716
100.34500,16.21648426
100.34550,11.63856815
100.34600,7.060652032
100.34650,3.703513547
100.34700,0.9567638778
100.34750,-2.095180199
100.34800,-5.757513092
100.34850,-8.199068353
100.34900,-10.64062361
100.34950,-16.13412295
100.35000,-23.76398315
100.35050,-27.42631604
100.35100,-22.84839992
100.35150,-14.60815091
100.35200,-10.33542921
100.35250,-10.0302348
100.35300,-9.419845984
100.35350,-7.588679538
100.35400,-6.673096315
100.35450,-7.588679538
100.35500,-5.757513092
100.35550,0.6515694701
100.35600,8.58662407
100.35650,12.85934578
100.35700,13.16454019
100.35750,11.33337374
100.35800,7.36584644
100.35850,1.872347101
100.35900,-1.789985791
100.35950,-2.095180199
100.36000,-1.484791384
100.36050,-3.010763422
100.36100,-5.757513092
100.36150,-5.757513092
100.36200,-3.010763422
100.36250,-0.8744025684
100.36300,-0.8744025684
100.36350,0.6515694701
100.36400,5.229485586
100.36450,7.671040847
100.36500,5.229485586
100.36550,0.04118065471
100.36600,-3.31595783
100.36650,-2.705569015
100.36700,0.04118065471
100.36750,2.177541509
100.36800,1.261958286
100.36850,-2.095180199
100.36900,-4.841929869
100.36950,-3.010763422
100.37000,0.9567638778
100.37050,3.703513547
100.37100,3.703513547
100.37150,3.398319139
100.37200,2.787930324
100.37250,1.567152693
100.37300,2.177541509
100.37350,8.281429663
100.37400,17.13206749
100.37450,20.48920597
100.37500,13.46973459
100.37550,3.093124732
100.37600,-1.789985791
100.37650,0.04118065471
100.37700,3.703513547
100.37750,4.924291178
100.37800,1.261958286
100.37850,-2.705569015
100.37900,-3.010763422
100.37950,1.872347101
100.38000,6.145068809
100.38050,4.313902363
100.38100,-1.179596976
100.38150,-3.926346645
100.38200,-2.400374607
100.38250,-0.264013753
100.38300,0.04118065471
100.38350,0.3463750624
100.38400,0.04118065471
100.38450,-3.31595783
100.38500,-7.28348513
100.38550,-6.062707499
100.38600,-0.264013753
100.38650,1.567152693
100.38700,-1.484791384
100.38750,-4.841929869
100.38800,-3.010763422
100.38850,0.3463750624
100.38900,2.177541509
100.38950,4.008707955
100.39000,7.060652032
100.39050,7.060652032
100.39100,0.9567638778
100.39150,-6.367901907
100.39200,-8.809457169
100.39250,-6.673096315
100.39300,-5.147124276
100.39350,-5.757513092
100.39400,-5.147124276
100.39450,-1.179596976
100.39500,1.872347101
100.39550,2.177541509
100.39600,-0.264013753
100.39650,-2.095180199
100.39700,-2.095180199
100.39750,-2.095180199
100.39800,-3.010763422
100.39850,-3.621152238
100.39900,-2.400374607
100.39950,-0.5692081607
100.40000,-0.264013753
100.40050,-1.484791384
100.40100,-2.095180199
100.40150,-0.264013753
100.40200,2.177541509
100.40250,3.398319139
100.40300,2.482735916
100.40350,0.04118065471
100.40400,-1.789985791
100.40450,-1.789985791
100.40500,1.872347101
100.40550,7.060652032
100.40600,8.58662407
100.40650,6.145068809
100.40700,4.61909677
100.40750,5.839874401
100.40800,7.976235255
100.40850,7.060652032
100.40900,4.008707955
100.40950,2.177541509
100.41000,2.482735916
100.41050,4.313902363
100.41100,4.008707955
100.41150,-1.179596976
100.41200,-11.55620684
100.41250,-19.49126144
100.41300,-18.27048381
100.41350,-10.94581802
100.41400,-4.841929869
100.41450,-2.095180199
100.41500,0.9567638778
100.41550,5.534679993
100.41600,4.61909677
100.41650,-1.789985791
100.41700,-6.062707499
100.41750,-3.621152238
100.41800,0.9567638778
100.41850,1.872347101
100.41900,0.9567638778
100.41950,1.872347101
100.42000,1.261958286
100.42050,-2.400374607
100.42100,-4.841929869
100.42150,-1.179596976
100.42200,2.482735916
100.42250,-0.264013753
100.42300,-7.893873946
100.42350,-10.94581802
100.42400,-7.588679538
100.42450,-3.010763422
100.42500,0.3463750624
100.42550,4.313902363
100.42600,6.145068809
100.42650,0.3463750624
100.42700,-8.504262761
100.42750,-9.725040392
100.42800,-1.484791384
100.42850,4.008707955
100.42900,-0.5692081607
100.42950,-10.64062361
100.43000,-13.69256769
100.43050,-7.893873946
100.43100,-1.179596976
100.43150,0.04118065471
100.43200,-1.484791384
100.43250,-2.705569015
100.43300,-1.789985791
100.43350,0.6515694701
100.43400,1.872347101
100.43450,0.9567638778
100.43500,0.3463750624
100.43550,2.177541509
100.43600,5.229485586
100.43650,5.229485586
100.43700,3.093124732
100.43750,2.787930324
100.43800,4.008707955
100.43850,3.703513547
100.43900,0.9567638778
100.43950,0.3463750624
100.44000,3.398319139
100.44050,5.229485586
100.44100,3.093124732
100.44150,0.04118065471
100.44200,-0.264013753
100.44250,0.3463750624
100.44300,0.3463750624
100.44350,0.3463750624
100.44400,1.567152693
100.44450,2.177541509
100.44500,1.872347101
100.44550,2.482735916
100.44600,4.008707955
100.44650,3.703513547
100.44700,1.567152693
100.44750,0.9567638778
100.44800,4.008707955
100.44850,6.145068809
100.44900,4.313902363
100.44950,0.9567638778
100.45000,0.04118065471
100.45050,0.9567638778
100.45100,-0.264013753
100.45150,-3.31595783
100.45200,-3.621152238
100.45250,-1.484791384
100.45300,0.04118065471
100.45350,-0.5692081607
100.45400,-0.264013753
100.45450,0.9567638778
100.45500,1.872347101
100.45550,1.261958286
100.45600,1.261958286
100.45650,2.787930324
100.45700,3.398319139
100.45750,2.787930324
100.45800,2.787930324
100.45850,5.534679993
100.45900,8.281429663
100.45950,7.36584644
100.46000,4.313902363
100.46050,3.398319139
100.46100,4.008707955
100.46150,2.177541509
100.46200,-2.400374607
100.46250,-6.062707499
100.46300,-3.926346645
100.46350,1.872347101
100.46400,5.839874401
100.46450,5.229485586
100.46500,2.482735916
100.46550,0.3463750624
100.46600,-0.5692081607
100.46650,-1.789985791
100.46700,-3.010763422
100.46750,-3.31595783
100.46800,-1.789985791
100.46850,1.567152693
100.46900,5.229485586
100.46950,5.839874401
100.47000,3.398319139
100.47050,1.261958286
100.47100,1.261958286
100.47150,1.567152693
100.47200,-0.5692081607
100.47250,-5.757513092
100.47300,-9.725040392
100.47350,-8.504262761
100.47400,-2.705569015
100.47450,3.093124732
100.47500,5.229485586
100.47550,3.398319139
100.47600,0.04118065471
100.47650,-0.264013753
100.47700,1.872347101
100.47750,4.008707955
100.47800,4.313902363
100.47850,2.787930324
100.47900,2.177541509
100.47950,2.787930324
100.48000,2.787930324
100.48050,1.872347101
100.48100,0.6515694701
100.48150,-0.8744025684
100.48200,-3.010763422
100.48250,-4.231541053
100.48300,-3.926346645
100.48350,-4.231541053
100.48400,-6.367901907
100.48450,-8.504262761
100.48500,-8.504262761
100.48550,-7.28348513
100.48600,-6.978290722
100.48650,-6.673096315
100.48700,-4.841929869
100.48750,-2.705569015
100.48800,-2.400374607
100.48850,-3.926346645
100.48900,-3.621152238
100.48950,-0.8744025684
100.49000,2.177541509
100.49050,4.924291178
100.49100,7.671040847
100.49150,11.02817933
100.49200,13.774929
100.49250,14.08012341
100.49300,10.72298492
100.49350,2.787930324
100.49400,-4.841929869
100.49450,-6.978290722
100.49500,-2.705569015
100.49550,0.9567638778
100.49600,-0.5692081607
100.49650,-5.147124276
100.49700,-6.673096315
100.49750,-7.28348513
100.49800,-12.47179006
100.49850,-21.32242788
100.49900,-24.06917755
100.49950,-15.21853973
100.50000,0.04118065471
100.50050,11.94376256
100.50100,15.60609545
100.50150,10.11259611
100.50200,-1.484791384
100.50250,-13.38737328
100.50300,-16.74451177
100.50350,-9.419845984
100.50400,1.261958286
100.50450,6.145068809
100.50500,0.6515694701
100.50550,-9.725040392
100.50600,-17.35490058
100.50650,-17.66009499
100.50700,-12.77698447
100.50750,-6.978290722
100.50800,-2.400374607
100.50850,0.6515694701
100.50900,1.872347101
100.50950,0.6515694701
100.51000,-0.5692081607
100.51050,0.9567638778
100.51100,5.839874401
100.51150,8.281429663
100.51200,6.755457624
100.51250,5.229485586
100.51300,6.755457624
100.51350,7.976235255
100.51400,5.839874401
100.51450,4.008707955
100.51500,5.229485586
100.51550,4.924291178
100.51600,-2.095180199
100.51650,-12.16659565
100.51700,-15.21853973
100.51750,-9.419845984
100.51800,-2.400374607
100.51850,0.6515694701
100.51900,1.567152693
100.51950,3.398319139
100.52000,5.534679993
100.52050,7.671040847
100.52100,11.02817933
100.52150,12.85934578
100.52200,9.502207293
100.52250,3.398319139
100.52300,0.9567638778
100.52350,2.787930324
100.52400,2.787930324
100.52450,-0.264013753
100.52500,-1.179596976
100.52550,2.787930324
100.52600,6.755457624
100.52650,5.229485586
100.52700,1.872347101
100.52750,1.872347101
100.52800,4.008707955
100.52850,4.313902363
100.52900,2.787930324
100.52950,2.482735916
100.53000,3.703513547
100.53050,4.61909677
100.53100,4.008707955
100.53150,3.093124732
100.53200,1.872347101
100.53250,0.3463750624
100.53300,-0.8744025684
100.53350,-2.400374607
100.53400,-5.452318684
100.53450,-8.504262761
100.53500,-6.673096315
100.53550,2.482735916
100.53600,13.16454019
100.53650,16.52167867
100.53700,11.02817933
100.53750,3.703513547
100.53800,1.261958286
100.53850,3.093124732
100.53900,4.313902363
100.53950,1.567152693
100.54000,-3.010763422
100.54050,-5.757513092
100.54100,-5.147124276
100.54150,-2.705569015
100.54200,-1.179596976
100.54250,-0.5692081607
100.54300,2.482735916
100.54350,7.976235255
100.54400,10.72298492
100.54450,7.976235255
100.54500,2.482735916
100.54550,-0.5692081607
100.54600,-2.705569015
100.54650,-6.673096315
100.54700,-11.25101243
100.54750,-11.86140125
100.54800,-8.504262761
100.54850,-5.757513092
100.54900,-6.673096315
100.54950,-7.893873946
100.55000,-5.147124276
100.55050,-0.8744025684
100.55100,-0.5692081607
100.55150,-3.31595783
100.55200,-2.705569015
100.55250,3.398319139
100.55300,9.502207293
100.55350,8.58662407
100.55400,2.787930324
100.55450,0.04118065471
100.55500,1.567152693
100.55550,3.703513547
100.55600,3.398319139
100.55650,3.398319139
100.55700,5.839874401
100.55750,7.671040847
100.55800,5.839874401
100.55850,3.398319139
100.55900,5.229485586
100.55950,9.197012886
100.56000,10.72298492
100.56050,8.891818478
100.56100,6.755457624
100.56150,5.229485586
100.56200,3.093124732
100.56250,0.6515694701
100.56300,1.261958286
100.56350,4.924291178
100.56400,7.36584644
100.56450,6.145068809
100.56500,3.093124732
100.56550,1.261958286
100.56600,-1.484791384
100.56650,-7.28348513
100.56700,-13.38737328
100.56750,-14.60815091
100.56800,-10.33542921
100.56850,-3.926346645
100.56900,-0.264013753
100.56950,0.04118065471
100.57000,0.04118065471
100.57050,0.9567638778
100.57100,0.04118065471
100.57150,-6.062707499
100.57200,-15.82892855
100.57250,-21.01723348
100.57300,-15.21853973
100.57350,-3.926346645
100.57400,1.567152693
100.57450,-1.179596976
100.57500,-6.673096315
100.57550,-8.199068353
100.57600,-5.147124276
100.57650,-0.5692081607
100.57700,1.872347101
100.57750,0.6515694701
100.57800,-4.536735461
100.57850,-11.25101243
100.57900,-13.38737328
100.57950,-9.725040392
100.58000,-4.231541053
100.58050,-0.264013753
100.58100,0.9567638778
100.58150,1.567152693
100.58200,0.9567638778
100.58250,0.04118065471
100.58300,0.3463750624
100.58350,4.008707955
100.58400,7.671040847
100.58450,8.58662407
100.58500,6.145068809
100.58550,2.482735916
100.58600,0.04118065471
100.58650,-0.5692081607
100.58700,1.261958286
100.58750,3.703513547
100.58800,2.177541509
100.58850,-4.841929869
100.58900,-12.77698447
100.58950,-15.21853973
100.59000,-11.55620684
100.59050,-7.28348513
100.59100,-4.536735461
100.59150,-2.705569015
100.59200,-0.8744025684
100.59250,0.04118065471
100.59300,0.04118065471
100.59350,1.261958286
100.59400,4.008707955
100.59450,7.060652032
100.59500,7.36584644
100.59550,4.313902363
100.59600,0.04118065471
100.59650,-3.621152238
100.59700,-3.31595783
100.59750,0.9567638778
100.59800,5.839874401
100.59850,8.281429663
100.59900,9.197012886
100.59950,11.02817933
100.60000,13.46973459
100.60050,13.774929
100.60100,12.24895696
100.60150,11.02817933
100.60200,9.807401701
100.60250,6.450263216
100.60300,1.567152693
100.60350,-0.8744025684
100.60400,-2.400374607
100.60450,-6.673096315
100.60500,-12.47179006
100.60550,-13.38737328
100.60600,-7.588679538
100.60650,-2.705569015
100.60700,-4.231541053
100.60750,-8.504262761
100.60800,-8.809457169
100.60850,-6.062707499
100.60900,-4.841929869
100.60950,-3.926346645
100.61000,-0.8744025684
100.61050,1.872347101
100.61100,1.567152693
100.61150,0.6515694701
100.61200,3.093124732
100.61250,7.060652032
100.61300,7.671040847
100.61350,3.703513547
100.61400,-0.264013753
100.61450,-1.789985791
100.61500,0.3463750624
100.61550,5.229485586
100.61600,10.11259611
100.61650,10.72298492
100.61700,6.450263216
100.61750,2.787930324
100.61800,3.703513547
100.61850,5.229485586
100.61900,2.177541509
100.61950,-4.536735461
100.62000,-9.725040392
100.62050,-10.94581802
100.62100,-10.33542921
100.62150,-8.199068353
100.62200,-3.31595783
100.62250,0.9567638778
100.62300,1.872347101
100.62350,0.04118065471
100.62400,-2.095180199
100.62450,-2.705569015
100.62500,-3.31595783
100.62550,-4.231541053
100.62600,-1.789985791
100.62650,4.008707955
100.62700,10.11259611
100.62750,11.02817933
100.62800,8.281429663
100.62850,6.755457624
100.62900,9.502207293
100.62950,13.16454019
100.63000,13.774929
100.63050,11.94376256
100.63100,12.85934578
100.63150,15.30090104
100.63200,10.11259611
100.63250,-6.062707499
100.63300,-23.45878874
100.63350,-28.95228808
100.63400,-24.37437196
100.63450,-20.71203907
100.63500,-21.32242788
100.63550,-18.88087262
100.63600,-10.0302348
100.63650,-1.789985791
100.63700,0.04118065471
100.63750,0.9567638778
100.63800,4.008707955
100.63850,6.145068809
100.63900,3.703513547
100.63950,1.872347101
100.64000,4.313902363
100.64050,6.450263216
100.64100,3.093124732
100.64150,-0.5692081607
100.64200,0.9567638778
100.64250,6.450263216
100.64300,7.976235255
100.64350,5.839874401
100.64400,6.145068809
100.64450,8.891818478
100.64500,8.281429663
100.64550,5.229485586
100.64600,4.008707955
100.64650,6.450263216
100.64700,6.755457624
100.64750,3.093124732
100.64800,0.04118065471
100.64850,1.261958286
100.64900,6.755457624
100.64950,11.63856815
100.65000,11.63856815
100.65050,5.229485586
100.65100,-5.147124276
100.65150,-13.08217888
100.65200,-11.86140125
100.65250,-4.231541053
100.65300,1.567152693
100.65350,2.482735916
100.65400,0.3463750624
100.65450,-0.8744025684
100.65500,-2.400374607
100.65550,-5.147124276
100.65600,-7.28348513
100.65650,-7.28348513
100.65700,-4.536735461
100.65750,-1.179596976
100.65800,0.3463750624
100.65850,1.261958286
100.65900,1.567152693
100.65950,1.872347101
100.66000,1.567152693
100.66050,2.177541509
100.66100,7.060652032
100.66150,14.08012341
100.66200,15.91128986
100.66250,9.197012886
100.66300,0.9567638778
100.66350,-0.8744025684
100.66400,-2.400374607
100.66450,-12.16659565
100.66500,-25.900344
100.66550,-28.64709367
100.66600,-15.21853973
100.66650,0.9567638778
100.66700,6.755457624
100.66750,4.008707955
100.66800,1.261958286
100.66850,1.261958286
100.66900,2.177541509
100.66950,3.398319139
100.67000,6.145068809
100.67050,8.891818478
100.67100,7.671040847
100.67150,3.093124732
100.67200,-2.095180199
100.67250,-6.367901907
100.67300,-9.114651576
100.67350,-8.809457169
100.67400,-6.367901907
100.67450,-3.31595783
100.67500,-0.8744025684
100.67550,1.261958286
100.67600,1.567152693
100.67650,-1.179596976
100.67700,-5.147124276
100.67750,-4.841929869
100.67800,-0.264013753
100.67850,3.398319139
100.67900,2.787930324
100.67950,0.9567638778
100.68000,0.9567638778
100.68050,1.872347101
100.68100,0.9567638778
100.68150,-0.8744025684
100.68200,-2.400374607
100.68250,-2.705569015
100.68300,-1.484791384
100.68350,0.04118065471
100.68400,0.9567638778
100.68450,-0.8744025684
100.68500,-4.841929869
100.68550,-5.757513092
100.68600,-1.484791384
100.68650,4.924291178
100.68700,8.891818478
100.68750,8.281429663
100.68800,4.924291178
100.68850,1.567152693
100.68900,0.6515694701
100.68950,0.3463750624
100.69000,-1.789985791
100.69050,-6.062707499
100.69100,-6.367901907
100.69150,1.261958286
100.69200,12.24895696
100.69250,17.7424563
100.69300,16.52167867
100.69350,13.46973459
100.69400,11.94376256
100.69450,8.281429663
100.69500,0.6515694701
100.69550,-8.199068353
100.69600,-14.91334532
100.69650,-18.27048381
100.69700,-18.57567822
100.69750,-16.13412295
100.69800,-11.55620684
100.69850,-5.757513092
100.69900,0.6515694701
100.69950,7.976235255
100.70000,11.63856815
100.70050,9.807401701
100.70100,5.534679993
100.70150,4.924291178
100.70200,7.976235255
100.70250,8.891818478
100.70300,4.924291178
100.70350,0.04118065471
100.70400,-4.231541053
100.70450,-11.86140125
100.70500,-24.06917755
100.70550,-33.53020419
100.70600,-32.61462097
100.70650,-23.45878874
100.70700,-13.08217888
100.70750,-6.062707499
100.70800,-1.484791384
100.70850,2.177541509
100.70900,4.313902363
100.70950,4.61909677
100.71000,3.398319139
100.71050,1.261958286
100.71100,-0.5692081607
100.71150,-1.179596976
100.71200,0.04118065471
100.71250,1.567152693
100.71300,2.787930324
100.71350,3.703513547
100.71400,5.229485586
100.71450,6.755457624
100.71500,6.145068809
100.71550,4.313902363
100.71600,2.787930324
100.71650,2.482735916
100.71700,3.093124732
100.71750,3.398319139
100.71800,3.703513547
100.71850,4.313902363
100.71900,4.924291178
100.71950,5.534679993
100.72000,5.839874401
100.72050,6.145068809
100.72100,7.060652032
100.72150,7.976235255
100.72200,7.671040847
100.72250,5.534679993
100.72300,2.177541509
100.72350,-0.264013753
100.72400,-1.179596976
100.72450,-1.484791384
100.72500,-2.400374607
100.72550,-2.705569015
100.72600,-2.400374607
100.72650,-2.400374607
100.72700,-3.621152238
100.72750,-4.841929869
100.72800,-4.536735461
100.72850,-3.31595783
100.72900,-3.010763422
100.72950,-2.705569015
100.73000,-0.8744025684
100.73050,2.177541509
100.73100,5.839874401
100.73150,9.197012886
100.73200,12.24895696
100.73250,13.46973459
100.73300,11.02817933
100.73350,7.671040847
100.73400,6.755457624
100.73450,7.976235255
100.73500,9.197012886
100.73550,9.197012886
100.73600,7.976235255
100.73650,3.703513547
100.73700,-3.621152238
100.73750,-10.94581802
100.73800,-13.38737328
100.73850,-12.47179006
100.73900,-10.94581802
100.73950,-8.809457169
100.74000,-4.231541053
100.74050,-0.264013753
100.74100,-3.010763422
100.74150,-10.0302348
100.74200,-10.94581802
100.74250,-3.010763422
100.74300,3.703513547
100.74350,1.567152693
100.74400,-5.147124276
100.74450,-7.588679538
100.74500,-3.926346645
100.74550,-0.8744025684
100.74600,-3.31595783
100.74650,-7.893873946
100.74700,-9.725040392
100.74750,-6.673096315
100.74800,-1.179596976
100.74850,3.093124732
100.74900,5.534679993
100.74950,6.145068809
100.75000,5.229485586
100.75050,1.872347101
100.75100,-2.095180199
100.75150,-3.621152238
100.75200,0.9567638778
100.75250,8.891818478
100.75300,13.46973459
100.75350,11.94376256
100.75400,7.36584644
100.75450,1.567152693
100.75500,-6.673096315
100.75550,-14.30295651
100.75600,-15.21853973
100.75650,-8.199068353
100.75700,0.3463750624
100.75750,3.703513547
100.75800,3.093124732
100.75850,3.703513547
100.75900,4.924291178
100.75950,3.398319139
100.76000,0.04118065471
100.76050,0.04118065471
100.76100,4.313902363
100.76150,7.671040847
100.76200,6.145068809
100.76250,2.787930324
100.76300,1.261958286
100.76350,2.177541509
100.76400,2.787930324
100.76450,3.398319139
100.76500,4.313902363
100.76550,4.61909677
100.76600,1.872347101
100.76650,-0.8744025684
100.76700,-1.179596976
100.76750,0.3463750624
100.76800,-0.8744025684
100.76850,-6.673096315
100.76900,-10.64062361
100.76950,-8.199068353
100.77000,-3.010763422
100.77050,-1.484791384
100.77100,-2.705569015
100.77150,-1.789985791
100.77200,0.6515694701
100.77250,1.567152693
100.77300,-0.264013753
100.77350,-1.484791384
100.77400,1.261958286
100.77450,5.229485586
100.77500,7.060652032
100.77550,5.534679993
100.77600,2.482735916
100.77650,-0.264013753
100.77700,-2.705569015
100.77750,-3.621152238
100.77800,-2.705569015
100.77850,-1.179596976
100.77900,0.6515694701
100.77950,4.313902363
100.78000,8.281429663
100.78050,10.41779052
100.78100,10.11259611
100.78150,9.197012886
100.78200,9.502207293
100.78250,7.976235255
100.78300,1.872347101
100.78350,-4.231541053
100.78400,-5.757513092
100.78450,-1.789985791
100.78500,3.398319139
100.78550,5.839874401
100.78600,6.755457624
100.78650,7.671040847
100.78700,8.58662407
100.78750,7.976235255
100.78800,5.534679993
100.78850,2.787930324
100.78900,0.3463750624
100.78950,-0.8744025684
100.79000,-1.179596976
100.79050,-0.8744025684
100.79100,-0.8744025684
100.79150,-2.400374607
100.79200,-6.673096315
100.79250,-13.38737328
100.79300,-21.01723348
100.79350,-24.67956637
100.79400,-21.62762229
100.79450,-15.52373414
100.79500,-12.16659565
100.79550,-11.86140125
100.79600,-9.114651576
100.79650,-1.789985791
100.79700,3.703513547
100.79750,1.872347101
100.79800,-4.536735461
100.79850,-7.28348513
100.79900,-4.231541053
100.79950,-0.8744025684
100.80000,-0.5692081607
100.80050,-0.5692081607
100.80100,1.567152693
100.80150,3.398319139
100.80200,2.787930324
100.80250,0.9567638778
100.80300,0.9567638778
100.80350,2.177541509
100.80400,1.872347101
100.80450,0.3463750624
100.80500,0.3463750624
100.80550,1.567152693
100.80600,3.093124732
100.80650,4.313902363
100.80700,4.924291178
100.80750,4.008707955
100.80800,1.261958286
100.80850,-0.8744025684
100.80900,-1.789985791
100.80950,-1.484791384
100.81000,-0.8744025684
100.81050,0.04118065471
100.81100,1.872347101
100.81150,3.703513547
100.81200,2.787930324
100.81250,-0.5692081607
100.81300,-3.31595783
100.81350,-3.010763422
100.81400,0.3463750624
100.81450,5.534679993
100.81500,8.891818478
100.81550,9.197012886
100.81600,7.060652032
100.81650,4.008707955
100.81700,2.177541509
100.81750,0.9567638778
100.81800,0.04118065471
100.81850,-0.8744025684
100.81900,-1.789985791
100.81950,-1.789985791
100.82000,-0.264013753
100.82050,2.482735916
100.82100,5.839874401
100.82150,7.36584644
100.82200,5.839874401
100.82250,3.398319139
100.82300,2.177541509
100.82350,3.093124732
100.82400,4.008707955
100.82450,3.093124732
100.82500,1.261958286
100.82550,1.567152693
100.82600,4.008707955
100.82650,5.229485586
100.82700,0.9567638778
100.82750,-8.199068353
100.82800,-15.21853973
100.82850,-13.08217888
100.82900,-4.841929869
100.82950,0.04118065471
100.83000,-1.789985791
100.83050,-4.536735461
100.83100,-2.705569015
100.83150,0.9567638778
100.83200,2.177541509
100.83250,0.9567638778
100.83300,-0.264013753
100.83350,-3.31595783
100.83400,-8.809457169
100.83450,-12.77698447
100.83500,-9.725040392
100.83550,-1.179596976
100.83600,4.924291178
100.83650,7.060652032
100.83700,8.58662407
100.83750,11.94376256
100.83800,13.774929
100.83850,12.55415137
100.83900,10.11259611
100.83950,8.58662407
100.84000,6.450263216
100.84050,4.008707955
100.84100,2.787930324
100.84150,1.872347101
100.84200,-3.621152238
100.84250,-14.30295651
100.84300,-21.9328167
100.84350,-18.57567822
100.84400,-7.893873946
100.84450,-1.484791384
100.84500,-2.400374607
100.84550,-5.147124276
100.84600,-4.536735461
100.84650,-2.705569015
100.84700,-3.31595783
100.84750,-4.536735461
100.84800,-3.010763422
100.84850,1.261958286
100.84900,4.008707955
100.84950,3.703513547
100.85000,1.872347101
100.85050,0.9567638778
100.85100,-0.264013753
100.85150,-3.010763422
100.85200,-4.841929869
100.85250,-3.010763422
100.85300,1.872347101
100.85350,7.060652032
100.85400,8.58662407
100.85450,7.36584644
100.85500,5.839874401
100.85550,5.534679993
100.85600,4.008707955
100.85650,0.6515694701
100.85700,-3.010763422
100.85750,-4.841929869
100.85800,-3.926346645
100.85850,-2.400374607
100.85900,-1.484791384
100.85950,-2.095180199
100.86000,-3.010763422
100.86050,-3.926346645
100.86100,-3.31595783
100.86150,-1.484791384
100.86200,1.872347101
100.86250,8.281429663
100.86300,14.99570663
100.86350,17.43726189
100.86400,13.774929
100.86450,7.060652032
100.86500,2.482735916
100.86550,-0.264013753
100.86600,-3.926346645
100.86650,-6.673096315
100.86700,-3.31595783
100.86750,4.924291178
100.86800,10.11259611
100.86850,6.145068809
100.86900,-2.400374607
100.86950,-7.28348513
100.87000,-7.588679538
100.87050,-5.757513092
100.87100,-3.926346645
100.87150,-3.621152238
100.87200,-7.588679538
100.87250,-16.13412295
100.87300,-23.15359433
100.87350,-22.23801111
100.87400,-13.9977621
100.87450,-4.841929869
100.87500,1.261958286
100.87550,4.313902363
100.87600,4.008707955
100.87650,0.3463750624
100.87700,-1.789985791
100.87750,0.9567638778
100.87800,7.976235255
100.87850,12.55415137
100.87900,10.11259611
100.87950,4.313902363
100.88000,0.9567638778
100.88050,3.398319139
100.88100,10.11259611
100.88150,14.99570663
100.88200,13.774929
100.88250,8.281429663
100.88300,3.703513547
100.88350,2.482735916
100.88400,1.567152693
100.88450,-2.705569015
100.88500,-9.419845984
100.88550,-14.30295651
100.88600,-15.21853973
100.88650,-13.38737328
100.88700,-9.419845984
100.88750,-4.231541053
100.88800,-0.264013753
100.88850,0.3463750624
100.88900,0.6515694701
100.88950,3.093124732
100.89000,6.755457624
100.89050,9.807401701
100.89100,12.85934578
100.89150,16.82687308
100.89200,18.04765071
100.89250,10.41779052
100.89300,-3.926346645
100.89350,-17.66009499
100.89400,-22.84839992
100.89450,-19.18606703
100.89500,-11.25101243
100.89550,-4.231541053
100.89600,-2.095180199
100.89650,-5.147124276
100.89700,-7.893873946
100.89750,-5.147124276
100.89800,0.9567638778
100.89850,4.61909677
100.89900,3.093124732
100.89950,0.9567638778
100.90000,2.787930324
100.90050,5.839874401
100.90100,5.839874401
100.90150,3.703513547
100.90200,3.703513547
100.90250,5.839874401
100.90300,6.755457624
100.90350,5.534679993
100.90400,3.703513547
100.90450,3.398319139
100.90500,3.398319139
100.90550,3.093124732
100.90600,2.177541509
100.90650,1.261958286
100.90700,1.872347101
100.90750,4.313902363
100.90800,6.755457624
100.90850,5.534679993
100.90900,2.177541509
100.90950,1.261958286
100.91000,4.924291178
100.91050,7.36584644
100.91100,3.093124732
100.91150,-5.147124276
100.91200,-9.419845984
100.91250,-6.062707499
100.91300,0.3463750624
100.91350,3.703513547
100.91400,2.177541509
100.91450,-1.179596976
100.91500,-3.926346645
100.91550,-4.841929869
100.91600,-4.231541053
100.91650,-2.705569015
100.91700,-0.5692081607
100.91750,1.567152693
100.91800,3.703513547
100.91850,2.787930324
100.91900,-0.8744025684
100.91950,-3.621152238
100.92000,-2.095180199
100.92050,2.177541509
100.92100,4.924291178
100.92150,5.839874401
100.92200,6.450263216
100.92250,7.36584644
100.92300,6.755457624
100.92350,3.093124732
100.92400,-1.179596976
100.92450,-4.536735461
100.92500,-4.841929869
100.92550,-2.705569015
100.92600,0.04118065471
100.92650,1.567152693
100.92700,0.9567638778
100.92750,-0.8744025684
100.92800,-3.31595783
100.92850,-5.452318684
100.92900,-6.978290722
100.92950,-6.367901907
100.93000,-4.231541053
100.93050,-2.400374607
100.93100,-2.705569015
100.93150,-4.231541053
100.93200,-4.841929869
100.93250,-3.926346645
100.93300,-3.010763422
100.93350,-2.095180199
100.93400,-0.8744025684
100.93450,-1.179596976
100.93500,-2.705569015
100.93550,-2.705569015
100.93600,0.04118065471
100.93650,2.787930324
100.93700,1.567152693
100.93750,-3.621152238
100.93800,-6.673096315
100.93850,-4.841929869
100.93900,-1.179596976
100.93950,0.04118065471
100.94000,-0.264013753
100.94050,0.04118065471
100.94100,1.261958286
100.94150,2.177541509
100.94200,2.482735916
100.94250,4.313902363
100.94300,7.36584644
100.94350,9.197012886
100.94400,8.58662407
100.94450,5.839874401
100.94500,4.008707955
100.94550,4.313902363
100.94600,5.534679993
100.94650,4.313902363
100.94700,0.04118065471
100.94750,-4.536735461
100.94800,-4.536735461
100.94850,-1.179596976
100.94900,-0.5692081607
100.94950,-6.062707499
100.95000,-13.9977621
100.95050,-17.9652894
100.95100,-16.43931736
100.95150,-12.47179006
100.95200,-8.504262761
100.95250,-5.757513092
100.95300,-3.010763422
100.95350,-0.5692081607
100.95400,1.567152693
100.95450,5.229485586
100.95500,7.976235255
100.95550,6.450263216
100.95600,1.261958286
100.95650,-3.31595783
100.95700,-3.621152238
100.95750,0.3463750624
100.95800,5.839874401
100.95850,9.807401701
100.95900,9.807401701
100.95950,4.008707955
100.96000,-5.757513092
100.96050,-13.9977621
100.96100,-12.16659565
100.96150,-0.8744025684
100.96200,11.02817933
100.96250,15.60609545
100.96300,12.55415137
100.96350,7.671040847
100.96400,5.839874401
100.96450,5.229485586
100.96500,4.924291178
100.96550,5.229485586
100.96600,6.450263216
100.96650,4.313902363
100.96700,-4.231541053
100.96750,-15.52373414
100.96800,-21.9328167
100.96850,-19.18606703
100.96900,-9.114651576
100.96950,1.261958286
100.97000,6.145068809
100.97050,5.839874401
100.97100,4.313902363
100.97150,5.534679993
100.97200,6.450263216
100.97250,4.313902363
100.97300,0.9567638778
100.97350,2.177541509
100.97400,7.671040847
100.97450,9.502207293
100.97500,3.703513547
100.97550,-4.231541053
100.97600,-6.673096315
100.97650,-4.231541053
100.97700,-2.400374607
100.97750,-3.621152238
100.97800,-4.536735461
100.97850,-3.010763422
100.97900,0.3463750624
100.97950,4.008707955
100.98000,7.060652032
100.98050,7.976235255
100.98100,7.060652032
100.98150,6.145068809
100.98200,7.060652032
100.98250,6.755457624
100.98300,3.398319139
100.98350,0.04118065471
100.98400,-0.8744025684
100.98450,-1.179596976
100.98500,-3.621152238
100.98550,-6.062707499
100.98600,-4.536735461
100.98650,-0.8744025684
100.98700,-1.484791384
100.98750,-6.367901907
100.98800,-9.114651576
100.98850,-5.757513092
100.98900,-0.8744025684
100.98950,0.3463750624
100.99000,0.9567638778
100.99050,2.787930324
100.99100,5.534679993
100.99150,7.060652032
100.99200,7.36584644
100.99250,7.060652032
100.99300,6.145068809
100.99350,4.008707955
100.99400,2.177541509
100.99450,0.04118065471
100.99500,-3.010763422
100.99550,-7.588679538
100.99600,-9.114651576
100.99650,-5.757513092
100.99700,-1.484791384
100.99750,-0.264013753
100.99800,-3.010763422
100.99850,-5.757513092
100.99900,-6.062707499
100.99950,-3.010763422
101.00000,1.567152693
101.00050,5.839874401
101.00100,7.060652032
101.00150,5.534679993
101.00200,2.177541509
101.00250,-1.179596976
101.00300,-3.926346645
101.00350,-3.621152238
101.00400,0.3463750624
101.00450,4.924291178
101.00500,5.534679993
101.00550,3.093124732
101.00600,0.9567638778
101.00650,0.04118065471
101.00700,0.04118065471
101.00750,0.04118065471
101.00800,0.04118065471
101.00850,-1.484791384
101.00900,-7.28348513
101.00950,-11.86140125
101.01000,-7.588679538
101.01050,4.008707955
101.01100,12.85934578
101.01150,11.63856815
101.01200,6.145068809
101.01250,4.313902363
101.01300,4.924291178
101.01350,2.482735916
101.01400,-1.789985791
101.01450,-3.010763422
101.01500,-0.264013753
101.01550,0.6515694701
101.01600,0.3463750624
101.01650,3.093124732
101.01700,7.36584644
101.01750,5.534679993
101.01800,-4.231541053
101.01850,-13.08217888
101.01900,-11.25101243
101.01950,-1.789985791
101.02000,6.450263216
101.02050,9.807401701
101.02100,11.02817933
101.02150,11.94376256
101.02200,10.11259611
101.02250,4.61909677
101.02300,-0.5692081607
101.02350,-4.231541053
101.02400,-6.062707499
101.02450,-6.978290722
101.02500,-6.673096315
101.02550,-6.062707499
101.02600,-5.757513092
101.02650,-5.452318684
101.02700,-3.926346645
101.02750,-2.400374607
101.02800,-3.621152238
101.02850,-7.893873946
101.02900,-10.33542921
101.02950,-7.28348513
101.03000,-1.789985791
101.03050,0.04118065471
101.03100,-1.179596976
101.03150,-1.789985791
101.03200,0.9567638778
101.03250,4.008707955
101.03300,2.787930324
101.03350,-0.5692081607
101.03400,-1.789985791
101.03450,0.9567638778
101.03500,3.703513547
101.03550,0.9567638778
101.03600,-4.536735461
101.03650,-8.504262761
101.03700,-7.588679538
101.03750,-5.452318684
101.03800,-4.536735461
101.03850,-3.621152238
101.03900,-0.264013753
101.03950,3.093124732
101.04000,3.398319139
101.04050,0.04118065471
101.04100,-3.621152238
101.04150,-5.757513092
101.04200,-6.673096315
101.04250,-7.588679538
101.04300,-7.893873946
101.04350,-6.978290722
101.04400,-5.452318684
101.04450,-3.010763422
101.04500,0.3463750624
101.04550,2.482735916
101.04600,1.261958286
101.04650,-0.8744025684
101.04700,-0.264013753
101.04750,2.177541509
101.04800,2.482735916
101.04850,1.261958286
101.04900,2.787930324
101.04950,7.976235255
101.05000,11.94376256
101.05050,10.72298492
101.05100,7.36584644
101.05150,6.145068809
101.05200,5.229485586
101.05250,0.04118065471
101.05300,-6.367901907
101.05350,-9.419845984
101.05400,-6.367901907
101.05450,-1.179596976
101.05500,3.703513547
101.05550,7.671040847
101.05600,10.41779052
101.05650,11.63856815
101.05700,11.94376256
101.05750,11.63856815
101.05800,10.11259611
101.05850,7.671040847
101.05900,5.839874401
101.05950,7.36584644
101.06000,10.72298492
101.06050,12.24895696
101.06100,8.58662407
101.06150,-1.179596976
101.06200,-14.60815091
101.06250,-23.76398315
101.06300,-22.84839992
101.06350,-13.08217888
101.06400,-3.621152238
101.06450,-2.400374607
101.06500,-8.199068353
101.06550,-13.08217888
101.06600,-11.86140125
101.06650,-6.367901907
101.06700,-0.8744025684
101.06750,1.567152693
101.06800,2.177541509
101.06850,2.177541509
101.06900,2.177541509
101.06950,1.872347101
101.07000,1.261958286
101.07050,0.3463750624
101.07100,0.04118065471
101.07150,0.6515694701
101.07200,1.872347101
101.07250,4.008707955
101.07300,6.450263216
101.07350,7.671040847
101.07400,6.145068809
101.07450,3.093124732
101.07500,1.261958286
101.07550,1.567152693
101.07600,1.261958286
101.07650,0.04118065471
101.07700,-1.484791384
101.07750,-1.179596976
101.07800,0.04118065471
101.07850,0.04118065471
101.07900,0.04118065471
101.07950,1.872347101
101.08000,5.839874401
101.08050,8.281429663
101.08100,8.281429663
101.08150,7.36584644
101.08200,7.060652032
101.08250,6.450263216
101.08300,6.450263216
101.08350,7.060652032
101.08400,6.145068809
101.08450,0.6515694701
101.08500,-6.978290722
101.08550,-10.64062361
101.08600,-6.673096315
101.08650,-0.8744025684
101.08700,-0.5692081607
101.08750,-5.757513092
101.08800,-10.0302348
101.08850,-9.419845984
101.08900,-5.757513092
101.08950,-4.841929869
101.09000,-8.199068353
101.09050,-11.25101243
101.09100,-10.0302348
101.09150,-4.841929869
101.09200,0.9567638778
101.09250,4.008707955
101.09300,4.924291178
101.09350,5.229485586
101.09400,4.008707955
101.09450,0.3463750624
101.09500,-3.621152238
101.09550,-3.31595783
101.09600,1.872347101
101.09650,7.36584644
101.09700,7.976235255
101.09750,4.61909677
101.09800,1.261958286
101.09850,1.872347101
101.09900,6.145068809
101.09950,11.02817933
101.10000,13.16454019
101.10050,11.02817933
101.10100,6.450263216
101.10150,2.177541509
101.10200,-1.179596976
101.10250,-5.147124276
101.10300,-7.893873946
101.10350,-8.504262761
101.10400,-7.893873946
101.10450,-8.199068353
101.10500,-9.114651576
101.10550,-8.199068353
101.10600,-6.367901907
101.10650,-6.367901907
101.10700,-8.504262761
101.10750,-10.0302348
101.10800,-9.419845984
101.10850,-6.978290722
101.10900,-3.926346645
101.10950,0.04118065471
101.11000,4.61909677
101.11050,8.58662407
101.11100,9.197012886
101.11150,5.839874401
101.11200,1.261958286
101.11250,-1.484791384
101.11300,-1.484791384
101.11350,-0.8744025684
101.11400,-3.010763422
101.11450,-5.147124276
101.11500,-2.400374607
101.11550,4.313902363
101.11600,8.281429663
101.11650,5.534679993
101.11700,0.9567638778
101.11750,1.872347101
101.11800,7.060652032
101.11850,9.502207293
101.11900,8.58662407
101.11950,7.36584644
101.12000,7.671040847
101.12050,7.976235255
101.12100,8.281429663
101.12150,10.11259611
101.12200,11.94376256
101.12250,8.891818478
101.12300,-0.5692081607
101.12350,-14.30295651
101.12400,-26.81592722
101.12450,-31.08864893
101.12500,-24.98476078
101.12550,-12.77698447
101.12600,-3.31595783
101.12650,-0.8744025684
101.12700,-1.179596976
101.12750,0.3463750624
101.12800,3.093124732
101.12850,3.398319139
101.12900,2.787930324
101.12950,4.008707955
101.13000,6.755457624
101.13050,6.450263216
101.13100,3.703513547
101.13150,1.567152693
101.13200,-0.264013753
101.13250,-3.010763422
101.13300,-4.231541053
101.13350,0.04118065471
101.13400,5.534679993
101.13450,6.755457624
101.13500,3.703513547
101.13550,1.261958286
101.13600,0.3463750624
101.13650,-4.231541053
101.13700,-12.47179006
101.13750,-16.13412295
101.13800,-11.55620684
101.13850,-3.926346645
101.13900,-0.264013753
101.13950,0.3463750624
101.14000,1.872347101
101.14050,4.008707955
101.14100,3.703513547
101.14150,1.261958286
101.14200,0.3463750624
101.14250,2.177541509
101.14300,5.839874401
101.14350,8.891818478
101.14400,10.11259611
101.14450,10.41779052
101.14500,10.11259611
101.14550,10.11259611
101.14600,8.891818478
101.14650,5.839874401
101.14700,3.703513547
101.14750,2.787930324
101.14800,-0.264013753
101.14850,-9.725040392
101.14900,-20.71203907
101.14950,-23.45878874
101.15000,-15.82892855
101.15050,-5.757513092
101.15100,-1.789985791
101.15150,-1.789985791
101.15200,0.04118065471
101.15250,3.703513547
101.15300,4.924291178
101.15350,2.787930324
101.15400,1.261958286
101.15450,2.177541509
101.15500,4.008707955
101.15550,4.924291178
101.15600,5.534679993
101.15650,6.450263216
101.15700,6.450263216
101.15750,4.313902363
101.15800,0.9567638778
101.15850,-1.179596976
101.15900,-0.5692081607
101.15950,2.177541509
101.16000,6.450263216
101.16050,10.11259611
101.16100,11.33337374
101.16150,9.807401701
101.16200,6.145068809
101.16250,2.482735916
101.16300,1.261958286
101.16350,2.787930324
101.16400,3.093124732
101.16450,-1.179596976
101.16500,-8.809457169
101.16550,-13.9977621
101.16600,-13.08217888
101.16650,-7.28348513
101.16700,0.3463750624
101.16750,7.060652032
101.16800,9.197012886
101.16850,4.008707955
101.16900,-3.926346645
101.16950,-7.893873946
101.17000,-4.841929869
101.17050,0.6515694701
101.17100,4.313902363
101.17150,4.61909677
101.17200,1.872347101
101.17250,-3.621152238
101.17300,-10.33542921
101.17350,-12.77698447
101.17400,-10.33542921
101.17450,-6.673096315
101.17500,-5.757513092
101.17550,-5.757513092
101.17600,-3.010763422
101.17650,2.177541509
101.17700,6.145068809
101.17750,6.755457624
101.17800,4.313902363
101.17850,1.872347101
101.17900,1.261958286
101.17950,2.177541509
101.18000,0.9567638778
101.18050,-1.179596976
101.18100,-0.8744025684
101.18150,4.61909677
101.18200,10.11259611
101.18250,7.976235255
101.18300,0.04118065471
101.18350,-6.062707499
101.18400,-6.062707499
101.18450,-3.010763422
101.18500,-0.5692081607
101.18550,1.567152693
101.18600,3.398319139
101.18650,4.008707955
101.18700,4.313902363
101.18750,5.229485586
101.18800,4.924291178
101.18850,2.482735916
101.18900,0.04118065471
101.18950,0.6515694701
101.19000,0.9567638778
101.19050,-2.400374607
101.19100,-6.978290722
101.19150,-5.147124276
101.19200,1.567152693
101.19250,6.450263216
101.19300,6.755457624
101.19350,4.924291178
101.19400,0.3463750624
101.19450,-8.504262761
101.19500,-16.13412295
101.19550,-13.9977621
101.19600,-4.841929869
101.19650,0.04118065471
101.19700,-4.231541053
101.19750,-9.114651576
101.19800,-7.893873946
101.19850,-3.621152238
101.19900,-3.010763422
101.19950,-4.536735461
101.20000,-3.621152238
101.20050,-1.179596976
101.20100,0.04118065471
101.20150,0.04118065471
101.20200,0.9567638778
101.20250,2.482735916
101.20300,1.261958286
101.20350,-1.789985791
101.20400,-3.31595783
101.20450,-3.010763422
101.20500,-1.484791384
101.20550,0.04118065471
101.20600,1.261958286
101.20650,2.177541509
101.20700,1.567152693
101.20750,0.6515694701
101.20800,1.872347101
101.20850,4.008707955
101.20900,4.924291178
101.20950,3.703513547
101.21000,2.787930324
101.21050,3.398319139
101.21100,3.703513547
101.21150,3.093124732
101.21200,1.872347101
101.21250,1.872347101
101.21300,2.482735916
101.21350,2.482735916
101.21400,1.872347101
101.21450,1.567152693
101.21500,2.787930324
101.21550,5.229485586
101.21600,7.976235255
101.21650,9.197012886
101.21700,7.671040847
101.21750,3.703513547
101.21800,0.6515694701
101.21850,1.261958286
101.21900,4.008707955
101.21950,5.534679993
101.22000,4.313902363
101.22050,2.482735916
101.22100,2.177541509
101.22150,3.398319139
101.22200,4.313902363
101.22250,4.008707955
101.22300,3.093124732
101.22350,1.872347101
101.22400,0.3463750624
101.22450,-3.010763422
101.22500,-8.199068353
101.22550,-12.47179006
101.22600,-14.30295651
101.22650,-12.77698447
101.22700,-8.504262761
101.22750,-2.095180199
101.22800,5.229485586
101.22850,10.41779052
101.22900,9.502207293
101.22950,4.924291178
101.23000,2.177541509
101.23050,2.787930324
101.23100,4.008707955
101.23150,4.313902363
101.23200,5.839874401
101.23250,8.891818478
101.23300,10.72298492
101.23350,9.807401701
101.23400,8.58662407
101.23450,6.450263216
101.23500,0.04118065471
101.23550,-9.114651576
101.23600,-13.9977621
101.23650,-11.86140125
101.23700,-10.64062361
101.23750,-17.04970618
101.23800,-24.98476078
101.23850,-23.45878874
101.23900,-13.38737328
101.23950,-4.231541053
101.24000,-2.705569015
101.24050,-5.147124276
101.24100,-7.588679538
101.24150,-7.588679538
101.24200,-4.536735461
101.24250,0.6515694701
101.24300,3.703513547
101.24350,2.482735916
101.24400,1.567152693
101.24450,4.61909677
101.24500,8.891818478
101.24550,8.58662407
101.24600,5.534679993
101.24650,3.703513547
101.24700,2.177541509
101.24750,-1.789985791
101.24800,-6.062707499
101.24850,-3.926346645
101.24900,2.787930324
101.24950,6.755457624
101.25000,5.229485586
101.25050,2.787930324
101.25100,2.787930324
101.25150,3.703513547
101.25200,3.703513547
101.25250,3.703513547
101.25300,4.924291178
101.25350,6.145068809
101.25400,6.145068809
101.25450,6.450263216
101.25500,5.839874401
101.25550,3.703513547
101.25600,1.567152693
101.25650,0.04118065471
101.25700,-2.400374607
101.25750,-7.893873946
101.25800,-11.55620684
101.25850,-9.114651576
101.25900,-3.010763422
101.25950,-0.8744025684
101.26000,-4.841929869
101.26050,-8.809457169
101.26100,-7.588679538
101.26150,-3.31595783
101.26200,-0.5692081607
101.26250,-0.8744025684
101.26300,-0.8744025684
101.26350,0.9567638778
101.26400,4.313902363
101.26450,5.229485586
101.26500,2.482735916
101.26550,0.04118065471
101.26600,1.872347101
101.26650,6.755457624
101.26700,7.671040847
101.26750,3.093124732
101.26800,-2.095180199
101.26850,-5.757513092
101.26900,-11.55620684
101.26950,-19.79645585
101.27000,-23.15359433
101.27050,-13.9977621
101.27100,1.567152693
101.27150,11.94376256
101.27200,13.46973459
101.27250,11.94376256
101.27300,11.02817933
101.27350,9.807401701
101.27400,7.060652032
101.27450,5.534679993
101.27500,3.093124732
101.27550,-3.010763422
101.27600,-10.0302348
101.27650,-11.25101243
101.27700,-7.28348513
101.27750,-6.673096315
101.27800,-10.33542921
101.27850,-11.25101243
101.27900,-4.841929869
101.27950,2.482735916
101.28000,4.313902363
101.28050,3.703513547
101.28100,4.61909677
101.28150,4.924291178
101.28200,0.3463750624
101.28250,-5.452318684
101.28300,-7.28348513
101.28350,-6.062707499
101.28400,-6.062707499
101.28450,-8.504262761
101.28500,-8.809457169
101.28550,-5.757513092
101.28600,-1.179596976
101.28650,1.261958286
101.28700,0.9567638778
101.28750,-0.264013753
101.28800,-1.179596976
101.28850,-0.264013753
101.28900,0.9567638778
101.28950,0.9567638778
101.29000,0.6515694701
101.29050,0.9567638778
101.29100,2.177541509
101.29150,1.872347101
101.29200,2.177541509
101.29250,5.839874401
101.29300,10.41779052
101.29350,10.41779052
101.29400,5.534679993
101.29450,2.787930324
101.29500,4.313902363
101.29550,5.839874401
101.29600,4.61909677
101.29650,3.093124732
101.29700,4.008707955
101.29750,4.008707955
101.29800,1.872347101
101.29850,1.261958286
101.29900,4.924291178
101.29950,7.36584644
101.30000,2.177541509
101.30050,-7.588679538
101.30100,-13.69256769
101.30150,-11.55620684
101.30200,-3.926346645
101.30250,2.787930324
101.30300,6.145068809
101.30350,5.839874401
101.30400,3.093124732
101.30450,1.261958286
101.30500,1.261958286
101.30550,1.872347101
101.30600,0.9567638778
101.30650,-0.8744025684
101.30700,-2.705569015
101.30750,-3.31595783
101.30800,-3.621152238
101.30850,-3.010763422
101.30900,-2.095180199
101.30950,-0.8744025684
101.31000,-0.264013753
101.31050,0.04118065471
101.31100,1.261958286
101.31150,3.093124732
101.31200,3.093124732
101.31250,1.261958286
101.31300,0.04118065471
101.31350,2.787930324
101.31400,7.671040847
101.31450,10.41779052
101.31500,7.976235255
101.31550,3.398319139
101.31600,1.872347101
101.31650,4.008707955
101.31700,5.839874401
101.31750,6.450263216
101.31800,7.671040847
101.31850,10.41779052
101.31900,11.02817933
101.31950,6.450263216
101.32000,-0.5692081607
101.32050,-4.841929869
101.32100,-3.926346645
101.32150,-1.484791384
101.32200,-0.5692081607
101.32250,-1.789985791
101.32300,-3.926346645
101.32350,-6.978290722
101.32400,-10.33542921
101.32450,-11.25101243
101.32500,-8.199068353
101.32550,-3.010763422
101.32600,-1.179596976
101.32650,-5.452318684
101.32700,-10.94581802
101.32750,-10.33542921
101.32800,-2.095180199
101.32850,6.145068809
101.32900,8.58662407
101.32950,6.450263216
101.33000,4.61909677
101.33050,4.61909677
101.33100,4.008707955
101.33150,1.872347101
101.33200,0.6515694701
101.33250,0.9567638778
101.33300,1.567152693
101.33350,0.3463750624
101.33400,-1.179596976
101.33450,-2.705569015
101.33500,-3.621152238
101.33550,-4.231541053
101.33600,-3.010763422
101.33650,-0.264013753
101.33700,2.177541509
101.33750,2.787930324
101.33800,2.177541509
101.33850,1.261958286
101.33900,0.3463750624
101.33950,0.04118065471
101.34000,-0.264013753
101.34050,-2.095180199
101.34100,-3.31595783
101.34150,-1.484791384
101.34200,1.872347101
101.34250,4.008707955
101.34300,2.787930324
101.34350,0.9567638778
101.34400,1.261958286
101.34450,1.567152693
101.34500,0.04118065471
101.34550,-1.789985791
101.34600,-0.5692081607
101.34650,2.482735916
101.34700,2.787930324
101.34750,-1.179596976
101.34800,-5.147124276
101.34850,-6.062707499
101.34900,-6.062707499
101.34950,-7.588679538
101.35000,-9.725040392
101.35050,-8.504262761
101.35100,-3.926346645
101.35150,-0.264013753
101.35200,0.04118065471
101.35250,-1.179596976
101.35300,0.04118065471
101.35350,4.008707955
101.35400,6.755457624
101.35450,4.61909677
101.35500,-0.264013753
101.35550,-4.231541053
101.35600,-3.621152238
101.35650,-1.179596976
101.35700,0.9567638778
101.35750,5.839874401
101.35800,12.24895696
101.35850,14.69051222
101.35900,9.502207293
101.35950,3.093124732
101.36000,2.787930324
101.36050,7.671040847
101.36100,7.976235255
101.36150,0.04118065471
101.36200,-8.809457169
101.36250,-12.16659565
101.36300,-9.419845984
101.36350,-4.536735461
101.36400,0.04118065471
101.36450,4.008707955
101.36500,7.060652032
101.36550,7.36584644
101.36600,5.839874401
101.36650,4.313902363
101.36700,2.787930324
101.36750,1.567152693
101.36800,0.6515694701
101.36850,-0.5692081607
101.36900,-3.621152238
101.36950,-6.673096315
101.37000,-6.673096315
101.37050,-4.536735461
101.37100,-3.926346645
101.37150,-5.757513092
101.37200,-5.147124276
101.37250,-0.264013753
101.37300,5.534679993
101.37350,7.36584644
101.37400,4.61909677
101.37450,0.6515694701
101.37500,0.04118065471
101.37550,3.093124732
101.37600,7.671040847
101.37650,9.807401701
101.37700,8.891818478
101.37750,7.36584644
101.37800,7.060652032
101.37850,3.703513547
101.37900,-4.841929869
101.37950,-15.82892855
101.38000,-22.23801111
101.38050,-21.9328167
101.38100,-19.18606703
101.38150,-17.35490058
101.38200,-15.52373414
101.38250,-11.55620684
101.38300,-5.452318684
101.38350,1.261958286
101.38400,7.976235255
101.38450,11.63856815
101.38500,11.33337374
101.38550,8.891818478
101.38600,6.755457624
101.38650,4.61909677
101.38700,2.482735916
101.38750,0.9567638778
101.38800,1.872347101
101.38850,1.567152693
101.38900,-2.400374607
101.38950,-9.419845984
101.39000,-13.38737328
101.39050,-11.55620684
101.39100,-7.28348513
101.39150,-5.147124276
101.39200,-5.757513092
101.39250,-6.367901907
101.39300,-5.757513092
101.39350,-3.010763422
101.39400,0.6515694701
101.39450,4.313902363
101.39500,7.060652032
101.39550,8.891818478
101.39600,8.58662407
101.39650,4.924291178
101.39700,-0.8744025684
101.39750,-5.757513092
101.39800,-6.367901907
101.39850,-3.31595783
101.39900,-0.264013753
101.39950,0.9567638778
101.40000,1.872347101
101.40050,2.177541509
101.40100,1.567152693
101.40150,0.9567638778
101.40200,0.6515694701
101.40250,1.872347101
101.40300,4.008707955
101.40350,7.060652032
101.40400,8.891818478
101.40450,7.060652032
101.40500,1.872347101
101.40550,-2.095180199
101.40600,-1.484791384
101.40650,3.398319139
101.40700,7.976235255
101.40750,9.502207293
101.40800,6.755457624
101.40850,1.261958286
101.40900,-4.231541053
101.40950,-6.367901907
101.41000,-2.705569015
101.41050,2.787930324
101.41100,5.229485586
101.41150,2.787930324
101.41200,0.3463750624
101.41250,0.6515694701
101.41300,2.177541509
101.41350,2.482735916
101.41400,2.482735916
101.41450,2.177541509
101.41500,-1.179596976
101.41550,-8.809457169
101.41600,-13.08217888
101.41650,-9.419845984
101.41700,-0.264013753
101.41750,4.924291178
101.41800,5.534679993
101.41850,5.534679993
101.41900,7.060652032
101.41950,7.671040847
101.42000,7.060652032
101.42050,7.060652032
101.42100,7.36584644
101.42150,6.145068809
101.42200,3.398319139
101.42250,3.398319139
101.42300,4.61909677
101.42350,0.3463750624
101.42400,-9.725040392
101.42450,-18.27048381
101.42500,-17.04970618
101.42550,-10.0302348
101.42600,-6.367901907
101.42650,-7.588679538
101.42700,-9.114651576
101.42750,-7.588679538
101.42800,-4.536735461
101.42850,-3.010763422
101.42900,-2.400374607
101.42950,-2.400374607
101.43000,-2.400374607
101.43050,-2.705569015
101.43100,-1.179596976
101.43150,1.567152693
101.43200,4.008707955
101.43250,4.61909677
101.43300,4.61909677
101.43350,4.924291178
101.43400,4.61909677
101.43450,3.703513547
101.43500,2.177541509
101.43550,1.261958286
101.43600,1.261958286
101.43650,1.872347101
101.43700,2.482735916
101.43750,3.093124732
101.43800,3.093124732
101.43850,3.093124732
101.43900,2.482735916
101.43950,1.567152693
101.44000,0.9567638778
101.44050,0.6515694701
101.44100,0.6515694701
101.44150,0.6515694701
101.44200,-0.264013753
101.44250,-2.400374607
101.44300,-3.621152238
101.44350,-1.484791384
101.44400,3.398319139
101.44450,7.36584644
101.44500,7.060652032
101.44550,4.313902363
101.44600,3.093124732
101.44650,3.398319139
101.44700,1.567152693
101.44750,-3.010763422
101.44800,-6.062707499
101.44850,-3.31595783
101.44900,3.703513547
101.44950,10.11259611
101.45000,11.63856815
101.45050,7.976235255
101.45100,0.9567638778
101.45150,-6.367901907
101.45200,-12.47179006
101.45250,-14.30295651
101.45300,-11.55620684
101.45350,-5.757513092
101.45400,0.04118065471
101.45450,3.093124732
101.45500,2.177541509
101.45550,0.04118065471
101.45600,0.9567638778
101.45650,4.61909677
101.45700,6.755457624
101.45750,5.839874401
101.45800,4.313902363
101.45850,4.008707955
101.45900,2.177541509
101.45950,-0.8744025684
101.46000,-3.010763422
101.46050,-3.31595783
101.46100,-4.536735461
101.46150,-7.28348513
101.46200,-6.978290722
101.46250,-2.095180199
101.46300,1.567152693
101.46350,-0.264013753
101.46400,-4.841929869
101.46450,-5.452318684
101.46500,-2.400374607
101.46550,-0.5692081607
101.46600,0.3463750624
101.46650,4.61909677
101.46700,9.807401701
101.46750,9.502207293
101.46800,4.008707955
101.46850,1.261958286
101.46900,4.924291178
101.46950,8.58662407
101.47000,7.060652032
101.47050,2.482735916
101.47100,0.9567638778
101.47150,1.261958286
101.47200,-0.5692081607
101.47250,-4.841929869
101.47300,-6.673096315
101.47350,-5.452318684
101.47400,-2.705569015
101.47450,-0.264013753
101.47500,2.787930324
101.47550,7.060652032
101.47600,8.891818478
101.47650,5.839874401
101.47700,0.3463750624
101.47750,-3.621152238
101.47800,-3.926346645
101.47850,-1.789985791
101.47900,0.3463750624
101.47950,0.9567638778
101.48000,-0.5692081607
101.48050,-3.31595783
101.48100,-4.536735461
101.48150,-2.400374607
101.48200,0.6515694701
101.48250,2.787930324
101.48300,3.398319139
101.48350,4.313902363
101.48400,5.229485586
101.48450,3.703513547
101.48500,0.04118065471
101.48550,-3.621152238
101.48600,-4.536735461
101.48650,-3.621152238
101.48700,-3.010763422
101.48750,-4.231541053
101.48800,-6.062707499
101.48850,-6.978290722
101.48900,-5.757513092
101.48950,-1.789985791
101.49000,3.703513547
101.49050,9.197012886
101.49100,11.63856815
101.49150,9.197012886
101.49200,3.093124732
101.49250,-4.231541053
101.49300,-10.0302348
101.49350,-11.86140125
101.49400,-11.55620684
101.49450,-10.0302348
101.49500,-7.893873946
101.49550,-4.231541053
101.49600,0.3463750624
101.49650,3.703513547
101.49700,4.008707955
101.49750,1.261958286
101.49800,-2.095180199
101.49850,-3.31595783
101.49900,0.3463750624
101.49950,7.36584644
101.50000,11.94376256
101.50050,11.02817933
101.50100,7.36584644
101.50150,2.787930324
101.50200,-2.400374607
101.50250,-7.28348513
101.50300,-6.367901907
101.50350,0.04118065471
101.50400,4.008707955
101.50450,-0.8744025684
101.50500,-10.33542921
101.50550,-13.9977621
101.50600,-10.33542921
101.50650,-6.673096315
101.50700,-7.28348513
101.50750,-10.0302348
101.50800,-10.94581802
101.50850,-8.809457169
101.50900,-5.147124276
101.50950,-1.179596976
101.51000,0.3463750624
101.51050,0.6515694701
101.51100,2.482735916
101.51150,6.145068809
101.51200,7.36584644
101.51250,4.61909677
101.51300,2.482735916
101.51350,4.008707955
101.51400,4.008707955
101.51450,-1.484791384
101.51500,-7.893873946
101.51550,-6.978290722
101.51600,-1.179596976
101.51650,2.482735916
101.51700,3.703513547
101.51750,7.36584644
101.51800,12.85934578
101.51850,14.69051222
101.51900,11.94376256
101.51950,6.450263216
101.52000,0.04118065471
101.52050,-9.114651576
101.52100,-16.43931736
101.52150,-17.04970618
101.52200,-12.77698447
101.52250,-10.0302348
101.52300,-8.199068353
101.52350,-2.400374607
101.52400,6.450263216
101.52450,11.33337374
101.52500,7.976235255
101.52550,3.093124732
101.52600,1.567152693
101.52650,3.703513547
101.52700,6.450263216
101.52750,9.197012886
101.52800,9.807401701
101.52850,5.839874401
101.52900,0.04118065471
101.52950,0.04118065471
101.53000,7.36584644
101.53050,13.46973459
101.53100,11.63856815
101.53150,6.145068809
101.53200,4.61909677
101.53250,4.924291178
101.53300,0.3463750624
101.53350,-9.725040392
101.53400,-17.35490058
101.53450,-16.43931736
101.53500,-9.114651576
101.53550,-1.484791384
101.53600,3.093124732
101.53650,5.534679993
101.53700,4.61909677
101.53750,0.04118065471
101.53800,-5.452318684
101.53850,-7.28348513
101.53900,-3.621152238
101.53950,0.9567638778
101.54000,1.567152693
101.54050,-1.789985791
101.54100,-4.536735461
101.54150,-3.31595783
101.54200,-0.264013753
101.54250,0.9567638778
101.54300,0.04118065471
101.54350,-0.264013753
101.54400,0.3463750624
101.54450,1.872347101
101.54500,2.177541509
101.54550,1.261958286
101.54600,0.6515694701
101.54650,0.9567638778
101.54700,1.261958286
101.54750,0.9567638778
101.54800,0.6515694701
101.54850,0.6515694701
101.54900,0.3463750624
101.54950,-0.264013753
101.55000,-0.8744025684
101.55050,0.04118065471
101.55100,1.872347101
101.55150,2.787930324
101.55200,2.482735916
101.55250,1.872347101
101.55300,2.787930324
101.55350,4.313902363
101.55400,5.229485586
101.55450,4.008707955
101.55500,2.177541509
101.55550,0.9567638778
101.55600,1.261958286
101.55650,3.398319139
101.55700,4.61909677
101.55750,4.61909677
101.55800,4.61909677
101.55850,6.450263216
101.55900,8.891818478
101.55950,8.58662407
101.56000,7.060652032
101.56050,7.36584644
101.56100,7.36584644
101.56150,2.177541509
101.56200,-6.062707499
101.56250,-10.0302348
101.56300,-7.28348513
101.56350,-5.452318684
101.56400,-9.419845984
101.56450,-12.77698447
101.56500,-9.419845984
101.56550,-3.926346645
101.56600,-5.147124276
101.56650,-10.0302348
101.56700,-9.725040392
101.56750,-2.095180199
101.56800,4.924291178
101.56850,6.755457624
101.56900,4.924291178
101.56950,2.482735916
101.57000,-0.264013753
101.57050,-3.010763422
101.57100,-3.31595783
101.57150,-0.8744025684
101.57200,1.261958286
101.57250,2.482735916
101.57300,3.093124732
101.57350,2.482735916
101.57400,0.3463750624
101.57450,-0.8744025684
101.57500,-0.264013753
101.57550,2.177541509
101.57600,3.398319139
101.57650,2.482735916
101.57700,2.177541509
101.57750,6.450263216
101.57800,14.08012341
101.57850,19.26842834
101.57900,15.60609545
101.57950,2.177541509
101.58000,-12.16659565
101.58050,-17.35490058
101.58100,-12.47179006
101.58150,-4.536735461
101.58200,0.04118065471
101.58250,0.6515694701
101.58300,-2.400374607
101.58350,-11.55620684
101.58400,-21.01723348
101.58450,-22.23801111
101.58500,-13.69256769
101.58550,-3.31595783
101.58600,0.04118065471
101.58650,-1.179596976
101.58700,-3.010763422
101.58750,-5.147124276
101.58800,-8.809457169
101.58850,-12.77698447
101.58900,-13.08217888
101.58950,-9.419845984
101.59000,-6.367901907
101.59050,-6.062707499
101.59100,-7.28348513
101.59150,-6.978290722
101.59200,-5.147124276
101.59250,-2.400374607
101.59300,-0.264013753
101.59350,1.261958286
101.59400,4.008707955
101.59450,7.976235255
101.59500,11.33337374
101.59550,13.774929
101.59600,14.99570663
101.59650,14.38531782
101.59700,11.02817933
101.59750,6.755457624
101.59800,5.534679993
101.59850,7.671040847
101.59900,8.891818478
101.59950,6.755457624
101.60000,4.61909677
101.60050,1.872347101
101.60100,-4.536735461
101.60150,-16.13412295
101.60200,-21.9328167
101.60250,-14.30295651
101.60300,0.6515694701
101.60350,9.197012886
101.60400,5.839874401
101.60450,-0.8744025684
101.60500,-2.400374607
101.60550,0.6515694701
101.60600,4.008707955
101.60650,5.229485586
101.60700,4.924291178
101.60750,3.703513547
101.60800,2.177541509
101.60850,1.567152693
101.60900,2.177541509
101.60950,2.787930324
101.61000,2.482735916
101.61050,2.787930324
101.61100,4.008707955
101.61150,4.61909677
101.61200,4.008707955
101.61250,2.787930324
101.61300,2.787930324
101.61350,3.093124732
101.61400,3.093124732
101.61450,3.703513547
101.61500,4.61909677
101.61550,4.924291178
101.61600,3.398319139
101.61650,2.177541509
101.61700,4.008707955
101.61750,7.671040847
101.61800,8.58662407
101.61850,4.924291178
101.61900,0.9567638778
101.61950,-0.264013753
101.62000,0.3463750624
101.62050,1.872347101
101.62100,3.398319139
101.62150,4.61909677
101.62200,4.61909677
101.62250,3.398319139
101.62300,3.093124732
101.62350,2.787930324
101.62400,-0.8744025684
101.62450,-6.673096315
101.62500,-7.28348513
101.62550,-1.789985791
101.62600,2.482735916
101.62650,0.6515694701
101.62700,-0.8744025684
101.62750,4.61909677
101.62800,12.24895696
101.62850,11.33337374
101.62900,4.313902363
101.62950,1.567152693
101.63000,5.839874401
101.63050,7.060652032
101.63100,-0.264013753
101.63150,-8.809457169
101.63200,-9.419845984
101.63250,-4.536735461
101.63300,-1.484791384
101.63350,-2.400374607
101.63400,-4.536735461
101.63450,-5.757513092
101.63500,-4.841929869
101.63550,-2.400374607
101.63600,0.6515694701
101.63650,2.482735916
101.63700,1.872347101
101.63750,0.6515694701
101.63800,0.04118065471
101.63850,-1.179596976
101.63900,-3.010763422
101.63950,-5.452318684
101.64000,-9.114651576
101.64050,-13.9977621
101.64100,-17.35490058
101.64150,-13.9977621
101.64200,-6.978290722
101.64250,-3.010763422
101.64300,-4.231541053
101.64350,-5.147124276
101.64400,-1.179596976
101.64450,3.093124732
101.64500,2.787930324
101.64550,-0.5692081607
101.64600,-1.789985791
101.64650,0.3463750624
101.64700,0.9567638778
101.64750,-2.095180199
101.64800,-6.062707499
101.64850,-6.367901907
101.64900,-3.926346645
101.64950,-1.484791384
101.65000,0.3463750624
101.65050,2.177541509
101.65100,2.787930324
101.65150,1.567152693
101.65200,0.04118065471
101.65250,0.04118065471
101.65300,0.9567638778
101.65350,2.482735916
101.65400,3.398319139
101.65450,4.61909677
101.65500,6.450263216
101.65550,7.671040847
101.65600,7.36584644
101.65650,5.229485586
101.65700,0.9567638778
101.65750,-3.621152238
101.65800,-5.452318684
101.65850,-2.400374607
101.65900,3.398319139
101.65950,7.36584644
101.66000,7.060652032
101.66050,4.313902363
101.66100,1.567152693
101.66150,-0.8744025684
101.66200,-3.926346645
101.66250,-5.757513092
101.66300,-6.673096315
101.66350,-7.28348513
101.66400,-6.978290722
101.66450,-4.536735461
101.66500,0.04118065471
101.66550,3.398319139
101.66600,4.61909677
101.66650,5.534679993
101.66700,8.281429663
101.66750,12.24895696
101.66800,14.08012341
101.66850,12.85934578
101.66900,11.02817933
101.66950,9.502207293
101.67000,7.060652032
101.67050,3.398319139
101.67100,-0.264013753
101.67150,-1.484791384
101.67200,-1.179596976
101.67250,-4.536735461
101.67300,-15.82892855
101.67350,-31.39384334
101.67400,-41.16006438
101.67450,-38.71850912
101.67500,-27.73151045
101.67550,-17.9652894
101.67600,-13.08217888
101.67650,-9.725040392
101.67700,-4.536735461
101.67750,0.9567638778
101.67800,5.839874401
101.67850,8.58662407
101.67900,8.891818478
101.67950,5.839874401
101.68000,0.9567638778
101.68050,-2.095180199
101.68100,-0.5692081607
101.68150,3.398319139
101.68200,6.145068809
101.68250,6.145068809
101.68300,5.229485586
101.68350,5.229485586
101.68400,4.61909677
101.68450,2.482735916
101.68500,0.04118065471
101.68550,-1.484791384
101.68600,-0.5692081607
