"type","name","time_units","begin_time","frequency","count","units"
"signal","Ultium EMG-Ultium EMG.EMG 1","s",483.92000,2000,22000,"uV"

"time","value"
483.92000,-0.7468950597
483.92050,0.4738825711
483.92100,1.084271386
483.92150,1.694660202
483.92200,2.305049017
483.92250,3.525826648
483.92300,5.662187502
483.92350,7.493353948
483.92400,8.103742764
483.92450,6.272576317
483.92500,4.136215463
483.92550,4.136215463
483.92600,5.96738191
483.92650,6.272576317
483.92700,4.746604279
483.92750,2.610243425
483.92800,1.99985461
483.92850,2.915437833
483.92900,2.915437833
483.92950,1.084271386
483.93000,-0.441700652
483.93050,-1.357283875
483.93100,-1.967672691
483.93150,-2.883255914
483.93200,-4.104033544
483.93250,-5.019616768
483.93300,-5.935199991
483.93350,-6.850783214
483.93400,-7.461172029
483.93450,-7.766366437
483.93500,-7.461172029
483.93550,-7.155977621
483.93600,-6.240394398
483.93650,-5.935199991
483.93700,-6.240394398
483.93750,-5.935199991
483.93800,-4.104033544
483.93850,-1.357283875
483.93900,0.7790769788
483.93950,1.99985461
483.94000,3.831021056
483.94050,5.96738191
483.94100,6.577770725
483.94150,5.662187502
483.94200,4.441409871
483.94250,5.662187502
483.94300,8.103742764
483.94350,9.93490921
483.94400,10.24010362
483.94450,9.629714802
483.94500,9.019325987
483.94550,8.714131579
483.94600,8.103742764
483.94650,7.798548356
483.94700,7.493353948
483.94750,6.272576317
483.94800,5.051798687
483.94850,3.831021056
483.94900,2.915437833
483.94950,2.305049017
483.95000,1.694660202
483.95050,0.4738825711
483.95100,-1.357283875
483.95150,-3.493644729
483.95200,-4.104033544
483.95250,-3.798839137
483.95300,-4.71442236
483.95350,-5.935199991
483.95400,-6.545588806
483.95450,-5.324811175
483.95500,-4.71442236
483.95550,-5.324811175
483.95600,-6.240394398
483.95650,-5.935199991
483.95700,-4.71442236
483.95750,-4.409227952
483.95800,-5.324811175
483.95850,-5.935199991
483.95900,-5.630005583
483.95950,-4.71442236
483.96000,-3.493644729
483.96050,-1.357283875
483.96100,0.7790769788
483.96150,1.389465794
483.96200,0.4738825711
483.96250,1.084271386
483.96300,3.831021056
483.96350,6.577770725
483.96400,7.493353948
483.96450,6.882965133
483.96500,7.188159541
483.96550,8.103742764
483.96600,8.103742764
483.96650,6.882965133
483.96700,6.272576317
483.96750,6.882965133
483.96800,7.493353948
483.96850,7.188159541
483.96900,6.272576317
483.96950,5.356993094
483.97000,4.746604279
483.97050,3.831021056
483.97100,2.305049017
483.97150,0.4738825711
483.97200,-1.662478283
483.97250,-2.883255914
483.97300,-2.883255914
483.97350,-2.578061506
483.97400,-2.883255914
483.97450,-3.493644729
483.97500,-4.71442236
483.97550,-6.240394398
483.97600,-7.461172029
483.97650,-8.071560845
483.97700,-7.766366437
483.97750,-7.766366437
483.97800,-7.766366437
483.97850,-7.155977621
483.97900,-5.630005583
483.97950,-3.798839137
483.98000,-3.188450321
483.98050,-2.578061506
483.98100,-1.967672691
483.98150,-1.357283875
483.98200,-0.7468950597
483.98250,0.7790769788
483.98300,3.22063224
483.98350,4.746604279
483.98400,5.662187502
483.98450,6.882965133
483.98500,8.714131579
483.98550,9.93490921
483.98600,9.324520394
483.98650,8.714131579
483.98700,8.408937171
483.98750,6.577770725
483.98800,3.22063224
483.98850,1.084271386
483.98900,1.99985461
483.98950,4.136215463
483.99000,4.441409871
483.99050,2.915437833
483.99100,1.694660202
483.99150,0.7790769788
483.99200,-0.7468950597
483.99250,-2.272867098
483.99300,-2.272867098
483.99350,-1.967672691
483.99400,-2.883255914
483.99450,-4.409227952
483.99500,-5.324811175
483.99550,-4.409227952
483.99600,-2.578061506
483.99650,-2.272867098
483.99700,-3.493644729
483.99750,-5.324811175
483.99800,-6.240394398
483.99850,-5.630005583
483.99900,-4.71442236
483.99950,-4.71442236
484.00000,-5.630005583
484.00050,-5.019616768
484.00100,-2.883255914
484.00150,-1.357283875
484.00200,-2.272867098
484.00250,-3.188450321
484.00300,-0.7468950597
484.00350,3.525826648
484.00400,7.188159541
484.00450,8.714131579
484.00500,9.324520394
484.00550,9.93490921
484.00600,9.93490921
484.00650,9.324520394
484.00700,9.629714802
484.00750,10.24010362
484.00800,9.93490921
484.00850,8.408937171
484.00900,6.882965133
484.00950,6.577770725
484.01000,6.272576317
484.01050,5.051798687
484.01100,3.525826648
484.01150,2.610243425
484.01200,1.99985461
484.01250,0.7790769788
484.01300,-0.1365062443
484.01350,-0.7468950597
484.01400,-2.272867098
484.01450,-4.104033544
484.01500,-5.019616768
484.01550,-5.324811175
484.01600,-5.630005583
484.01650,-6.850783214
484.01700,-8.071560845
484.01750,-8.68194966
484.01800,-8.68194966
484.01850,-9.292338475
484.01900,-9.597532883
484.01950,-8.376755252
484.02000,-6.545588806
484.02050,-5.630005583
484.02100,-5.630005583
484.02150,-4.409227952
484.02200,-1.357283875
484.02250,0.4738825711
484.02300,0.1686881634
484.02350,-0.1365062443
484.02400,1.389465794
484.02450,3.525826648
484.02500,4.746604279
484.02550,5.662187502
484.02600,6.272576317
484.02650,6.577770725
484.02700,5.96738191
484.02750,5.356993094
484.02800,4.746604279
484.02850,3.831021056
484.02900,2.610243425
484.02950,1.389465794
484.03000,1.389465794
484.03050,1.389465794
484.03100,-0.1365062443
484.03150,-1.967672691
484.03200,-2.883255914
484.03250,-2.883255914
484.03300,-3.188450321
484.03350,-4.104033544
484.03400,-3.798839137
484.03450,-3.493644729
484.03500,-4.104033544
484.03550,-6.545588806
484.03600,-8.376755252
484.03650,-8.987144068
484.03700,-8.68194966
484.03750,-8.987144068
484.03800,-9.597532883
484.03850,-10.2079217
484.03900,-10.2079217
484.03950,-9.597532883
484.04000,-7.461172029
484.04050,-4.71442236
484.04100,-2.578061506
484.04150,-2.272867098
484.04200,-1.967672691
484.04250,-0.441700652
484.04300,1.99985461
484.04350,4.441409871
484.04400,5.96738191
484.04450,6.272576317
484.04500,5.662187502
484.04550,5.356993094
484.04600,5.96738191
484.04650,7.188159541
484.04700,7.493353948
484.04750,6.882965133
484.04800,6.272576317
484.04850,5.96738191
484.04900,5.96738191
484.04950,5.96738191
484.05000,5.96738191
484.05050,5.356993094
484.05100,2.915437833
484.05150,0.1686881634
484.05200,-0.1365062443
484.05250,0.1686881634
484.05300,-0.7468950597
484.05350,-3.493644729
484.05400,-5.630005583
484.05450,-5.935199991
484.05500,-6.240394398
484.05550,-8.071560845
484.05600,-9.597532883
484.05650,-10.2079217
484.05700,-10.51311611
484.05750,-11.73389374
484.05800,-11.73389374
484.05850,-9.902727291
484.05900,-6.850783214
484.05950,-5.019616768
484.06000,-5.019616768
484.06050,-5.019616768
484.06100,-4.71442236
484.06150,-3.798839137
484.06200,-2.578061506
484.06250,-0.7468950597
484.06300,0.1686881634
484.06350,1.084271386
484.06400,1.694660202
484.06450,2.610243425
484.06500,2.610243425
484.06550,1.694660202
484.06600,1.694660202
484.06650,3.22063224
484.06700,4.746604279
484.06750,4.746604279
484.06800,3.831021056
484.06850,3.525826648
484.06900,4.136215463
484.06950,3.831021056
484.07000,2.610243425
484.07050,1.99985461
484.07100,2.915437833
484.07150,3.525826648
484.07200,2.305049017
484.07250,-0.1365062443
484.07300,-1.357283875
484.07350,-1.967672691
484.07400,-2.578061506
484.07450,-3.798839137
484.07500,-5.019616768
484.07550,-5.935199991
484.07600,-6.240394398
484.07650,-6.240394398
484.07700,-5.935199991
484.07750,-5.019616768
484.07800,-4.71442236
484.07850,-5.630005583
484.07900,-6.850783214
484.07950,-6.850783214
484.08000,-5.935199991
484.08050,-4.71442236
484.08100,-3.493644729
484.08150,-2.272867098
484.08200,-1.052089467
484.08250,0.1686881634
484.08300,1.389465794
484.08350,2.915437833
484.08400,4.136215463
484.08450,5.051798687
484.08500,5.662187502
484.08550,6.882965133
484.08600,7.798548356
484.08650,7.493353948
484.08700,6.882965133
484.08750,7.798548356
484.08800,9.019325987
484.08850,9.324520394
484.08900,7.798548356
484.08950,6.882965133
484.09000,7.493353948
484.09050,8.103742764
484.09100,7.493353948
484.09150,6.272576317
484.09200,6.577770725
484.09250,6.272576317
484.09300,3.831021056
484.09350,0.1686881634
484.09400,-1.662478283
484.09450,-2.272867098
484.09500,-3.188450321
484.09550,-5.324811175
484.09600,-6.850783214
484.09650,-7.155977621
484.09700,-7.461172029
484.09750,-8.376755252
484.09800,-8.68194966
484.09850,-8.376755252
484.09900,-8.071560845
484.09950,-7.461172029
484.10000,-6.240394398
484.10050,-4.104033544
484.10100,-2.272867098
484.10150,-1.357283875
484.10200,-1.052089467
484.10250,-0.1365062443
484.10300,0.7790769788
484.10350,2.305049017
484.10400,3.831021056
484.10450,5.662187502
484.10500,7.798548356
484.10550,9.629714802
484.10600,11.46088125
484.10650,11.76607566
484.10700,10.85049243
484.10750,9.019325987
484.10800,7.493353948
484.10850,7.188159541
484.10900,7.188159541
484.10950,6.272576317
484.11000,5.356993094
484.11050,3.831021056
484.11100,1.99985461
484.11150,0.1686881634
484.11200,-0.7468950597
484.11250,-1.357283875
484.11300,-2.272867098
484.11350,-3.188450321
484.11400,-3.493644729
484.11450,-3.798839137
484.11500,-5.630005583
484.11550,-8.68194966
484.11600,-9.597532883
484.11650,-8.376755252
484.11700,-6.850783214
484.11750,-7.155977621
484.11800,-7.461172029
484.11850,-5.630005583
484.11900,-2.883255914
484.11950,-1.357283875
484.12000,-1.662478283
484.12050,-1.662478283
484.12100,-0.441700652
484.12150,0.7790769788
484.12200,1.389465794
484.12250,1.99985461
484.12300,2.610243425
484.12350,4.136215463
484.12400,5.356993094
484.12450,5.96738191
484.12500,6.272576317
484.12550,5.662187502
484.12600,5.356993094
484.12650,5.356993094
484.12700,5.356993094
484.12750,4.441409871
484.12800,3.525826648
484.12850,3.22063224
484.12900,2.610243425
484.12950,1.084271386
484.13000,-0.441700652
484.13050,-1.967672691
484.13100,-2.578061506
484.13150,-3.188450321
484.13200,-3.493644729
484.13250,-3.188450321
484.13300,-2.883255914
484.13350,-3.798839137
484.13400,-5.324811175
484.13450,-5.630005583
484.13500,-4.71442236
484.13550,-5.324811175
484.13600,-7.155977621
484.13650,-8.987144068
484.13700,-8.071560845
484.13750,-5.935199991
484.13800,-4.104033544
484.13850,-3.493644729
484.13900,-2.578061506
484.13950,-1.662478283
484.14000,-1.662478283
484.14050,-1.662478283
484.14100,-0.441700652
484.14150,1.084271386
484.14200,1.99985461
484.14250,2.305049017
484.14300,3.525826648
484.14350,5.662187502
484.14400,7.188159541
484.14450,6.272576317
484.14500,4.441409871
484.14550,3.525826648
484.14600,4.441409871
484.14650,6.577770725
484.14700,8.408937171
484.14750,8.714131579
484.14800,7.493353948
484.14850,6.272576317
484.14900,5.96738191
484.14950,6.272576317
484.15000,5.96738191
484.15050,4.441409871
484.15100,2.915437833
484.15150,2.305049017
484.15200,2.305049017
484.15250,1.694660202
484.15300,0.1686881634
484.15350,-1.052089467
484.15400,-2.272867098
484.15450,-3.493644729
484.15500,-4.71442236
484.15550,-5.630005583
484.15600,-5.630005583
484.15650,-5.630005583
484.15700,-6.545588806
484.15750,-7.461172029
484.15800,-6.850783214
484.15850,-5.019616768
484.15900,-3.798839137
484.15950,-4.104033544
484.16000,-5.324811175
484.16050,-5.630005583
484.16100,-4.71442236
484.16150,-3.188450321
484.16200,-1.662478283
484.16250,-0.1365062443
484.16300,2.305049017
484.16350,4.136215463
484.16400,5.356993094
484.16450,6.272576317
484.16500,6.272576317
484.16550,5.356993094
484.16600,4.441409871
484.16650,4.136215463
484.16700,5.356993094
484.16750,6.577770725
484.16800,7.188159541
484.16850,6.577770725
484.16900,6.272576317
484.16950,5.662187502
484.17000,5.051798687
484.17050,4.441409871
484.17100,3.831021056
484.17150,2.610243425
484.17200,0.7790769788
484.17250,-0.1365062443
484.17300,-1.052089467
484.17350,-1.967672691
484.17400,-4.104033544
484.17450,-6.545588806
484.17500,-8.376755252
484.17550,-10.51311611
484.17600,-12.64947696
484.17650,-13.25986578
484.17700,-12.34428255
484.17750,-11.12350492
484.17800,-12.03908814
484.17850,-13.56506018
484.17900,-13.87025459
484.17950,-14.48064341
484.18000,-16.31180985
484.18050,-18.44817071
484.18100,-19.66894834
484.18150,-19.97414274
484.18200,-20.27933715
484.18250,-19.05855952
484.18300,-15.39622663
484.18350,-12.64947696
484.18400,-12.95467137
484.18450,-12.34428255
484.18500,-7.461172029
484.18550,-0.1365062443
484.18600,2.305049017
484.18650,-2.272867098
484.18700,-11.42869933
484.18750,-21.19492038
484.18800,-28.21439175
484.18850,-32.18191905
484.18900,-34.31827991
484.18950,-35.53905754
484.19000,-31.87672465
484.19050,-16.92219867
484.19100,7.188159541
484.19150,34.04526742
484.19200,61.81795852
484.19250,95.69453777
484.19300,128.045145
484.19350,132.6230611
484.19400,94.47376014
484.19450,34.65565623
484.19500,-7.155977621
484.19550,-16.00661544
484.19600,-5.935199991
484.19650,3.831021056
484.19700,9.93490921
484.19750,13.90243651
484.19800,13.5972421
484.19850,7.798548356
484.19900,2.305049017
484.19950,0.7790769788
484.20000,0.1686881634
484.20050,-2.578061506
484.20100,-5.324811175
484.20150,-5.019616768
484.20200,-3.188450321
484.20250,-2.578061506
484.20300,-2.578061506
484.20350,-1.967672691
484.20400,-1.357283875
484.20450,-1.357283875
484.20500,-1.662478283
484.20550,-1.357283875
484.20600,-1.052089467
484.20650,-0.7468950597
484.20700,-0.441700652
484.20750,-0.1365062443
484.20800,-0.441700652
484.20850,-1.357283875
484.20900,-0.441700652
484.20950,0.4738825711
484.21000,-0.1365062443
484.21050,-3.188450321
484.21100,-5.935199991
484.21150,-7.155977621
484.21200,-7.155977621
484.21250,-8.68194966
484.21300,-10.81831051
484.21350,-13.56506018
484.21400,-15.39622663
484.21450,-16.00661544
484.21500,-15.39622663
484.21550,-14.175449
484.21600,-13.87025459
484.21650,-14.175449
484.21700,-13.87025459
484.21750,-13.25986578
484.21800,-12.95467137
484.21850,-12.95467137
484.21900,-12.64947696
484.21950,-11.42869933
484.22000,-9.902727291
484.22050,-8.987144068
484.22100,-8.071560845
484.22150,-6.545588806
484.22200,-4.71442236
484.22250,-2.578061506
484.22300,-1.357283875
484.22350,-0.7468950597
484.22400,-0.1365062443
484.22450,1.389465794
484.22500,3.525826648
484.22550,5.662187502
484.22600,6.882965133
484.22650,7.798548356
484.22700,8.408937171
484.22750,9.324520394
484.22800,9.629714802
484.22850,9.629714802
484.22900,9.324520394
484.22950,8.714131579
484.23000,6.882965133
484.23050,4.441409871
484.23100,2.915437833
484.23150,2.915437833
484.23200,2.915437833
484.23250,1.084271386
484.23300,-1.052089467
484.23350,-2.272867098
484.23400,-2.578061506
484.23450,-3.493644729
484.23500,-5.324811175
484.23550,-5.935199991
484.23600,-5.935199991
484.23650,-6.545588806
484.23700,-8.071560845
484.23750,-8.987144068
484.23800,-7.461172029
484.23850,-5.324811175
484.23900,-5.019616768
484.23950,-5.630005583
484.24000,-5.019616768
484.24050,-2.883255914
484.24100,-1.052089467
484.24150,-0.1365062443
484.24200,-0.1365062443
484.24250,0.7790769788
484.24300,1.694660202
484.24350,2.305049017
484.24400,3.22063224
484.24450,4.136215463
484.24500,4.441409871
484.24550,3.831021056
484.24600,4.136215463
484.24650,6.272576317
484.24700,7.798548356
484.24750,7.188159541
484.24800,5.051798687
484.24850,3.831021056
484.24900,3.831021056
484.24950,3.831021056
484.25000,2.915437833
484.25050,1.694660202
484.25100,1.084271386
484.25150,0.7790769788
484.25200,0.4738825711
484.25250,0.4738825711
484.25300,0.1686881634
484.25350,-0.1365062443
484.25400,-1.052089467
484.25450,-2.272867098
484.25500,-3.188450321
484.25550,-4.104033544
484.25600,-5.019616768
484.25650,-5.630005583
484.25700,-5.935199991
484.25750,-7.155977621
484.25800,-8.376755252
484.25850,-8.987144068
484.25900,-8.68194966
484.25950,-8.071560845
484.26000,-8.376755252
484.26050,-8.071560845
484.26100,-5.935199991
484.26150,-2.578061506
484.26200,-0.1365062443
484.26250,1.084271386
484.26300,1.99985461
484.26350,3.525826648
484.26400,5.356993094
484.26450,7.493353948
484.26500,9.019325987
484.26550,10.24010362
484.26600,10.54529803
484.26650,10.54529803
484.26700,10.54529803
484.26750,10.85049243
484.26800,10.54529803
484.26850,9.629714802
484.26900,8.408937171
484.26950,7.188159541
484.27000,5.662187502
484.27050,5.051798687
484.27100,5.356993094
484.27150,5.356993094
484.27200,3.831021056
484.27250,2.305049017
484.27300,1.99985461
484.27350,2.915437833
484.27400,3.22063224
484.27450,1.084271386
484.27500,-1.967672691
484.27550,-5.019616768
484.27600,-6.850783214
484.27650,-7.461172029
484.27700,-7.461172029
484.27750,-7.766366437
484.27800,-8.071560845
484.27850,-7.461172029
484.27900,-5.630005583
484.27950,-5.019616768
484.28000,-7.155977621
484.28050,-10.51311611
484.28100,-11.42869933
484.28150,-8.376755252
484.28200,-5.324811175
484.28250,-5.630005583
484.28300,-10.51311611
484.28350,-17.53258748
484.28400,-24.85725327
484.28450,-29.74036379
484.28500,-30.35075261
484.28550,-29.43516938
484.28600,-30.0455582
484.28650,-31.87672465
484.28700,-30.35075261
484.28750,-23.33128123
484.28800,-12.64947696
484.28850,4.441409871
484.28900,34.04526742
484.28950,71.88937397
484.29000,98.74648185
484.29050,98.44128744
484.29100,75.24651246
484.29150,48.69459899
484.29200,32.21410097
484.29250,24.88943519
484.29300,20.00632466
484.29350,15.73360296
484.29400,12.98685329
484.29450,10.54529803
484.29500,6.272576317
484.29550,1.389465794
484.29600,-2.272867098
484.29650,-5.324811175
484.29700,-7.461172029
484.29750,-8.68194966
484.29800,-9.597532883
484.29850,-10.51311611
484.29900,-11.12350492
484.29950,-10.51311611
484.30000,-10.2079217
484.30050,-10.51311611
484.30100,-10.81831051
484.30150,-9.292338475
484.30200,-6.545588806
484.30250,-4.409227952
484.30300,-3.798839137
484.30350,-4.104033544
484.30400,-4.104033544
484.30450,-3.493644729
484.30500,-1.357283875
484.30550,1.084271386
484.30600,3.22063224
484.30650,2.915437833
484.30700,0.4738825711
484.30750,-2.578061506
484.30800,-6.240394398
484.30850,-9.597532883
484.30900,-10.81831051
484.30950,-10.2079217
484.31000,-8.987144068
484.31050,-8.68194966
484.31100,-8.376755252
484.31150,-8.376755252
484.31200,-9.597532883
484.31250,-10.81831051
484.31300,-8.071560845
484.31350,0.1686881634
484.31400,10.24010362
484.31450,13.90243651
484.31500,8.714131579
484.31550,-1.052089467
484.31600,-9.292338475
484.31650,-13.87025459
484.31700,-15.39622663
484.31750,-15.09103222
484.31800,-13.25986578
484.31850,-10.81831051
484.31900,-9.292338475
484.31950,-8.987144068
484.32000,-8.987144068
484.32050,-7.766366437
484.32100,-5.019616768
484.32150,-2.272867098
484.32200,-1.052089467
484.32250,-0.7468950597
484.32300,0.1686881634
484.32350,3.22063224
484.32400,5.662187502
484.32450,5.356993094
484.32500,4.441409871
484.32550,5.356993094
484.32600,8.103742764
484.32650,10.24010362
484.32700,10.85049243
484.32750,11.15568684
484.32800,11.76607566
484.32850,12.37646447
484.32900,11.76607566
484.32950,9.93490921
484.33000,8.408937171
484.33050,7.493353948
484.33100,5.662187502
484.33150,2.610243425
484.33200,0.1686881634
484.33250,-0.441700652
484.33300,-0.1365062443
484.33350,-0.1365062443
484.33400,-1.662478283
484.33450,-2.272867098
484.33500,-1.052089467
484.33550,0.1686881634
484.33600,-0.1365062443
484.33650,-2.272867098
484.33700,-4.104033544
484.33750,-4.409227952
484.33800,-4.409227952
484.33850,-5.019616768
484.33900,-6.240394398
484.33950,-7.155977621
484.34000,-6.850783214
484.34050,-5.935199991
484.34100,-4.409227952
484.34150,-3.188450321
484.34200,-3.188450321
484.34250,-3.493644729
484.34300,-2.883255914
484.34350,-1.052089467
484.34400,1.084271386
484.34450,3.525826648
484.34500,5.96738191
484.34550,7.493353948
484.34600,8.103742764
484.34650,8.714131579
484.34700,8.714131579
484.34750,7.493353948
484.34800,5.662187502
484.34850,5.96738191
484.34900,8.103742764
484.34950,7.493353948
484.35000,1.084271386
484.35050,-5.324811175
484.35100,-5.630005583
484.35150,-0.441700652
484.35200,1.694660202
484.35250,-1.357283875
484.35300,-5.324811175
484.35350,-5.630005583
484.35400,-4.104033544
484.35450,-4.409227952
484.35500,-6.240394398
484.35550,-7.461172029
484.35600,-8.071560845
484.35650,-9.597532883
484.35700,-11.12350492
484.35750,-10.51311611
484.35800,-8.376755252
484.35850,-7.461172029
484.35900,-7.766366437
484.35950,-7.766366437
484.36000,-6.850783214
484.36050,-5.324811175
484.36100,-4.104033544
484.36150,-3.493644729
484.36200,-3.188450321
484.36250,-2.272867098
484.36300,-0.1365062443
484.36350,2.610243425
484.36400,2.915437833
484.36450,1.694660202
484.36500,1.99985461
484.36550,4.746604279
484.36600,8.103742764
484.36650,8.714131579
484.36700,7.188159541
484.36750,6.577770725
484.36800,7.188159541
484.36850,7.493353948
484.36900,7.493353948
484.36950,7.798548356
484.37000,8.103742764
484.37050,7.188159541
484.37100,5.051798687
484.37150,2.915437833
484.37200,1.389465794
484.37250,-0.1365062443
484.37300,-1.357283875
484.37350,-2.578061506
484.37400,-2.883255914
484.37450,-3.493644729
484.37500,-4.71442236
484.37550,-5.935199991
484.37600,-6.850783214
484.37650,-7.766366437
484.37700,-8.68194966
484.37750,-9.292338475
484.37800,-8.071560845
484.37850,-5.935199991
484.37900,-5.019616768
484.37950,-5.324811175
484.38000,-5.630005583
484.38050,-4.409227952
484.38100,-2.272867098
484.38150,-1.052089467
484.38200,-1.052089467
484.38250,-2.272867098
484.38300,-5.630005583
484.38350,-12.03908814
484.38400,-18.44817071
484.38450,-19.66894834
484.38500,-16.00661544
484.38550,-13.56506018
484.38600,-13.87025459
484.38650,-13.87025459
484.38700,-11.12350492
484.38750,-10.81831051
484.38800,-12.64947696
484.38850,-5.630005583
484.38900,18.17515822
484.38950,46.55823813
484.39000,55.10368155
484.39050,37.0972115
484.39100,10.24010362
484.39150,-4.104033544
484.39200,-3.493644729
484.39250,2.915437833
484.39300,8.103742764
484.39350,6.882965133
484.39400,-2.272867098
484.39450,-12.95467137
484.39500,-10.81831051
484.39550,8.714131579
484.39600,33.1296842
484.39650,42.28551643
484.39700,33.74007301
484.39750,19.09074144
484.39800,11.76607566
484.39850,13.29204769
484.39900,19.09074144
484.39950,22.44787993
484.40000,20.00632466
484.40050,12.37646447
484.40100,3.831021056
484.40150,-1.357283875
484.40200,-3.798839137
484.40250,-4.71442236
484.40300,-4.71442236
484.40350,-3.188450321
484.40400,-1.662478283
484.40450,-1.967672691
484.40500,-3.188450321
484.40550,-3.798839137
484.40600,-2.578061506
484.40650,-1.662478283
484.40700,-1.967672691
484.40750,-3.493644729
484.40800,-4.71442236
484.40850,-5.019616768
484.40900,-4.409227952
484.40950,-4.409227952
484.41000,-5.324811175
484.41050,-6.850783214
484.41100,-7.766366437
484.41150,-7.155977621
484.41200,-7.155977621
484.41250,-8.071560845
484.41300,-9.292338475
484.41350,-9.902727291
484.41400,-10.2079217
484.41450,-9.902727291
484.41500,-9.597532883
484.41550,-10.51311611
484.41600,-12.64947696
484.41650,-14.175449
484.41700,-13.56506018
484.41750,-11.42869933
484.41800,-10.2079217
484.41850,-10.51311611
484.41900,-10.81831051
484.41950,-10.51311611
484.42000,-9.597532883
484.42050,-9.292338475
484.42100,-8.987144068
484.42150,-7.766366437
484.42200,-5.324811175
484.42250,-2.578061506
484.42300,0.1686881634
484.42350,3.22063224
484.42400,5.051798687
484.42450,4.746604279
484.42500,3.831021056
484.42550,3.831021056
484.42600,5.051798687
484.42650,5.356993094
484.42700,4.136215463
484.42750,3.22063224
484.42800,3.525826648
484.42850,2.610243425
484.42900,-0.441700652
484.42950,-4.104033544
484.43000,-4.409227952
484.43050,-2.272867098
484.43100,-0.441700652
484.43150,-1.052089467
484.43200,-2.578061506
484.43250,-2.578061506
484.43300,-1.967672691
484.43350,-2.272867098
484.43400,-3.493644729
484.43450,-3.493644729
484.43500,-2.883255914
484.43550,-2.578061506
484.43600,-2.883255914
484.43650,-2.578061506
484.43700,-0.7468950597
484.43750,1.694660202
484.43800,2.915437833
484.43850,2.610243425
484.43900,1.694660202
484.43950,1.694660202
484.44000,2.610243425
484.44050,2.915437833
484.44100,1.99985461
484.44150,0.7790769788
484.44200,0.1686881634
484.44250,0.4738825711
484.44300,1.99985461
484.44350,4.136215463
484.44400,5.662187502
484.44450,5.96738191
484.44500,5.662187502
484.44550,5.662187502
484.44600,6.882965133
484.44650,7.798548356
484.44700,8.103742764
484.44750,7.798548356
484.44800,7.493353948
484.44850,7.188159541
484.44900,7.493353948
484.44950,7.493353948
484.45000,7.188159541
484.45050,5.96738191
484.45100,4.746604279
484.45150,4.746604279
484.45200,5.051798687
484.45250,4.136215463
484.45300,1.694660202
484.45350,-0.1365062443
484.45400,-0.1365062443
484.45450,-0.1365062443
484.45500,-0.7468950597
484.45550,-2.272867098
484.45600,-3.493644729
484.45650,-4.104033544
484.45700,-4.71442236
484.45750,-5.630005583
484.45800,-5.630005583
484.45850,-5.324811175
484.45900,-5.019616768
484.45950,-4.71442236
484.46000,-4.104033544
484.46050,-3.188450321
484.46100,-1.967672691
484.46150,-1.052089467
484.46200,-0.441700652
484.46250,-0.441700652
484.46300,-0.441700652
484.46350,-0.1365062443
484.46400,1.389465794
484.46450,3.22063224
484.46500,4.746604279
484.46550,4.746604279
484.46600,3.831021056
484.46650,3.22063224
484.46700,3.831021056
484.46750,5.662187502
484.46800,6.577770725
484.46850,5.96738191
484.46900,5.051798687
484.46950,5.662187502
484.47000,8.408937171
484.47050,10.24010362
484.47100,8.714131579
484.47150,5.051798687
484.47200,0.7790769788
484.47250,-2.272867098
484.47300,-5.324811175
484.47350,-8.071560845
484.47400,-9.292338475
484.47450,-9.292338475
484.47500,-8.987144068
484.47550,-9.292338475
484.47600,-9.597532883
484.47650,-9.292338475
484.47700,-9.902727291
484.47750,-10.2079217
484.47800,-9.597532883
484.47850,-7.766366437
484.47900,-6.545588806
484.47950,-6.240394398
484.48000,-5.324811175
484.48050,-3.493644729
484.48100,-2.272867098
484.48150,-2.578061506
484.48200,-3.188450321
484.48250,-1.662478283
484.48300,0.1686881634
484.48350,1.389465794
484.48400,1.694660202
484.48450,1.99985461
484.48500,2.305049017
484.48550,1.389465794
484.48600,-0.1365062443
484.48650,-0.441700652
484.48700,-0.1365062443
484.48750,0.4738825711
484.48800,1.084271386
484.48850,-0.1365062443
484.48900,-1.357283875
484.48950,0.7790769788
484.49000,9.629714802
484.49050,19.09074144
484.49100,20.00632466
484.49150,10.54529803
484.49200,-0.1365062443
484.49250,-5.324811175
484.49300,-5.935199991
484.49350,-8.071560845
484.49400,-9.597532883
484.49450,-4.104033544
484.49500,6.882965133
484.49550,14.81801973
484.49600,12.68165888
484.49650,4.136215463
484.49700,-2.272867098
484.49750,-4.104033544
484.49800,-3.798839137
484.49850,-3.798839137
484.49900,-3.493644729
484.49950,-3.493644729
484.50000,-3.493644729
484.50050,-4.104033544
484.50100,-5.630005583
484.50150,-7.766366437
484.50200,-9.902727291
484.50250,-10.2079217
484.50300,-8.071560845
484.50350,-6.240394398
484.50400,-7.155977621
484.50450,-9.597532883
484.50500,-9.292338475
484.50550,-6.545588806
484.50600,-3.493644729
484.50650,-0.1365062443
484.50700,8.408937171
484.50750,22.44787993
484.50800,32.51929538
484.50850,29.77254571
484.50900,19.09074144
484.50950,12.98685329
484.51000,15.73360296
484.51050,20.00632466
484.51100,17.5647694
484.51150,9.629714802
484.51200,2.915437833
484.51250,-0.441700652
484.51300,-3.188450321
484.51350,-6.545588806
484.51400,-10.51311611
484.51450,-14.48064341
484.51500,-16.92219867
484.51550,-15.70142104
484.51600,-8.68194966
484.51650,1.694660202
484.51700,9.019325987
484.51750,9.629714802
484.51800,6.272576317
484.51850,2.610243425
484.51900,-0.1365062443
484.51950,-2.883255914
484.52000,-5.324811175
484.52050,-6.240394398
484.52100,-5.935199991
484.52150,-5.630005583
484.52200,-6.240394398
484.52250,-6.240394398
484.52300,-4.104033544
484.52350,-0.7468950597
484.52400,1.99985461
484.52450,3.831021056
484.52500,4.441409871
484.52550,4.136215463
484.52600,3.525826648
484.52650,2.915437833
484.52700,2.915437833
484.52750,3.831021056
484.52800,4.746604279
484.52850,5.051798687
484.52900,4.441409871
484.52950,3.22063224
484.53000,2.915437833
484.53050,3.525826648
484.53100,3.831021056
484.53150,2.915437833
484.53200,1.99985461
484.53250,1.389465794
484.53300,1.389465794
484.53350,0.1686881634
484.53400,-1.052089467
484.53450,-1.967672691
484.53500,-1.967672691
484.53550,-1.967672691
484.53600,-3.493644729
484.53650,-5.324811175
484.53700,-6.545588806
484.53750,-7.155977621
484.53800,-7.766366437
484.53850,-8.987144068
484.53900,-9.597532883
484.53950,-9.292338475
484.54000,-8.376755252
484.54050,-7.461172029
484.54100,-5.935199991
484.54150,-3.798839137
484.54200,-1.967672691
484.54250,-1.662478283
484.54300,-1.967672691
484.54350,-1.357283875
484.54400,1.389465794
484.54450,4.441409871
484.54500,5.051798687
484.54550,3.831021056
484.54600,3.525826648
484.54650,5.051798687
484.54700,5.96738191
484.54750,5.662187502
484.54800,4.746604279
484.54850,4.136215463
484.54900,3.525826648
484.54950,2.610243425
484.55000,1.694660202
484.55050,1.084271386
484.55100,0.1686881634
484.55150,-0.441700652
484.55200,-0.441700652
484.55250,-0.441700652
484.55300,-1.357283875
484.55350,-3.493644729
484.55400,-5.019616768
484.55450,-5.019616768
484.55500,-5.019616768
484.55550,-6.240394398
484.55600,-7.155977621
484.55650,-7.155977621
484.55700,-6.545588806
484.55750,-7.155977621
484.55800,-7.766366437
484.55850,-7.155977621
484.55900,-5.935199991
484.55950,-5.324811175
484.56000,-5.324811175
484.56050,-4.409227952
484.56100,-1.967672691
484.56150,-0.1365062443
484.56200,0.7790769788
484.56250,1.99985461
484.56300,3.831021056
484.56350,5.356993094
484.56400,5.662187502
484.56450,5.356993094
484.56500,5.356993094
484.56550,6.272576317
484.56600,7.188159541
484.56650,8.103742764
484.56700,8.714131579
484.56750,9.019325987
484.56800,8.408937171
484.56850,7.493353948
484.56900,7.188159541
484.56950,6.272576317
484.57000,4.441409871
484.57050,1.694660202
484.57100,-0.1365062443
484.57150,-0.1365062443
484.57200,0.7790769788
484.57250,0.4738825711
484.57300,-1.052089467
484.57350,-2.578061506
484.57400,-2.578061506
484.57450,-2.883255914
484.57500,-3.798839137
484.57550,-4.71442236
484.57600,-4.71442236
484.57650,-5.019616768
484.57700,-5.935199991
484.57750,-7.461172029
484.57800,-7.461172029
484.57850,-6.850783214
484.57900,-6.240394398
484.57950,-6.240394398
484.58000,-5.935199991
484.58050,-5.019616768
484.58100,-5.019616768
484.58150,-5.630005583
484.58200,-6.240394398
484.58250,-6.545588806
484.58300,-5.935199991
484.58350,-4.409227952
484.58400,-1.967672691
484.58450,0.1686881634
484.58500,1.389465794
484.58550,1.694660202
484.58600,1.99985461
484.58650,2.915437833
484.58700,3.831021056
484.58750,3.525826648
484.58800,2.305049017
484.58850,1.389465794
484.58900,1.389465794
484.58950,1.694660202
484.59000,1.99985461
484.59050,2.305049017
484.59100,2.610243425
484.59150,2.305049017
484.59200,1.084271386
484.59250,0.1686881634
484.59300,0.1686881634
484.59350,0.4738825711
484.59400,-0.1365062443
484.59450,-2.578061506
484.59500,-4.104033544
484.59550,-4.409227952
484.59600,-3.798839137
484.59650,-4.104033544
484.59700,-5.019616768
484.59750,-5.935199991
484.59800,-6.545588806
484.59850,-6.850783214
484.59900,-7.461172029
484.59950,-8.376755252
484.60000,-8.987144068
484.60050,-8.987144068
484.60100,-7.155977621
484.60150,-4.409227952
484.60200,-3.188450321
484.60250,-4.409227952
484.60300,-6.545588806
484.60350,-7.155977621
484.60400,-5.630005583
484.60450,-3.188450321
484.60500,-0.441700652
484.60550,2.305049017
484.60600,4.136215463
484.60650,5.051798687
484.60700,6.882965133
484.60750,13.29204769
484.60800,23.05826874
484.60850,29.1621569
484.60900,27.02579604
484.60950,17.5647694
484.61000,7.798548356
484.61050,2.915437833
484.61100,2.915437833
484.61150,4.441409871
484.61200,5.356993094
484.61250,4.746604279
484.61300,3.525826648
484.61350,2.305049017
484.61400,1.084271386
484.61450,-0.1365062443
484.61500,-1.967672691
484.61550,-4.409227952
484.61600,-6.850783214
484.61650,-8.071560845
484.61700,-8.071560845
484.61750,-8.376755252
484.61800,-9.902727291
484.61850,-13.25986578
484.61900,-15.39622663
484.61950,-14.175449
484.62000,-10.51311611
484.62050,-6.850783214
484.62100,-5.324811175
484.62150,-4.409227952
484.62200,-2.883255914
484.62250,-1.357283875
484.62300,-0.7468950597
484.62350,-1.662478283
484.62400,-3.493644729
484.62450,-5.019616768
484.62500,-5.324811175
484.62550,-4.104033544
484.62600,-1.967672691
484.62650,-1.052089467
484.62700,-1.357283875
484.62750,-1.357283875
484.62800,-0.7468950597
484.62850,-1.052089467
484.62900,-0.7468950597
484.62950,4.746604279
484.63000,16.64918618
484.63050,26.41540723
484.63100,26.11021282
484.63150,16.34399177
484.63200,6.882965133
484.63250,3.525826648
484.63300,1.99985461
484.63350,-2.272867098
484.63400,-6.240394398
484.63450,-4.104033544
484.63500,3.525826648
484.63550,10.54529803
484.63600,11.76607566
484.63650,8.103742764
484.63700,3.525826648
484.63750,-0.1365062443
484.63800,-1.967672691
484.63850,-2.578061506
484.63900,-3.188450321
484.63950,-4.104033544
484.64000,-4.409227952
484.64050,-4.104033544
484.64100,-4.409227952
484.64150,-5.630005583
484.64200,-5.935199991
484.64250,-3.188450321
484.64300,-0.1365062443
484.64350,-0.1365062443
484.64400,-1.052089467
484.64450,0.1686881634
484.64500,3.831021056
484.64550,5.96738191
484.64600,6.577770725
484.64650,11.46088125
484.64700,21.5322967
484.64750,29.77254571
484.64800,28.55176808
484.64850,20.00632466
484.64900,11.15568684
484.64950,5.96738191
484.65000,1.389465794
484.65050,-4.409227952
484.65100,-10.51311611
484.65150,-14.48064341
484.65200,-16.92219867
484.65250,-19.05855952
484.65300,-20.88972597
484.65350,-20.88972597
484.65400,-19.05855952
484.65450,-18.1429763
484.65500,-19.05855952
484.65550,-17.22739308
484.65600,-5.630005583
484.65650,15.12321414
484.65700,34.65565623
484.65750,39.53876676
484.65800,28.55176808
484.65850,12.98685329
484.65900,3.525826648
484.65950,0.4738825711
484.66000,-1.052089467
484.66050,-3.798839137
484.66100,-5.324811175
484.66150,-5.019616768
484.66200,-6.240394398
484.66250,-8.68194966
484.66300,-10.2079217
484.66350,-8.376755252
484.66400,-5.630005583
484.66450,-3.493644729
484.66500,-2.272867098
484.66550,-0.441700652
484.66600,-0.1365062443
484.66650,-1.662478283
484.66700,-1.052089467
484.66750,6.577770725
484.66800,19.70113026
484.66850,27.94137926
484.66900,24.58424078
484.66950,13.90243651
484.67000,5.356993094
484.67050,2.610243425
484.67100,1.389465794
484.67150,-0.441700652
484.67200,-1.967672691
484.67250,-0.441700652
484.67300,1.389465794
484.67350,0.4738825711
484.67400,-1.662478283
484.67450,-3.493644729
484.67500,-4.409227952
484.67550,-5.935199991
484.67600,-8.071560845
484.67650,-9.292338475
484.67700,-8.376755252
484.67750,-7.461172029
484.67800,-7.766366437
484.67850,-8.071560845
484.67900,-7.766366437
484.67950,-7.766366437
484.68000,-8.071560845
484.68050,-8.376755252
484.68100,-7.461172029
484.68150,-5.630005583
484.68200,-4.104033544
484.68250,-2.883255914
484.68300,-1.662478283
484.68350,-0.7468950597
484.68400,-0.1365062443
484.68450,0.4738825711
484.68500,1.084271386
484.68550,2.305049017
484.68600,3.22063224
484.68650,3.831021056
484.68700,3.831021056
484.68750,4.136215463
484.68800,4.441409871
484.68850,5.051798687
484.68900,4.441409871
484.68950,1.694660202
484.69000,-2.272867098
484.69050,-5.019616768
484.69100,-6.240394398
484.69150,-6.850783214
484.69200,-8.071560845
484.69250,-8.68194966
484.69300,-8.376755252
484.69350,-8.68194966
484.69400,-9.597532883
484.69450,-5.935199991
484.69500,4.746604279
484.69550,17.5647694
484.69600,22.14268552
484.69650,15.42840855
484.69700,3.831021056
484.69750,-3.188450321
484.69800,-5.630005583
484.69850,-6.545588806
484.69900,-6.850783214
484.69950,-6.240394398
484.70000,-4.71442236
484.70050,-3.798839137
484.70100,-2.883255914
484.70150,-1.967672691
484.70200,-0.441700652
484.70250,0.4738825711
484.70300,1.084271386
484.70350,1.694660202
484.70400,3.22063224
484.70450,5.051798687
484.70500,6.577770725
484.70550,6.882965133
484.70600,6.272576317
484.70650,5.96738191
484.70700,7.188159541
484.70750,8.103742764
484.70800,7.188159541
484.70850,5.96738191
484.70900,5.662187502
484.70950,6.272576317
484.71000,4.746604279
484.71050,0.4738825711
484.71100,-3.493644729
484.71150,-5.019616768
484.71200,-3.493644729
484.71250,-1.662478283
484.71300,-1.662478283
484.71350,-2.272867098
484.71400,-3.493644729
484.71450,-5.019616768
484.71500,-6.545588806
484.71550,-7.461172029
484.71600,-8.071560845
484.71650,-8.071560845
484.71700,-7.766366437
484.71750,-7.461172029
484.71800,-6.850783214
484.71850,-7.155977621
484.71900,-7.766366437
484.71950,-8.68194966
484.72000,-8.68194966
484.72050,-7.766366437
484.72100,-6.850783214
484.72150,-5.324811175
484.72200,-3.188450321
484.72250,-1.052089467
484.72300,-0.1365062443
484.72350,0.1686881634
484.72400,1.389465794
484.72450,3.22063224
484.72500,3.831021056
484.72550,3.525826648
484.72600,3.831021056
484.72650,6.577770725
484.72700,8.714131579
484.72750,7.493353948
484.72800,4.441409871
484.72850,3.22063224
484.72900,4.136215463
484.72950,4.441409871
484.73000,2.915437833
484.73050,1.694660202
484.73100,1.694660202
484.73150,1.694660202
484.73200,0.7790769788
484.73250,-0.1365062443
484.73300,-1.357283875
484.73350,-2.578061506
484.73400,-4.104033544
484.73450,-5.324811175
484.73500,-6.240394398
484.73550,-6.850783214
484.73600,-6.545588806
484.73650,-5.630005583
484.73700,-5.019616768
484.73750,-5.935199991
484.73800,-7.461172029
484.73850,-7.766366437
484.73900,-7.155977621
484.73950,-6.545588806
484.74000,-6.545588806
484.74050,-6.545588806
484.74100,-6.545588806
484.74150,-6.240394398
484.74200,-5.935199991
484.74250,-5.019616768
484.74300,-4.104033544
484.74350,-2.578061506
484.74400,-0.441700652
484.74450,1.694660202
484.74500,3.22063224
484.74550,3.525826648
484.74600,3.831021056
484.74650,4.441409871
484.74700,4.441409871
484.74750,3.831021056
484.74800,3.525826648
484.74850,4.746604279
484.74900,6.272576317
484.74950,6.272576317
484.75000,5.96738191
484.75050,6.882965133
484.75100,8.714131579
484.75150,9.019325987
484.75200,7.188159541
484.75250,4.441409871
484.75300,3.22063224
484.75350,2.610243425
484.75400,1.694660202
484.75450,0.1686881634
484.75500,-0.441700652
484.75550,-0.441700652
484.75600,-0.1365062443
484.75650,-0.441700652
484.75700,-1.967672691
484.75750,-3.493644729
484.75800,-2.883255914
484.75850,-1.052089467
484.75900,-0.1365062443
484.75950,-1.662478283
484.76000,-3.188450321
484.76050,-3.188450321
484.76100,-1.662478283
484.76150,-0.1365062443
484.76200,1.389465794
484.76250,2.610243425
484.76300,3.22063224
484.76350,2.915437833
484.76400,2.915437833
484.76450,3.831021056
484.76500,5.356993094
484.76550,6.577770725
484.76600,7.798548356
484.76650,9.324520394
484.76700,10.54529803
484.76750,9.93490921
484.76800,8.714131579
484.76850,8.408937171
484.76900,8.714131579
484.76950,8.408937171
484.77000,7.798548356
484.77050,7.798548356
484.77100,8.103742764
484.77150,6.882965133
484.77200,4.136215463
484.77250,2.305049017
484.77300,1.389465794
484.77350,-1.052089467
484.77400,-5.630005583
484.77450,-8.987144068
484.77500,-8.987144068
484.77550,-7.155977621
484.77600,-8.071560845
484.77650,-11.12350492
484.77700,-13.87025459
484.77750,-14.175449
484.77800,-14.175449
484.77850,-14.48064341
484.77900,-13.87025459
484.77950,-11.42869933
484.78000,-10.2079217
484.78050,-10.51311611
484.78100,-7.155977621
484.78150,3.831021056
484.78200,19.39593585
484.78250,27.02579604
484.78300,22.44787993
484.78350,11.46088125
484.78400,4.746604279
484.78450,3.22063224
484.78500,3.22063224
484.78550,2.305049017
484.78600,3.22063224
484.78650,5.96738191
484.78700,7.188159541
484.78750,5.96738191
484.78800,4.136215463
484.78850,4.136215463
484.78900,4.136215463
484.78950,2.915437833
484.79000,1.389465794
484.79050,1.389465794
484.79100,1.99985461
484.79150,1.99985461
484.79200,1.084271386
484.79250,-0.1365062443
484.79300,-1.662478283
484.79350,-3.493644729
484.79400,-4.104033544
484.79450,-3.798839137
484.79500,-3.798839137
484.79550,-5.019616768
484.79600,-5.935199991
484.79650,-5.630005583
484.79700,-5.324811175
484.79750,-6.240394398
484.79800,-8.376755252
484.79850,-8.987144068
484.79900,-8.376755252
484.79950,-8.071560845
484.80000,-7.766366437
484.80050,-6.850783214
484.80100,-5.630005583
484.80150,-4.71442236
484.80200,-3.188450321
484.80250,-1.052089467
484.80300,0.4738825711
484.80350,-0.441700652
484.80400,-2.578061506
484.80450,-2.272867098
484.80500,-0.1365062443
484.80550,1.99985461
484.80600,2.305049017
484.80650,2.610243425
484.80700,3.831021056
484.80750,4.746604279
484.80800,4.746604279
484.80850,5.356993094
484.80900,6.577770725
484.80950,6.577770725
484.81000,4.746604279
484.81050,2.915437833
484.81100,1.389465794
484.81150,0.4738825711
484.81200,-0.7468950597
484.81250,-2.272867098
484.81300,-3.798839137
484.81350,-5.324811175
484.81400,-5.630005583
484.81450,-5.630005583
484.81500,-7.461172029
484.81550,-11.73389374
484.81600,-12.64947696
484.81650,-5.324811175
484.81700,4.441409871
484.81750,6.577770725
484.81800,-0.441700652
484.81850,-8.376755252
484.81900,-10.51311611
484.81950,-9.597532883
484.82000,-9.292338475
484.82050,-5.935199991
484.82100,5.051798687
484.82150,18.78554703
484.82200,24.88943519
484.82250,19.70113026
484.82300,8.408937171
484.82350,-0.7468950597
484.82400,-5.630005583
484.82450,-7.155977621
484.82500,-6.850783214
484.82550,-5.019616768
484.82600,-2.272867098
484.82650,-0.1365062443
484.82700,0.7790769788
484.82750,-0.1365062443
484.82800,-0.1365062443
484.82850,4.441409871
484.82900,12.37646447
484.82950,17.86996381
484.83000,17.5647694
484.83050,13.29204769
484.83100,9.629714802
484.83150,7.188159541
484.83200,4.136215463
484.83250,0.7790769788
484.83300,-0.441700652
484.83350,-0.1365062443
484.83400,-0.441700652
484.83450,-1.967672691
484.83500,-4.409227952
484.83550,-6.545588806
484.83600,-7.461172029
484.83650,-7.766366437
484.83700,-7.766366437
484.83750,-8.376755252
484.83800,-8.987144068
484.83850,-9.292338475
484.83900,-9.597532883
484.83950,-10.81831051
484.84000,-12.34428255
484.84050,-12.03908814
484.84100,-10.2079217
484.84150,-8.68194966
484.84200,-8.071560845
484.84250,-6.850783214
484.84300,-4.409227952
484.84350,-2.578061506
484.84400,-2.272867098
484.84450,-1.357283875
484.84500,0.7790769788
484.84550,3.22063224
484.84600,4.136215463
484.84650,4.136215463
484.84700,4.746604279
484.84750,5.051798687
484.84800,5.051798687
484.84850,5.356993094
484.84900,6.577770725
484.84950,5.96738191
484.85000,3.831021056
484.85050,2.305049017
484.85100,2.610243425
484.85150,2.305049017
484.85200,-0.441700652
484.85250,-3.188450321
484.85300,-3.493644729
484.85350,-3.493644729
484.85400,-5.935199991
484.85450,-10.51311611
484.85500,-13.56506018
484.85550,-12.95467137
484.85600,-10.81831051
484.85650,-9.597532883
484.85700,-11.73389374
484.85750,-18.44817071
484.85800,-25.46764208
484.85850,-26.99361412
484.85900,-23.94167005
484.85950,-22.41569801
484.86000,-21.19492038
484.86050,-11.42869933
484.86100,6.272576317
484.86150,19.39593585
484.86200,19.09074144
484.86250,17.25957499
484.86300,29.1621569
484.86350,48.38940458
484.86400,54.49329273
484.86450,41.0647388
484.86500,23.36346315
484.86550,14.20763092
484.86600,11.46088125
484.86650,7.798548356
484.86700,5.356993094
484.86750,5.96738191
484.86800,7.493353948
484.86850,5.356993094
484.86900,1.694660202
484.86950,-0.1365062443
484.87000,-0.441700652
484.87050,-2.272867098
484.87100,-4.409227952
484.87150,-4.409227952
484.87200,-3.798839137
484.87250,-5.019616768
484.87300,-6.240394398
484.87350,-5.935199991
484.87400,-5.324811175
484.87450,-5.324811175
484.87500,-5.019616768
484.87550,-3.493644729
484.87600,-2.883255914
484.87650,-3.798839137
484.87700,-5.019616768
484.87750,-5.324811175
484.87800,-5.630005583
484.87850,-6.850783214
484.87900,-7.461172029
484.87950,-6.240394398
484.88000,-5.019616768
484.88050,-5.324811175
484.88100,-6.240394398
484.88150,-5.630005583
484.88200,-4.104033544
484.88250,-2.883255914
484.88300,-1.662478283
484.88350,-0.1365062443
484.88400,1.084271386
484.88450,0.4738825711
484.88500,0.1686881634
484.88550,1.99985461
484.88600,4.441409871
484.88650,6.272576317
484.88700,6.577770725
484.88750,6.272576317
484.88800,6.272576317
484.88850,5.662187502
484.88900,5.356993094
484.88950,6.577770725
484.89000,7.798548356
484.89050,7.493353948
484.89100,5.051798687
484.89150,2.610243425
484.89200,1.389465794
484.89250,0.7790769788
484.89300,-0.441700652
484.89350,-2.578061506
484.89400,-4.104033544
484.89450,-5.019616768
484.89500,-6.240394398
484.89550,-7.766366437
484.89600,-9.597532883
484.89650,-10.2079217
484.89700,-10.81831051
484.89750,-11.73389374
484.89800,-12.64947696
484.89850,-12.64947696
484.89900,-11.12350492
484.89950,-9.902727291
484.90000,-9.902727291
484.90050,-10.2079217
484.90100,-8.987144068
484.90150,-6.240394398
484.90200,-4.104033544
484.90250,-3.188450321
484.90300,-1.357283875
484.90350,1.99985461
484.90400,4.746604279
484.90450,5.051798687
484.90500,4.136215463
484.90550,3.525826648
484.90600,2.305049017
484.90650,-0.1365062443
484.90700,-2.272867098
484.90750,-1.357283875
484.90800,1.694660202
484.90850,4.136215463
484.90900,4.746604279
484.90950,3.831021056
484.91000,1.99985461
484.91050,0.4738825711
484.91100,3.525826648
484.91150,12.68165888
484.91200,23.36346315
484.91250,27.63618486
484.91300,22.14268552
484.91350,12.07127006
484.91400,3.525826648
484.91450,-1.052089467
484.91500,-2.578061506
484.91550,-1.662478283
484.91600,-0.1365062443
484.91650,0.1686881634
484.91700,-0.441700652
484.91750,-1.662478283
484.91800,-2.272867098
484.91850,-2.883255914
484.91900,-4.71442236
484.91950,-5.935199991
484.92000,-6.240394398
484.92050,-5.935199991
484.92100,-5.935199991
484.92150,-5.630005583
484.92200,-5.630005583
484.92250,-5.019616768
484.92300,-4.71442236
484.92350,-3.188450321
484.92400,-1.662478283
484.92450,-0.441700652
484.92500,-0.1365062443
484.92550,-0.1365062443
484.92600,0.7790769788
484.92650,3.22063224
484.92700,5.356993094
484.92750,6.272576317
484.92800,5.96738191
484.92850,5.051798687
484.92900,4.441409871
484.92950,4.441409871
484.93000,4.746604279
484.93050,4.441409871
484.93100,3.831021056
484.93150,4.136215463
484.93200,4.746604279
484.93250,4.441409871
484.93300,2.915437833
484.93350,1.694660202
484.93400,2.305049017
484.93450,4.136215463
484.93500,4.441409871
484.93550,2.610243425
484.93600,0.7790769788
484.93650,-0.1365062443
484.93700,-0.7468950597
484.93750,-1.357283875
484.93800,-1.967672691
484.93850,-3.188450321
484.93900,-5.324811175
484.93950,-6.545588806
484.94000,-5.630005583
484.94050,-3.493644729
484.94100,-3.188450321
484.94150,-5.019616768
484.94200,-6.240394398
484.94250,-4.409227952
484.94300,-1.357283875
484.94350,-0.1365062443
484.94400,-0.7468950597
484.94450,-0.1365062443
484.94500,2.305049017
484.94550,5.356993094
484.94600,6.882965133
484.94650,8.103742764
484.94700,9.019325987
484.94750,9.629714802
484.94800,9.324520394
484.94850,9.629714802
484.94900,10.54529803
484.94950,10.54529803
484.95000,9.629714802
484.95050,9.019325987
484.95100,9.324520394
484.95150,9.629714802
484.95200,8.408937171
484.95250,5.662187502
484.95300,2.915437833
484.95350,0.7790769788
484.95400,-0.441700652
484.95450,-1.357283875
484.95500,-2.883255914
484.95550,-5.324811175
484.95600,-7.155977621
484.95650,-7.155977621
484.95700,-7.155977621
484.95750,-8.376755252
484.95800,-10.81831051
484.95850,-11.42869933
484.95900,-9.292338475
484.95950,-6.240394398
484.96000,-5.324811175
484.96050,-6.240394398
484.96100,-6.545588806
484.96150,-5.935199991
484.96200,-5.935199991
484.96250,-6.545588806
484.96300,-6.240394398
484.96350,-3.798839137
484.96400,-0.1365062443
484.96450,2.915437833
484.96500,5.96738191
484.96550,9.019325987
484.96600,11.46088125
484.96650,12.68165888
484.96700,12.98685329
484.96750,12.98685329
484.96800,12.68165888
484.96850,11.46088125
484.96900,9.93490921
484.96950,9.019325987
484.97000,9.019325987
484.97050,8.714131579
484.97100,7.493353948
484.97150,4.441409871
484.97200,1.389465794
484.97250,-0.7468950597
484.97300,-1.967672691
484.97350,-2.883255914
484.97400,-3.493644729
484.97450,-3.798839137
484.97500,-4.104033544
484.97550,-4.104033544
484.97600,-4.104033544
484.97650,-4.409227952
484.97700,-5.324811175
484.97750,-7.461172029
484.97800,-8.987144068
484.97850,-9.902727291
484.97900,-10.51311611
484.97950,-11.73389374
484.98000,-12.34428255
484.98050,-11.42869933
484.98100,-9.597532883
484.98150,-8.376755252
484.98200,-8.071560845
484.98250,-6.545588806
484.98300,-3.798839137
484.98350,-1.052089467
484.98400,-0.1365062443
484.98450,-0.1365062443
484.98500,0.7790769788
484.98550,3.831021056
484.98600,6.272576317
484.98650,7.188159541
484.98700,6.272576317
484.98750,5.051798687
484.98800,4.136215463
484.98850,2.915437833
484.98900,1.99985461
484.98950,1.389465794
484.99000,1.389465794
484.99050,1.389465794
484.99100,0.7790769788
484.99150,-0.441700652
484.99200,-1.967672691
484.99250,-2.883255914
484.99300,-3.188450321
484.99350,-3.493644729
484.99400,-4.409227952
484.99450,-6.240394398
484.99500,-8.68194966
484.99550,-12.64947696
484.99600,-16.31180985
484.99650,-16.92219867
484.99700,-13.87025459
484.99750,-9.292338475
484.99800,-7.155977621
484.99850,-8.68194966
484.99900,-12.34428255
484.99950,-15.09103222
485.00000,-15.09103222
485.00050,-12.34428255
485.00100,-9.292338475
485.00150,-7.461172029
485.00200,-6.850783214
485.00250,-5.935199991
485.00300,-4.409227952
485.00350,-2.578061506
485.00400,-1.662478283
485.00450,-0.1365062443
485.00500,1.694660202
485.00550,2.915437833
485.00600,1.99985461
485.00650,1.084271386
485.00700,2.305049017
485.00750,5.662187502
485.00800,7.798548356
485.00850,7.493353948
485.00900,5.96738191
485.00950,5.051798687
485.01000,5.356993094
485.01050,5.662187502
485.01100,5.662187502
485.01150,4.746604279
485.01200,3.525826648
485.01250,2.610243425
485.01300,1.99985461
485.01350,0.4738825711
485.01400,-1.662478283
485.01450,-3.188450321
485.01500,-3.188450321
485.01550,-2.578061506
485.01600,-2.578061506
485.01650,-3.493644729
485.01700,-3.798839137
485.01750,-3.493644729
485.01800,-4.409227952
485.01850,-5.630005583
485.01900,-5.324811175
485.01950,-3.188450321
485.02000,-1.357283875
485.02050,-1.052089467
485.02100,-1.357283875
485.02150,-0.1365062443
485.02200,2.610243425
485.02250,4.136215463
485.02300,4.136215463
485.02350,4.746604279
485.02400,6.577770725
485.02450,8.103742764
485.02500,8.714131579
485.02550,9.019325987
485.02600,9.324520394
485.02650,9.324520394
485.02700,8.714131579
485.02750,8.103742764
485.02800,8.408937171
485.02850,9.324520394
485.02900,9.629714802
485.02950,8.714131579
485.03000,6.882965133
485.03050,6.272576317
485.03100,7.188159541
485.03150,7.798548356
485.03200,6.882965133
485.03250,4.136215463
485.03300,1.694660202
485.03350,0.7790769788
485.03400,-0.1365062443
485.03450,-1.357283875
485.03500,-2.578061506
485.03550,-3.188450321
485.03600,-4.409227952
485.03650,-7.461172029
485.03700,-9.292338475
485.03750,-8.987144068
485.03800,-7.461172029
485.03850,-7.461172029
485.03900,-8.987144068
485.03950,-8.987144068
485.04000,-7.461172029
485.04050,-5.630005583
485.04100,-4.71442236
485.04150,-3.493644729
485.04200,-1.662478283
485.04250,0.1686881634
485.04300,2.305049017
485.04350,4.136215463
485.04400,5.662187502
485.04450,6.882965133
485.04500,8.408937171
485.04550,10.85049243
485.04600,12.37646447
485.04650,13.29204769
485.04700,13.5972421
485.04750,13.29204769
485.04800,11.46088125
485.04850,8.714131579
485.04900,7.493353948
485.04950,8.103742764
485.05000,8.714131579
485.05050,6.882965133
485.05100,4.746604279
485.05150,4.136215463
485.05200,4.441409871
485.05250,3.831021056
485.05300,1.694660202
485.05350,-0.1365062443
485.05400,-1.967672691
485.05450,-4.104033544
485.05500,-5.630005583
485.05550,-5.935199991
485.05600,-6.850783214
485.05650,-8.68194966
485.05700,-10.2079217
485.05750,-10.2079217
485.05800,-9.597532883
485.05850,-10.2079217
485.05900,-11.73389374
485.05950,-12.03908814
485.06000,-10.81831051
485.06050,-9.902727291
485.06100,-9.597532883
485.06150,-8.68194966
485.06200,-7.155977621
485.06250,-6.240394398
485.06300,-5.630005583
485.06350,-4.71442236
485.06400,-3.188450321
485.06450,-1.357283875
485.06500,-0.1365062443
485.06550,1.694660202
485.06600,3.525826648
485.06650,4.441409871
485.06700,4.746604279
485.06750,5.96738191
485.06800,7.798548356
485.06850,8.714131579
485.06900,7.493353948
485.06950,6.272576317
485.07000,6.577770725
485.07050,7.188159541
485.07100,6.882965133
485.07150,5.356993094
485.07200,3.831021056
485.07250,3.22063224
485.07300,1.99985461
485.07350,0.4738825711
485.07400,-0.441700652
485.07450,-0.7468950597
485.07500,-1.052089467
485.07550,-1.967672691
485.07600,-2.578061506
485.07650,-2.578061506
485.07700,-2.883255914
485.07750,-4.409227952
485.07800,-6.240394398
485.07850,-6.850783214
485.07900,-6.545588806
485.07950,-6.545588806
485.08000,-6.545588806
485.08050,-6.240394398
485.08100,-5.019616768
485.08150,-4.104033544
485.08200,-3.798839137
485.08250,-3.188450321
485.08300,-1.662478283
485.08350,-0.441700652
485.08400,1.084271386
485.08450,3.831021056
485.08500,7.188159541
485.08550,8.714131579
485.08600,6.882965133
485.08650,5.051798687
485.08700,5.356993094
485.08750,7.188159541
485.08800,7.798548356
485.08850,6.882965133
485.08900,5.662187502
485.08950,5.662187502
485.09000,6.272576317
485.09050,6.577770725
485.09100,6.882965133
485.09150,5.96738191
485.09200,3.831021056
485.09250,1.694660202
485.09300,0.7790769788
485.09350,0.1686881634
485.09400,-0.441700652
485.09450,-1.662478283
485.09500,-1.967672691
485.09550,-2.272867098
485.09600,-4.104033544
485.09650,-6.240394398
485.09700,-7.155977621
485.09750,-5.935199991
485.09800,-5.324811175
485.09850,-6.545588806
485.09900,-7.766366437
485.09950,-7.155977621
485.10000,-5.324811175
485.10050,-3.798839137
485.10100,-2.883255914
485.10150,-1.967672691
485.10200,-1.357283875
485.10250,-1.357283875
485.10300,-1.052089467
485.10350,-0.1365062443
485.10400,0.7790769788
485.10450,0.7790769788
485.10500,0.7790769788
485.10550,1.389465794
485.10600,1.99985461
485.10650,1.694660202
485.10700,0.7790769788
485.10750,0.1686881634
485.10800,0.1686881634
485.10850,0.4738825711
485.10900,1.084271386
485.10950,2.610243425
485.11000,3.525826648
485.11050,3.22063224
485.11100,1.99985461
485.11150,0.4738825711
485.11200,-0.1365062443
485.11250,-1.052089467
485.11300,-1.967672691
485.11350,-2.883255914
485.11400,-2.883255914
485.11450,-2.883255914
485.11500,-3.798839137
485.11550,-5.019616768
485.11600,-5.935199991
485.11650,-6.545588806
485.11700,-7.461172029
485.11750,-8.071560845
485.11800,-7.155977621
485.11850,-5.324811175
485.11900,-4.104033544
485.11950,-4.409227952
485.12000,-5.324811175
485.12050,-5.630005583
485.12100,-5.019616768
485.12150,-4.104033544
485.12200,-2.883255914
485.12250,-1.357283875
485.12300,0.4738825711
485.12350,1.99985461
485.12400,2.915437833
485.12450,4.136215463
485.12500,5.96738191
485.12550,7.493353948
485.12600,8.714131579
485.12650,9.019325987
485.12700,8.408937171
485.12750,8.103742764
485.12800,8.408937171
485.12850,10.24010362
485.12900,12.07127006
485.12950,11.76607566
485.13000,9.019325987
485.13050,5.662187502
485.13100,3.525826648
485.13150,2.305049017
485.13200,0.7790769788
485.13250,-0.441700652
485.13300,-1.662478283
485.13350,-2.272867098
485.13400,-2.883255914
485.13450,-4.409227952
485.13500,-6.240394398
485.13550,-7.766366437
485.13600,-8.68194966
485.13650,-9.292338475
485.13700,-10.2079217
485.13750,-11.73389374
485.13800,-12.64947696
485.13850,-12.34428255
485.13900,-10.81831051
485.13950,-9.597532883
485.14000,-9.292338475
485.14050,-9.292338475
485.14100,-9.292338475
485.14150,-7.461172029
485.14200,-4.71442236
485.14250,-3.188450321
485.14300,-3.188450321
485.14350,-3.188450321
485.14400,-1.357283875
485.14450,1.389465794
485.14500,3.525826648
485.14550,4.746604279
485.14600,5.051798687
485.14650,5.662187502
485.14700,6.577770725
485.14750,7.798548356
485.14800,9.019325987
485.14850,9.93490921
485.14900,10.24010362
485.14950,9.93490921
485.15000,9.629714802
485.15050,9.019325987
485.15100,7.493353948
485.15150,5.662187502
485.15200,4.441409871
485.15250,3.22063224
485.15300,1.389465794
485.15350,-0.1365062443
485.15400,-1.357283875
485.15450,-1.662478283
485.15500,-1.967672691
485.15550,-3.493644729
485.15600,-5.324811175
485.15650,-7.155977621
485.15700,-8.376755252
485.15750,-9.292338475
485.15800,-9.292338475
485.15850,-8.071560845
485.15900,-7.766366437
485.15950,-8.376755252
485.16000,-9.292338475
485.16050,-8.376755252
485.16100,-6.240394398
485.16150,-5.019616768
485.16200,-5.019616768
485.16250,-4.104033544
485.16300,-1.052089467
485.16350,1.694660202
485.16400,3.22063224
485.16450,3.22063224
485.16500,3.831021056
485.16550,5.356993094
485.16600,6.577770725
485.16650,7.188159541
485.16700,7.188159541
485.16750,7.188159541
485.16800,6.882965133
485.16850,6.272576317
485.16900,5.96738191
485.16950,5.356993094
485.17000,4.441409871
485.17050,3.525826648
485.17100,3.831021056
485.17150,4.441409871
485.17200,3.831021056
485.17250,2.305049017
485.17300,1.694660202
485.17350,1.389465794
485.17400,0.4738825711
485.17450,-0.441700652
485.17500,-1.052089467
485.17550,-0.441700652
485.17600,-0.7468950597
485.17650,-2.578061506
485.17700,-4.104033544
485.17750,-4.409227952
485.17800,-5.324811175
485.17850,-7.155977621
485.17900,-8.987144068
485.17950,-9.292338475
485.18000,-9.597532883
485.18050,-10.2079217
485.18100,-9.597532883
485.18150,-7.155977621
485.18200,-4.71442236
485.18250,-4.104033544
485.18300,-4.104033544
485.18350,-2.883255914
485.18400,-0.7468950597
485.18450,0.4738825711
485.18500,1.389465794
485.18550,3.22063224
485.18600,5.356993094
485.18650,5.96738191
485.18700,5.356993094
485.18750,5.356993094
485.18800,6.882965133
485.18850,8.103742764
485.18900,7.798548356
485.18950,7.188159541
485.19000,8.408937171
485.19050,11.15568684
485.19100,13.29204769
485.19150,12.37646447
485.19200,9.324520394
485.19250,6.577770725
485.19300,5.662187502
485.19350,5.662187502
485.19400,4.746604279
485.19450,2.610243425
485.19500,0.1686881634
485.19550,-1.357283875
485.19600,-2.578061506
485.19650,-3.188450321
485.19700,-3.493644729
485.19750,-3.798839137
485.19800,-4.71442236
485.19850,-6.240394398
485.19900,-7.461172029
485.19950,-7.461172029
485.20000,-6.850783214
485.20050,-6.240394398
485.20100,-5.630005583
485.20150,-5.019616768
485.20200,-4.409227952
485.20250,-3.493644729
485.20300,-2.272867098
485.20350,-1.357283875
485.20400,-1.357283875
485.20450,-1.052089467
485.20500,-0.1365062443
485.20550,2.610243425
485.20600,4.746604279
485.20650,4.746604279
485.20700,3.831021056
485.20750,3.525826648
485.20800,3.831021056
485.20850,3.831021056
485.20900,3.22063224
485.20950,3.22063224
485.21000,3.525826648
485.21050,3.525826648
485.21100,3.22063224
485.21150,3.525826648
485.21200,4.441409871
485.21250,5.96738191
485.21300,6.577770725
485.21350,6.272576317
485.21400,5.356993094
485.21450,4.441409871
485.21500,3.831021056
485.21550,2.610243425
485.21600,1.389465794
485.21650,0.1686881634
485.21700,-0.7468950597
485.21750,-2.272867098
485.21800,-4.104033544
485.21850,-5.630005583
485.21900,-5.935199991
485.21950,-5.324811175
485.22000,-5.019616768
485.22050,-5.324811175
485.22100,-5.630005583
485.22150,-4.409227952
485.22200,-2.883255914
485.22250,-2.883255914
485.22300,-3.798839137
485.22350,-4.104033544
485.22400,-3.493644729
485.22450,-2.272867098
485.22500,-1.662478283
485.22550,-0.1365062443
485.22600,1.389465794
485.22650,3.22063224
485.22700,4.136215463
485.22750,4.746604279
485.22800,5.662187502
485.22850,7.188159541
485.22900,8.408937171
485.22950,8.408937171
485.23000,7.493353948
485.23050,6.272576317
485.23100,5.662187502
485.23150,5.356993094
485.23200,4.746604279
485.23250,3.22063224
485.23300,1.084271386
485.23350,-0.1365062443
485.23400,-0.1365062443
485.23450,-0.1365062443
485.23500,-1.662478283
485.23550,-4.104033544
485.23600,-5.935199991
485.23650,-7.155977621
485.23700,-8.376755252
485.23750,-9.597532883
485.23800,-10.81831051
485.23850,-11.73389374
485.23900,-12.03908814
485.23950,-12.03908814
485.24000,-10.81831051
485.24050,-9.292338475
485.24100,-8.68194966
485.24150,-7.766366437
485.24200,-6.240394398
485.24250,-4.104033544
485.24300,-2.272867098
485.24350,-1.052089467
485.24400,-0.1365062443
485.24450,1.389465794
485.24500,3.22063224
485.24550,4.136215463
485.24600,4.136215463
485.24650,4.746604279
485.24700,6.272576317
485.24750,7.493353948
485.24800,7.188159541
485.24850,6.272576317
485.24900,6.272576317
485.24950,7.188159541
485.25000,7.493353948
485.25050,6.577770725
485.25100,4.746604279
485.25150,3.831021056
485.25200,4.136215463
485.25250,3.831021056
485.25300,1.694660202
485.25350,-1.052089467
485.25400,-2.272867098
485.25450,-2.272867098
485.25500,-2.578061506
485.25550,-3.798839137
485.25600,-5.324811175
485.25650,-5.324811175
485.25700,-5.324811175
485.25750,-6.240394398
485.25800,-7.766366437
485.25850,-8.376755252
485.25900,-7.461172029
485.25950,-6.545588806
485.26000,-6.240394398
485.26050,-5.630005583
485.26100,-4.409227952
485.26150,-2.578061506
485.26200,-1.357283875
485.26250,-0.1365062443
485.26300,0.4738825711
485.26350,1.694660202
485.26400,2.610243425
485.26450,3.831021056
485.26500,4.746604279
485.26550,5.356993094
485.26600,5.356993094
485.26650,5.96738191
485.26700,7.493353948
485.26750,8.714131579
485.26800,8.714131579
485.26850,7.493353948
485.26900,5.662187502
485.26950,4.136215463
485.27000,2.915437833
485.27050,1.084271386
485.27100,-0.1365062443
485.27150,-0.7468950597
485.27200,-0.7468950597
485.27250,-0.7468950597
485.27300,-1.052089467
485.27350,-1.052089467
485.27400,-1.357283875
485.27450,-2.578061506
485.27500,-5.019616768
485.27550,-6.545588806
485.27600,-6.545588806
485.27650,-5.324811175
485.27700,-5.019616768
485.27750,-5.019616768
485.27800,-4.409227952
485.27850,-3.188450321
485.27900,-2.272867098
485.27950,-1.967672691
485.28000,-1.967672691
485.28050,-1.662478283
485.28100,-1.052089467
485.28150,-1.357283875
485.28200,-1.967672691
485.28250,-1.357283875
485.28300,0.4738825711
485.28350,2.305049017
485.28400,2.305049017
485.28450,0.4738825711
485.28500,-0.441700652
485.28550,0.7790769788
485.28600,3.525826648
485.28650,5.356993094
485.28700,5.662187502
485.28750,5.662187502
485.28800,5.96738191
485.28850,5.662187502
485.28900,4.746604279
485.28950,4.441409871
485.29000,4.746604279
485.29050,4.441409871
485.29100,3.525826648
485.29150,3.22063224
485.29200,2.610243425
485.29250,1.389465794
485.29300,-0.1365062443
485.29350,-0.1365062443
485.29400,1.084271386
485.29450,0.7790769788
485.29500,-0.7468950597
485.29550,-1.967672691
485.29600,-0.7468950597
485.29650,-0.1365062443
485.29700,-1.052089467
485.29750,-3.493644729
485.29800,-6.240394398
485.29850,-8.376755252
485.29900,-9.597532883
485.29950,-8.68194966
485.30000,-5.935199991
485.30050,-4.104033544
485.30100,-5.019616768
485.30150,-6.545588806
485.30200,-5.630005583
485.30250,-3.493644729
485.30300,-2.272867098
485.30350,-3.188450321
485.30400,-4.104033544
485.30450,-2.883255914
485.30500,-0.1365062443
485.30550,3.22063224
485.30600,5.356993094
485.30650,5.96738191
485.30700,5.356993094
485.30750,5.051798687
485.30800,4.746604279
485.30850,4.136215463
485.30900,3.525826648
485.30950,3.22063224
485.31000,2.915437833
485.31050,2.305049017
485.31100,1.389465794
485.31150,1.084271386
485.31200,1.389465794
485.31250,0.4738825711
485.31300,-1.052089467
485.31350,-2.883255914
485.31400,-3.798839137
485.31450,-4.71442236
485.31500,-7.155977621
485.31550,-9.597532883
485.31600,-10.2079217
485.31650,-9.597532883
485.31700,-9.292338475
485.31750,-8.68194966
485.31800,-7.766366437
485.31850,-6.240394398
485.31900,-5.630005583
485.31950,-5.935199991
485.32000,-6.850783214
485.32050,-7.461172029
485.32100,-7.461172029
485.32150,-7.155977621
485.32200,-6.240394398
485.32250,-4.71442236
485.32300,-3.188450321
485.32350,-1.357283875
485.32400,0.1686881634
485.32450,1.99985461
485.32500,2.915437833
485.32550,3.831021056
485.32600,5.051798687
485.32650,5.96738191
485.32700,6.882965133
485.32750,7.798548356
485.32800,9.324520394
485.32850,10.85049243
485.32900,10.54529803
485.32950,9.019325987
485.33000,7.798548356
485.33050,7.798548356
485.33100,7.188159541
485.33150,5.051798687
485.33200,2.305049017
485.33250,0.7790769788
485.33300,0.7790769788
485.33350,-0.1365062443
485.33400,-1.357283875
485.33450,-3.188450321
485.33500,-3.798839137
485.33550,-4.104033544
485.33600,-5.019616768
485.33650,-6.240394398
485.33700,-7.766366437
485.33750,-8.071560845
485.33800,-8.071560845
485.33850,-7.766366437
485.33900,-8.071560845
485.33950,-8.68194966
485.34000,-8.68194966
485.34050,-6.545588806
485.34100,-3.493644729
485.34150,-1.357283875
485.34200,-1.662478283
485.34250,-2.272867098
485.34300,-1.357283875
485.34350,0.4738825711
485.34400,1.99985461
485.34450,2.915437833
485.34500,4.136215463
485.34550,5.356993094
485.34600,5.662187502
485.34650,6.272576317
485.34700,8.408937171
485.34750,10.85049243
485.34800,10.85049243
485.34850,8.103742764
485.34900,5.051798687
485.34950,4.441409871
485.35000,5.051798687
485.35050,5.051798687
485.35100,3.831021056
485.35150,3.22063224
485.35200,3.22063224
485.35250,3.22063224
485.35300,2.915437833
485.35350,1.99985461
485.35400,-0.1365062443
485.35450,-3.493644729
485.35500,-5.935199991
485.35550,-6.545588806
485.35600,-6.240394398
485.35650,-6.545588806
485.35700,-7.461172029
485.35750,-8.376755252
485.35800,-8.987144068
485.35850,-8.987144068
485.35900,-8.071560845
485.35950,-5.630005583
485.36000,-3.493644729
485.36050,-2.272867098
485.36100,-1.662478283
485.36150,-0.441700652
485.36200,1.084271386
485.36250,2.915437833
485.36300,4.746604279
485.36350,6.577770725
485.36400,7.493353948
485.36450,7.188159541
485.36500,6.882965133
485.36550,7.798548356
485.36600,9.324520394
485.36650,9.019325987
485.36700,7.188159541
485.36750,5.662187502
485.36800,6.272576317
485.36850,7.798548356
485.36900,7.798548356
485.36950,6.272576317
485.37000,4.441409871
485.37050,3.525826648
485.37100,3.22063224
485.37150,2.915437833
485.37200,1.99985461
485.37250,0.1686881634
485.37300,-1.052089467
485.37350,-1.967672691
485.37400,-3.188450321
485.37450,-4.71442236
485.37500,-5.324811175
485.37550,-4.71442236
485.37600,-3.798839137
485.37650,-4.104033544
485.37700,-5.019616768
485.37750,-5.630005583
485.37800,-5.935199991
485.37850,-6.240394398
485.37900,-6.850783214
485.37950,-6.850783214
485.38000,-5.935199991
485.38050,-5.019616768
485.38100,-4.71442236
485.38150,-4.409227952
485.38200,-3.188450321
485.38250,-1.662478283
485.38300,-0.7468950597
485.38350,-0.1365062443
485.38400,1.389465794
485.38450,2.915437833
485.38500,3.22063224
485.38550,2.915437833
485.38600,3.22063224
485.38650,4.441409871
485.38700,5.662187502
485.38750,6.272576317
485.38800,6.272576317
485.38850,5.96738191
485.38900,5.051798687
485.38950,4.441409871
485.39000,4.746604279
485.39050,5.662187502
485.39100,5.356993094
485.39150,4.136215463
485.39200,3.525826648
485.39250,3.22063224
485.39300,2.610243425
485.39350,0.1686881634
485.39400,-2.272867098
485.39450,-3.798839137
485.39500,-4.104033544
485.39550,-4.71442236
485.39600,-5.630005583
485.39650,-6.850783214
485.39700,-7.155977621
485.39750,-7.155977621
485.39800,-7.461172029
485.39850,-8.071560845
485.39900,-8.376755252
485.39950,-8.071560845
485.40000,-7.766366437
485.40050,-7.461172029
485.40100,-6.545588806
485.40150,-4.104033544
485.40200,-1.052089467
485.40250,0.7790769788
485.40300,0.4738825711
485.40350,-0.1365062443
485.40400,0.7790769788
485.40450,4.136215463
485.40500,6.882965133
485.40550,7.188159541
485.40600,5.96738191
485.40650,6.272576317
485.40700,7.798548356
485.40750,8.103742764
485.40800,7.188159541
485.40850,6.272576317
485.40900,6.577770725
485.40950,6.272576317
485.41000,4.136215463
485.41050,2.305049017
485.41100,2.915437833
485.41150,4.136215463
485.41200,3.525826648
485.41250,0.4738825711
485.41300,-1.357283875
485.41350,-1.357283875
485.41400,-0.7468950597
485.41450,-1.357283875
485.41500,-2.578061506
485.41550,-2.883255914
485.41600,-1.967672691
485.41650,-1.662478283
485.41700,-2.883255914
485.41750,-4.71442236
485.41800,-6.850783214
485.41850,-8.376755252
485.41900,-8.987144068
485.41950,-8.68194966
485.42000,-7.766366437
485.42050,-7.766366437
485.42100,-8.071560845
485.42150,-7.766366437
485.42200,-6.850783214
485.42250,-5.324811175
485.42300,-3.493644729
485.42350,-1.662478283
485.42400,-0.1365062443
485.42450,1.694660202
485.42500,4.136215463
485.42550,7.188159541
485.42600,9.629714802
485.42650,10.85049243
485.42700,11.15568684
485.42750,11.76607566
485.42800,12.98685329
485.42850,13.5972421
485.42900,13.29204769
485.42950,11.46088125
485.43000,9.019325987
485.43050,7.493353948
485.43100,6.882965133
485.43150,6.272576317
485.43200,4.441409871
485.43250,2.610243425
485.43300,1.99985461
485.43350,1.99985461
485.43400,1.084271386
485.43450,-0.1365062443
485.43500,-1.662478283
485.43550,-2.578061506
485.43600,-3.798839137
485.43650,-5.630005583
485.43700,-6.545588806
485.43750,-6.240394398
485.43800,-6.850783214
485.43850,-8.987144068
485.43900,-10.51311611
485.43950,-9.597532883
485.44000,-7.461172029
485.44050,-7.461172029
485.44100,-8.68194966
485.44150,-8.376755252
485.44200,-6.240394398
485.44250,-5.019616768
485.44300,-5.019616768
485.44350,-4.71442236
485.44400,-2.883255914
485.44450,-1.357283875
485.44500,-1.357283875
485.44550,-1.357283875
485.44600,-0.1365062443
485.44650,1.694660202
485.44700,3.831021056
485.44750,4.746604279
485.44800,5.356993094
485.44850,5.051798687
485.44900,4.441409871
485.44950,4.441409871
485.45000,5.051798687
485.45050,4.441409871
485.45100,1.99985461
485.45150,-0.1365062443
485.45200,-0.441700652
485.45250,-0.1365062443
485.45300,-0.7468950597
485.45350,-2.578061506
485.45400,-3.493644729
485.45450,-3.493644729
485.45500,-4.409227952
485.45550,-6.545588806
485.45600,-8.071560845
485.45650,-8.071560845
485.45700,-7.155977621
485.45750,-7.155977621
485.45800,-7.461172029
485.45850,-8.071560845
485.45900,-7.766366437
485.45950,-6.850783214
485.46000,-4.104033544
485.46050,-1.357283875
485.46100,-0.1365062443
485.46150,0.4738825711
485.46200,1.084271386
485.46250,1.99985461
485.46300,2.915437833
485.46350,3.525826648
485.46400,4.746604279
485.46450,6.272576317
485.46500,6.272576317
485.46550,5.051798687
485.46600,3.831021056
485.46650,5.356993094
485.46700,7.493353948
485.46750,8.408937171
485.46800,8.408937171
485.46850,8.408937171
485.46900,8.103742764
485.46950,6.882965133
485.47000,5.051798687
485.47050,4.136215463
485.47100,4.136215463
485.47150,2.915437833
485.47200,1.084271386
485.47250,-0.1365062443
485.47300,-0.7468950597
485.47350,-1.052089467
485.47400,-1.662478283
485.47450,-1.967672691
485.47500,-1.967672691
485.47550,-2.578061506
485.47600,-3.798839137
485.47650,-5.019616768
485.47700,-5.324811175
485.47750,-4.71442236
485.47800,-3.493644729
485.47850,-3.493644729
485.47900,-4.409227952
485.47950,-5.324811175
485.48000,-4.71442236
485.48050,-2.883255914
485.48100,-1.662478283
485.48150,-1.357283875
485.48200,-0.441700652
485.48250,1.389465794
485.48300,3.525826648
485.48350,3.525826648
485.48400,1.084271386
485.48450,-1.357283875
485.48500,-2.578061506
485.48550,-1.662478283
485.48600,0.7790769788
485.48650,5.356993094
485.48700,9.629714802
485.48750,12.37646447
485.48800,12.98685329
485.48850,12.07127006
485.48900,11.15568684
485.48950,10.24010362
485.49000,9.324520394
485.49050,7.493353948
485.49100,4.746604279
485.49150,2.305049017
485.49200,1.389465794
485.49250,1.694660202
485.49300,1.389465794
485.49350,-0.1365062443
485.49400,-1.357283875
485.49450,-1.967672691
485.49500,-2.578061506
485.49550,-5.019616768
485.49600,-8.376755252
485.49650,-10.81831051
485.49700,-11.73389374
485.49750,-11.73389374
485.49800,-12.34428255
485.49850,-13.56506018
485.49900,-14.78583781
485.49950,-14.78583781
485.50000,-12.95467137
485.50050,-10.2079217
485.50100,-7.766366437
485.50150,-6.240394398
485.50200,-4.71442236
485.50250,-2.883255914
485.50300,-1.052089467
485.50350,-0.7468950597
485.50400,-1.052089467
485.50450,-1.052089467
485.50500,-0.1365062443
485.50550,2.610243425
485.50600,5.356993094
485.50650,7.493353948
485.50700,8.408937171
485.50750,9.019325987
485.50800,9.629714802
485.50850,10.24010362
485.50900,9.93490921
485.50950,9.324520394
485.51000,9.93490921
485.51050,10.85049243
485.51100,9.93490921
485.51150,6.882965133
485.51200,3.525826648
485.51250,1.694660202
485.51300,0.7790769788
485.51350,-0.1365062443
485.51400,-2.272867098
485.51450,-4.104033544
485.51500,-5.935199991
485.51550,-8.071560845
485.51600,-10.2079217
485.51650,-11.12350492
485.51700,-11.12350492
485.51750,-11.12350492
485.51800,-11.73389374
485.51850,-11.73389374
485.51900,-11.12350492
485.51950,-10.2079217
485.52000,-9.292338475
485.52050,-8.071560845
485.52100,-7.155977621
485.52150,-6.545588806
485.52200,-5.935199991
485.52250,-4.409227952
485.52300,-3.188450321
485.52350,-3.493644729
485.52400,-4.104033544
485.52450,-4.104033544
485.52500,-2.883255914
485.52550,-2.272867098
485.52600,-1.967672691
485.52650,-1.052089467
485.52700,0.4738825711
485.52750,1.084271386
485.52800,-0.1365062443
485.52850,-0.441700652
485.52900,-0.1365062443
485.52950,1.084271386
485.53000,1.389465794
485.53050,2.305049017
485.53100,4.441409871
485.53150,6.272576317
485.53200,7.188159541
485.53250,7.188159541
485.53300,6.882965133
485.53350,5.356993094
485.53400,1.694660202
485.53450,-1.357283875
485.53500,-2.272867098
485.53550,-1.662478283
485.53600,-1.967672691
485.53650,-4.104033544
485.53700,-6.240394398
485.53750,-6.545588806
485.53800,-5.324811175
485.53850,-4.71442236
485.53900,-4.104033544
485.53950,-3.188450321
485.54000,-2.272867098
485.54050,-1.357283875
485.54100,-0.7468950597
485.54150,-0.7468950597
485.54200,-0.441700652
485.54250,-0.1365062443
485.54300,1.084271386
485.54350,2.305049017
485.54400,4.136215463
485.54450,5.96738191
485.54500,7.493353948
485.54550,9.324520394
485.54600,11.15568684
485.54650,12.98685329
485.54700,14.51282533
485.54750,14.20763092
485.54800,12.07127006
485.54850,10.85049243
485.54900,10.54529803
485.54950,10.24010362
485.55000,8.103742764
485.55050,5.356993094
485.55100,3.525826648
485.55150,3.525826648
485.55200,4.441409871
485.55250,4.746604279
485.55300,3.525826648
485.55350,0.7790769788
485.55400,-1.662478283
485.55450,-2.883255914
485.55500,-3.493644729
485.55550,-4.409227952
485.55600,-5.630005583
485.55650,-5.935199991
485.55700,-5.935199991
485.55750,-6.545588806
485.55800,-7.766366437
485.55850,-8.68194966
485.55900,-8.987144068
485.55950,-8.376755252
485.56000,-7.766366437
485.56050,-6.240394398
485.56100,-4.409227952
485.56150,-2.578061506
485.56200,-1.052089467
485.56250,1.084271386
485.56300,3.525826648
485.56350,5.356993094
485.56400,5.662187502
485.56450,6.272576317
485.56500,7.493353948
485.56550,9.93490921
485.56600,12.37646447
485.56650,13.5972421
485.56700,13.5972421
485.56750,12.98685329
485.56800,12.37646447
485.56850,11.46088125
485.56900,9.93490921
485.56950,8.714131579
485.57000,8.103742764
485.57050,8.408937171
485.57100,7.798548356
485.57150,5.356993094
485.57200,3.525826648
485.57250,2.915437833
485.57300,2.305049017
485.57350,0.1686881634
485.57400,-1.967672691
485.57450,-3.188450321
485.57500,-4.71442236
485.57550,-7.155977621
485.57600,-9.292338475
485.57650,-9.902727291
485.57700,-9.597532883
485.57750,-10.2079217
485.57800,-12.03908814
485.57850,-12.95467137
485.57900,-12.95467137
485.57950,-12.95467137
485.58000,-12.64947696
485.58050,-11.73389374
485.58100,-11.12350492
485.58150,-11.12350492
485.58200,-11.12350492
485.58250,-9.292338475
485.58300,-6.545588806
485.58350,-3.798839137
485.58400,-1.967672691
485.58450,-0.441700652
485.58500,0.4738825711
485.58550,1.99985461
485.58600,3.831021056
485.58650,5.96738191
485.58700,7.493353948
485.58750,7.493353948
485.58800,6.882965133
485.58850,6.272576317
485.58900,6.272576317
485.58950,6.577770725
485.59000,6.577770725
485.59050,6.272576317
485.59100,5.051798687
485.59150,3.831021056
485.59200,3.22063224
485.59250,3.831021056
485.59300,3.525826648
485.59350,2.305049017
485.59400,1.389465794
485.59450,1.389465794
485.59500,0.4738825711
485.59550,-1.662478283
485.59600,-3.798839137
485.59650,-3.798839137
485.59700,-3.188450321
485.59750,-3.493644729
485.59800,-4.409227952
485.59850,-4.409227952
485.59900,-4.104033544
485.59950,-4.71442236
485.60000,-5.935199991
485.60050,-6.850783214
485.60100,-6.545588806
485.60150,-5.935199991
485.60200,-5.324811175
485.60250,-4.71442236
485.60300,-3.798839137
485.60350,-2.578061506
485.60400,-1.662478283
485.60450,-0.441700652
485.60500,1.084271386
485.60550,2.305049017
485.60600,2.915437833
485.60650,2.915437833
485.60700,2.305049017
485.60750,1.389465794
485.60800,0.7790769788
485.60850,1.084271386
485.60900,1.694660202
485.60950,1.99985461
485.61000,1.389465794
485.61050,-0.1365062443
485.61100,-1.052089467
485.61150,-1.662478283
485.61200,-2.272867098
485.61250,-2.272867098
485.61300,-1.967672691
485.61350,-1.052089467
485.61400,-0.441700652
485.61450,-1.357283875
485.61500,-4.104033544
485.61550,-6.240394398
485.61600,-6.850783214
485.61650,-6.850783214
485.61700,-7.155977621
485.61750,-7.766366437
485.61800,-7.461172029
485.61850,-5.019616768
485.61900,-2.578061506
485.61950,-2.272867098
485.62000,-3.798839137
485.62050,-5.019616768
485.62100,-4.409227952
485.62150,-1.967672691
485.62200,-0.1365062443
485.62250,0.1686881634
485.62300,0.4738825711
485.62350,1.694660202
485.62400,3.22063224
485.62450,4.136215463
485.62500,4.441409871
485.62550,5.96738191
485.62600,7.798548356
485.62650,8.408937171
485.62700,8.103742764
485.62750,8.408937171
485.62800,10.24010362
485.62850,10.54529803
485.62900,9.629714802
485.62950,8.714131579
485.63000,9.019325987
485.63050,9.019325987
485.63100,7.188159541
485.63150,5.051798687
485.63200,3.831021056
485.63250,2.610243425
485.63300,-0.1365062443
485.63350,-3.493644729
485.63400,-5.324811175
485.63450,-6.240394398
485.63500,-7.461172029
485.63550,-8.68194966
485.63600,-8.987144068
485.63650,-8.071560845
485.63700,-8.071560845
485.63750,-8.987144068
485.63800,-9.292338475
485.63850,-8.376755252
485.63900,-6.850783214
485.63950,-5.630005583
485.64000,-5.019616768
485.64050,-4.71442236
485.64100,-4.409227952
485.64150,-3.188450321
485.64200,-1.357283875
485.64250,-0.441700652
485.64300,-1.357283875
485.64350,-2.272867098
485.64400,-0.7468950597
485.64450,1.389465794
485.64500,2.610243425
485.64550,2.610243425
485.64600,2.915437833
485.64650,4.441409871
485.64700,5.051798687
485.64750,4.441409871
485.64800,4.441409871
485.64850,6.272576317
485.64900,7.798548356
485.64950,7.798548356
485.65000,6.577770725
485.65050,6.272576317
485.65100,6.577770725
485.65150,5.662187502
485.65200,2.915437833
485.65250,-0.1365062443
485.65300,-1.357283875
485.65350,-1.967672691
485.65400,-2.883255914
485.65450,-4.104033544
485.65500,-5.630005583
485.65550,-7.155977621
485.65600,-8.987144068
485.65650,-10.2079217
485.65700,-10.2079217
485.65750,-9.597532883
485.65800,-8.987144068
485.65850,-8.071560845
485.65900,-7.461172029
485.65950,-7.155977621
485.66000,-8.071560845
485.66050,-8.071560845
485.66100,-5.935199991
485.66150,-2.578061506
485.66200,-0.1365062443
485.66250,1.694660202
485.66300,2.305049017
485.66350,2.610243425
485.66400,2.610243425
485.66450,2.915437833
485.66500,4.136215463
485.66550,5.96738191
485.66600,8.103742764
485.66650,9.019325987
485.66700,8.714131579
485.66750,7.798548356
485.66800,6.882965133
485.66850,6.882965133
485.66900,7.188159541
485.66950,5.96738191
485.67000,3.525826648
485.67050,1.389465794
485.67100,1.389465794
485.67150,1.694660202
485.67200,0.1686881634
485.67250,-1.967672691
485.67300,-3.798839137
485.67350,-4.409227952
485.67400,-5.019616768
485.67450,-5.630005583
485.67500,-5.630005583
485.67550,-4.409227952
485.67600,-2.883255914
485.67650,-1.662478283
485.67700,-0.7468950597
485.67750,-0.7468950597
485.67800,-2.272867098
485.67850,-3.493644729
485.67900,-3.188450321
485.67950,-1.662478283
485.68000,-1.357283875
485.68050,-2.578061506
485.68100,-3.493644729
485.68150,-1.967672691
485.68200,-0.1365062443
485.68250,1.389465794
485.68300,1.694660202
485.68350,2.305049017
485.68400,3.22063224
485.68450,4.441409871
485.68500,5.662187502
485.68550,6.272576317
485.68600,6.577770725
485.68650,6.272576317
485.68700,6.882965133
485.68750,7.493353948
485.68800,7.188159541
485.68850,6.272576317
485.68900,5.051798687
485.68950,5.356993094
485.69000,5.96738191
485.69050,5.662187502
485.69100,4.441409871
485.69150,3.22063224
485.69200,2.610243425
485.69250,2.305049017
485.69300,1.694660202
485.69350,1.084271386
485.69400,0.4738825711
485.69450,0.1686881634
485.69500,-0.1365062443
485.69550,-0.441700652
485.69600,-0.1365062443
485.69650,-0.1365062443
485.69700,-0.1365062443
485.69750,-1.357283875
485.69800,-3.188450321
485.69850,-4.104033544
485.69900,-3.798839137
485.69950,-2.883255914
485.70000,-3.188450321
485.70050,-4.71442236
485.70100,-5.019616768
485.70150,-3.493644729
485.70200,-1.357283875
485.70250,-0.1365062443
485.70300,-0.1365062443
485.70350,-0.441700652
485.70400,0.1686881634
485.70450,1.694660202
485.70500,2.915437833
485.70550,3.525826648
485.70600,3.525826648
485.70650,3.525826648
485.70700,3.525826648
485.70750,3.831021056
485.70800,4.136215463
485.70850,5.051798687
485.70900,5.356993094
485.70950,5.051798687
485.71000,4.746604279
485.71050,4.441409871
485.71100,4.136215463
485.71150,2.915437833
485.71200,1.694660202
485.71250,1.084271386
485.71300,0.7790769788
485.71350,-0.1365062443
485.71400,-1.967672691
485.71450,-2.578061506
485.71500,-2.578061506
485.71550,-2.883255914
485.71600,-3.798839137
485.71650,-4.71442236
485.71700,-5.324811175
485.71750,-5.019616768
485.71800,-5.019616768
485.71850,-5.019616768
485.71900,-4.71442236
485.71950,-4.71442236
485.72000,-5.324811175
485.72050,-5.630005583
485.72100,-5.630005583
485.72150,-5.324811175
485.72200,-4.409227952
485.72250,-3.493644729
485.72300,-2.883255914
485.72350,-1.967672691
485.72400,-0.7468950597
485.72450,0.7790769788
485.72500,2.915437833
485.72550,4.746604279
485.72600,5.356993094
485.72650,5.051798687
485.72700,4.746604279
485.72750,5.051798687
485.72800,5.96738191
485.72850,7.188159541
485.72900,7.798548356
485.72950,7.493353948
485.73000,6.577770725
485.73050,5.96738191
485.73100,5.356993094
485.73150,4.441409871
485.73200,2.305049017
485.73250,0.4738825711
485.73300,-0.441700652
485.73350,-0.7468950597
485.73400,-1.662478283
485.73450,-4.104033544
485.73500,-5.935199991
485.73550,-6.240394398
485.73600,-5.935199991
485.73650,-6.240394398
485.73700,-7.155977621
485.73750,-8.071560845
485.73800,-8.987144068
485.73850,-10.2079217
485.73900,-10.2079217
485.73950,-8.376755252
485.74000,-5.935199991
485.74050,-5.630005583
485.74100,-6.240394398
485.74150,-5.324811175
485.74200,-2.578061506
485.74250,-1.052089467
485.74300,-1.357283875
485.74350,-1.967672691
485.74400,-0.441700652
485.74450,1.389465794
485.74500,2.915437833
485.74550,4.136215463
485.74600,5.051798687
485.74650,5.051798687
485.74700,4.136215463
485.74750,4.136215463
485.74800,6.272576317
485.74850,8.408937171
485.74900,8.103742764
485.74950,5.96738191
485.75000,4.136215463
485.75050,3.831021056
485.75100,3.525826648
485.75150,3.22063224
485.75200,2.915437833
485.75250,1.99985461
485.75300,0.4738825711
485.75350,-1.052089467
485.75400,-1.357283875
485.75450,-0.7468950597
485.75500,-1.357283875
485.75550,-3.493644729
485.75600,-5.630005583
485.75650,-5.630005583
485.75700,-5.630005583
485.75750,-7.155977621
485.75800,-9.597532883
485.75850,-10.51311611
485.75900,-8.987144068
485.75950,-7.155977621
485.76000,-6.850783214
485.76050,-7.766366437
485.76100,-8.071560845
485.76150,-7.155977621
485.76200,-6.545588806
485.76250,-5.630005583
485.76300,-3.798839137
485.76350,-0.7468950597
485.76400,1.389465794
485.76450,2.915437833
485.76500,3.22063224
485.76550,3.831021056
485.76600,4.441409871
485.76650,4.746604279
485.76700,5.051798687
485.76750,5.96738191
485.76800,6.882965133
485.76850,7.493353948
485.76900,7.493353948
485.76950,7.493353948
485.77000,7.493353948
485.77050,7.798548356
485.77100,9.019325987
485.77150,10.24010362
485.77200,9.93490921
485.77250,7.798548356
485.77300,5.051798687
485.77350,3.525826648
485.77400,2.305049017
485.77450,0.1686881634
485.77500,-1.662478283
485.77550,-2.578061506
485.77600,-2.883255914
485.77650,-4.409227952
485.77700,-5.935199991
485.77750,-6.850783214
485.77800,-6.545588806
485.77850,-6.240394398
485.77900,-6.850783214
485.77950,-8.071560845
485.78000,-8.987144068
485.78050,-9.902727291
485.78100,-10.81831051
485.78150,-11.12350492
485.78200,-9.902727291
485.78250,-8.071560845
485.78300,-6.240394398
485.78350,-5.630005583
485.78400,-5.019616768
485.78450,-3.493644729
485.78500,-1.357283875
485.78550,-0.1365062443
485.78600,0.4738825711
485.78650,1.389465794
485.78700,1.99985461
485.78750,1.99985461
485.78800,1.694660202
485.78850,2.305049017
485.78900,3.525826648
485.78950,3.831021056
485.79000,2.305049017
485.79050,1.084271386
485.79100,1.694660202
485.79150,2.610243425
485.79200,2.610243425
485.79250,2.305049017
485.79300,2.915437833
485.79350,3.525826648
485.79400,2.305049017
485.79450,-0.1365062443
485.79500,-0.7468950597
485.79550,-0.7468950597
485.79600,-0.7468950597
485.79650,-1.357283875
485.79700,-1.967672691
485.79750,-1.967672691
485.79800,-2.272867098
485.79850,-2.883255914
485.79900,-1.967672691
485.79950,-0.7468950597
485.80000,-0.441700652
485.80050,-0.441700652
485.80100,-0.441700652
485.80150,-0.1365062443
485.80200,-0.1365062443
485.80250,-0.441700652
485.80300,0.1686881634
485.80350,1.084271386
485.80400,1.084271386
485.80450,0.4738825711
485.80500,0.4738825711
485.80550,1.084271386
485.80600,1.084271386
485.80650,1.084271386
485.80700,1.389465794
485.80750,1.694660202
485.80800,1.389465794
485.80850,0.7790769788
485.80900,1.389465794
485.80950,1.99985461
485.81000,2.305049017
485.81050,2.610243425
485.81100,3.22063224
485.81150,3.831021056
485.81200,4.136215463
485.81250,3.831021056
485.81300,3.831021056
485.81350,3.831021056
485.81400,2.610243425
485.81450,0.1686881634
485.81500,-1.052089467
485.81550,-1.052089467
485.81600,-0.441700652
485.81650,-1.052089467
485.81700,-3.188450321
485.81750,-5.019616768
485.81800,-5.324811175
485.81850,-4.409227952
485.81900,-4.104033544
485.81950,-4.409227952
485.82000,-4.71442236
485.82050,-4.409227952
485.82100,-4.104033544
485.82150,-4.71442236
485.82200,-5.630005583
485.82250,-5.630005583
485.82300,-3.493644729
485.82350,-1.357283875
485.82400,-0.7468950597
485.82450,-1.357283875
485.82500,-1.357283875
485.82550,-0.1365062443
485.82600,2.610243425
485.82650,4.746604279
485.82700,5.662187502
485.82750,5.96738191
485.82800,5.96738191
485.82850,5.356993094
485.82900,4.746604279
485.82950,5.051798687
485.83000,6.577770725
485.83050,8.103742764
485.83100,8.103742764
485.83150,7.493353948
485.83200,7.188159541
485.83250,7.188159541
485.83300,6.577770725
485.83350,4.746604279
485.83400,3.22063224
485.83450,1.99985461
485.83500,0.7790769788
485.83550,-0.441700652
485.83600,-1.967672691
485.83650,-2.883255914
485.83700,-3.493644729
485.83750,-3.798839137
485.83800,-4.409227952
485.83850,-5.324811175
485.83900,-6.850783214
485.83950,-7.461172029
485.84000,-7.461172029
485.84050,-7.461172029
485.84100,-8.376755252
485.84150,-9.292338475
485.84200,-8.68194966
485.84250,-7.155977621
485.84300,-6.240394398
485.84350,-5.935199991
485.84400,-4.409227952
485.84450,-1.967672691
485.84500,-0.7468950597
485.84550,-0.7468950597
485.84600,-0.1365062443
485.84650,2.305049017
485.84700,3.525826648
485.84750,2.610243425
485.84800,1.389465794
485.84850,2.610243425
485.84900,5.662187502
485.84950,8.103742764
485.85000,9.019325987
485.85050,9.324520394
485.85100,8.714131579
485.85150,7.493353948
485.85200,6.577770725
485.85250,6.577770725
485.85300,6.882965133
485.85350,6.272576317
485.85400,5.356993094
485.85450,4.746604279
485.85500,3.525826648
485.85550,1.084271386
485.85600,-1.967672691
485.85650,-4.104033544
485.85700,-5.324811175
485.85750,-6.240394398
485.85800,-6.545588806
485.85850,-6.240394398
485.85900,-7.155977621
485.85950,-8.987144068
485.86000,-10.51311611
485.86050,-10.81831051
485.86100,-11.12350492
485.86150,-12.34428255
485.86200,-12.64947696
485.86250,-11.12350492
485.86300,-8.68194966
485.86350,-6.545588806
485.86400,-5.324811175
485.86450,-5.019616768
485.86500,-6.240394398
485.86550,-8.376755252
485.86600,-8.376755252
485.86650,-4.409227952
485.86700,-1.052089467
485.86750,-1.967672691
485.86800,-5.324811175
485.86850,-5.935199991
485.86900,-2.883255914
485.86950,0.7790769788
485.87000,3.831021056
485.87050,6.577770725
485.87100,6.577770725
485.87150,1.99985461
485.87200,-5.935199991
485.87250,-10.2079217
485.87300,-5.935199991
485.87350,4.136215463
485.87400,14.81801973
485.87450,22.14268552
485.87500,27.33099045
485.87550,31.90890656
485.87600,34.04526742
485.87650,32.51929538
485.87700,28.24657367
485.87750,23.05826874
485.87800,17.86996381
485.87850,12.98685329
485.87900,8.103742764
485.87950,3.831021056
485.88000,1.389465794
485.88050,-0.1365062443
485.88100,-2.272867098
485.88150,-4.71442236
485.88200,-5.324811175
485.88250,-4.409227952
485.88300,-2.578061506
485.88350,-2.272867098
485.88400,-2.578061506
485.88450,-2.272867098
485.88500,-0.1365062443
485.88550,1.694660202
485.88600,2.305049017
485.88650,2.305049017
485.88700,3.22063224
485.88750,4.441409871
485.88800,4.746604279
485.88850,3.831021056
485.88900,3.831021056
485.88950,5.051798687
485.89000,5.051798687
485.89050,3.22063224
485.89100,0.7790769788
485.89150,-0.1365062443
485.89200,0.1686881634
485.89250,0.1686881634
485.89300,-1.357283875
485.89350,-3.188450321
485.89400,-3.798839137
485.89450,-3.798839137
485.89500,-5.324811175
485.89550,-7.766366437
485.89600,-9.597532883
485.89650,-10.2079217
485.89700,-10.2079217
485.89750,-11.12350492
485.89800,-12.34428255
485.89850,-13.56506018
485.89900,-13.87025459
485.89950,-14.175449
485.90000,-13.87025459
485.90050,-12.64947696
485.90100,-11.12350492
485.90150,-10.51311611
485.90200,-10.51311611
485.90250,-10.51311611
485.90300,-9.292338475
485.90350,-7.155977621
485.90400,-5.630005583
485.90450,-4.104033544
485.90500,-2.272867098
485.90550,-0.441700652
485.90600,0.1686881634
485.90650,0.7790769788
485.90700,1.694660202
485.90750,3.22063224
485.90800,4.441409871
485.90850,4.746604279
485.90900,4.136215463
485.90950,2.610243425
485.91000,1.694660202
485.91050,1.99985461
485.91100,2.915437833
485.91150,3.22063224
485.91200,2.610243425
485.91250,1.389465794
485.91300,1.084271386
485.91350,0.7790769788
485.91400,-0.1365062443
485.91450,-1.357283875
485.91500,-1.662478283
485.91550,-0.7468950597
485.91600,-0.441700652
485.91650,-1.662478283
485.91700,-2.883255914
485.91750,-3.188450321
485.91800,-3.798839137
485.91850,-6.240394398
485.91900,-8.987144068
485.91950,-9.292338475
485.92000,-7.155977621
485.92050,-5.630005583
485.92100,-5.630005583
485.92150,-5.630005583
485.92200,-3.798839137
485.92250,-1.967672691
485.92300,-1.052089467
485.92350,-1.357283875
485.92400,-0.441700652
485.92450,1.389465794
485.92500,3.525826648
485.92550,5.051798687
485.92600,6.577770725
485.92650,7.493353948
485.92700,7.798548356
485.92750,7.493353948
485.92800,7.188159541
485.92850,6.882965133
485.92900,5.96738191
485.92950,5.356993094
485.93000,5.662187502
485.93050,6.882965133
485.93100,7.493353948
485.93150,6.882965133
485.93200,5.96738191
485.93250,5.662187502
485.93300,5.356993094
485.93350,3.831021056
485.93400,1.084271386
485.93450,-1.357283875
485.93500,-2.272867098
485.93550,-2.272867098
485.93600,-1.967672691
485.93650,-3.188450321
485.93700,-5.324811175
485.93750,-6.850783214
485.93800,-6.545588806
485.93850,-5.630005583
485.93900,-5.019616768
485.93950,-5.630005583
485.94000,-6.850783214
485.94050,-6.545588806
485.94100,-5.324811175
485.94150,-4.409227952
485.94200,-4.409227952
485.94250,-4.104033544
485.94300,-2.272867098
485.94350,-0.1365062443
485.94400,0.4738825711
485.94450,1.084271386
485.94500,1.99985461
485.94550,3.22063224
485.94600,4.136215463
485.94650,4.136215463
485.94700,4.746604279
485.94750,6.577770725
485.94800,8.408937171
485.94850,9.019325987
485.94900,8.714131579
485.94950,8.714131579
485.95000,9.324520394
485.95050,9.324520394
485.95100,8.103742764
485.95150,6.882965133
485.95200,5.662187502
485.95250,4.441409871
485.95300,2.610243425
485.95350,1.694660202
485.95400,2.305049017
485.95450,3.525826648
485.95500,3.525826648
485.95550,1.99985461
485.95600,1.084271386
485.95650,0.7790769788
485.95700,0.4738825711
485.95750,-0.441700652
485.95800,-1.662478283
485.95850,-2.272867098
485.95900,-2.272867098
485.95950,-3.493644729
485.96000,-4.409227952
485.96050,-4.71442236
485.96100,-4.409227952
485.96150,-3.798839137
485.96200,-3.798839137
485.96250,-4.104033544
485.96300,-4.104033544
485.96350,-3.188450321
485.96400,-1.967672691
485.96450,-0.7468950597
485.96500,-0.1365062443
485.96550,0.1686881634
485.96600,1.084271386
485.96650,2.305049017
485.96700,2.915437833
485.96750,3.22063224
485.96800,4.136215463
485.96850,5.96738191
485.96900,6.577770725
485.96950,5.96738191
485.97000,5.662187502
485.97050,6.272576317
485.97100,6.272576317
485.97150,4.136215463
485.97200,1.694660202
485.97250,0.4738825711
485.97300,0.1686881634
485.97350,-0.1365062443
485.97400,-0.1365062443
485.97450,-0.1365062443
485.97500,-1.052089467
485.97550,-3.798839137
485.97600,-6.240394398
485.97650,-6.545588806
485.97700,-5.324811175
485.97750,-5.935199991
485.97800,-7.766366437
485.97850,-8.376755252
485.97900,-7.461172029
485.97950,-6.545588806
485.98000,-6.850783214
485.98050,-6.850783214
485.98100,-5.324811175
485.98150,-4.104033544
485.98200,-4.71442236
485.98250,-6.545588806
485.98300,-7.155977621
485.98350,-6.850783214
485.98400,-6.545588806
485.98450,-5.935199991
485.98500,-4.71442236
485.98550,-2.883255914
485.98600,-1.662478283
485.98650,-1.357283875
485.98700,-1.662478283
485.98750,-1.052089467
485.98800,-0.441700652
485.98850,-0.1365062443
485.98900,0.1686881634
485.98950,0.1686881634
485.99000,-0.1365062443
485.99050,-0.7468950597
485.99100,-0.1365062443
485.99150,1.694660202
485.99200,4.441409871
485.99250,6.272576317
485.99300,6.577770725
485.99350,5.96738191
485.99400,4.746604279
485.99450,4.136215463
485.99500,3.831021056
485.99550,3.831021056
485.99600,2.610243425
485.99650,0.7790769788
485.99700,-0.7468950597
485.99750,-1.967672691
485.99800,-2.883255914
485.99850,-4.409227952
485.99900,-4.71442236
485.99950,-3.493644729
486.00000,-1.052089467
486.00050,-0.1365062443
486.00100,-1.052089467
486.00150,-1.662478283
486.00200,-0.441700652
486.00250,0.7790769788
486.00300,0.4738825711
486.00350,-0.1365062443
486.00400,-0.1365062443
486.00450,0.4738825711
486.00500,0.7790769788
486.00550,0.4738825711
486.00600,1.084271386
486.00650,2.305049017
486.00700,2.915437833
486.00750,3.22063224
486.00800,3.831021056
486.00850,4.746604279
486.00900,5.051798687
486.00950,4.441409871
486.01000,4.136215463
486.01050,5.051798687
486.01100,5.662187502
486.01150,5.356993094
486.01200,4.441409871
486.01250,3.831021056
486.01300,3.525826648
486.01350,2.915437833
486.01400,1.694660202
486.01450,1.084271386
486.01500,0.4738825711
486.01550,-0.7468950597
486.01600,-2.883255914
486.01650,-3.188450321
486.01700,-2.272867098
486.01750,-1.662478283
486.01800,-3.188450321
486.01850,-5.630005583
486.01900,-6.545588806
486.01950,-6.240394398
486.02000,-6.240394398
486.02050,-6.545588806
486.02100,-5.630005583
486.02150,-3.798839137
486.02200,-2.578061506
486.02250,-3.188450321
486.02300,-3.798839137
486.02350,-3.493644729
486.02400,-1.967672691
486.02450,-1.052089467
486.02500,-0.1365062443
486.02550,1.694660202
486.02600,4.441409871
486.02650,5.662187502
486.02700,5.051798687
486.02750,4.441409871
486.02800,4.746604279
486.02850,5.356993094
486.02900,5.356993094
486.02950,5.051798687
486.03000,4.746604279
486.03050,4.441409871
486.03100,3.525826648
486.03150,2.610243425
486.03200,2.915437833
486.03250,3.22063224
486.03300,2.610243425
486.03350,1.389465794
486.03400,0.4738825711
486.03450,0.1686881634
486.03500,-1.052089467
486.03550,-3.798839137
486.03600,-5.324811175
486.03650,-4.71442236
486.03700,-3.798839137
486.03750,-5.630005583
486.03800,-8.68194966
486.03850,-10.2079217
486.03900,-9.292338475
486.03950,-8.68194966
486.04000,-9.292338475
486.04050,-8.987144068
486.04100,-6.850783214
486.04150,-4.409227952
486.04200,-3.798839137
486.04250,-4.409227952
486.04300,-4.409227952
486.04350,-2.883255914
486.04400,-1.052089467
486.04450,-0.1365062443
486.04500,1.084271386
486.04550,1.99985461
486.04600,2.915437833
486.04650,3.22063224
486.04700,4.136215463
486.04750,5.356993094
486.04800,6.272576317
486.04850,6.272576317
486.04900,6.272576317
486.04950,6.272576317
486.05000,6.272576317
486.05050,5.96738191
486.05100,5.662187502
486.05150,5.662187502
486.05200,5.662187502
486.05250,4.441409871
486.05300,1.99985461
486.05350,-0.1365062443
486.05400,-0.1365062443
486.05450,-0.1365062443
486.05500,-0.7468950597
486.05550,-1.967672691
486.05600,-2.578061506
486.05650,-2.883255914
486.05700,-4.104033544
486.05750,-6.240394398
486.05800,-8.071560845
486.05850,-9.292338475
486.05900,-9.597532883
486.05950,-9.292338475
486.06000,-8.071560845
486.06050,-7.461172029
486.06100,-8.376755252
486.06150,-9.597532883
486.06200,-8.68194966
486.06250,-5.630005583
486.06300,-3.493644729
486.06350,-3.493644729
486.06400,-3.798839137
486.06450,-2.272867098
486.06500,0.1686881634
486.06550,1.99985461
486.06600,1.99985461
486.06650,2.915437833
486.06700,5.051798687
486.06750,6.882965133
486.06800,6.882965133
486.06850,5.662187502
486.06900,5.662187502
486.06950,6.272576317
486.07000,6.577770725
486.07050,5.662187502
486.07100,5.051798687
486.07150,4.746604279
486.07200,4.136215463
486.07250,2.915437833
486.07300,1.389465794
486.07350,-0.1365062443
486.07400,-1.357283875
486.07450,-2.578061506
486.07500,-3.798839137
486.07550,-4.71442236
486.07600,-5.324811175
486.07650,-5.935199991
486.07700,-5.935199991
486.07750,-5.935199991
486.07800,-6.545588806
486.07850,-6.850783214
486.07900,-6.545588806
486.07950,-5.019616768
486.08000,-4.104033544
486.08050,-3.798839137
486.08100,-4.409227952
486.08150,-5.324811175
486.08200,-5.630005583
486.08250,-5.019616768
486.08300,-4.104033544
486.08350,-4.104033544
486.08400,-3.798839137
486.08450,-1.662478283
486.08500,1.694660202
486.08550,4.441409871
486.08600,4.746604279
486.08650,5.051798687
486.08700,6.272576317
486.08750,7.798548356
486.08800,7.798548356
486.08850,7.493353948
486.08900,8.714131579
486.08950,9.93490921
486.09000,9.324520394
486.09050,7.493353948
486.09100,6.882965133
486.09150,7.798548356
486.09200,7.493353948
486.09250,5.051798687
486.09300,1.99985461
486.09350,0.1686881634
486.09400,-0.441700652
486.09450,-0.441700652
486.09500,-0.1365062443
486.09550,-0.1365062443
486.09600,-1.662478283
486.09650,-4.71442236
486.09700,-6.850783214
486.09750,-6.850783214
486.09800,-5.630005583
486.09850,-4.409227952
486.09900,-3.798839137
486.09950,-3.798839137
486.10000,-5.019616768
486.10050,-5.935199991
486.10100,-5.019616768
486.10150,-2.883255914
486.10200,-1.357283875
486.10250,-1.052089467
486.10300,-0.7468950597
486.10350,0.7790769788
486.10400,3.22063224
486.10450,5.051798687
486.10500,6.882965133
486.10550,8.714131579
486.10600,10.24010362
486.10650,9.93490921
486.10700,8.408937171
486.10750,7.798548356
486.10800,8.408937171
486.10850,9.324520394
486.10900,9.019325987
486.10950,7.493353948
486.11000,5.96738191
486.11050,5.051798687
486.11100,4.746604279
486.11150,4.746604279
486.11200,4.136215463
486.11250,2.915437833
486.11300,1.389465794
486.11350,-0.1365062443
486.11400,-1.357283875
486.11450,-2.272867098
486.11500,-2.883255914
486.11550,-4.104033544
486.11600,-5.019616768
486.11650,-5.630005583
486.11700,-6.240394398
486.11750,-6.850783214
486.11800,-7.461172029
486.11850,-6.545588806
486.11900,-5.019616768
486.11950,-4.104033544
486.12000,-4.104033544
486.12050,-3.798839137
486.12100,-2.883255914
486.12150,-2.578061506
486.12200,-2.883255914
486.12250,-1.662478283
486.12300,0.7790769788
486.12350,2.915437833
486.12400,3.831021056
486.12450,3.831021056
486.12500,4.746604279
486.12550,5.662187502
486.12600,5.662187502
486.12650,5.356993094
486.12700,6.272576317
486.12750,7.188159541
486.12800,6.882965133
486.12850,5.96738191
486.12900,5.051798687
486.12950,5.051798687
486.13000,4.746604279
486.13050,3.831021056
486.13100,3.525826648
486.13150,3.831021056
486.13200,4.136215463
486.13250,2.610243425
486.13300,0.4738825711
486.13350,-0.1365062443
486.13400,0.1686881634
486.13450,0.7790769788
486.13500,-0.441700652
486.13550,-2.578061506
486.13600,-3.493644729
486.13650,-2.883255914
486.13700,-2.883255914
486.13750,-4.409227952
486.13800,-7.461172029
486.13850,-9.902727291
486.13900,-11.12350492
486.13950,-11.42869933
486.14000,-12.03908814
486.14050,-12.03908814
486.14100,-11.42869933
486.14150,-10.2079217
486.14200,-8.987144068
486.14250,-8.071560845
486.14300,-6.850783214
486.14350,-5.630005583
486.14400,-4.71442236
486.14450,-3.188450321
486.14500,-1.052089467
486.14550,0.4738825711
486.14600,1.389465794
486.14650,1.99985461
486.14700,3.525826648
486.14750,5.356993094
486.14800,6.272576317
486.14850,5.96738191
486.14900,5.356993094
486.14950,5.356993094
486.15000,6.272576317
486.15050,6.882965133
486.15100,6.577770725
486.15150,5.356993094
486.15200,4.136215463
486.15250,3.525826648
486.15300,3.22063224
486.15350,3.22063224
486.15400,2.305049017
486.15450,0.4738825711
486.15500,-1.967672691
486.15550,-4.71442236
486.15600,-6.850783214
486.15650,-7.461172029
486.15700,-6.850783214
486.15750,-6.545588806
486.15800,-7.155977621
486.15850,-8.376755252
486.15900,-8.68194966
486.15950,-7.766366437
486.16000,-6.850783214
486.16050,-7.461172029
486.16100,-8.376755252
486.16150,-7.766366437
486.16200,-5.630005583
486.16250,-2.578061506
486.16300,-0.441700652
486.16350,0.1686881634
486.16400,0.1686881634
486.16450,0.4738825711
486.16500,1.694660202
486.16550,3.22063224
486.16600,4.746604279
486.16650,5.051798687
486.16700,5.051798687
486.16750,5.356993094
486.16800,5.662187502
486.16850,5.96738191
486.16900,5.96738191
486.16950,6.272576317
486.17000,5.96738191
486.17050,4.746604279
486.17100,3.831021056
486.17150,4.441409871
486.17200,5.662187502
486.17250,5.356993094
486.17300,2.610243425
486.17350,-0.1365062443
486.17400,-0.1365062443
486.17450,0.1686881634
486.17500,-0.1365062443
486.17550,-1.967672691
486.17600,-4.104033544
486.17650,-5.630005583
486.17700,-6.850783214
486.17750,-8.071560845
486.17800,-7.766366437
486.17850,-6.545588806
486.17900,-6.545588806
486.17950,-8.376755252
486.18000,-10.81831051
486.18050,-11.12350492
486.18100,-9.597532883
486.18150,-8.071560845
486.18200,-6.545588806
486.18250,-4.104033544
486.18300,-1.357283875
486.18350,0.4738825711
486.18400,0.7790769788
486.18450,0.7790769788
486.18500,1.99985461
486.18550,4.136215463
486.18600,5.356993094
486.18650,6.272576317
486.18700,6.882965133
486.18750,7.798548356
486.18800,8.103742764
486.18850,7.798548356
486.18900,6.577770725
486.18950,6.577770725
486.19000,6.882965133
486.19050,6.882965133
486.19100,5.96738191
486.19150,5.051798687
486.19200,5.96738191
486.19250,6.882965133
486.19300,5.662187502
486.19350,3.22063224
486.19400,1.694660202
486.19450,1.99985461
486.19500,1.694660202
486.19550,0.1686881634
486.19600,-1.357283875
486.19650,-1.662478283
486.19700,-1.967672691
486.19750,-3.493644729
486.19800,-5.324811175
486.19850,-6.545588806
486.19900,-6.545588806
486.19950,-6.545588806
486.20000,-6.240394398
486.20050,-5.630005583
486.20100,-5.324811175
486.20150,-5.324811175
486.20200,-5.019616768
486.20250,-4.104033544
486.20300,-2.578061506
486.20350,-1.967672691
486.20400,-1.052089467
486.20450,-0.441700652
486.20500,0.4738825711
486.20550,1.694660202
486.20600,3.831021056
486.20650,6.882965133
486.20700,9.019325987
486.20750,8.714131579
486.20800,7.493353948
486.20850,8.103742764
486.20900,9.324520394
486.20950,9.324520394
486.21000,6.882965133
486.21050,4.746604279
486.21100,4.441409871
486.21150,4.136215463
486.21200,2.305049017
486.21250,-0.1365062443
486.21300,-1.052089467
486.21350,-0.7468950597
486.21400,-0.441700652
486.21450,-1.357283875
486.21500,-3.188450321
486.21550,-4.409227952
486.21600,-5.019616768
486.21650,-5.324811175
486.21700,-5.324811175
486.21750,-5.019616768
486.21800,-5.324811175
486.21850,-6.850783214
486.21900,-8.376755252
486.21950,-8.68194966
486.22000,-7.155977621
486.22050,-5.019616768
486.22100,-3.493644729
486.22150,-2.883255914
486.22200,-2.883255914
486.22250,-3.493644729
486.22300,-3.798839137
486.22350,-1.967672691
486.22400,0.7790769788
486.22450,3.22063224
486.22500,3.22063224
486.22550,2.610243425
486.22600,3.831021056
486.22650,6.272576317
486.22700,6.882965133
486.22750,5.356993094
486.22800,4.746604279
486.22850,5.662187502
486.22900,5.96738191
486.22950,3.525826648
486.23000,0.1686881634
486.23050,-0.1365062443
486.23100,2.305049017
486.23150,4.441409871
486.23200,4.441409871
486.23250,3.22063224
486.23300,1.99985461
486.23350,0.7790769788
486.23400,-0.1365062443
486.23450,0.1686881634
486.23500,0.4738825711
486.23550,-0.1365062443
486.23600,-2.272867098
486.23650,-3.798839137
486.23700,-4.104033544
486.23750,-4.71442236
486.23800,-5.935199991
486.23850,-6.240394398
486.23900,-5.324811175
486.23950,-4.409227952
486.24000,-4.71442236
486.24050,-4.409227952
486.24100,-3.798839137
486.24150,-3.798839137
486.24200,-5.324811175
486.24250,-7.155977621
486.24300,-7.155977621
486.24350,-5.935199991
486.24400,-5.019616768
486.24450,-4.104033544
486.24500,-1.967672691
486.24550,0.4738825711
486.24600,2.610243425
486.24650,3.525826648
486.24700,4.136215463
486.24750,4.746604279
486.24800,4.441409871
486.24850,3.831021056
486.24900,3.831021056
486.24950,5.356993094
486.25000,6.882965133
486.25050,6.882965133
486.25100,5.96738191
486.25150,5.051798687
486.25200,5.051798687
486.25250,5.356993094
486.25300,4.746604279
486.25350,3.525826648
486.25400,1.99985461
486.25450,1.694660202
486.25500,1.694660202
486.25550,1.084271386
486.25600,-0.1365062443
486.25650,-1.967672691
486.25700,-2.883255914
486.25750,-2.883255914
486.25800,-3.188450321
486.25850,-4.104033544
486.25900,-5.019616768
486.25950,-6.240394398
486.26000,-6.850783214
486.26050,-7.155977621
486.26100,-6.850783214
486.26150,-5.935199991
486.26200,-4.409227952
486.26250,-3.188450321
486.26300,-1.662478283
486.26350,-0.441700652
486.26400,0.7790769788
486.26450,2.305049017
486.26500,2.610243425
486.26550,2.610243425
486.26600,2.610243425
486.26650,2.915437833
486.26700,3.22063224
486.26750,3.525826648
486.26800,4.136215463
486.26850,4.441409871
486.26900,3.831021056
486.26950,3.22063224
486.27000,2.915437833
486.27050,3.525826648
486.27100,3.525826648
486.27150,2.610243425
486.27200,0.7790769788
486.27250,-0.441700652
486.27300,-0.7468950597
486.27350,-0.7468950597
486.27400,-0.7468950597
486.27450,-1.662478283
486.27500,-2.883255914
486.27550,-3.798839137
486.27600,-4.104033544
486.27650,-4.104033544
486.27700,-5.019616768
486.27750,-6.545588806
486.27800,-8.071560845
486.27850,-8.68194966
486.27900,-8.68194966
486.27950,-8.68194966
486.28000,-8.68194966
486.28050,-8.376755252
486.28100,-8.071560845
486.28150,-7.461172029
486.28200,-6.545588806
486.28250,-5.324811175
486.28300,-4.409227952
486.28350,-3.188450321
486.28400,-1.357283875
486.28450,0.1686881634
486.28500,1.389465794
486.28550,1.99985461
486.28600,2.915437833
486.28650,5.051798687
486.28700,6.577770725
486.28750,6.577770725
486.28800,5.662187502
486.28850,5.051798687
486.28900,5.051798687
486.28950,5.051798687
486.29000,4.746604279
486.29050,4.136215463
486.29100,3.831021056
486.29150,3.831021056
486.29200,3.831021056
486.29250,2.915437833
486.29300,0.4738825711
486.29350,-2.272867098
486.29400,-3.493644729
486.29450,-2.272867098
486.29500,-0.441700652
486.29550,-0.7468950597
486.29600,-3.188450321
486.29650,-5.630005583
486.29700,-5.324811175
486.29750,-3.798839137
486.29800,-3.493644729
486.29850,-5.019616768
486.29900,-6.545588806
486.29950,-6.850783214
486.30000,-6.240394398
486.30050,-5.324811175
486.30100,-4.409227952
486.30150,-3.493644729
486.30200,-2.578061506
486.30250,-2.578061506
486.30300,-2.883255914
486.30350,-1.967672691
486.30400,-0.7468950597
486.30450,-0.1365062443
486.30500,-0.441700652
486.30550,0.1686881634
486.30600,2.305049017
486.30650,4.136215463
486.30700,4.441409871
486.30750,3.525826648
486.30800,3.525826648
486.30850,4.441409871
486.30900,4.746604279
486.30950,3.831021056
486.31000,3.831021056
486.31050,4.746604279
486.31100,5.356993094
486.31150,4.136215463
486.31200,2.305049017
486.31250,0.7790769788
486.31300,-0.1365062443
486.31350,-0.1365062443
486.31400,-1.052089467
486.31450,-1.967672691
486.31500,-3.188450321
486.31550,-4.71442236
486.31600,-6.545588806
486.31650,-7.461172029
486.31700,-7.461172029
486.31750,-7.155977621
486.31800,-6.545588806
486.31850,-6.240394398
486.31900,-6.850783214
486.31950,-7.461172029
486.32000,-7.155977621
486.32050,-5.324811175
486.32100,-3.493644729
486.32150,-2.578061506
486.32200,-1.662478283
486.32250,-0.7468950597
486.32300,0.4738825711
486.32350,1.389465794
486.32400,2.610243425
486.32450,4.136215463
486.32500,5.96738191
486.32550,7.188159541
486.32600,8.408937171
486.32650,10.54529803
486.32700,11.76607566
486.32750,11.46088125
486.32800,9.629714802
486.32850,9.019325987
486.32900,9.324520394
486.32950,9.324520394
486.33000,7.798548356
486.33050,6.272576317
486.33100,6.577770725
486.33150,8.408937171
486.33200,9.324520394
486.33250,9.019325987
486.33300,8.103742764
486.33350,6.577770725
486.33400,5.051798687
486.33450,3.831021056
486.33500,3.831021056
486.33550,3.525826648
486.33600,2.305049017
486.33650,-0.1365062443
486.33700,-2.578061506
486.33750,-4.409227952
486.33800,-5.324811175
486.33850,-5.324811175
486.33900,-5.324811175
486.33950,-5.630005583
486.34000,-5.935199991
486.34050,-6.240394398
486.34100,-5.630005583
486.34150,-4.71442236
486.34200,-4.104033544
486.34250,-3.798839137
486.34300,-3.798839137
486.34350,-3.188450321
486.34400,-1.662478283
486.34450,-0.1365062443
486.34500,0.1686881634
486.34550,1.084271386
486.34600,2.610243425
486.34650,5.051798687
486.34700,6.577770725
486.34750,6.577770725
486.34800,6.272576317
486.34850,7.798548356
486.34900,10.24010362
486.34950,11.46088125
486.35000,10.54529803
486.35050,9.629714802
486.35100,9.93490921
486.35150,9.629714802
486.35200,7.798548356
486.35250,5.662187502
486.35300,4.746604279
486.35350,5.356993094
486.35400,5.051798687
486.35450,3.831021056
486.35500,3.525826648
486.35550,4.441409871
486.35600,4.746604279
486.35650,2.915437833
486.35700,0.7790769788
486.35750,-0.441700652
486.35800,-1.662478283
486.35850,-3.493644729
486.35900,-5.324811175
486.35950,-5.324811175
486.36000,-6.240394398
486.36050,-9.292338475
486.36100,-12.34428255
486.36150,-12.34428255
486.36200,-8.987144068
486.36250,-6.850783214
486.36300,-7.766366437
486.36350,-8.68194966
486.36400,-8.071560845
486.36450,-6.850783214
486.36500,-5.630005583
486.36550,-3.798839137
486.36600,-1.357283875
486.36650,-0.1365062443
486.36700,-0.441700652
486.36750,-1.357283875
486.36800,-0.1365062443
486.36850,2.610243425
486.36900,4.441409871
486.36950,4.441409871
486.37000,3.831021056
486.37050,3.22063224
486.37100,3.22063224
486.37150,2.915437833
486.37200,2.305049017
486.37250,0.7790769788
486.37300,-0.441700652
486.37350,-0.441700652
486.37400,0.4738825711
486.37450,1.084271386
486.37500,0.7790769788
486.37550,-0.1365062443
486.37600,-0.1365062443
486.37650,-1.052089467
486.37700,-4.104033544
486.37750,-7.461172029
486.37800,-8.68194966
486.37850,-7.461172029
486.37900,-5.630005583
486.37950,-5.630005583
486.38000,-6.850783214
486.38050,-7.766366437
486.38100,-8.071560845
486.38150,-8.071560845
486.38200,-7.461172029
486.38250,-6.240394398
486.38300,-3.798839137
486.38350,-1.662478283
486.38400,-1.052089467
486.38450,-0.7468950597
486.38500,-0.441700652
486.38550,0.4738825711
486.38600,1.084271386
486.38650,1.389465794
486.38700,1.694660202
486.38750,1.99985461
486.38800,2.610243425
486.38850,3.22063224
486.38900,3.525826648
486.38950,4.441409871
486.39000,5.96738191
486.39050,7.798548356
486.39100,8.408937171
486.39150,7.493353948
486.39200,5.96738191
486.39250,5.662187502
486.39300,5.96738191
486.39350,5.051798687
486.39400,2.915437833
486.39450,1.694660202
486.39500,1.694660202
486.39550,1.389465794
486.39600,-0.1365062443
486.39650,-1.357283875
486.39700,-1.662478283
486.39750,-1.662478283
486.39800,-2.883255914
486.39850,-5.324811175
486.39900,-7.155977621
486.39950,-7.461172029
486.40000,-6.545588806
486.40050,-5.019616768
486.40100,-4.71442236
486.40150,-4.71442236
486.40200,-4.409227952
486.40250,-3.188450321
486.40300,-2.272867098
486.40350,-1.967672691
486.40400,-2.272867098
486.40450,-2.272867098
486.40500,-1.662478283
486.40550,-0.7468950597
486.40600,0.1686881634
486.40650,1.694660202
486.40700,3.525826648
486.40750,4.441409871
486.40800,4.136215463
486.40850,3.22063224
486.40900,1.694660202
486.40950,0.4738825711
486.41000,0.7790769788
486.41050,1.99985461
486.41100,1.99985461
486.41150,0.1686881634
486.41200,-0.7468950597
486.41250,-0.441700652
486.41300,-0.1365062443
486.41350,-1.052089467
486.41400,-1.967672691
486.41450,-1.357283875
486.41500,-0.7468950597
486.41550,-2.578061506
486.41600,-5.324811175
486.41650,-6.240394398
486.41700,-5.630005583
486.41750,-5.935199991
486.41800,-7.461172029
486.41850,-8.68194966
486.41900,-8.376755252
486.41950,-8.68194966
486.42000,-9.902727291
486.42050,-10.51311611
486.42100,-9.292338475
486.42150,-7.766366437
486.42200,-7.155977621
486.42250,-6.545588806
486.42300,-5.324811175
486.42350,-4.409227952
486.42400,-4.104033544
486.42450,-3.798839137
486.42500,-2.578061506
486.42550,-1.967672691
486.42600,-1.662478283
486.42650,-1.052089467
486.42700,1.084271386
486.42750,3.831021056
486.42800,5.051798687
486.42850,5.662187502
486.42900,6.577770725
486.42950,7.493353948
486.43000,7.798548356
486.43050,7.493353948
486.43100,6.882965133
486.43150,6.577770725
486.43200,6.577770725
486.43250,7.188159541
486.43300,7.798548356
486.43350,7.493353948
486.43400,5.96738191
486.43450,4.441409871
486.43500,3.22063224
486.43550,2.305049017
486.43600,1.389465794
486.43650,0.1686881634
486.43700,-1.357283875
486.43750,-3.188450321
486.43800,-4.104033544
486.43850,-3.493644729
486.43900,-3.493644729
486.43950,-5.019616768
486.44000,-6.850783214
486.44050,-7.461172029
486.44100,-7.155977621
486.44150,-6.850783214
486.44200,-6.545588806
486.44250,-5.324811175
486.44300,-3.798839137
486.44350,-2.883255914
486.44400,-2.578061506
486.44450,-2.272867098
486.44500,-1.662478283
486.44550,-1.052089467
486.44600,0.1686881634
486.44650,2.305049017
486.44700,3.831021056
486.44750,3.831021056
486.44800,3.831021056
486.44850,4.746604279
486.44900,5.96738191
486.44950,5.96738191
486.45000,5.356993094
486.45050,5.051798687
486.45100,5.662187502
486.45150,6.577770725
486.45200,6.882965133
486.45250,6.577770725
486.45300,5.662187502
486.45350,4.136215463
486.45400,3.831021056
486.45450,3.525826648
486.45500,2.915437833
486.45550,1.694660202
486.45600,0.1686881634
486.45650,-0.7468950597
486.45700,-1.967672691
486.45750,-3.188450321
486.45800,-3.493644729
486.45850,-2.883255914
486.45900,-3.188450321
486.45950,-5.324811175
486.46000,-7.461172029
486.46050,-7.766366437
486.46100,-7.461172029
486.46150,-7.461172029
486.46200,-7.766366437
486.46250,-6.850783214
486.46300,-5.324811175
486.46350,-4.409227952
486.46400,-3.798839137
486.46450,-2.883255914
486.46500,-1.967672691
486.46550,-1.052089467
486.46600,-0.1365062443
486.46650,1.99985461
486.46700,4.746604279
486.46750,6.272576317
486.46800,6.577770725
486.46850,5.96738191
486.46900,5.96738191
486.46950,6.882965133
486.47000,8.103742764
486.47050,8.408937171
486.47100,7.188159541
486.47150,5.356993094
486.47200,4.746604279
486.47250,5.662187502
486.47300,5.96738191
486.47350,5.356993094
486.47400,4.441409871
486.47450,4.746604279
486.47500,4.746604279
486.47550,3.525826648
486.47600,1.084271386
486.47650,-0.1365062443
486.47700,-0.1365062443
486.47750,0.1686881634
486.47800,-0.441700652
486.47850,-2.578061506
486.47900,-4.71442236
486.47950,-5.630005583
486.48000,-5.019616768
486.48050,-4.104033544
486.48100,-3.798839137
486.48150,-3.798839137
486.48200,-3.798839137
486.48250,-4.104033544
486.48300,-4.71442236
486.48350,-5.324811175
486.48400,-5.324811175
486.48450,-4.409227952
486.48500,-4.104033544
486.48550,-4.104033544
486.48600,-3.188450321
486.48650,-0.7468950597
486.48700,1.694660202
486.48750,4.136215463
486.48800,6.272576317
486.48850,8.103742764
486.48900,8.408937171
486.48950,6.577770725
486.49000,5.051798687
486.49050,4.746604279
486.49100,5.96738191
486.49150,6.577770725
486.49200,6.577770725
486.49250,5.356993094
486.49300,4.136215463
486.49350,2.915437833
486.49400,1.99985461
486.49450,1.389465794
486.49500,0.4738825711
486.49550,-0.7468950597
486.49600,-2.272867098
486.49650,-3.188450321
486.49700,-3.188450321
486.49750,-3.188450321
486.49800,-3.798839137
486.49850,-5.019616768
486.49900,-6.240394398
486.49950,-6.850783214
486.50000,-6.850783214
486.50050,-7.155977621
486.50100,-8.071560845
486.50150,-8.071560845
486.50200,-6.545588806
486.50250,-5.019616768
486.50300,-4.71442236
486.50350,-5.019616768
486.50400,-4.104033544
486.50450,-1.967672691
486.50500,0.1686881634
486.50550,2.305049017
486.50600,4.441409871
486.50650,6.882965133
486.50700,8.408937171
486.50750,8.408937171
486.50800,8.714131579
486.50850,9.629714802
486.50900,10.54529803
486.50950,9.93490921
486.51000,8.408937171
486.51050,8.408937171
486.51100,9.629714802
486.51150,9.93490921
486.51200,9.324520394
486.51250,7.798548356
486.51300,6.272576317
486.51350,4.746604279
486.51400,3.831021056
486.51450,3.22063224
486.51500,2.305049017
486.51550,0.7790769788
486.51600,-0.441700652
486.51650,-1.052089467
486.51700,-1.662478283
486.51750,-3.188450321
486.51800,-4.71442236
486.51850,-5.630005583
486.51900,-6.850783214
486.51950,-8.68194966
486.52000,-9.902727291
486.52050,-9.292338475
486.52100,-8.376755252
486.52150,-9.292338475
486.52200,-11.42869933
486.52250,-11.73389374
486.52300,-9.597532883
486.52350,-7.766366437
486.52400,-7.766366437
486.52450,-8.68194966
486.52500,-7.766366437
486.52550,-5.324811175
486.52600,-3.188450321
486.52650,-2.272867098
486.52700,-1.662478283
486.52750,0.1686881634
486.52800,2.610243425
486.52850,4.136215463
486.52900,3.525826648
486.52950,2.610243425
486.53000,3.22063224
486.53050,4.441409871
486.53100,4.746604279
486.53150,3.525826648
486.53200,2.305049017
486.53250,2.610243425
486.53300,3.525826648
486.53350,2.915437833
486.53400,0.1686881634
486.53450,-2.578061506
486.53500,-3.188450321
486.53550,-1.967672691
486.53600,-1.967672691
486.53650,-4.104033544
486.53700,-6.545588806
486.53750,-6.545588806
486.53800,-5.019616768
486.53850,-4.71442236
486.53900,-5.630005583
486.53950,-6.240394398
486.54000,-5.324811175
486.54050,-5.324811175
486.54100,-6.240394398
486.54150,-6.240394398
486.54200,-4.409227952
486.54250,-2.272867098
486.54300,-1.662478283
486.54350,-1.052089467
486.54400,-0.1365062443
486.54450,0.7790769788
486.54500,1.99985461
486.54550,2.915437833
486.54600,4.136215463
486.54650,5.051798687
486.54700,5.051798687
486.54750,5.356993094
486.54800,6.272576317
486.54850,6.882965133
486.54900,6.577770725
486.54950,6.272576317
486.55000,6.882965133
486.55050,7.188159541
486.55100,6.882965133
486.55150,5.356993094
486.55200,4.136215463
486.55250,3.22063224
486.55300,2.305049017
486.55350,1.084271386
486.55400,-0.1365062443
486.55450,-1.357283875
486.55500,-2.578061506
486.55550,-2.883255914
486.55600,-3.188450321
486.55650,-4.409227952
486.55700,-6.545588806
486.55750,-7.461172029
486.55800,-7.461172029
486.55850,-7.461172029
486.55900,-8.68194966
486.55950,-9.902727291
486.56000,-9.902727291
486.56050,-8.68194966
486.56100,-7.461172029
486.56150,-6.850783214
486.56200,-6.240394398
486.56250,-5.019616768
486.56300,-3.188450321
486.56350,-0.441700652
486.56400,2.305049017
486.56450,4.136215463
486.56500,4.746604279
486.56550,4.441409871
486.56600,4.136215463
486.56650,4.746604279
486.56700,5.662187502
486.56750,5.662187502
486.56800,4.746604279
486.56850,3.831021056
486.56900,4.441409871
486.56950,6.272576317
486.57000,7.188159541
486.57050,6.272576317
486.57100,5.051798687
486.57150,5.051798687
486.57200,5.356993094
486.57250,4.441409871
486.57300,3.22063224
486.57350,1.99985461
486.57400,0.7790769788
486.57450,-0.7468950597
486.57500,-1.967672691
486.57550,-1.967672691
486.57600,-2.578061506
486.57650,-4.409227952
486.57700,-5.935199991
486.57750,-5.935199991
486.57800,-5.630005583
