"type","name","time_units","begin_time","frequency","count","units"
"signal","Ultium EMG-EXT.DIG. RT","s",494.92000,2000,22000,"uV"

"time","value"
494.92000,13.91418062
494.92050,20.01806878
494.92100,26.73234575
494.92150,27.34273456
494.92200,20.933652
494.92250,10.25184773
494.92300,0.180432276
494.92350,-5.923455878
494.92400,-9.890983178
494.92450,-13.55331607
494.92500,-15.99487133
494.92550,-15.99487133
494.92600,-13.85851048
494.92650,-12.63773285
494.92700,-11.72214962
494.92750,-7.449427917
494.92800,0.4856266837
494.92850,6.589514838
494.92900,4.147959576
494.92950,-5.007872655
494.93000,-12.33253844
494.93050,-10.50137199
494.93100,-2.566317393
494.93150,2.621987538
494.93200,1.096015499
494.93250,-6.228650286
494.93300,-12.02734403
494.93350,-8.36501114
494.93400,5.673931615
494.93450,22.15442963
494.93500,28.8687066
494.93550,22.45962404
494.93600,10.86223655
494.93650,3.232376353
494.93700,0.7908210914
494.93750,-0.1247621317
494.93800,-1.65073417
494.93850,-3.787095024
494.93900,-5.313067063
494.93950,-6.533844693
494.94000,-6.839039101
494.94050,-5.923455878
494.94100,-5.313067063
494.94150,-5.313067063
494.94200,-4.702678247
494.94250,-3.481900616
494.94300,-2.871511801
494.94350,-3.176706209
494.94400,-2.871511801
494.94450,-0.1247621317
494.94500,1.706404315
494.94550,0.7908210914
494.94600,-2.566317393
494.94650,-5.007872655
494.94700,-4.702678247
494.94750,-3.481900616
494.94800,-2.566317393
494.94850,-1.65073417
494.94900,-0.1247621317
494.94950,0.4856266837
494.95000,0.4856266837
494.95050,-0.1247621317
494.95100,-1.345539762
494.95150,-2.871511801
494.95200,-3.787095024
494.95250,-4.092289432
494.95300,-3.481900616
494.95350,-2.871511801
494.95400,-3.176706209
494.95450,-3.481900616
494.95500,-3.176706209
494.95550,-2.261122986
494.95600,-1.345539762
494.95650,-1.040345355
494.95700,-0.7351509471
494.95750,-0.7351509471
494.95800,-1.040345355
494.95850,-1.65073417
494.95900,-1.65073417
494.95950,-1.040345355
494.96000,-0.1247621317
494.96050,0.7908210914
494.96100,0.7908210914
494.96150,-0.1247621317
494.96200,-0.4299565394
494.96250,-0.1247621317
494.96300,1.096015499
494.96350,1.401209907
494.96400,0.4856266837
494.96450,-0.1247621317
494.96500,-0.1247621317
494.96550,1.401209907
494.96600,1.401209907
494.96650,-0.1247621317
494.96700,-1.345539762
494.96750,-1.65073417
494.96800,-1.65073417
494.96850,-1.345539762
494.96900,-0.4299565394
494.96950,0.4856266837
494.97000,0.7908210914
494.97050,0.180432276
494.97100,-0.1247621317
494.97150,0.4856266837
494.97200,1.706404315
494.97250,1.096015499
494.97300,-0.1247621317
494.97350,-0.4299565394
494.97400,-0.1247621317
494.97450,-0.4299565394
494.97500,-1.345539762
494.97550,-1.65073417
494.97600,-0.4299565394
494.97650,0.180432276
494.97700,-0.1247621317
494.97750,-0.1247621317
494.97800,0.4856266837
494.97850,2.31679313
494.97900,2.927181945
494.97950,2.31679313
494.98000,0.7908210914
494.98050,0.180432276
494.98100,0.180432276
494.98150,0.180432276
494.98200,0.180432276
494.98250,-0.1247621317
494.98300,-0.1247621317
494.98350,0.180432276
494.98400,0.4856266837
494.98450,0.180432276
494.98500,-1.040345355
494.98550,-3.176706209
494.98600,-4.092289432
494.98650,-3.176706209
494.98700,-1.345539762
494.98750,-0.1247621317
494.98800,-0.1247621317
494.98850,-0.4299565394
494.98900,-1.65073417
494.98950,-1.955928578
494.99000,-1.65073417
494.99050,-1.040345355
494.99100,-0.1247621317
494.99150,0.180432276
494.99200,0.7908210914
494.99250,1.096015499
494.99300,1.096015499
494.99350,1.706404315
494.99400,2.927181945
494.99450,3.232376353
494.99500,2.31679313
494.99550,1.706404315
494.99600,2.011598722
494.99650,2.927181945
494.99700,2.927181945
494.99750,2.31679313
494.99800,2.621987538
494.99850,3.842765168
494.99900,4.758348392
494.99950,4.453153984
495.00000,3.232376353
495.00050,2.927181945
495.00100,3.537570761
495.00150,3.842765168
495.00200,3.842765168
495.00250,3.232376353
495.00300,2.31679313
495.00350,1.706404315
495.00400,1.096015499
495.00450,0.180432276
495.00500,0.4856266837
495.00550,1.401209907
495.00600,2.31679313
495.00650,2.31679313
495.00700,1.401209907
495.00750,0.4856266837
495.00800,-0.1247621317
495.00850,-0.1247621317
495.00900,-0.1247621317
495.00950,0.4856266837
495.01000,1.401209907
495.01050,1.706404315
495.01100,1.706404315
495.01150,1.706404315
495.01200,2.011598722
495.01250,2.011598722
495.01300,1.706404315
495.01350,1.706404315
495.01400,1.706404315
495.01450,1.401209907
495.01500,0.7908210914
495.01550,0.4856266837
495.01600,1.096015499
495.01650,1.706404315
495.01700,1.096015499
495.01750,0.4856266837
495.01800,0.180432276
495.01850,0.180432276
495.01900,-0.1247621317
495.01950,-0.4299565394
495.02000,-0.7351509471
495.02050,-0.7351509471
495.02100,-1.040345355
495.02150,-1.345539762
495.02200,-1.65073417
495.02250,-1.345539762
495.02300,-1.65073417
495.02350,-2.566317393
495.02400,-4.092289432
495.02450,-5.007872655
495.02500,-5.313067063
495.02550,-5.007872655
495.02600,-4.092289432
495.02650,-3.176706209
495.02700,-3.481900616
495.02750,-4.39748384
495.02800,-5.007872655
495.02850,-5.313067063
495.02900,-5.313067063
495.02950,-4.092289432
495.03000,-1.955928578
495.03050,-0.1247621317
495.03100,0.180432276
495.03150,-0.4299565394
495.03200,0.4856266837
495.03250,5.063542799
495.03300,9.336264507
495.03350,9.946653322
495.03400,6.589514838
495.03450,3.232376353
495.03500,2.011598722
495.03550,1.706404315
495.03600,1.401209907
495.03650,0.4856266837
495.03700,-0.7351509471
495.03750,-1.65073417
495.03800,-2.566317393
495.03850,-3.481900616
495.03900,-4.092289432
495.03950,-5.007872655
495.04000,-4.39748384
495.04050,-2.871511801
495.04100,-2.261122986
495.04150,-2.871511801
495.04200,-1.955928578
495.04250,2.31679313
495.04300,7.810292469
495.04350,8.725875692
495.04400,4.758348392
495.04450,0.4856266837
495.04500,-0.7351509471
495.04550,-0.4299565394
495.04600,-0.7351509471
495.04650,-1.345539762
495.04700,-1.040345355
495.04750,-0.1247621317
495.04800,0.180432276
495.04850,0.4856266837
495.04900,1.401209907
495.04950,2.011598722
495.05000,1.706404315
495.05050,0.7908210914
495.05100,0.7908210914
495.05150,1.096015499
495.05200,1.401209907
495.05250,1.096015499
495.05300,0.4856266837
495.05350,-0.1247621317
495.05400,-0.1247621317
495.05450,0.7908210914
495.05500,1.706404315
495.05550,1.706404315
495.05600,0.7908210914
495.05650,0.4856266837
495.05700,1.096015499
495.05750,1.706404315
495.05800,0.7908210914
495.05850,-0.1247621317
495.05900,0.7908210914
495.05950,2.621987538
495.06000,2.621987538
495.06050,1.096015499
495.06100,-0.1247621317
495.06150,0.4856266837
495.06200,1.706404315
495.06250,0.7908210914
495.06300,-0.4299565394
495.06350,-1.040345355
495.06400,-1.040345355
495.06450,-2.566317393
495.06500,-5.61826147
495.06550,-6.533844693
495.06600,-4.39748384
495.06650,-2.261122986
495.06700,-2.566317393
495.06750,-5.007872655
495.06800,-7.449427917
495.06850,-8.36501114
495.06900,-8.059816732
495.06950,-6.839039101
495.07000,-5.923455878
495.07050,-5.007872655
495.07100,-4.702678247
495.07150,-4.092289432
495.07200,-2.871511801
495.07250,-1.955928578
495.07300,-1.345539762
495.07350,-0.4299565394
495.07400,0.180432276
495.07450,0.4856266837
495.07500,0.180432276
495.07550,-0.4299565394
495.07600,-1.040345355
495.07650,-1.955928578
495.07700,-2.261122986
495.07750,-1.345539762
495.07800,-0.7351509471
495.07850,-1.040345355
495.07900,-1.345539762
495.07950,-0.4299565394
495.08000,0.180432276
495.08050,-0.1247621317
495.08100,-1.345539762
495.08150,-0.7351509471
495.08200,0.4856266837
495.08250,0.4856266837
495.08300,-0.1247621317
495.08350,0.4856266837
495.08400,-0.1247621317
495.08450,-5.007872655
495.08500,-11.72214962
495.08550,-14.16370489
495.08600,-11.41695522
495.08650,-9.890983178
495.08700,-11.41695522
495.08750,-11.72214962
495.08800,-8.059816732
495.08850,-5.61826147
495.08900,-5.007872655
495.08950,-0.4299565394
495.09000,12.9985974
495.09050,30.08948423
495.09100,40.16089968
495.09150,39.55051087
495.09200,30.08948423
495.09250,12.08301418
495.09300,-10.8065664
495.09350,-28.20264764
495.09400,-29.72861968
495.09450,-19.35200982
495.09500,-11.11176081
495.09550,-10.50137199
495.09600,-12.02734403
495.09650,-10.19617759
495.09700,-7.754622324
495.09750,-7.144233509
495.09800,-5.61826147
495.09850,-0.1247621317
495.09900,6.589514838
495.09950,10.25184773
495.10000,9.336264507
495.10050,7.505098061
495.10100,5.673931615
495.10150,4.453153984
495.10200,4.453153984
495.10250,5.673931615
495.10300,4.758348392
495.10350,0.180432276
495.10400,-5.007872655
495.10450,-8.059816732
495.10500,-6.533844693
495.10550,-3.787095024
495.10600,-1.65073417
495.10650,-0.7351509471
495.10700,-0.7351509471
495.10750,-1.040345355
495.10800,-1.345539762
495.10850,-1.040345355
495.10900,-1.040345355
495.10950,-1.65073417
495.11000,-2.566317393
495.11050,-2.871511801
495.11100,-2.871511801
495.11150,-3.481900616
495.11200,-3.481900616
495.11250,-2.261122986
495.11300,-0.4299565394
495.11350,-0.1247621317
495.11400,-0.7351509471
495.11450,-0.7351509471
495.11500,0.4856266837
495.11550,2.31679313
495.11600,3.537570761
495.11650,3.842765168
495.11700,3.537570761
495.11750,3.842765168
495.11800,5.063542799
495.11850,6.589514838
495.11900,6.894709245
495.11950,6.589514838
495.12000,6.589514838
495.12050,7.505098061
495.12100,8.115486876
495.12150,7.199903653
495.12200,5.673931615
495.12250,5.063542799
495.12300,5.368737207
495.12350,5.979126022
495.12400,5.979126022
495.12450,5.979126022
495.12500,5.979126022
495.12550,5.368737207
495.12600,4.758348392
495.12650,5.368737207
495.12700,8.115486876
495.12750,10.25184773
495.12800,8.725875692
495.12850,2.621987538
495.12900,-4.092289432
495.12950,-7.144233509
495.13000,-5.61826147
495.13050,-3.481900616
495.13100,-3.481900616
495.13150,-4.702678247
495.13200,-4.702678247
495.13250,-3.787095024
495.13300,-3.481900616
495.13350,-3.787095024
495.13400,-3.176706209
495.13450,-1.955928578
495.13500,-1.65073417
495.13550,-2.261122986
495.13600,-2.261122986
495.13650,-1.65073417
495.13700,-2.261122986
495.13750,-3.481900616
495.13800,-3.481900616
495.13850,-2.566317393
495.13900,-2.566317393
495.13950,-3.481900616
495.14000,-4.092289432
495.14050,-3.481900616
495.14100,-1.955928578
495.14150,-0.7351509471
495.14200,0.180432276
495.14250,0.7908210914
495.14300,-0.1247621317
495.14350,-1.345539762
495.14400,-1.040345355
495.14450,2.011598722
495.14500,4.758348392
495.14550,3.842765168
495.14600,1.096015499
495.14650,-0.1247621317
495.14700,0.7908210914
495.14750,1.401209907
495.14800,1.401209907
495.14850,2.31679313
495.14900,2.927181945
495.14950,2.011598722
495.15000,0.4856266837
495.15050,0.180432276
495.15100,2.011598722
495.15150,2.927181945
495.15200,2.31679313
495.15250,1.401209907
495.15300,2.011598722
495.15350,2.31679313
495.15400,1.401209907
495.15450,0.180432276
495.15500,0.7908210914
495.15550,1.706404315
495.15600,1.401209907
495.15650,-0.1247621317
495.15700,-0.7351509471
495.15750,-0.4299565394
495.15800,0.180432276
495.15850,1.096015499
495.15900,1.401209907
495.15950,1.401209907
495.16000,0.7908210914
495.16050,1.706404315
495.16100,3.232376353
495.16150,4.147959576
495.16200,2.621987538
495.16250,0.7908210914
495.16300,0.4856266837
495.16350,1.706404315
495.16400,2.011598722
495.16450,2.31679313
495.16500,2.927181945
495.16550,3.537570761
495.16600,2.011598722
495.16650,-0.1247621317
495.16700,-0.7351509471
495.16750,-0.4299565394
495.16800,-1.345539762
495.16850,-3.176706209
495.16900,-2.566317393
495.16950,0.180432276
495.17000,1.096015499
495.17050,-0.7351509471
495.17100,-0.1247621317
495.17150,5.979126022
495.17200,12.38820858
495.17250,12.38820858
495.17300,6.589514838
495.17350,2.31679313
495.17400,2.31679313
495.17450,2.621987538
495.17500,0.180432276
495.17550,-2.871511801
495.17600,-4.092289432
495.17650,-3.481900616
495.17700,-2.566317393
495.17750,-1.65073417
495.17800,-0.7351509471
495.17850,-0.1247621317
495.17900,-0.4299565394
495.17950,-2.261122986
495.18000,-4.702678247
495.18050,-7.144233509
495.18100,-8.36501114
495.18150,-8.36501114
495.18200,-8.670205547
495.18250,-10.8065664
495.18300,-14.46889929
495.18350,-18.43642659
495.18400,-20.26759304
495.18450,-17.52084337
495.18500,-9.280594363
495.18550,0.180432276
495.18600,6.589514838
495.18650,8.420681284
495.18700,9.336264507
495.18750,11.16743095
495.18800,12.38820858
495.18850,11.77781977
495.18900,12.08301418
495.18950,14.21937503
495.19000,13.30379181
495.19050,5.673931615
495.19100,-2.566317393
495.19150,-3.176706209
495.19200,2.927181945
495.19250,8.115486876
495.19300,7.199903653
495.19350,5.063542799
495.19400,5.673931615
495.19450,5.673931615
495.19500,0.4856266837
495.19550,-6.839039101
495.19600,-10.8065664
495.19650,-9.58578877
495.19700,-6.228650286
495.19750,-3.481900616
495.19800,-1.345539762
495.19850,-0.1247621317
495.19900,0.4856266837
495.19950,0.180432276
495.20000,-0.1247621317
495.20050,-0.1247621317
495.20100,-0.1247621317
495.20150,-1.040345355
495.20200,-2.871511801
495.20250,-5.007872655
495.20300,-6.533844693
495.20350,-6.839039101
495.20400,-7.144233509
495.20450,-7.754622324
495.20500,-8.670205547
495.20550,-8.670205547
495.20600,-5.923455878
495.20650,-0.1247621317
495.20700,6.28432043
495.20750,11.47262536
495.20800,11.47262536
495.20850,6.589514838
495.20900,1.096015499
495.20950,-0.4299565394
495.21000,-0.1247621317
495.21050,-0.4299565394
495.21100,-1.955928578
495.21150,-2.871511801
495.21200,-1.955928578
495.21250,-1.955928578
495.21300,-2.871511801
495.21350,-3.481900616
495.21400,-4.39748384
495.21450,-8.059816732
495.21500,-12.94292726
495.21550,-15.38448252
495.21600,-12.63773285
495.21650,-8.670205547
495.21700,-6.533844693
495.21750,-4.702678247
495.21800,-2.261122986
495.21850,-2.871511801
495.21900,-6.839039101
495.21950,-8.975399955
495.22000,-3.481900616
495.22050,4.758348392
495.22100,7.505098061
495.22150,4.147959576
495.22200,1.706404315
495.22250,4.147959576
495.22300,7.505098061
495.22350,7.199903653
495.22400,4.147959576
495.22450,2.31679313
495.22500,1.706404315
495.22550,1.401209907
495.22600,1.096015499
495.22650,1.706404315
495.22700,2.31679313
495.22750,2.621987538
495.22800,3.842765168
495.22850,5.063542799
495.22900,5.673931615
495.22950,5.979126022
495.23000,7.505098061
495.23050,9.946653322
495.23100,10.55704214
495.23150,9.946653322
495.23200,9.031070099
495.23250,6.28432043
495.23300,-1.955928578
495.23350,-14.46889929
495.23400,-21.18317626
495.23450,-18.13123219
495.23500,-10.19617759
495.23550,-6.533844693
495.23600,-7.144233509
495.23650,-6.839039101
495.23700,-4.702678247
495.23750,-3.176706209
495.23800,-3.787095024
495.23850,-3.481900616
495.23900,-1.955928578
495.23950,-0.4299565394
495.24000,-1.040345355
495.24050,-1.65073417
495.24100,-1.040345355
495.24150,-0.1247621317
495.24200,-0.1247621317
495.24250,-0.4299565394
495.24300,-1.040345355
495.24350,-2.261122986
495.24400,-4.092289432
495.24450,-5.61826147
495.24500,-4.39748384
495.24550,-1.65073417
495.24600,-0.1247621317
495.24650,-0.1247621317
495.24700,-1.345539762
495.24750,-0.7351509471
495.24800,0.7908210914
495.24850,2.011598722
495.24900,0.4856266837
495.24950,-0.7351509471
495.25000,-0.7351509471
495.25050,0.4856266837
495.25100,1.096015499
495.25150,-0.1247621317
495.25200,-1.65073417
495.25250,-1.040345355
495.25300,0.4856266837
495.25350,1.706404315
495.25400,1.706404315
495.25450,1.096015499
495.25500,1.401209907
495.25550,2.31679313
495.25600,3.842765168
495.25650,5.368737207
495.25700,6.894709245
495.25750,7.810292469
495.25800,9.031070099
495.25850,8.725875692
495.25900,6.28432043
495.25950,3.537570761
495.26000,3.537570761
495.26050,6.894709245
495.26100,9.336264507
495.26150,5.979126022
495.26200,-0.4299565394
495.26250,-5.007872655
495.26300,-3.176706209
495.26350,2.621987538
495.26400,8.420681284
495.26450,11.47262536
495.26500,12.38820858
495.26550,11.77781977
495.26600,8.725875692
495.26650,2.621987538
495.26700,-5.313067063
495.26750,-11.72214962
495.26800,-14.7740937
495.26850,-16.30006574
495.26900,-17.82603778
495.26950,-18.13123219
495.27000,-15.07928811
495.27050,-12.63773285
495.27100,-16.60526015
495.27150,-26.06628679
495.27200,-31.55978612
495.27250,-27.28706442
495.27300,-17.52084337
495.27350,-9.58578877
495.27400,-5.923455878
495.27450,-4.092289432
495.27500,-2.261122986
495.27550,-1.040345355
495.27600,-0.7351509471
495.27650,-0.1247621317
495.27700,0.7908210914
495.27750,1.096015499
495.27800,1.096015499
495.27850,2.011598722
495.27900,2.927181945
495.27950,3.232376353
495.28000,3.232376353
495.28050,4.453153984
495.28100,6.28432043
495.28150,6.28432043
495.28200,5.063542799
495.28250,4.147959576
495.28300,4.147959576
495.28350,3.537570761
495.28400,2.621987538
495.28450,3.232376353
495.28500,5.063542799
495.28550,5.979126022
495.28600,5.063542799
495.28650,5.368737207
495.28700,9.031070099
495.28750,12.08301418
495.28800,11.77781977
495.28850,8.115486876
495.28900,5.368737207
495.28950,5.368737207
495.29000,6.589514838
495.29050,6.894709245
495.29100,6.589514838
495.29150,6.589514838
495.29200,6.28432043
495.29250,5.368737207
495.29300,4.758348392
495.29350,5.063542799
495.29400,4.453153984
495.29450,3.537570761
495.29500,2.927181945
495.29550,2.927181945
495.29600,2.621987538
495.29650,1.401209907
495.29700,1.401209907
495.29750,2.927181945
495.29800,4.147959576
495.29850,3.842765168
495.29900,4.147959576
495.29950,5.979126022
495.30000,8.115486876
495.30050,7.810292469
495.30100,5.979126022
495.30150,4.758348392
495.30200,5.368737207
495.30250,5.673931615
495.30300,4.758348392
495.30350,3.842765168
495.30400,3.537570761
495.30450,2.621987538
495.30500,0.4856266837
495.30550,-0.1247621317
495.30600,0.180432276
495.30650,0.4856266837
495.30700,-0.1247621317
495.30750,-1.65073417
495.30800,-2.871511801
495.30850,-3.481900616
495.30900,-4.092289432
495.30950,-5.313067063
495.31000,-7.754622324
495.31050,-11.41695522
495.31100,-13.85851048
495.31150,-13.24812166
495.31200,-13.24812166
495.31250,-17.52084337
495.31300,-22.40395389
495.31350,-19.35200982
495.31400,-8.670205547
495.31450,0.180432276
495.31500,2.927181945
495.31550,4.147959576
495.31600,9.031070099
495.31650,14.21937503
495.31700,14.52456944
495.31750,14.52456944
495.31800,21.23884641
495.31850,31.31026186
495.31900,33.44662272
495.31950,24.9011793
495.32000,13.91418062
495.32050,8.725875692
495.32100,7.810292469
495.32150,6.28432043
495.32200,3.842765168
495.32250,1.706404315
495.32300,0.7908210914
495.32350,1.401209907
495.32400,3.232376353
495.32450,5.063542799
495.32500,4.147959576
495.32550,1.401209907
495.32600,0.4856266837
495.32650,1.706404315
495.32700,2.927181945
495.32750,2.011598722
495.32800,0.4856266837
495.32850,-0.4299565394
495.32900,-1.955928578
495.32950,-4.092289432
495.33000,-4.702678247
495.33050,-4.39748384
495.33100,-5.61826147
495.33150,-9.58578877
495.33200,-13.24812166
495.33250,-12.63773285
495.33300,-8.670205547
495.33350,-5.313067063
495.33400,-4.092289432
495.33450,-3.787095024
495.33500,-3.176706209
495.33550,-2.871511801
495.33600,-3.481900616
495.33650,-5.313067063
495.33700,-7.144233509
495.33750,-8.36501114
495.33800,-8.670205547
495.33850,-8.975399955
495.33900,-9.890983178
495.33950,-9.890983178
495.34000,-7.754622324
495.34050,-4.702678247
495.34100,-4.092289432
495.34150,-5.923455878
495.34200,-5.313067063
495.34250,0.180432276
495.34300,6.894709245
495.34350,8.725875692
495.34400,4.453153984
495.34450,-0.4299565394
495.34500,-3.176706209
495.34550,-5.313067063
495.34600,-8.059816732
495.34650,-9.58578877
495.34700,-7.144233509
495.34750,-3.481900616
495.34800,-1.345539762
495.34850,-1.955928578
495.34900,-2.871511801
495.34950,-3.176706209
495.35000,-2.566317393
495.35050,-0.7351509471
495.35100,2.621987538
495.35150,5.673931615
495.35200,5.979126022
495.35250,5.673931615
495.35300,7.505098061
495.35350,10.55704214
495.35400,10.86223655
495.35450,8.115486876
495.35500,6.589514838
495.35550,6.894709245
495.35600,2.31679313
495.35650,-12.02734403
495.35700,-31.25459172
495.35750,-40.71561836
495.35800,-34.91692461
495.35850,-21.79356508
495.35900,-12.02734403
495.35950,-9.280594363
495.36000,-8.36501114
495.36050,-6.839039101
495.36100,-5.007872655
495.36150,-4.39748384
495.36200,-3.787095024
495.36250,-2.566317393
495.36300,-2.566317393
495.36350,-3.481900616
495.36400,-3.787095024
495.36450,-1.955928578
495.36500,-0.1247621317
495.36550,0.180432276
495.36600,-0.7351509471
495.36650,-0.4299565394
495.36700,0.7908210914
495.36750,2.621987538
495.36800,3.842765168
495.36850,5.368737207
495.36900,6.894709245
495.36950,7.505098061
495.37000,6.28432043
495.37050,5.063542799
495.37100,4.453153984
495.37150,4.147959576
495.37200,3.537570761
495.37250,2.621987538
495.37300,2.621987538
495.37350,3.537570761
495.37400,4.758348392
495.37450,5.979126022
495.37500,5.673931615
495.37550,3.537570761
495.37600,0.180432276
495.37650,-1.65073417
495.37700,-1.955928578
495.37750,-0.1247621317
495.37800,2.621987538
495.37850,6.589514838
495.37900,10.55704214
495.37950,12.38820858
495.38000,12.9985974
495.38050,13.91418062
495.38100,16.66093029
495.38150,19.40767996
495.38200,21.23884641
495.38250,21.54404082
495.38300,18.18690233
495.38350,8.725875692
495.38400,-4.702678247
495.38450,-15.38448252
495.38500,-16.30006574
495.38550,-10.19617759
495.38600,-3.481900616
495.38650,0.180432276
495.38700,1.096015499
495.38750,-1.955928578
495.38800,-10.19617759
495.38850,-20.57278745
495.38900,-26.6766756
495.38950,-25.76109238
495.39000,-20.87798186
495.39050,-15.07928811
495.39100,-10.19617759
495.39150,-6.228650286
495.39200,-4.092289432
495.39250,-2.566317393
495.39300,-1.65073417
495.39350,-2.261122986
495.39400,-5.923455878
495.39450,-11.72214962
495.39500,-15.38448252
495.39550,-14.46889929
495.39600,-12.02734403
495.39650,-10.50137199
495.39700,-9.890983178
495.39750,-8.975399955
495.39800,-8.059816732
495.39850,-5.61826147
495.39900,2.31679313
495.39950,17.57651352
495.40000,31.31026186
495.40050,34.66740035
495.40100,27.64792897
495.40150,20.01806878
495.40200,17.88170792
495.40250,19.40767996
495.40300,18.49209674
495.40350,12.69340299
495.40400,2.927181945
495.40450,-7.754622324
495.40500,-15.68967692
495.40550,-16.60526015
495.40600,-12.94292726
495.40650,-11.72214962
495.40700,-15.38448252
495.40750,-17.82603778
495.40800,-13.85851048
495.40850,-5.61826147
495.40900,3.842765168
495.40950,20.32326318
495.41000,45.95959343
495.41050,67.01800756
495.41100,62.74528585
495.41150,32.53103949
495.41200,-0.4299565394
495.41250,-15.68967692
495.41300,-14.16370489
495.41350,-8.670205547
495.41400,-5.923455878
495.41450,-3.176706209
495.41500,-0.1247621317
495.41550,0.7908210914
495.41600,-0.1247621317
495.41650,0.4856266837
495.41700,2.621987538
495.41750,2.927181945
495.41800,1.096015499
495.41850,0.7908210914
495.41900,2.31679313
495.41950,2.621987538
495.42000,0.180432276
495.42050,-1.65073417
495.42100,-1.345539762
495.42150,-1.040345355
495.42200,-2.566317393
495.42250,-4.702678247
495.42300,-6.228650286
495.42350,-5.923455878
495.42400,-4.702678247
495.42450,-2.566317393
495.42500,-0.1247621317
495.42550,2.011598722
495.42600,3.537570761
495.42650,4.147959576
495.42700,4.147959576
495.42750,2.927181945
495.42800,2.31679313
495.42850,2.927181945
495.42900,3.537570761
495.42950,1.706404315
495.43000,-0.7351509471
495.43050,-1.040345355
495.43100,-0.1247621317
495.43150,-3.787095024
495.43200,-12.63773285
495.43250,-20.26759304
495.43300,-19.35200982
495.43350,-12.33253844
495.43400,-6.839039101
495.43450,-5.923455878
495.43500,-5.313067063
495.43550,-3.787095024
495.43600,-2.871511801
495.43650,-3.787095024
495.43700,-4.39748384
495.43750,-2.871511801
495.43800,-0.7351509471
495.43850,-0.4299565394
495.43900,-1.345539762
495.43950,-1.345539762
495.44000,-1.040345355
495.44050,-0.7351509471
495.44100,-0.1247621317
495.44150,0.4856266837
495.44200,0.7908210914
495.44250,-0.1247621317
495.44300,-0.1247621317
495.44350,0.7908210914
495.44400,1.401209907
495.44450,1.401209907
495.44500,1.401209907
495.44550,2.011598722
495.44600,2.621987538
495.44650,2.31679313
495.44700,1.706404315
495.44750,2.011598722
495.44800,2.621987538
495.44850,2.31679313
495.44900,1.401209907
495.44950,0.7908210914
495.45000,0.4856266837
495.45050,1.096015499
495.45100,1.706404315
495.45150,1.706404315
495.45200,0.7908210914
495.45250,0.180432276
495.45300,-0.1247621317
495.45350,-1.040345355
495.45400,-3.787095024
495.45450,-6.839039101
495.45500,-8.36501114
495.45550,-6.839039101
495.45600,-4.39748384
495.45650,-2.566317393
495.45700,-2.261122986
495.45750,-2.566317393
495.45800,-2.871511801
495.45850,-2.566317393
495.45900,-2.566317393
495.45950,-2.566317393
495.46000,-2.261122986
495.46050,-1.040345355
495.46100,-0.1247621317
495.46150,0.4856266837
495.46200,0.180432276
495.46250,-0.4299565394
495.46300,-1.345539762
495.46350,-1.65073417
495.46400,-1.65073417
495.46450,-0.4299565394
495.46500,0.4856266837
495.46550,0.180432276
495.46600,-1.345539762
495.46650,-3.481900616
495.46700,-3.787095024
495.46750,-2.871511801
495.46800,-1.040345355
495.46850,0.7908210914
495.46900,2.31679313
495.46950,1.401209907
495.47000,-0.7351509471
495.47050,-1.955928578
495.47100,-0.7351509471
495.47150,1.096015499
495.47200,1.706404315
495.47250,1.706404315
495.47300,2.011598722
495.47350,1.706404315
495.47400,-0.4299565394
495.47450,-3.176706209
495.47500,-4.092289432
495.47550,-2.261122986
495.47600,-0.1247621317
495.47650,0.180432276
495.47700,0.180432276
495.47750,-0.1247621317
495.47800,-0.1247621317
495.47850,-1.040345355
495.47900,-1.955928578
495.47950,-1.955928578
495.48000,-1.040345355
495.48050,-0.4299565394
495.48100,-0.4299565394
495.48150,-0.4299565394
495.48200,-0.4299565394
495.48250,0.4856266837
495.48300,1.706404315
495.48350,2.011598722
495.48400,2.011598722
495.48450,2.31679313
495.48500,2.621987538
495.48550,2.927181945
495.48600,2.927181945
495.48650,4.453153984
495.48700,5.979126022
495.48750,5.063542799
495.48800,1.706404315
495.48850,-1.345539762
495.48900,-3.481900616
495.48950,-8.36501114
495.49000,-17.52084337
495.49050,-25.15070356
495.49100,-23.62473152
495.49150,-14.16370489
495.49200,-6.228650286
495.49250,-4.092289432
495.49300,-3.176706209
495.49350,2.621987538
495.49400,11.77781977
495.49450,16.9661247
495.49500,15.74534707
495.49550,11.16743095
495.49600,7.199903653
495.49650,4.758348392
495.49700,3.537570761
495.49750,3.232376353
495.49800,3.537570761
495.49850,3.842765168
495.49900,3.537570761
495.49950,3.537570761
495.50000,2.927181945
495.50050,1.706404315
495.50100,0.180432276
495.50150,-0.1247621317
495.50200,0.7908210914
495.50250,1.401209907
495.50300,1.096015499
495.50350,0.7908210914
495.50400,0.7908210914
495.50450,0.180432276
495.50500,-0.7351509471
495.50550,-1.955928578
495.50600,-1.65073417
495.50650,-0.4299565394
495.50700,-0.1247621317
495.50750,-0.7351509471
495.50800,-1.955928578
495.50850,-2.261122986
495.50900,-1.955928578
495.50950,-1.65073417
495.51000,-2.871511801
495.51050,-5.007872655
495.51100,-6.533844693
495.51150,-6.839039101
495.51200,-7.144233509
495.51250,-8.670205547
495.51300,-11.11176081
495.51350,-12.63773285
495.51400,-12.33253844
495.51450,-10.19617759
495.51500,-6.228650286
495.51550,-1.65073417
495.51600,-0.1247621317
495.51650,-2.566317393
495.51700,-5.313067063
495.51750,-2.261122986
495.51800,6.589514838
495.51850,15.74534707
495.51900,19.10248555
495.51950,16.66093029
495.52000,11.47262536
495.52050,5.368737207
495.52100,-0.7351509471
495.52150,-4.39748384
495.52200,-4.702678247
495.52250,-3.176706209
495.52300,-4.092289432
495.52350,-6.228650286
495.52400,-6.533844693
495.52450,-5.007872655
495.52500,-4.39748384
495.52550,-2.566317393
495.52600,4.758348392
495.52650,16.66093029
495.52700,23.37520726
495.52750,19.10248555
495.52800,11.16743095
495.52850,9.641458915
495.52900,12.9985974
495.52950,10.55704214
495.53000,0.180432276
495.53050,-6.533844693
495.53100,-0.7351509471
495.53150,11.47262536
495.53200,16.05054148
495.53250,9.946653322
495.53300,2.011598722
495.53350,-0.1247621317
495.53400,0.180432276
495.53450,-1.65073417
495.53500,-3.787095024
495.53550,-1.65073417
495.53600,2.621987538
495.53650,3.537570761
495.53700,0.4856266837
495.53750,-0.7351509471
495.53800,0.180432276
495.53850,0.4856266837
495.53900,-3.787095024
495.53950,-10.50137199
495.54000,-14.46889929
495.54050,-14.46889929
495.54100,-12.02734403
495.54150,-9.280594363
495.54200,-6.228650286
495.54250,-1.955928578
495.54300,5.673931615
495.54350,16.35573588
495.54400,23.98559608
495.54450,23.98559608
495.54500,18.49209674
495.54550,16.35573588
495.54600,19.71287437
495.54650,21.84923522
495.54700,16.05054148
495.54750,5.063542799
495.54800,-2.871511801
495.54850,-6.228650286
495.54900,-8.670205547
495.54950,-12.33253844
495.55000,-14.46889929
495.55050,-12.94292726
495.55100,-9.58578877
495.55150,-7.754622324
495.55200,-7.449427917
495.55250,-7.144233509
495.55300,-6.228650286
495.55350,-5.313067063
495.55400,-5.007872655
495.55450,-5.313067063
495.55500,-5.007872655
495.55550,-3.787095024
495.55600,-2.871511801
495.55650,-2.566317393
495.55700,-2.566317393
495.55750,-2.871511801
495.55800,-3.176706209
495.55850,-4.092289432
495.55900,-4.092289432
495.55950,-3.176706209
495.56000,-1.955928578
495.56050,-1.955928578
495.56100,-2.261122986
495.56150,-1.955928578
495.56200,-0.7351509471
495.56250,-0.4299565394
495.56300,-0.7351509471
495.56350,-1.345539762
495.56400,-0.7351509471
495.56450,0.180432276
495.56500,1.096015499
495.56550,2.011598722
495.56600,2.927181945
495.56650,3.232376353
495.56700,2.621987538
495.56750,1.096015499
495.56800,0.4856266837
495.56850,0.7908210914
495.56900,1.401209907
495.56950,2.011598722
495.57000,2.927181945
495.57050,3.842765168
495.57100,2.927181945
495.57150,-0.1247621317
495.57200,-3.176706209
495.57250,-4.092289432
495.57300,-3.787095024
495.57350,-4.39748384
495.57400,-6.839039101
495.57450,-8.36501114
495.57500,-8.670205547
495.57550,-9.280594363
495.57600,-8.975399955
495.57650,-4.39748384
495.57700,4.453153984
495.57750,12.08301418
495.57800,12.9985974
495.57850,9.336264507
495.57900,5.368737207
495.57950,2.31679313
495.58000,-1.65073417
495.58050,-6.228650286
495.58100,-7.754622324
495.58150,-6.533844693
495.58200,-6.228650286
495.58250,-7.144233509
495.58300,-6.533844693
495.58350,-4.39748384
495.58400,-3.481900616
495.58450,-3.176706209
495.58500,0.7908210914
495.58550,9.641458915
495.58600,16.66093029
495.58650,15.44015266
495.58700,9.641458915
495.58750,5.368737207
495.58800,4.147959576
495.58850,3.537570761
495.58900,2.011598722
495.58950,1.096015499
495.59000,1.096015499
495.59050,1.096015499
495.59100,-0.1247621317
495.59150,-1.040345355
495.59200,-1.345539762
495.59250,-0.7351509471
495.59300,-0.1247621317
495.59350,0.7908210914
495.59400,0.7908210914
495.59450,-0.1247621317
495.59500,-0.7351509471
495.59550,-0.7351509471
495.59600,-1.040345355
495.59650,-2.261122986
495.59700,-2.566317393
495.59750,-1.65073417
495.59800,-0.1247621317
495.59850,-0.1247621317
495.59900,-0.7351509471
495.59950,-1.345539762
495.60000,-1.345539762
495.60050,-1.040345355
495.60100,-0.7351509471
495.60150,-0.7351509471
495.60200,-0.1247621317
495.60250,0.4856266837
495.60300,0.7908210914
495.60350,-0.1247621317
495.60400,-1.65073417
495.60450,-2.261122986
495.60500,-0.7351509471
495.60550,0.7908210914
495.60600,1.401209907
495.60650,1.096015499
495.60700,0.7908210914
495.60750,1.096015499
495.60800,1.096015499
495.60850,0.4856266837
495.60900,-0.1247621317
495.60950,-0.1247621317
495.61000,-1.040345355
495.61050,-1.955928578
495.61100,-1.65073417
495.61150,-0.7351509471
495.61200,-0.1247621317
495.61250,-0.4299565394
495.61300,-1.345539762
495.61350,-2.566317393
495.61400,-2.871511801
495.61450,-2.261122986
495.61500,-0.7351509471
495.61550,0.180432276
495.61600,0.4856266837
495.61650,-0.1247621317
495.61700,0.4856266837
495.61750,1.096015499
495.61800,0.7908210914
495.61850,0.180432276
495.61900,0.4856266837
495.61950,2.011598722
495.62000,2.927181945
495.62050,2.621987538
495.62100,2.011598722
495.62150,2.31679313
495.62200,3.232376353
495.62250,3.537570761
495.62300,2.927181945
495.62350,-0.4299565394
495.62400,-7.144233509
495.62450,-13.55331607
495.62500,-15.38448252
495.62550,-11.72214962
495.62600,-6.533844693
495.62650,-2.871511801
495.62700,-1.040345355
495.62750,-0.1247621317
495.62800,-0.1247621317
495.62850,-2.261122986
495.62900,-3.787095024
495.62950,-4.39748384
495.63000,-4.702678247
495.63050,-5.923455878
495.63100,-6.533844693
495.63150,-5.313067063
495.63200,-3.176706209
495.63250,-1.345539762
495.63300,0.7908210914
495.63350,3.537570761
495.63400,3.842765168
495.63450,1.096015499
495.63500,-0.7351509471
495.63550,-0.1247621317
495.63600,0.4856266837
495.63650,-1.345539762
495.63700,-4.702678247
495.63750,-5.007872655
495.63800,-3.176706209
495.63850,-3.481900616
495.63900,-7.449427917
495.63950,-11.11176081
495.64000,-10.8065664
495.64050,-8.36501114
495.64100,-5.923455878
495.64150,-5.007872655
495.64200,-5.313067063
495.64250,-7.144233509
495.64300,-6.228650286
495.64350,1.706404315
495.64400,16.05054148
495.64450,27.64792897
495.64500,29.47909542
495.64550,25.20637371
495.64600,22.76481845
495.64650,22.45962404
495.64700,18.49209674
495.64750,7.810292469
495.64800,-1.955928578
495.64850,-5.313067063
495.64900,-2.261122986
495.64950,0.7908210914
495.65000,1.706404315
495.65050,1.706404315
495.65100,2.011598722
495.65150,1.401209907
495.65200,0.180432276
495.65250,-0.4299565394
495.65300,-0.1247621317
495.65350,-0.1247621317
495.65400,-0.1247621317
495.65450,-0.4299565394
495.65500,-0.1247621317
495.65550,1.096015499
495.65600,1.401209907
495.65650,-0.1247621317
495.65700,-2.871511801
495.65750,-4.39748384
495.65800,-3.481900616
495.65850,-2.261122986
495.65900,-4.092289432
495.65950,-8.36501114
495.66000,-10.8065664
495.66050,-8.975399955
495.66100,-6.533844693
495.66150,-5.61826147
495.66200,-4.702678247
495.66250,-1.345539762
495.66300,1.706404315
495.66350,3.232376353
495.66400,6.894709245
495.66450,16.9661247
495.66500,28.8687066
495.66550,31.61545627
495.66600,25.20637371
495.66650,18.49209674
495.66700,16.66093029
495.66750,12.69340299
495.66800,0.7908210914
495.66850,-12.33253844
495.66900,-16.91045456
495.66950,-12.33253844
495.67000,-5.923455878
495.67050,-3.787095024
495.67100,-4.702678247
495.67150,-5.313067063
495.67200,-5.007872655
495.67250,-4.39748384
495.67300,-3.787095024
495.67350,-2.871511801
495.67400,-3.176706209
495.67450,-3.787095024
495.67500,-3.787095024
495.67550,-4.092289432
495.67600,-5.007872655
495.67650,-5.923455878
495.67700,-5.923455878
495.67750,-4.702678247
495.67800,-3.787095024
495.67850,-3.176706209
495.67900,-2.871511801
495.67950,-3.787095024
495.68000,-5.313067063
495.68050,-5.61826147
495.68100,-3.787095024
495.68150,-1.955928578
495.68200,-2.261122986
495.68250,-4.092289432
495.68300,-4.702678247
495.68350,-4.092289432
495.68400,-3.787095024
495.68450,-5.007872655
495.68500,-5.007872655
495.68550,-3.176706209
495.68600,-1.65073417
495.68650,-2.871511801
495.68700,-6.839039101
495.68750,-9.890983178
495.68800,-10.19617759
495.68850,-9.58578877
495.68900,-9.280594363
495.68950,-8.059816732
495.69000,-4.702678247
495.69050,-1.040345355
495.69100,-0.4299565394
495.69150,-0.4299565394
495.69200,5.063542799
495.69250,16.9661247
495.69300,25.81676252
495.69350,23.37520726
495.69400,12.9985974
495.69450,3.842765168
495.69500,-0.1247621317
495.69550,-1.955928578
495.69600,-4.39748384
495.69650,-6.228650286
495.69700,-5.61826147
495.69750,-5.313067063
495.69800,-5.61826147
495.69850,-5.923455878
495.69900,-5.007872655
495.69950,-2.261122986
495.70000,2.31679313
495.70050,10.25184773
495.70100,18.18690233
495.70150,21.23884641
495.70200,17.88170792
495.70250,12.38820858
495.70300,7.810292469
495.70350,4.453153984
495.70400,0.7908210914
495.70450,-1.65073417
495.70500,-1.65073417
495.70550,-0.7351509471
495.70600,-1.345539762
495.70650,-2.871511801
495.70700,-2.871511801
495.70750,-1.040345355
495.70800,-0.1247621317
495.70850,-0.7351509471
495.70900,-1.040345355
495.70950,0.4856266837
495.71000,1.401209907
495.71050,-0.1247621317
495.71100,-1.65073417
495.71150,-1.040345355
495.71200,0.7908210914
495.71250,0.7908210914
495.71300,-0.4299565394
495.71350,-1.040345355
495.71400,-0.4299565394
495.71450,-1.345539762
495.71500,-5.007872655
495.71550,-9.280594363
495.71600,-12.02734403
495.71650,-14.16370489
495.71700,-15.07928811
495.71750,-13.55331607
495.71800,-9.890983178
495.71850,-7.754622324
495.71900,-8.059816732
495.71950,-6.533844693
495.72000,1.096015499
495.72050,12.69340299
495.72100,21.54404082
495.72150,23.98559608
495.72200,21.54404082
495.72250,17.27131911
495.72300,11.77781977
495.72350,5.979126022
495.72400,2.621987538
495.72450,2.621987538
495.72500,3.537570761
495.72550,3.232376353
495.72600,1.706404315
495.72650,0.4856266837
495.72700,0.180432276
495.72750,0.4856266837
495.72800,0.180432276
495.72850,-0.1247621317
495.72900,-0.4299565394
495.72950,-0.7351509471
495.73000,-0.4299565394
495.73050,0.180432276
495.73100,1.401209907
495.73150,1.706404315
495.73200,1.096015499
495.73250,0.4856266837
495.73300,0.7908210914
495.73350,0.7908210914
495.73400,-0.1247621317
495.73450,-0.7351509471
495.73500,-0.7351509471
495.73550,0.180432276
495.73600,1.401209907
495.73650,1.706404315
495.73700,1.401209907
495.73750,0.180432276
495.73800,-1.955928578
495.73850,-4.092289432
495.73900,-4.702678247
495.73950,-5.007872655
495.74000,-5.61826147
495.74050,-5.61826147
495.74100,-4.702678247
495.74150,-5.313067063
495.74200,-10.19617759
495.74250,-15.99487133
495.74300,-15.68967692
495.74350,-9.280594363
495.74400,-4.092289432
495.74450,-4.092289432
495.74500,-5.313067063
495.74550,-3.176706209
495.74600,-0.4299565394
495.74650,-0.7351509471
495.74700,-2.566317393
495.74750,-2.261122986
495.74800,-0.7351509471
495.74850,-0.4299565394
495.74900,-1.955928578
495.74950,-2.566317393
495.75000,-2.261122986
495.75050,-2.566317393
495.75100,-2.871511801
495.75150,-1.955928578
495.75200,-0.4299565394
495.75250,-0.4299565394
495.75300,-1.040345355
495.75350,-1.65073417
495.75400,-1.65073417
495.75450,-1.65073417
495.75500,-1.345539762
495.75550,-0.1247621317
495.75600,0.4856266837
495.75650,-0.1247621317
495.75700,-0.1247621317
495.75750,-0.1247621317
495.75800,-0.1247621317
495.75850,-1.65073417
495.75900,-2.261122986
495.75950,-1.040345355
495.76000,0.180432276
495.76050,0.180432276
495.76100,-0.1247621317
495.76150,0.180432276
495.76200,0.7908210914
495.76250,0.7908210914
495.76300,2.011598722
495.76350,5.673931615
495.76400,9.641458915
495.76450,10.86223655
495.76500,10.25184773
495.76550,9.946653322
495.76600,9.031070099
495.76650,6.894709245
495.76700,4.453153984
495.76750,2.927181945
495.76800,1.401209907
495.76850,-1.040345355
495.76900,-3.481900616
495.76950,-4.702678247
495.77000,-8.36501114
495.77050,-16.60526015
495.77100,-24.54031475
495.77150,-24.54031475
495.77200,-17.82603778
495.77250,-10.19617759
495.77300,-6.533844693
495.77350,-5.007872655
495.77400,-3.787095024
495.77450,-1.65073417
495.77500,1.096015499
495.77550,4.758348392
495.77600,7.810292469
495.77650,7.505098061
495.77700,4.453153984
495.77750,2.621987538
495.77800,3.232376353
495.77850,4.453153984
495.77900,3.842765168
495.77950,2.621987538
495.78000,2.31679313
495.78050,2.31679313
495.78100,1.706404315
495.78150,0.7908210914
495.78200,0.180432276
495.78250,-0.1247621317
495.78300,-1.040345355
495.78350,-1.955928578
495.78400,-1.345539762
495.78450,-0.7351509471
495.78500,-1.65073417
495.78550,-2.261122986
495.78600,-0.4299565394
495.78650,1.096015499
495.78700,-0.7351509471
495.78750,-5.313067063
495.78800,-7.449427917
495.78850,-5.61826147
495.78900,-3.787095024
495.78950,-4.092289432
495.79000,-2.871511801
495.79050,0.180432276
495.79100,2.621987538
495.79150,3.537570761
495.79200,8.115486876
495.79250,19.40767996
495.79300,30.08948423
495.79350,31.92065068
495.79400,26.42715134
495.79450,19.71287437
495.79500,12.69340299
495.79550,0.7908210914
495.79600,-11.72214962
495.79650,-17.21564896
495.79700,-12.02734403
495.79750,-4.092289432
495.79800,-0.4299565394
495.79850,-0.1247621317
495.79900,0.180432276
495.79950,0.7908210914
495.80000,0.180432276
495.80050,-0.1247621317
495.80100,-0.4299565394
495.80150,-0.7351509471
495.80200,-1.65073417
495.80250,-1.65073417
495.80300,-0.4299565394
495.80350,-0.1247621317
495.80400,-1.345539762
495.80450,-2.871511801
495.80500,-2.871511801
495.80550,-2.261122986
495.80600,-1.955928578
495.80650,-2.261122986
495.80700,-2.566317393
495.80750,-3.176706209
495.80800,-3.787095024
495.80850,-3.787095024
495.80900,-2.871511801
495.80950,-1.65073417
495.81000,-1.65073417
495.81050,-2.261122986
495.81100,-1.955928578
495.81150,-1.040345355
495.81200,-0.1247621317
495.81250,1.096015499
495.81300,1.706404315
495.81350,2.011598722
495.81400,2.621987538
495.81450,2.927181945
495.81500,2.927181945
495.81550,2.621987538
495.81600,2.31679313
495.81650,2.621987538
495.81700,2.927181945
495.81750,3.232376353
495.81800,2.927181945
495.81850,2.31679313
495.81900,1.706404315
495.81950,1.401209907
495.82000,1.706404315
495.82050,2.011598722
495.82100,1.706404315
495.82150,1.096015499
495.82200,0.4856266837
495.82250,0.4856266837
495.82300,-0.1247621317
495.82350,-0.7351509471
495.82400,-0.7351509471
495.82450,-1.040345355
495.82500,-1.955928578
495.82550,-4.092289432
495.82600,-6.228650286
495.82650,-7.144233509
495.82700,-6.533844693
495.82750,-5.007872655
495.82800,-3.481900616
495.82850,-3.481900616
495.82900,-5.007872655
495.82950,-5.007872655
495.83000,-1.040345355
495.83050,6.28432043
495.83100,13.30379181
495.83150,16.35573588
495.83200,15.44015266
495.83250,12.38820858
495.83300,9.336264507
495.83350,6.894709245
495.83400,5.063542799
495.83450,3.842765168
495.83500,2.927181945
495.83550,1.706404315
495.83600,0.7908210914
495.83650,0.4856266837
495.83700,0.4856266837
495.83750,0.180432276
495.83800,-0.1247621317
495.83850,-0.7351509471
495.83900,-1.955928578
495.83950,-3.176706209
495.84000,-4.092289432
495.84050,-4.702678247
495.84100,-5.923455878
495.84150,-6.839039101
495.84200,-6.228650286
495.84250,-4.092289432
495.84300,-2.261122986
495.84350,-1.955928578
495.84400,-2.261122986
495.84450,-1.955928578
495.84500,-1.345539762
495.84550,-1.345539762
495.84600,-1.955928578
495.84650,-1.955928578
495.84700,-1.345539762
495.84750,-1.345539762
495.84800,-2.261122986
495.84850,-3.176706209
495.84900,-2.566317393
495.84950,-1.955928578
495.85000,-2.566317393
495.85050,-4.092289432
495.85100,-4.39748384
495.85150,-3.787095024
495.85200,-3.787095024
495.85250,-5.007872655
495.85300,-6.228650286
495.85350,-6.839039101
495.85400,-6.228650286
495.85450,-5.61826147
495.85500,-5.61826147
495.85550,-5.007872655
495.85600,-4.092289432
495.85650,-3.481900616
495.85700,-3.787095024
495.85750,-4.39748384
495.85800,-3.787095024
495.85850,-0.7351509471
495.85900,2.621987538
495.85950,4.147959576
495.86000,2.927181945
495.86050,1.401209907
495.86100,1.706404315
495.86150,2.927181945
495.86200,3.537570761
495.86250,3.537570761
495.86300,4.453153984
495.86350,5.979126022
495.86400,5.979126022
495.86450,3.842765168
495.86500,1.401209907
495.86550,0.180432276
495.86600,0.4856266837
495.86650,0.4856266837
495.86700,0.180432276
495.86750,0.4856266837
495.86800,1.096015499
495.86850,1.096015499
495.86900,0.7908210914
495.86950,0.7908210914
495.87000,1.706404315
495.87050,2.31679313
495.87100,1.401209907
495.87150,-0.1247621317
495.87200,-0.7351509471
495.87250,-0.4299565394
495.87300,0.180432276
495.87350,0.180432276
495.87400,-0.4299565394
495.87450,-0.4299565394
495.87500,-0.1247621317
495.87550,0.180432276
495.87600,-0.1247621317
495.87650,-0.1247621317
495.87700,-0.1247621317
495.87750,0.180432276
495.87800,0.180432276
495.87850,0.7908210914
495.87900,1.706404315
495.87950,2.31679313
495.88000,2.621987538
495.88050,2.31679313
495.88100,2.621987538
495.88150,3.842765168
495.88200,5.063542799
495.88250,5.979126022
495.88300,7.199903653
495.88350,8.725875692
495.88400,9.641458915
495.88450,9.031070099
495.88500,7.505098061
495.88550,5.979126022
495.88600,5.368737207
495.88650,4.147959576
495.88700,2.927181945
495.88750,1.706404315
495.88800,1.096015499
495.88850,0.4856266837
495.88900,-0.1247621317
495.88950,0.180432276
495.89000,0.4856266837
495.89050,-0.1247621317
495.89100,-0.7351509471
495.89150,-1.040345355
495.89200,-0.7351509471
495.89250,-0.7351509471
495.89300,-1.65073417
495.89350,-1.955928578
495.89400,-1.345539762
495.89450,-1.65073417
495.89500,-4.702678247
495.89550,-8.36501114
495.89600,-9.890983178
495.89650,-9.58578877
495.89700,-9.58578877
495.89750,-9.58578877
495.89800,-7.754622324
495.89850,-4.702678247
495.89900,-3.787095024
495.89950,-5.007872655
495.90000,-2.261122986
495.90050,6.589514838
495.90100,16.35573588
495.90150,18.79729115
495.90200,12.69340299
495.90250,5.673931615
495.90300,2.31679313
495.90350,2.31679313
495.90400,2.011598722
495.90450,1.096015499
495.90500,0.7908210914
495.90550,2.011598722
495.90600,3.842765168
495.90650,3.842765168
495.90700,2.011598722
495.90750,0.7908210914
495.90800,2.927181945
495.90850,7.199903653
495.90900,9.031070099
495.90950,5.368737207
495.91000,-0.1247621317
495.91050,-2.871511801
495.91100,-1.955928578
495.91150,-0.4299565394
495.91200,-0.7351509471
495.91250,-1.955928578
495.91300,-3.481900616
495.91350,-4.092289432
495.91400,-4.39748384
495.91450,-4.39748384
495.91500,-3.787095024
495.91550,-3.176706209
495.91600,-2.566317393
495.91650,-1.65073417
495.91700,-1.65073417
495.91750,-2.566317393
495.91800,-3.787095024
495.91850,-4.092289432
495.91900,-3.176706209
495.91950,-2.566317393
495.92000,-2.566317393
495.92050,-3.176706209
495.92100,-4.39748384
495.92150,-5.313067063
495.92200,-5.313067063
495.92250,-4.702678247
495.92300,-3.481900616
495.92350,-3.176706209
495.92400,-3.787095024
495.92450,-4.39748384
495.92500,-3.787095024
495.92550,-2.566317393
495.92600,-1.65073417
495.92650,-1.955928578
495.92700,-1.955928578
495.92750,-1.345539762
495.92800,-0.7351509471
495.92850,-0.7351509471
495.92900,-0.7351509471
495.92950,-0.7351509471
495.93000,-0.7351509471
495.93050,-1.345539762
495.93100,-1.65073417
495.93150,-1.65073417
495.93200,-1.345539762
495.93250,-1.345539762
495.93300,-1.345539762
495.93350,-1.040345355
495.93400,-0.7351509471
495.93450,-0.4299565394
495.93500,-0.4299565394
495.93550,-0.4299565394
495.93600,-0.4299565394
495.93650,-0.4299565394
495.93700,-0.4299565394
495.93750,-0.1247621317
495.93800,-0.1247621317
495.93850,-1.345539762
495.93900,-1.955928578
495.93950,-1.345539762
495.94000,-0.4299565394
495.94050,-0.4299565394
495.94100,-0.4299565394
495.94150,-0.1247621317
495.94200,0.7908210914
495.94250,0.4856266837
495.94300,-0.1247621317
495.94350,0.4856266837
495.94400,2.011598722
495.94450,2.621987538
495.94500,2.011598722
495.94550,1.706404315
495.94600,2.31679313
495.94650,2.011598722
495.94700,-0.7351509471
495.94750,-5.923455878
495.94800,-10.50137199
495.94850,-11.72214962
495.94900,-10.50137199
495.94950,-7.449427917
495.95000,-5.007872655
495.95050,-4.092289432
495.95100,-4.702678247
495.95150,-4.39748384
495.95200,-2.871511801
495.95250,-1.040345355
495.95300,-0.4299565394
495.95350,-0.7351509471
495.95400,-1.955928578
495.95450,-3.481900616
495.95500,-6.228650286
495.95550,-8.670205547
495.95600,-9.58578877
495.95650,-9.280594363
495.95700,-7.754622324
495.95750,-6.228650286
495.95800,-5.61826147
495.95850,-6.228650286
495.95900,-5.923455878
495.95950,-1.65073417
495.96000,6.28432043
495.96050,15.13495825
495.96100,19.71287437
495.96150,18.79729115
495.96200,14.82976385
495.96250,10.86223655
495.96300,8.420681284
495.96350,6.894709245
495.96400,5.063542799
495.96450,2.621987538
495.96500,0.4856266837
495.96550,0.180432276
495.96600,0.4856266837
495.96650,0.180432276
495.96700,-0.4299565394
495.96750,-0.1247621317
495.96800,1.096015499
495.96850,1.401209907
495.96900,-0.7351509471
495.96950,-3.176706209
495.97000,-3.481900616
495.97050,-1.65073417
495.97100,-0.4299565394
495.97150,-1.040345355
495.97200,-2.261122986
495.97250,-2.871511801
495.97300,-2.871511801
495.97350,-2.261122986
495.97400,-1.955928578
495.97450,-1.65073417
495.97500,-2.261122986
495.97550,-2.261122986
495.97600,-1.65073417
495.97650,-0.4299565394
495.97700,-0.4299565394
495.97750,-1.345539762
495.97800,-1.955928578
495.97850,-1.345539762
495.97900,-0.1247621317
495.97950,0.4856266837
495.98000,0.180432276
495.98050,-0.1247621317
495.98100,0.180432276
495.98150,1.096015499
495.98200,1.401209907
495.98250,0.4856266837
495.98300,0.4856266837
495.98350,1.401209907
495.98400,2.621987538
495.98450,2.31679313
495.98500,1.096015499
495.98550,1.096015499
495.98600,1.706404315
495.98650,2.31679313
495.98700,2.011598722
495.98750,1.706404315
495.98800,2.011598722
495.98850,2.011598722
495.98900,1.401209907
495.98950,0.7908210914
495.99000,0.180432276
495.99050,-0.4299565394
495.99100,-1.345539762
495.99150,-1.345539762
495.99200,-0.4299565394
495.99250,0.180432276
495.99300,0.4856266837
495.99350,0.180432276
495.99400,-0.1247621317
495.99450,-0.7351509471
495.99500,-1.955928578
495.99550,-1.955928578
495.99600,-0.4299565394
495.99650,1.706404315
495.99700,2.927181945
495.99750,2.927181945
495.99800,2.31679313
495.99850,2.011598722
495.99900,2.621987538
495.99950,3.842765168
496.00000,4.758348392
496.00050,4.758348392
496.00100,4.758348392
496.00150,5.368737207
496.00200,5.979126022
496.00250,5.368737207
496.00300,4.758348392
496.00350,4.453153984
496.00400,4.147959576
496.00450,3.232376353
496.00500,2.011598722
496.00550,2.011598722
496.00600,2.621987538
496.00650,2.31679313
496.00700,1.706404315
496.00750,1.096015499
496.00800,0.4856266837
496.00850,-1.65073417
496.00900,-4.702678247
496.00950,-5.923455878
496.01000,-4.39748384
496.01050,-2.871511801
496.01100,-3.176706209
496.01150,-3.787095024
496.01200,-3.176706209
496.01250,-1.955928578
496.01300,-1.955928578
496.01350,-3.176706209
496.01400,-3.481900616
496.01450,-1.955928578
496.01500,-1.040345355
496.01550,-1.040345355
496.01600,-1.040345355
496.01650,0.4856266837
496.01700,3.232376353
496.01750,5.063542799
496.01800,5.063542799
496.01850,3.842765168
496.01900,2.31679313
496.01950,1.401209907
496.02000,1.096015499
496.02050,1.401209907
496.02100,1.401209907
496.02150,0.4856266837
496.02200,-0.4299565394
496.02250,-1.040345355
496.02300,-1.955928578
496.02350,-5.007872655
496.02400,-9.280594363
496.02450,-11.11176081
496.02500,-9.58578877
496.02550,-7.144233509
496.02600,-6.533844693
496.02650,-6.533844693
496.02700,-6.228650286
496.02750,-5.61826147
496.02800,-5.007872655
496.02850,-2.566317393
496.02900,4.758348392
496.02950,14.21937503
496.03000,18.18690233
496.03050,14.21937503
496.03100,6.894709245
496.03150,2.621987538
496.03200,1.706404315
496.03250,0.7908210914
496.03300,-0.4299565394
496.03350,-1.345539762
496.03400,-0.1247621317
496.03450,0.7908210914
496.03500,0.7908210914
496.03550,-0.1247621317
496.03600,-0.4299565394
496.03650,-0.4299565394
496.03700,-0.4299565394
496.03750,-1.345539762
496.03800,-1.955928578
496.03850,-1.345539762
496.03900,-0.7351509471
496.03950,-0.4299565394
496.04000,-0.1247621317
496.04050,-0.1247621317
496.04100,-0.1247621317
496.04150,-0.4299565394
496.04200,-0.4299565394
496.04250,-0.1247621317
496.04300,0.4856266837
496.04350,0.4856266837
496.04400,0.180432276
496.04450,0.4856266837
496.04500,0.7908210914
496.04550,0.7908210914
496.04600,0.7908210914
496.04650,1.401209907
496.04700,1.706404315
496.04750,1.706404315
496.04800,2.621987538
496.04850,4.758348392
496.04900,5.673931615
496.04950,4.147959576
496.05000,1.401209907
496.05050,0.4856266837
496.05100,1.401209907
496.05150,1.401209907
496.05200,0.4856266837
496.05250,0.4856266837
496.05300,1.706404315
496.05350,1.706404315
496.05400,-0.1247621317
496.05450,-2.261122986
496.05500,-2.261122986
496.05550,-1.65073417
496.05600,-1.040345355
496.05650,-0.4299565394
496.05700,-0.1247621317
496.05750,-0.1247621317
496.05800,-0.7351509471
496.05850,-1.345539762
496.05900,-0.4299565394
496.05950,0.180432276
496.06000,-0.1247621317
496.06050,-0.7351509471
496.06100,-0.7351509471
496.06150,-0.4299565394
496.06200,-1.345539762
496.06250,-2.871511801
496.06300,-3.787095024
496.06350,-3.481900616
496.06400,-2.261122986
496.06450,-1.65073417
496.06500,-1.345539762
496.06550,-1.65073417
496.06600,-1.65073417
496.06650,-1.345539762
496.06700,-1.040345355
496.06750,-2.261122986
496.06800,-3.481900616
496.06850,-2.261122986
496.06900,-0.1247621317
496.06950,0.4856266837
496.07000,-0.1247621317
496.07050,0.4856266837
496.07100,4.758348392
496.07150,9.336264507
496.07200,9.641458915
496.07250,6.589514838
496.07300,2.621987538
496.07350,0.7908210914
496.07400,1.096015499
496.07450,2.31679313
496.07500,3.232376353
496.07550,2.927181945
496.07600,1.401209907
496.07650,1.096015499
496.07700,1.706404315
496.07750,1.706404315
496.07800,0.4856266837
496.07850,-0.1247621317
496.07900,0.4856266837
496.07950,1.096015499
496.08000,-0.1247621317
496.08050,-2.566317393
496.08100,-2.871511801
496.08150,-1.040345355
496.08200,-0.1247621317
496.08250,-0.7351509471
496.08300,-1.040345355
496.08350,-0.4299565394
496.08400,-0.1247621317
496.08450,-0.1247621317
496.08500,-0.4299565394
496.08550,-0.4299565394
496.08600,-0.7351509471
496.08650,-1.65073417
496.08700,-1.955928578
496.08750,-1.65073417
496.08800,-1.345539762
496.08850,-1.65073417
496.08900,-1.040345355
496.08950,-0.1247621317
496.09000,0.4856266837
496.09050,1.096015499
496.09100,2.011598722
496.09150,2.621987538
496.09200,1.706404315
496.09250,0.180432276
496.09300,-0.7351509471
496.09350,-1.345539762
496.09400,-3.176706209
496.09450,-6.839039101
496.09500,-9.280594363
496.09550,-10.19617759
496.09600,-10.8065664
496.09650,-10.50137199
496.09700,-8.059816732
496.09750,-4.702678247
496.09800,-4.092289432
496.09850,-5.007872655
496.09900,-0.1247621317
496.09950,13.30379181
496.10000,27.95312338
496.10050,34.05701153
496.10100,30.39467864
496.10150,21.84923522
496.10200,12.38820858
496.10250,3.842765168
496.10300,-1.040345355
496.10350,-1.345539762
496.10400,-0.7351509471
496.10450,-2.566317393
496.10500,-5.923455878
496.10550,-6.228650286
496.10600,-5.61826147
496.10650,-9.890983178
496.10700,-18.741621
496.10750,-24.54031475
496.10800,-21.79356508
496.10850,-14.16370489
496.10900,-9.280594363
496.10950,-8.059816732
496.11000,-7.449427917
496.11050,-5.61826147
496.11100,-5.313067063
496.11150,-8.975399955
496.11200,-13.55331607
496.11250,-15.07928811
496.11300,-13.24812166
496.11350,-11.72214962
496.11400,-12.33253844
496.11450,-12.94292726
496.11500,-11.72214962
496.11550,-9.280594363
496.11600,-7.754622324
496.11650,-4.092289432
496.11700,3.842765168
496.11750,13.30379181
496.11800,16.9661247
496.11850,12.08301418
496.11900,4.453153984
496.11950,0.4856266837
496.12000,1.096015499
496.12050,2.31679313
496.12100,1.706404315
496.12150,0.180432276
496.12200,-0.1247621317
496.12250,1.096015499
496.12300,3.842765168
496.12350,5.673931615
496.12400,6.589514838
496.12450,6.894709245
496.12500,8.115486876
496.12550,9.031070099
496.12600,8.725875692
496.12650,9.336264507
496.12700,11.16743095
496.12750,9.336264507
496.12800,-0.4299565394
496.12850,-13.85851048
496.12900,-20.26759304
496.12950,-14.7740937
496.13000,-5.007872655
496.13050,0.180432276
496.13100,0.180432276
496.13150,0.180432276
496.13200,1.706404315
496.13250,2.621987538
496.13300,1.706404315
496.13350,-0.1247621317
496.13400,-1.040345355
496.13450,-1.955928578
496.13500,-3.176706209
496.13550,-3.481900616
496.13600,-2.871511801
496.13650,-2.566317393
496.13700,-1.65073417
496.13750,-0.4299565394
496.13800,0.180432276
496.13850,-0.4299565394
496.13900,-2.261122986
496.13950,-3.176706209
496.14000,-3.176706209
496.14050,-2.261122986
496.14100,-0.4299565394
496.14150,2.31679313
496.14200,4.758348392
496.14250,5.063542799
496.14300,3.232376353
496.14350,2.31679313
496.14400,2.31679313
496.14450,2.927181945
496.14500,2.927181945
496.14550,2.31679313
496.14600,1.706404315
496.14650,2.011598722
496.14700,3.232376353
496.14750,4.453153984
496.14800,5.063542799
496.14850,4.147959576
496.14900,3.232376353
496.14950,3.232376353
496.15000,3.842765168
496.15050,3.537570761
496.15100,3.537570761
496.15150,4.147959576
496.15200,4.147959576
496.15250,2.621987538
496.15300,0.7908210914
496.15350,0.180432276
496.15400,1.096015499
496.15450,2.31679313
496.15500,2.927181945
496.15550,2.927181945
496.15600,2.621987538
496.15650,2.31679313
496.15700,2.31679313
496.15750,2.621987538
496.15800,2.621987538
496.15850,1.706404315
496.15900,1.096015499
496.15950,1.096015499
496.16000,1.401209907
496.16050,1.401209907
496.16100,1.401209907
496.16150,1.401209907
496.16200,1.706404315
496.16250,2.011598722
496.16300,2.011598722
496.16350,2.011598722
496.16400,0.7908210914
496.16450,-0.1247621317
496.16500,-0.1247621317
496.16550,0.7908210914
496.16600,1.401209907
496.16650,0.7908210914
496.16700,-0.1247621317
496.16750,-0.1247621317
496.16800,-0.1247621317
496.16850,-0.7351509471
496.16900,-1.345539762
496.16950,-0.7351509471
496.17000,-0.1247621317
496.17050,0.180432276
496.17100,0.180432276
496.17150,0.4856266837
496.17200,-0.1247621317
496.17250,-1.345539762
496.17300,-3.176706209
496.17350,-3.176706209
496.17400,-1.65073417
496.17450,-0.4299565394
496.17500,-1.040345355
496.17550,-2.566317393
496.17600,-3.481900616
496.17650,-2.261122986
496.17700,-0.4299565394
496.17750,0.180432276
496.17800,0.180432276
496.17850,0.180432276
496.17900,0.7908210914
496.17950,1.096015499
496.18000,-0.1247621317
496.18050,-1.345539762
496.18100,-1.040345355
496.18150,-0.4299565394
496.18200,-0.7351509471
496.18250,-1.955928578
496.18300,-2.261122986
496.18350,-1.65073417
496.18400,-1.345539762
496.18450,-1.65073417
496.18500,-1.65073417
496.18550,-0.7351509471
496.18600,-0.7351509471
496.18650,-1.65073417
496.18700,-2.566317393
496.18750,-2.566317393
496.18800,-2.566317393
496.18850,-3.481900616
496.18900,-3.176706209
496.18950,-1.955928578
496.19000,-1.65073417
496.19050,-2.871511801
496.19100,-3.176706209
496.19150,-1.345539762
496.19200,0.180432276
496.19250,0.180432276
496.19300,-0.1247621317
496.19350,0.180432276
496.19400,0.7908210914
496.19450,0.4856266837
496.19500,-0.1247621317
496.19550,-0.4299565394
496.19600,-0.1247621317
496.19650,0.180432276
496.19700,0.4856266837
496.19750,-0.7351509471
496.19800,-4.39748384
496.19850,-8.670205547
496.19900,-10.50137199
496.19950,-9.280594363
496.20000,-8.059816732
496.20050,-7.449427917
496.20100,-6.839039101
496.20150,-5.61826147
496.20200,-5.007872655
496.20250,-3.787095024
496.20300,2.011598722
496.20350,11.77781977
496.20400,17.88170792
496.20450,14.82976385
496.20500,6.894709245
496.20550,2.621987538
496.20600,2.31679313
496.20650,1.401209907
496.20700,-1.65073417
496.20750,-4.39748384
496.20800,-5.313067063
496.20850,-6.533844693
496.20900,-8.059816732
496.20950,-7.449427917
496.21000,-5.923455878
496.21050,-5.61826147
496.21100,-6.533844693
496.21150,-5.007872655
496.21200,-0.1247621317
496.21250,5.673931615
496.21300,11.16743095
496.21350,16.35573588
496.21400,18.49209674
496.21450,13.60898621
496.21500,2.927181945
496.21550,-4.702678247
496.21600,-5.007872655
496.21650,-1.955928578
496.21700,-0.7351509471
496.21750,-1.65073417
496.21800,-1.345539762
496.21850,-0.1247621317
496.21900,-0.1247621317
496.21950,-1.345539762
496.22000,-1.955928578
496.22050,-1.65073417
496.22100,-1.040345355
496.22150,-0.4299565394
496.22200,0.4856266837
496.22250,0.7908210914
496.22300,-0.1247621317
496.22350,-1.040345355
496.22400,-1.345539762
496.22450,-1.040345355
496.22500,-1.65073417
496.22550,-1.955928578
496.22600,-1.040345355
496.22650,-0.1247621317
496.22700,-0.1247621317
496.22750,-0.4299565394
496.22800,-0.4299565394
496.22850,-0.1247621317
496.22900,-0.4299565394
496.22950,-0.4299565394
496.23000,-0.1247621317
496.23050,0.180432276
496.23100,-0.1247621317
496.23150,-0.1247621317
496.23200,0.4856266837
496.23250,2.011598722
496.23300,2.31679313
496.23350,2.011598722
496.23400,1.706404315
496.23450,1.401209907
496.23500,0.7908210914
496.23550,0.180432276
496.23600,-0.1247621317
496.23650,-0.1247621317
496.23700,-0.4299565394
496.23750,-1.65073417
496.23800,-1.65073417
496.23850,-0.7351509471
496.23900,0.180432276
496.23950,1.401209907
496.24000,2.31679313
496.24050,2.927181945
496.24100,2.927181945
496.24150,1.706404315
496.24200,0.7908210914
496.24250,0.7908210914
496.24300,1.401209907
496.24350,2.011598722
496.24400,1.706404315
496.24450,0.7908210914
496.24500,-0.1247621317
496.24550,-0.4299565394
496.24600,-0.1247621317
496.24650,0.7908210914
496.24700,1.706404315
496.24750,2.31679313
496.24800,1.706404315
496.24850,0.7908210914
496.24900,-0.1247621317
496.24950,-1.040345355
496.25000,-1.65073417
496.25050,-1.955928578
496.25100,-2.261122986
496.25150,-3.176706209
496.25200,-3.787095024
496.25250,-2.871511801
496.25300,-1.345539762
496.25350,-0.1247621317
496.25400,-0.1247621317
496.25450,0.4856266837
496.25500,2.31679313
496.25550,3.537570761
496.25600,2.927181945
496.25650,1.096015499
496.25700,-0.1247621317
496.25750,-0.1247621317
496.25800,0.4856266837
496.25850,0.180432276
496.25900,-0.1247621317
496.25950,-0.1247621317
496.26000,-0.1247621317
496.26050,0.7908210914
496.26100,1.706404315
496.26150,2.011598722
496.26200,1.401209907
496.26250,0.7908210914
496.26300,0.180432276
496.26350,-0.1247621317
496.26400,-0.1247621317
496.26450,-0.1247621317
496.26500,-0.1247621317
496.26550,-0.1247621317
496.26600,-0.4299565394
496.26650,-0.7351509471
496.26700,0.180432276
496.26750,1.706404315
496.26800,2.31679313
496.26850,1.096015499
496.26900,-0.1247621317
496.26950,0.180432276
496.27000,1.096015499
496.27050,0.7908210914
496.27100,-0.1247621317
496.27150,-0.7351509471
496.27200,-0.7351509471
496.27250,-0.1247621317
496.27300,0.7908210914
496.27350,-0.1247621317
496.27400,-2.871511801
496.27450,-6.533844693
496.27500,-8.670205547
496.27550,-8.059816732
496.27600,-6.533844693
496.27650,-4.092289432
496.27700,-1.955928578
496.27750,-1.040345355
496.27800,-2.261122986
496.27850,-1.65073417
496.27900,4.453153984
496.27950,13.91418062
496.28000,19.10248555
496.28050,16.9661247
496.28100,11.47262536
496.28150,7.199903653
496.28200,4.758348392
496.28250,3.232376353
496.28300,2.621987538
496.28350,2.621987538
496.28400,3.232376353
496.28450,5.063542799
496.28500,9.641458915
496.28550,14.21937503
496.28600,15.44015266
496.28650,14.52456944
496.28700,15.13495825
496.28750,17.57651352
496.28800,16.35573588
496.28850,11.77781977
496.28900,9.336264507
496.28950,8.115486876
496.29000,1.401209907
496.29050,-12.63773285
496.29100,-25.76109238
496.29150,-29.72861968
496.29200,-28.20264764
496.29250,-28.20264764
496.29300,-28.20264764
496.29350,-23.01434271
496.29400,-14.16370489
496.29450,-9.280594363
496.29500,-9.58578877
496.29550,-11.11176081
496.29600,-10.50137199
496.29650,-9.890983178
496.29700,-9.890983178
496.29750,-9.280594363
496.29800,-8.059816732
496.29850,-8.975399955
496.29900,-11.11176081
496.29950,-10.50137199
496.30000,-4.702678247
496.30050,3.842765168
496.30100,10.86223655
496.30150,13.30379181
496.30200,12.38820858
496.30250,10.25184773
496.30300,8.420681284
496.30350,6.589514838
496.30400,4.453153984
496.30450,2.31679313
496.30500,1.096015499
496.30550,1.096015499
496.30600,1.706404315
496.30650,2.621987538
496.30700,3.537570761
496.30750,3.537570761
496.30800,2.927181945
496.30850,2.621987538
496.30900,2.621987538
496.30950,3.232376353
496.31000,2.621987538
496.31050,1.706404315
496.31100,1.096015499
496.31150,1.401209907
496.31200,1.706404315
496.31250,1.401209907
496.31300,0.7908210914
496.31350,0.4856266837
496.31400,-0.1247621317
496.31450,-0.4299565394
496.31500,-1.040345355
496.31550,-1.040345355
496.31600,-1.040345355
496.31650,-1.65073417
496.31700,-2.261122986
496.31750,-2.261122986
496.31800,-1.040345355
496.31850,-0.4299565394
496.31900,-1.040345355
496.31950,-1.345539762
496.32000,-1.345539762
496.32050,-1.65073417
496.32100,-2.566317393
496.32150,-2.261122986
496.32200,-0.4299565394
496.32250,0.4856266837
496.32300,-0.1247621317
496.32350,-0.4299565394
496.32400,-0.1247621317
496.32450,0.7908210914
496.32500,0.180432276
496.32550,-0.7351509471
496.32600,-0.1247621317
496.32650,1.096015499
496.32700,1.401209907
496.32750,0.180432276
496.32800,-2.566317393
496.32850,-6.533844693
496.32900,-10.8065664
496.32950,-12.33253844
496.33000,-9.58578877
496.33050,-5.313067063
496.33100,-3.481900616
496.33150,-3.787095024
496.33200,-4.092289432
496.33250,-2.566317393
496.33300,-1.65073417
496.33350,-1.955928578
496.33400,-2.261122986
496.33450,-1.345539762
496.33500,-1.040345355
496.33550,-2.261122986
496.33600,-2.871511801
496.33650,-2.261122986
496.33700,-0.7351509471
496.33750,-0.7351509471
496.33800,-1.65073417
496.33850,-2.261122986
496.33900,-1.65073417
496.33950,-0.7351509471
496.34000,-0.7351509471
496.34050,-0.7351509471
496.34100,0.180432276
496.34150,2.31679313
496.34200,3.537570761
496.34250,2.621987538
496.34300,1.706404315
496.34350,2.31679313
496.34400,3.232376353
496.34450,2.927181945
496.34500,1.706404315
496.34550,1.401209907
496.34600,2.31679313
496.34650,2.927181945
496.34700,2.621987538
496.34750,2.927181945
496.34800,4.147959576
496.34850,4.147959576
496.34900,2.011598722
496.34950,0.180432276
496.35000,-0.1247621317
496.35050,0.180432276
496.35100,0.4856266837
496.35150,0.4856266837
496.35200,0.4856266837
496.35250,-1.345539762
496.35300,-5.923455878
496.35350,-9.58578877
496.35400,-9.58578877
496.35450,-6.839039101
496.35500,-5.313067063
496.35550,-4.39748384
496.35600,-3.176706209
496.35650,-2.261122986
496.35700,-1.345539762
496.35750,1.706404315
496.35800,10.25184773
496.35850,20.01806878
496.35900,23.07001285
496.35950,17.57651352
496.36000,9.336264507
496.36050,4.758348392
496.36100,3.842765168
496.36150,3.842765168
496.36200,2.927181945
496.36250,2.31679313
496.36300,2.011598722
496.36350,1.096015499
496.36400,-0.1247621317
496.36450,-0.1247621317
496.36500,-0.1247621317
496.36550,-0.1247621317
496.36600,-0.1247621317
496.36650,-0.1247621317
496.36700,0.180432276
496.36750,0.4856266837
496.36800,0.180432276
496.36850,0.180432276
496.36900,0.7908210914
496.36950,1.401209907
496.37000,0.4856266837
496.37050,-0.4299565394
496.37100,-1.955928578
496.37150,-3.481900616
496.37200,-4.702678247
496.37250,-5.007872655
496.37300,-4.39748384
496.37350,-3.481900616
496.37400,-3.481900616
496.37450,-3.481900616
496.37500,-3.176706209
496.37550,-2.871511801
496.37600,-3.481900616
496.37650,-4.39748384
496.37700,-4.702678247
496.37750,-4.702678247
496.37800,-4.39748384
496.37850,-3.176706209
496.37900,-1.345539762
496.37950,-0.1247621317
496.38000,-0.4299565394
496.38050,-1.345539762
496.38100,-0.4299565394
496.38150,1.401209907
496.38200,2.31679313
496.38250,1.401209907
496.38300,-0.1247621317
496.38350,-0.1247621317
496.38400,0.7908210914
496.38450,1.096015499
496.38500,0.7908210914
496.38550,0.180432276
496.38600,-1.040345355
496.38650,-2.566317393
496.38700,-2.871511801
496.38750,-1.65073417
496.38800,-1.65073417
496.38850,-3.176706209
496.38900,-3.787095024
496.38950,-2.566317393
496.39000,-0.7351509471
496.39050,-0.1247621317
496.39100,0.180432276
496.39150,1.706404315
496.39200,1.096015499
496.39250,-3.176706209
496.39300,-8.36501114
496.39350,-9.58578877
496.39400,-7.754622324
496.39450,-7.754622324
496.39500,-9.280594363
496.39550,-8.670205547
496.39600,-4.092289432
496.39650,0.7908210914
496.39700,3.537570761
496.39750,6.28432043
496.39800,11.16743095
496.39850,15.13495825
496.39900,14.82976385
496.39950,11.16743095
496.40000,7.199903653
496.40050,5.063542799
496.40100,3.842765168
496.40150,3.842765168
496.40200,4.453153984
496.40250,5.063542799
496.40300,4.147959576
496.40350,2.621987538
496.40400,1.706404315
496.40450,2.31679313
496.40500,2.31679313
496.40550,2.011598722
496.40600,2.31679313
496.40650,3.232376353
496.40700,3.842765168
496.40750,2.927181945
496.40800,1.401209907
496.40850,0.4856266837
496.40900,1.401209907
496.40950,2.011598722
496.41000,2.011598722
496.41050,1.401209907
496.41100,1.401209907
496.41150,1.401209907
496.41200,1.096015499
496.41250,0.180432276
496.41300,-0.4299565394
496.41350,-0.7351509471
496.41400,-1.345539762
496.41450,-1.65073417
496.41500,-1.955928578
496.41550,-2.566317393
496.41600,-3.176706209
496.41650,-3.787095024
496.41700,-2.871511801
496.41750,-1.65073417
496.41800,-1.040345355
496.41850,-1.955928578
496.41900,-2.566317393
496.41950,-2.261122986
496.42000,-1.65073417
496.42050,-1.65073417
496.42100,-1.955928578
496.42150,-2.261122986
496.42200,-2.566317393
496.42250,-1.65073417
496.42300,-0.1247621317
496.42350,2.011598722
496.42400,2.621987538
496.42450,1.401209907
496.42500,0.7908210914
496.42550,1.401209907
496.42600,2.31679313
496.42650,1.401209907
496.42700,0.180432276
496.42750,0.180432276
496.42800,0.7908210914
496.42850,0.7908210914
496.42900,-0.4299565394
496.42950,-1.345539762
496.43000,-1.65073417
496.43050,-1.345539762
496.43100,-0.7351509471
496.43150,-0.1247621317
496.43200,0.4856266837
496.43250,0.180432276
496.43300,-0.4299565394
496.43350,-1.040345355
496.43400,-1.040345355
496.43450,-0.7351509471
496.43500,-0.7351509471
496.43550,-0.7351509471
496.43600,-0.7351509471
496.43650,-0.1247621317
496.43700,0.4856266837
496.43750,0.7908210914
496.43800,0.7908210914
496.43850,0.4856266837
496.43900,0.4856266837
496.43950,0.180432276
496.44000,-0.1247621317
496.44050,-1.345539762
496.44100,-1.65073417
496.44150,-1.65073417
496.44200,-1.65073417
496.44250,-1.955928578
496.44300,-1.955928578
496.44350,-1.955928578
496.44400,-1.345539762
496.44450,-1.040345355
496.44500,-1.040345355
496.44550,-0.7351509471
496.44600,-0.4299565394
496.44650,-0.1247621317
496.44700,-0.1247621317
496.44750,-0.7351509471
496.44800,-1.345539762
496.44850,-0.7351509471
496.44900,0.4856266837
496.44950,1.096015499
496.45000,0.180432276
496.45050,-0.7351509471
496.45100,-0.7351509471
496.45150,0.7908210914
496.45200,2.31679313
496.45250,2.011598722
496.45300,0.7908210914
496.45350,0.4856266837
496.45400,1.401209907
496.45450,2.621987538
496.45500,2.927181945
496.45550,2.621987538
496.45600,1.706404315
496.45650,-0.1247621317
496.45700,-2.566317393
496.45750,-5.007872655
496.45800,-5.61826147
496.45850,-4.092289432
496.45900,-1.040345355
496.45950,0.7908210914
496.46000,1.706404315
496.46050,1.401209907
496.46100,1.096015499
496.46150,3.537570761
496.46200,11.47262536
496.46250,20.62845759
496.46300,23.07001285
496.46350,15.13495825
496.46400,2.011598722
496.46450,-6.533844693
496.46500,-7.754622324
496.46550,-4.39748384
496.46600,-2.261122986
496.46650,-2.261122986
496.46700,-2.871511801
496.46750,-3.787095024
496.46800,-3.481900616
496.46850,-1.040345355
496.46900,2.621987538
496.46950,5.979126022
496.47000,7.810292469
496.47050,9.336264507
496.47100,10.55704214
496.47150,9.641458915
496.47200,7.199903653
496.47250,6.894709245
496.47300,8.725875692
496.47350,9.641458915
496.47400,7.810292469
496.47450,5.979126022
496.47500,4.453153984
496.47550,-2.871511801
496.47600,-19.65720422
496.47650,-36.74809106
496.47700,-41.63120158
496.47750,-33.39095257
496.47800,-22.40395389
496.47850,-16.60526015
496.47900,-14.7740937
496.47950,-12.02734403
496.48000,-8.975399955
496.48050,-7.449427917
496.48100,-7.449427917
496.48150,-6.533844693
496.48200,-5.007872655
496.48250,-4.092289432
496.48300,-3.176706209
496.48350,-1.65073417
496.48400,-0.1247621317
496.48450,-0.1247621317
496.48500,-0.1247621317
496.48550,-0.1247621317
496.48600,-0.1247621317
496.48650,-0.1247621317
496.48700,0.7908210914
496.48750,2.31679313
496.48800,2.31679313
496.48850,0.4856266837
496.48900,-0.4299565394
496.48950,-0.1247621317
496.49000,1.706404315
496.49050,2.621987538
496.49100,2.31679313
496.49150,2.011598722
496.49200,2.927181945
496.49250,3.537570761
496.49300,3.232376353
496.49350,2.31679313
496.49400,1.096015499
496.49450,-0.1247621317
496.49500,-0.4299565394
496.49550,-1.040345355
496.49600,-1.040345355
496.49650,-0.7351509471
496.49700,-0.1247621317
496.49750,1.096015499
496.49800,1.096015499
496.49850,0.4856266837
496.49900,0.7908210914
496.49950,2.31679313
496.50000,3.232376353
496.50050,3.232376353
496.50100,2.621987538
496.50150,2.31679313
496.50200,2.927181945
496.50250,3.537570761
496.50300,4.147959576
496.50350,3.537570761
496.50400,2.31679313
496.50450,0.4856266837
496.50500,-0.1247621317
496.50550,-0.1247621317
496.50600,-1.345539762
496.50650,-4.39748384
496.50700,-7.144233509
496.50750,-8.059816732
496.50800,-7.144233509
496.50850,-6.228650286
496.50900,-6.533844693
496.50950,-8.059816732
496.51000,-8.975399955
496.51050,-7.144233509
496.51100,-0.1247621317
496.51150,9.641458915
496.51200,15.74534707
496.51250,15.44015266
496.51300,10.86223655
496.51350,6.28432043
496.51400,4.147959576
496.51450,3.232376353
496.51500,2.31679313
496.51550,2.011598722
496.51600,2.31679313
496.51650,2.621987538
496.51700,2.621987538
496.51750,2.927181945
496.51800,3.537570761
496.51850,3.842765168
496.51900,2.927181945
496.51950,1.706404315
496.52000,1.706404315
496.52050,2.31679313
496.52100,2.31679313
496.52150,2.011598722
496.52200,2.31679313
496.52250,2.927181945
496.52300,3.232376353
496.52350,2.621987538
496.52400,1.706404315
496.52450,1.401209907
496.52500,2.011598722
496.52550,1.706404315
496.52600,0.7908210914
496.52650,-0.1247621317
496.52700,-0.1247621317
496.52750,0.180432276
496.52800,0.7908210914
496.52850,2.011598722
496.52900,2.011598722
496.52950,1.096015499
496.53000,-0.4299565394
496.53050,-1.345539762
496.53100,-0.7351509471
496.53150,0.4856266837
496.53200,0.4856266837
496.53250,-0.4299565394
496.53300,-1.345539762
496.53350,-1.040345355
496.53400,-0.4299565394
496.53450,-0.7351509471
496.53500,-1.345539762
496.53550,-1.65073417
496.53600,-1.345539762
496.53650,-1.65073417
496.53700,-2.261122986
496.53750,-1.955928578
496.53800,-0.4299565394
496.53850,0.180432276
496.53900,0.180432276
496.53950,0.180432276
496.54000,0.7908210914
496.54050,1.706404315
496.54100,1.706404315
496.54150,1.096015499
496.54200,1.096015499
496.54250,1.401209907
496.54300,1.401209907
496.54350,1.401209907
496.54400,2.011598722
496.54450,2.621987538
496.54500,2.31679313
496.54550,1.401209907
496.54600,1.401209907
496.54650,1.401209907
496.54700,0.4856266837
496.54750,-0.7351509471
496.54800,-1.040345355
496.54850,-0.1247621317
496.54900,0.180432276
496.54950,-1.040345355
496.55000,-2.566317393
496.55050,-2.871511801
496.55100,-2.566317393
496.55150,-1.955928578
496.55200,-1.345539762
496.55250,-0.4299565394
496.55300,-0.1247621317
496.55350,-1.345539762
496.55400,-2.566317393
496.55450,-2.566317393
496.55500,-1.65073417
496.55550,-1.65073417
496.55600,-2.261122986
496.55650,-2.261122986
496.55700,-1.65073417
496.55750,-0.7351509471
496.55800,0.180432276
496.55850,1.096015499
496.55900,-0.7351509471
496.55950,-5.61826147
496.56000,-9.58578877
496.56050,-9.890983178
496.56100,-7.754622324
496.56150,-6.228650286
496.56200,-5.61826147
496.56250,-3.787095024
496.56300,-2.261122986
496.56350,-1.955928578
496.56400,-0.7351509471
496.56450,4.453153984
496.56500,12.9985974
496.56550,18.79729115
496.56600,17.27131911
496.56650,11.16743095
496.56700,5.368737207
496.56750,2.621987538
496.56800,2.011598722
496.56850,2.31679313
496.56900,2.31679313
496.56950,2.621987538
496.57000,2.31679313
496.57050,0.7908210914
496.57100,-1.345539762
496.57150,-2.566317393
496.57200,-1.345539762
496.57250,0.4856266837
496.57300,0.7908210914
496.57350,0.180432276
496.57400,0.180432276
496.57450,-0.1247621317
496.57500,-4.092289432
496.57550,-10.50137199
496.57600,-14.16370489
496.57650,-11.72214962
496.57700,-7.144233509
496.57750,-4.702678247
496.57800,-4.702678247
496.57850,-4.702678247
496.57900,-3.787095024
496.57950,-2.566317393
496.58000,-0.7351509471
496.58050,0.4856266837
496.58100,0.4856266837
496.58150,-0.1247621317
496.58200,0.4856266837
496.58250,2.31679313
496.58300,3.232376353
496.58350,2.31679313
496.58400,1.706404315
496.58450,2.011598722
496.58500,2.31679313
496.58550,1.706404315
496.58600,1.096015499
496.58650,1.096015499
496.58700,0.7908210914
496.58750,0.4856266837
496.58800,0.180432276
496.58850,-0.1247621317
496.58900,-0.4299565394
496.58950,-1.345539762
496.59000,-1.65073417
496.59050,-1.345539762
496.59100,-2.261122986
496.59150,-3.787095024
496.59200,-3.481900616
496.59250,-1.955928578
496.59300,-1.345539762
496.59350,-2.566317393
496.59400,-3.176706209
496.59450,-2.261122986
496.59500,-1.65073417
496.59550,-2.871511801
496.59600,-4.39748384
496.59650,-3.787095024
496.59700,-2.566317393
496.59750,-2.261122986
496.59800,-2.871511801
496.59850,-2.566317393
496.59900,-1.040345355
496.59950,-0.1247621317
496.60000,-0.4299565394
496.60050,-1.040345355
496.60100,-0.7351509471
496.60150,-0.1247621317
496.60200,1.096015499
496.60250,2.621987538
496.60300,3.537570761
496.60350,3.842765168
496.60400,3.232376353
496.60450,2.927181945
496.60500,3.232376353
496.60550,3.537570761
496.60600,3.232376353
496.60650,2.011598722
496.60700,0.4856266837
496.60750,-0.4299565394
496.60800,-1.65073417
496.60850,-2.261122986
496.60900,-1.955928578
496.60950,-1.65073417
496.61000,-1.65073417
496.61050,-1.345539762
496.61100,-1.040345355
496.61150,-0.7351509471
496.61200,-1.955928578
496.61250,-4.39748384
496.61300,-6.839039101
496.61350,-7.144233509
496.61400,-5.007872655
496.61450,-0.7351509471
496.61500,3.842765168
496.61550,6.589514838
496.61600,6.28432043
496.61650,4.453153984
496.61700,3.842765168
496.61750,6.894709245
496.61800,12.9985974
496.61850,17.88170792
496.61900,18.18690233
496.61950,14.82976385
496.62000,11.77781977
496.62050,10.86223655
496.62100,9.946653322
496.62150,3.537570761
496.62200,-8.670205547
496.62250,-21.79356508
496.62300,-28.20264764
496.62350,-26.98187001
496.62400,-21.18317626
496.62450,-14.7740937
496.62500,-10.19617759
496.62550,-7.144233509
496.62600,-5.923455878
496.62650,-5.61826147
496.62700,-5.007872655
496.62750,-3.787095024
496.62800,-2.871511801
496.62850,-2.871511801
496.62900,-3.787095024
496.62950,-3.481900616
496.63000,-2.261122986
496.63050,-1.65073417
496.63100,-3.481900616
496.63150,-6.228650286
496.63200,-7.449427917
496.63250,-6.228650286
496.63300,-4.702678247
496.63350,-4.39748384
496.63400,-3.787095024
496.63450,-1.65073417
496.63500,0.180432276
496.63550,0.7908210914
496.63600,3.232376353
496.63650,10.25184773
496.63700,18.79729115
496.63750,21.84923522
496.63800,16.9661247
496.63850,9.946653322
496.63900,6.589514838
496.63950,6.894709245
496.64000,7.199903653
496.64050,6.28432043
496.64100,5.673931615
496.64150,5.368737207
496.64200,4.453153984
496.64250,2.927181945
496.64300,2.31679313
496.64350,2.621987538
496.64400,2.31679313
496.64450,0.7908210914
496.64500,-0.1247621317
496.64550,-0.1247621317
496.64600,0.4856266837
496.64650,0.180432276
496.64700,-0.4299565394
496.64750,-1.040345355
496.64800,-0.4299565394
496.64850,0.180432276
496.64900,1.096015499
496.64950,0.7908210914
496.65000,0.180432276
496.65050,-0.1247621317
496.65100,0.180432276
496.65150,0.7908210914
496.65200,0.7908210914
496.65250,-0.1247621317
496.65300,-0.4299565394
496.65350,-0.1247621317
496.65400,0.180432276
496.65450,0.180432276
496.65500,-0.1247621317
496.65550,0.4856266837
496.65600,1.096015499
496.65650,1.401209907
496.65700,1.401209907
496.65750,1.706404315
496.65800,2.011598722
496.65850,1.401209907
496.65900,0.7908210914
496.65950,0.4856266837
496.66000,0.7908210914
496.66050,0.4856266837
496.66100,-0.1247621317
496.66150,-1.040345355
496.66200,-1.040345355
496.66250,-0.7351509471
496.66300,-1.040345355
496.66350,-0.7351509471
496.66400,0.180432276
496.66450,0.7908210914
496.66500,-0.1247621317
496.66550,-1.040345355
496.66600,-1.040345355
496.66650,-0.1247621317
496.66700,0.180432276
496.66750,0.180432276
496.66800,0.180432276
496.66850,0.7908210914
496.66900,1.401209907
496.66950,1.401209907
496.67000,1.096015499
496.67050,0.7908210914
496.67100,1.706404315
496.67150,2.927181945
496.67200,3.232376353
496.67250,2.621987538
496.67300,1.401209907
496.67350,0.7908210914
496.67400,1.096015499
496.67450,1.706404315
496.67500,2.31679313
496.67550,2.621987538
496.67600,2.31679313
496.67650,1.401209907
496.67700,1.706404315
496.67750,2.621987538
496.67800,2.927181945
496.67850,2.31679313
496.67900,1.706404315
496.67950,2.011598722
496.68000,2.011598722
496.68050,0.7908210914
496.68100,-1.040345355
496.68150,-2.871511801
496.68200,-5.923455878
496.68250,-9.890983178
496.68300,-12.63773285
496.68350,-12.02734403
496.68400,-9.890983178
496.68450,-8.059816732
496.68500,-8.059816732
496.68550,-7.449427917
496.68600,-6.533844693
496.68650,-5.313067063
496.68700,-4.39748384
496.68750,-2.261122986
496.68800,-0.7351509471
496.68850,-0.4299565394
496.68900,-1.345539762
496.68950,-1.65073417
496.69000,-0.4299565394
496.69050,-0.1247621317
496.69100,-0.1247621317
496.69150,-0.1247621317
496.69200,1.096015499
496.69250,2.011598722
496.69300,1.706404315
496.69350,1.401209907
496.69400,1.706404315
496.69450,2.927181945
496.69500,3.537570761
496.69550,2.927181945
496.69600,1.401209907
496.69650,0.4856266837
496.69700,0.180432276
496.69750,0.4856266837
496.69800,1.401209907
496.69850,2.31679313
496.69900,2.927181945
496.69950,3.537570761
496.70000,2.927181945
496.70050,1.401209907
496.70100,0.4856266837
496.70150,1.401209907
496.70200,2.927181945
496.70250,2.31679313
496.70300,0.4856266837
496.70350,-0.4299565394
496.70400,0.180432276
496.70450,1.096015499
496.70500,-0.1247621317
496.70550,-4.092289432
496.70600,-7.449427917
496.70650,-8.670205547
496.70700,-8.36501114
496.70750,-8.059816732
496.70800,-7.754622324
496.70850,-7.754622324
496.70900,-8.670205547
496.70950,-10.19617759
496.71000,-9.58578877
496.71050,-4.39748384
496.71100,2.31679313
496.71150,6.28432043
496.71200,4.758348392
496.71250,1.706404315
496.71300,0.180432276
496.71350,-0.7351509471
496.71400,-2.261122986
496.71450,-0.7351509471
496.71500,6.589514838
496.71550,16.35573588
496.71600,21.23884641
496.71650,18.79729115
496.71700,13.91418062
496.71750,11.16743095
496.71800,9.641458915
496.71850,6.894709245
496.71900,3.842765168
496.71950,2.31679313
496.72000,1.096015499
496.72050,-1.040345355
496.72100,-3.787095024
496.72150,-5.007872655
496.72200,-5.313067063
496.72250,-8.975399955
496.72300,-15.68967692
496.72350,-20.87798186
496.72400,-19.35200982
496.72450,-12.63773285
496.72500,-5.61826147
496.72550,-1.955928578
496.72600,-0.4299565394
496.72650,-0.1247621317
496.72700,0.4856266837
496.72750,0.7908210914
496.72800,0.7908210914
496.72850,-0.1247621317
496.72900,-1.65073417
496.72950,-2.566317393
496.73000,-2.871511801
496.73050,-3.176706209
496.73100,-4.39748384
496.73150,-4.702678247
496.73200,-4.092289432
496.73250,-3.176706209
496.73300,-3.176706209
496.73350,-3.481900616
496.73400,-2.261122986
496.73450,-0.7351509471
496.73500,-0.7351509471
496.73550,-2.261122986
496.73600,-2.566317393
496.73650,-0.4299565394
496.73700,1.706404315
496.73750,3.232376353
496.73800,4.453153984
496.73850,6.894709245
496.73900,8.725875692
496.73950,9.336264507
496.74000,9.946653322
496.74050,11.47262536
496.74100,9.641458915
496.74150,1.096015499
496.74200,-10.8065664
496.74250,-17.21564896
496.74300,-14.16370489
496.74350,-7.449427917
496.74400,-3.481900616
496.74450,-2.871511801
496.74500,-2.261122986
496.74550,-1.040345355
496.74600,-1.345539762
496.74650,-1.955928578
496.74700,-1.345539762
496.74750,0.180432276
496.74800,0.7908210914
496.74850,0.180432276
496.74900,-0.1247621317
496.74950,0.4856266837
496.75000,0.180432276
496.75050,-1.65073417
496.75100,-2.566317393
496.75150,-1.040345355
496.75200,1.096015499
496.75250,1.706404315
496.75300,0.4856266837
496.75350,-0.7351509471
496.75400,-1.040345355
496.75450,-0.1247621317
496.75500,0.7908210914
496.75550,1.401209907
496.75600,1.706404315
496.75650,1.706404315
496.75700,1.096015499
496.75750,0.180432276
496.75800,-0.1247621317
496.75850,0.180432276
496.75900,0.7908210914
496.75950,1.401209907
496.76000,1.401209907
496.76050,1.096015499
496.76100,1.401209907
496.76150,2.31679313
496.76200,2.927181945
496.76250,3.537570761
496.76300,4.147959576
496.76350,4.147959576
496.76400,3.537570761
496.76450,2.011598722
496.76500,0.7908210914
496.76550,1.096015499
496.76600,1.401209907
496.76650,1.096015499
496.76700,0.4856266837
496.76750,0.180432276
496.76800,0.7908210914
496.76850,1.706404315
496.76900,2.011598722
496.76950,2.011598722
496.77000,2.621987538
496.77050,3.232376353
496.77100,3.842765168
496.77150,3.842765168
496.77200,3.232376353
496.77250,2.621987538
496.77300,1.401209907
496.77350,-0.1247621317
496.77400,-0.4299565394
496.77450,-0.1247621317
496.77500,0.180432276
496.77550,0.4856266837
496.77600,0.180432276
496.77650,0.180432276
496.77700,0.7908210914
496.77750,1.096015499
496.77800,1.401209907
496.77850,2.31679313
496.77900,3.232376353
496.77950,3.232376353
496.78000,2.011598722
496.78050,1.096015499
496.78100,1.096015499
496.78150,1.096015499
496.78200,0.180432276
496.78250,-1.040345355
496.78300,-1.040345355
496.78350,0.4856266837
496.78400,2.621987538
496.78450,2.927181945
496.78500,2.011598722
496.78550,1.401209907
496.78600,1.706404315
496.78650,2.621987538
496.78700,2.621987538
496.78750,1.706404315
496.78800,0.4856266837
496.78850,-0.1247621317
496.78900,-0.4299565394
496.78950,-0.7351509471
496.79000,-0.7351509471
496.79050,-0.1247621317
496.79100,0.4856266837
496.79150,0.4856266837
496.79200,-0.4299565394
496.79250,-1.040345355
496.79300,-0.4299565394
496.79350,0.4856266837
496.79400,0.7908210914
496.79450,0.180432276
496.79500,0.4856266837
496.79550,2.011598722
496.79600,2.31679313
496.79650,1.096015499
496.79700,-0.7351509471
496.79750,-1.040345355
496.79800,-0.1247621317
496.79850,0.4856266837
496.79900,0.4856266837
496.79950,-0.1247621317
496.80000,-0.4299565394
496.80050,-0.7351509471
496.80100,-0.1247621317
496.80150,0.180432276
496.80200,-0.1247621317
496.80250,-1.65073417
496.80300,-3.481900616
496.80350,-3.481900616
496.80400,-1.955928578
496.80450,-1.65073417
496.80500,-2.871511801
496.80550,-4.092289432
496.80600,-3.787095024
496.80650,-2.871511801
496.80700,-3.176706209
496.80750,-3.787095024
496.80800,-3.176706209
496.80850,-1.65073417
496.80900,-0.1247621317
496.80950,-0.1247621317
496.81000,-0.1247621317
496.81050,-0.1247621317
496.81100,-0.1247621317
496.81150,-0.1247621317
496.81200,-0.1247621317
496.81250,-0.7351509471
496.81300,-1.040345355
496.81350,-1.040345355
496.81400,-1.040345355
496.81450,-1.955928578
496.81500,-2.871511801
496.81550,-3.176706209
496.81600,-2.566317393
496.81650,-2.261122986
496.81700,-1.65073417
496.81750,-1.040345355
496.81800,-0.1247621317
496.81850,-0.1247621317
496.81900,-0.4299565394
496.81950,-0.7351509471
496.82000,-0.1247621317
496.82050,1.401209907
496.82100,1.706404315
496.82150,0.7908210914
496.82200,0.180432276
496.82250,1.096015499
496.82300,2.31679313
496.82350,2.011598722
496.82400,1.096015499
496.82450,1.401209907
496.82500,2.621987538
496.82550,3.537570761
496.82600,3.537570761
496.82650,2.927181945
496.82700,2.621987538
496.82750,2.011598722
496.82800,1.096015499
496.82850,-0.1247621317
496.82900,-2.566317393
496.82950,-7.449427917
496.83000,-12.63773285
496.83050,-13.55331607
496.83100,-9.58578877
496.83150,-4.702678247
496.83200,-3.481900616
496.83250,-5.313067063
496.83300,-5.923455878
496.83350,-4.092289432
496.83400,-1.955928578
496.83450,-1.955928578
496.83500,-2.871511801
496.83550,-3.176706209
496.83600,-2.261122986
496.83650,-1.345539762
496.83700,-1.345539762
496.83750,-1.040345355
496.83800,-0.7351509471
496.83850,-0.4299565394
496.83900,-0.4299565394
496.83950,-0.4299565394
496.84000,-0.1247621317
496.84050,0.180432276
496.84100,0.4856266837
496.84150,0.180432276
496.84200,0.4856266837
496.84250,1.096015499
496.84300,1.401209907
496.84350,1.096015499
496.84400,0.4856266837
496.84450,-0.1247621317
496.84500,0.180432276
496.84550,1.096015499
496.84600,1.706404315
496.84650,2.31679313
496.84700,2.31679313
496.84750,2.011598722
496.84800,2.31679313
496.84850,3.232376353
496.84900,2.621987538
496.84950,-0.1247621317
496.85000,-5.007872655
496.85050,-8.059816732
496.85100,-8.36501114
496.85150,-8.36501114
496.85200,-8.059816732
496.85250,-6.228650286
496.85300,-2.871511801
496.85350,-0.7351509471
496.85400,-1.040345355
496.85450,1.096015499
496.85500,9.031070099
496.85550,17.88170792
496.85600,19.71287437
496.85650,14.21937503
496.85700,7.810292469
496.85750,5.368737207
496.85800,5.063542799
496.85850,3.842765168
496.85900,2.011598722
496.85950,1.401209907
496.86000,0.7908210914
496.86050,-0.1247621317
496.86100,-0.7351509471
496.86150,0.180432276
496.86200,1.401209907
496.86250,0.4856266837
496.86300,-1.040345355
496.86350,-1.955928578
496.86400,-1.955928578
496.86450,-2.566317393
496.86500,-3.481900616
496.86550,-3.176706209
496.86600,-2.261122986
496.86650,-1.955928578
496.86700,-2.261122986
496.86750,-1.345539762
496.86800,0.180432276
496.86850,0.7908210914
496.86900,-0.1247621317
496.86950,-1.345539762
496.87000,-1.345539762
496.87050,-1.040345355
496.87100,-2.261122986
496.87150,-3.176706209
496.87200,-2.261122986
496.87250,-0.7351509471
496.87300,-1.040345355
496.87350,-3.176706209
496.87400,-4.39748384
496.87450,-3.481900616
496.87500,-2.566317393
496.87550,-3.176706209
496.87600,-3.787095024
496.87650,-3.176706209
496.87700,-1.955928578
496.87750,-1.955928578
496.87800,-1.955928578
496.87850,-0.4299565394
496.87900,1.706404315
496.87950,2.621987538
496.88000,2.31679313
496.88050,1.706404315
496.88100,2.31679313
496.88150,3.537570761
496.88200,3.537570761
496.88250,1.401209907
496.88300,-1.345539762
496.88350,-3.787095024
496.88400,-5.007872655
496.88450,-5.61826147
496.88500,-6.839039101
496.88550,-8.36501114
496.88600,-7.754622324
496.88650,-5.313067063
496.88700,-3.176706209
496.88750,-0.4299565394
496.88800,5.063542799
496.88850,12.9985974
496.88900,18.79729115
496.88950,18.79729115
496.89000,16.35573588
496.89050,14.82976385
496.89100,13.91418062
496.89150,12.38820858
496.89200,11.16743095
496.89250,10.55704214
496.89300,7.199903653
496.89350,-1.955928578
496.89400,-13.55331607
496.89450,-18.741621
496.89500,-14.16370489
496.89550,-7.449427917
496.89600,-5.007872655
496.89650,-6.228650286
496.89700,-6.839039101
496.89750,-4.702678247
496.89800,-2.871511801
496.89850,-2.871511801
496.89900,-3.787095024
496.89950,-3.176706209
496.90000,-1.65073417
496.90050,-0.1247621317
496.90100,-0.1247621317
496.90150,-0.1247621317
496.90200,-0.1247621317
496.90250,0.4856266837
496.90300,0.4856266837
496.90350,-0.1247621317
496.90400,-0.4299565394
496.90450,-1.040345355
496.90500,-3.176706209
496.90550,-5.313067063
496.90600,-5.923455878
496.90650,-4.39748384
496.90700,-2.871511801
496.90750,-2.261122986
496.90800,-1.65073417
496.90850,-0.4299565394
496.90900,-1.345539762
496.90950,-3.481900616
496.91000,-0.7351509471
496.91050,7.505098061
496.91100,15.74534707
496.91150,16.35573588
496.91200,10.55704214
496.91250,5.979126022
496.91300,5.063542799
496.91350,3.842765168
496.91400,1.401209907
496.91450,0.4856266837
496.91500,2.621987538
496.91550,3.842765168
496.91600,2.31679313
496.91650,0.180432276
496.91700,-0.1247621317
496.91750,1.096015499
496.91800,2.31679313
496.91850,2.621987538
496.91900,2.31679313
496.91950,2.011598722
496.92000,1.401209907
496.92050,1.096015499
496.92100,1.401209907
496.92150,1.706404315
496.92200,1.401209907
496.92250,1.096015499
496.92300,0.7908210914
496.92350,0.180432276
496.92400,-0.1247621317
496.92450,0.180432276
496.92500,0.180432276
496.92550,-0.1247621317
496.92600,-0.1247621317
496.92650,-0.1247621317
496.92700,0.180432276
496.92750,0.180432276
496.92800,-0.4299565394
496.92850,-1.65073417
496.92900,-2.261122986
496.92950,-2.566317393
496.93000,-1.955928578
496.93050,-0.7351509471
496.93100,-0.1247621317
496.93150,-0.4299565394
496.93200,-1.955928578
496.93250,-3.176706209
496.93300,-3.481900616
496.93350,-3.176706209
496.93400,-3.481900616
496.93450,-4.39748384
496.93500,-5.007872655
496.93550,-4.39748384
496.93600,-2.871511801
496.93650,-1.955928578
496.93700,-2.566317393
496.93750,-2.566317393
496.93800,-1.040345355
496.93850,-0.1247621317
496.93900,-0.7351509471
496.93950,-2.261122986
496.94000,-1.65073417
496.94050,0.180432276
496.94100,1.096015499
496.94150,-0.1247621317
496.94200,-0.4299565394
496.94250,1.096015499
496.94300,2.621987538
496.94350,2.011598722
496.94400,1.096015499
496.94450,1.706404315
496.94500,2.621987538
496.94550,2.011598722
496.94600,1.096015499
496.94650,2.011598722
496.94700,3.537570761
496.94750,3.842765168
496.94800,2.927181945
496.94850,2.621987538
496.94900,3.842765168
496.94950,4.453153984
496.95000,4.147959576
496.95050,3.842765168
496.95100,2.011598722
496.95150,-2.261122986
496.95200,-8.059816732
496.95250,-10.50137199
496.95300,-8.36501114
496.95350,-4.702678247
496.95400,-2.871511801
496.95450,-2.871511801
496.95500,-3.481900616
496.95550,-3.176706209
496.95600,-2.261122986
496.95650,-0.7351509471
496.95700,-0.1247621317
496.95750,-0.1247621317
496.95800,-0.1247621317
496.95850,-1.345539762
496.95900,-2.261122986
496.95950,-2.566317393
496.96000,-1.955928578
496.96050,-1.345539762
496.96100,-1.040345355
496.96150,-1.040345355
496.96200,-0.7351509471
496.96250,-0.7351509471
496.96300,-2.566317393
496.96350,-5.313067063
496.96400,-6.533844693
496.96450,-6.839039101
496.96500,-6.839039101
496.96550,-6.839039101
496.96600,-6.228650286
496.96650,-5.61826147
496.96700,-5.313067063
496.96750,-3.481900616
496.96800,2.011598722
496.96850,10.86223655
496.96900,16.9661247
496.96950,17.57651352
496.97000,14.52456944
496.97050,11.16743095
496.97100,8.420681284
496.97150,5.979126022
496.97200,3.842765168
496.97250,2.621987538
496.97300,2.31679313
496.97350,1.706404315
496.97400,1.401209907
496.97450,0.7908210914
496.97500,-0.1247621317
496.97550,-0.4299565394
496.97600,-0.4299565394
496.97650,0.180432276
496.97700,-0.1247621317
496.97750,-1.040345355
496.97800,-1.955928578
496.97850,-1.040345355
496.97900,-0.1247621317
496.97950,-0.1247621317
496.98000,-0.7351509471
496.98050,-1.345539762
496.98100,-1.65073417
496.98150,-2.261122986
496.98200,-2.261122986
496.98250,-1.65073417
496.98300,-3.176706209
496.98350,-7.144233509
496.98400,-10.50137199
496.98450,-10.50137199
496.98500,-9.280594363
496.98550,-9.280594363
496.98600,-8.975399955
496.98650,-7.144233509
496.98700,-5.007872655
496.98750,-4.702678247
496.98800,-3.481900616
496.98850,2.011598722
496.98900,11.16743095
496.98950,16.35573588
496.99000,13.91418062
496.99050,7.199903653
496.99100,2.621987538
496.99150,0.7908210914
496.99200,-0.1247621317
496.99250,-1.040345355
496.99300,-1.040345355
496.99350,-1.345539762
496.99400,-2.566317393
496.99450,-3.787095024
496.99500,-4.092289432
496.99550,-3.176706209
496.99600,-3.176706209
496.99650,-4.092289432
496.99700,-4.39748384
496.99750,-3.481900616
496.99800,-2.871511801
496.99850,-2.261122986
496.99900,-1.65073417
496.99950,-1.345539762
497.00000,-1.955928578
497.00050,-3.176706209
497.00100,-3.176706209
497.00150,-2.261122986
497.00200,-1.345539762
497.00250,-1.65073417
497.00300,-1.955928578
497.00350,-1.040345355
497.00400,-0.1247621317
497.00450,1.096015499
497.00500,2.011598722
497.00550,2.621987538
497.00600,2.927181945
497.00650,2.31679313
497.00700,1.096015499
497.00750,0.7908210914
497.00800,1.096015499
497.00850,1.706404315
497.00900,2.31679313
497.00950,3.232376353
497.01000,3.232376353
497.01050,2.011598722
497.01100,1.401209907
497.01150,2.31679313
497.01200,4.147959576
497.01250,3.842765168
497.01300,1.401209907
497.01350,-0.4299565394
497.01400,-0.1247621317
497.01450,1.096015499
497.01500,2.011598722
497.01550,2.011598722
497.01600,1.706404315
497.01650,1.096015499
497.01700,0.4856266837
497.01750,0.180432276
497.01800,0.4856266837
497.01850,0.180432276
497.01900,-0.1247621317
497.01950,0.180432276
497.02000,0.7908210914
497.02050,0.7908210914
497.02100,-0.1247621317
497.02150,0.180432276
497.02200,3.537570761
497.02250,6.894709245
497.02300,8.115486876
497.02350,8.725875692
497.02400,9.641458915
497.02450,9.031070099
497.02500,6.894709245
497.02550,5.673931615
497.02600,5.673931615
497.02650,1.096015499
497.02700,-10.19617759
497.02750,-21.48837067
497.02800,-23.01434271
497.02850,-14.7740937
497.02900,-7.144233509
497.02950,-5.61826147
497.03000,-6.533844693
497.03050,-5.313067063
497.03100,-3.481900616
497.03150,-3.481900616
497.03200,-4.39748384
497.03250,-3.787095024
497.03300,-2.261122986
497.03350,-1.65073417
497.03400,-1.955928578
497.03450,-1.345539762
497.03500,-0.4299565394
497.03550,-0.4299565394
497.03600,-0.7351509471
497.03650,-0.4299565394
497.03700,-0.1247621317
497.03750,-0.4299565394
497.03800,-1.040345355
497.03850,-0.4299565394
497.03900,0.180432276
497.03950,-0.1247621317
497.04000,-1.65073417
497.04050,-2.566317393
497.04100,-1.345539762
497.04150,-0.4299565394
497.04200,-1.040345355
497.04250,-1.955928578
497.04300,-1.65073417
497.04350,-0.1247621317
497.04400,0.4856266837
497.04450,-0.1247621317
497.04500,-1.040345355
497.04550,-1.345539762
497.04600,-0.7351509471
497.04650,-0.1247621317
497.04700,0.180432276
497.04750,0.180432276
497.04800,-0.1247621317
497.04850,0.180432276
497.04900,0.7908210914
497.04950,1.706404315
497.05000,1.096015499
497.05050,-0.1247621317
497.05100,-0.4299565394
497.05150,0.7908210914
497.05200,2.011598722
497.05250,2.011598722
497.05300,0.7908210914
497.05350,1.096015499
497.05400,2.31679313
497.05450,2.927181945
497.05500,2.927181945
497.05550,3.842765168
497.05600,5.063542799
497.05650,4.453153984
497.05700,2.927181945
497.05750,1.706404315
497.05800,2.621987538
497.05850,2.927181945
497.05900,2.011598722
497.05950,1.401209907
497.06000,2.621987538
497.06050,3.842765168
497.06100,4.147959576
497.06150,3.232376353
497.06200,2.011598722
497.06250,0.180432276
497.06300,-1.955928578
497.06350,-3.481900616
497.06400,-0.7351509471
497.06450,5.673931615
497.06500,12.9985974
497.06550,15.74534707
497.06600,11.16743095
497.06650,1.401209907
497.06700,-7.449427917
497.06750,-10.50137199
497.06800,-8.059816732
497.06850,-3.176706209
497.06900,-0.1247621317
497.06950,1.096015499
497.07000,1.706404315
497.07050,0.4856266837
497.07100,-4.092289432
497.07150,-11.11176081
497.07200,-15.99487133
497.07250,-15.38448252
497.07300,-11.11176081
497.07350,-7.144233509
497.07400,-6.228650286
497.07450,-5.313067063
497.07500,-2.566317393
497.07550,0.180432276
497.07600,0.4856266837
497.07650,0.180432276
497.07700,4.147959576
497.07750,12.69340299
497.07800,18.49209674
497.07850,16.66093029
497.07900,9.946653322
497.07950,5.673931615
497.08000,5.673931615
497.08050,5.979126022
497.08100,5.063542799
497.08150,3.842765168
497.08200,3.232376353
497.08250,2.31679313
497.08300,0.4856266837
497.08350,-0.1247621317
497.08400,0.7908210914
497.08450,1.401209907
497.08500,0.7908210914
497.08550,-0.1247621317
497.08600,-0.4299565394
497.08650,-0.1247621317
497.08700,0.4856266837
497.08750,1.401209907
497.08800,1.706404315
497.08850,1.096015499
497.08900,0.4856266837
497.08950,0.180432276
497.09000,0.180432276
497.09050,0.180432276
497.09100,0.180432276
497.09150,0.7908210914
497.09200,1.706404315
497.09250,2.011598722
497.09300,1.401209907
497.09350,1.096015499
497.09400,1.096015499
497.09450,0.4856266837
497.09500,-0.1247621317
497.09550,-0.1247621317
497.09600,0.180432276
497.09650,0.180432276
497.09700,-0.4299565394
497.09750,-1.040345355
497.09800,-1.955928578
497.09850,-2.871511801
497.09900,-3.481900616
497.09950,-2.871511801
497.10000,-1.955928578
497.10050,-2.566317393
497.10100,-3.176706209
497.10150,-2.871511801
497.10200,-1.65073417
497.10250,-1.345539762
497.10300,-2.566317393
497.10350,-3.176706209
497.10400,-1.955928578
497.10450,-1.65073417
497.10500,-2.566317393
497.10550,-3.481900616
497.10600,-2.261122986
497.10650,-0.7351509471
497.10700,-0.7351509471
497.10750,-1.345539762
497.10800,-1.345539762
497.10850,-0.4299565394
497.10900,-0.4299565394
497.10950,-1.040345355
497.11000,-1.040345355
497.11050,-0.7351509471
497.11100,-0.1247621317
497.11150,-0.1247621317
497.11200,-0.4299565394
497.11250,-1.040345355
497.11300,-2.261122986
497.11350,-2.566317393
497.11400,-1.955928578
497.11450,-1.955928578
497.11500,-3.176706209
497.11550,-5.007872655
497.11600,-5.007872655
497.11650,-3.787095024
497.11700,-2.871511801
497.11750,-3.176706209
497.11800,-2.871511801
497.11850,-1.345539762
497.11900,-0.1247621317
497.11950,0.180432276
497.12000,0.180432276
497.12050,0.180432276
497.12100,0.4856266837
497.12150,0.7908210914
497.12200,1.401209907
497.12250,2.31679313
497.12300,2.927181945
497.12350,2.927181945
497.12400,2.927181945
497.12450,2.621987538
497.12500,2.31679313
497.12550,1.706404315
497.12600,1.096015499
497.12650,0.4856266837
497.12700,0.180432276
497.12750,0.180432276
497.12800,0.4856266837
497.12850,0.180432276
497.12900,-0.1247621317
497.12950,-1.65073417
497.13000,-3.176706209
497.13050,-5.313067063
497.13100,-7.449427917
497.13150,-7.754622324
497.13200,-6.228650286
497.13250,-4.092289432
497.13300,-1.955928578
497.13350,0.4856266837
497.13400,4.758348392
497.13450,10.55704214
497.13500,17.27131911
497.13550,23.68040167
497.13600,26.12195693
497.13650,19.40767996
497.13700,2.31679313
497.13750,-16.60526015
497.13800,-25.76109238
497.13850,-21.79356508
497.13900,-12.94292726
497.13950,-8.36501114
497.14000,-8.36501114
497.14050,-7.754622324
497.14100,-4.092289432
497.14150,-0.1247621317
497.14200,2.31679313
497.14250,5.979126022
497.14300,11.47262536
497.14350,15.74534707
497.14400,14.52456944
497.14450,8.725875692
497.14500,3.537570761
497.14550,1.096015499
497.14600,0.7908210914
497.14650,0.7908210914
497.14700,0.180432276
497.14750,-0.4299565394
497.14800,-0.7351509471
497.14850,-1.345539762
497.14900,-1.65073417
497.14950,-1.65073417
497.15000,-1.955928578
497.15050,-2.566317393
497.15100,-2.261122986
497.15150,-0.4299565394
497.15200,0.7908210914
497.15250,0.4856266837
497.15300,-0.7351509471
497.15350,-1.040345355
497.15400,0.4856266837
497.15450,2.011598722
497.15500,2.011598722
497.15550,1.706404315
497.15600,2.31679313
497.15650,3.232376353
497.15700,2.927181945
497.15750,2.011598722
497.15800,1.096015499
497.15850,1.401209907
497.15900,1.706404315
497.15950,1.096015499
497.16000,-1.040345355
497.16050,-5.007872655
497.16100,-9.280594363
497.16150,-11.11176081
497.16200,-9.280594363
497.16250,-5.923455878
497.16300,-2.871511801
497.16350,-1.345539762
497.16400,-1.040345355
497.16450,-1.65073417
497.16500,-2.566317393
497.16550,-3.481900616
497.16600,-3.481900616
497.16650,-3.787095024
497.16700,-4.702678247
497.16750,-4.39748384
497.16800,-1.955928578
497.16850,1.401209907
497.16900,3.842765168
497.16950,5.368737207
497.17000,6.589514838
497.17050,6.894709245
497.17100,4.758348392
497.17150,1.706404315
497.17200,-0.1247621317
497.17250,-1.65073417
497.17300,-3.176706209
497.17350,-5.007872655
497.17400,-6.228650286
497.17450,-7.754622324
497.17500,-12.02734403
497.17550,-17.82603778
497.17600,-20.87798186
497.17650,-18.13123219
497.17700,-12.02734403
497.17750,-7.449427917
497.17800,-5.923455878
497.17850,-5.923455878
497.17900,-5.007872655
497.17950,-3.481900616
497.18000,-2.566317393
497.18050,-1.65073417
497.18100,-0.7351509471
497.18150,-0.4299565394
497.18200,-0.4299565394
497.18250,-0.1247621317
497.18300,0.4856266837
497.18350,1.706404315
497.18400,2.31679313
497.18450,2.927181945
497.18500,3.537570761
497.18550,3.842765168
497.18600,3.537570761
497.18650,3.232376353
497.18700,3.537570761
497.18750,3.537570761
497.18800,2.31679313
497.18850,1.401209907
497.18900,2.011598722
497.18950,3.537570761
497.19000,3.537570761
497.19050,2.31679313
497.19100,1.706404315
497.19150,2.621987538
497.19200,3.232376353
497.19250,2.31679313
497.19300,1.706404315
497.19350,2.011598722
497.19400,0.4856266837
497.19450,-2.871511801
497.19500,-5.923455878
497.19550,-6.228650286
497.19600,-4.702678247
497.19650,-3.176706209
497.19700,-1.955928578
497.19750,-1.040345355
497.19800,-2.261122986
497.19850,-4.092289432
497.19900,-1.955928578
497.19950,6.894709245
497.20000,16.9661247
497.20050,19.71287437
497.20100,14.21937503
497.20150,8.115486876
497.20200,6.28432043
497.20250,7.505098061
497.20300,7.199903653
497.20350,5.368737207
497.20400,4.453153984
497.20450,4.758348392
497.20500,4.758348392
497.20550,3.537570761
497.20600,2.621987538
497.20650,2.31679313
497.20700,2.927181945
497.20750,3.232376353
497.20800,2.927181945
497.20850,2.31679313
497.20900,1.706404315
497.20950,1.096015499
497.21000,0.4856266837
497.21050,0.180432276
497.21100,-0.1247621317
497.21150,-0.1247621317
497.21200,-0.1247621317
497.21250,-1.040345355
497.21300,-1.65073417
497.21350,-1.345539762
497.21400,-1.040345355
497.21450,-1.345539762
497.21500,-1.345539762
497.21550,-0.7351509471
497.21600,0.180432276
497.21650,1.401209907
497.21700,2.927181945
497.21750,3.537570761
497.21800,3.537570761
497.21850,2.621987538
497.21900,2.011598722
497.21950,2.31679313
497.22000,3.537570761
497.22050,3.842765168
497.22100,3.537570761
497.22150,2.927181945
497.22200,2.621987538
497.22250,2.927181945
497.22300,2.621987538
497.22350,2.31679313
497.22400,2.011598722
497.22450,1.706404315
497.22500,2.31679313
497.22550,2.927181945
497.22600,2.927181945
497.22650,1.706404315
497.22700,0.180432276
497.22750,-0.1247621317
497.22800,0.4856266837
497.22850,0.180432276
497.22900,-1.040345355
497.22950,-2.261122986
497.23000,-1.65073417
497.23050,-0.4299565394
497.23100,-0.4299565394
497.23150,-1.040345355
497.23200,-0.7351509471
497.23250,-0.1247621317
497.23300,-0.1247621317
497.23350,-1.955928578
497.23400,-3.787095024
497.23450,-3.176706209
497.23500,-1.345539762
497.23550,-0.4299565394
497.23600,-0.7351509471
497.23650,-1.345539762
497.23700,-1.345539762
497.23750,-1.345539762
497.23800,-1.955928578
497.23850,-2.871511801
497.23900,-2.871511801
497.23950,-2.871511801
497.24000,-3.176706209
497.24050,-4.092289432
497.24100,-4.702678247
497.24150,-4.092289432
497.24200,-3.176706209
497.24250,-3.176706209
497.24300,-4.092289432
497.24350,-4.39748384
497.24400,-4.39748384
497.24450,-5.007872655
497.24500,-7.449427917
497.24550,-10.19617759
497.24600,-10.19617759
497.24650,-7.754622324
497.24700,-5.923455878
497.24750,-5.61826147
497.24800,-6.228650286
497.24850,-5.61826147
497.24900,-2.871511801
497.24950,2.621987538
497.25000,10.55704214
497.25050,17.88170792
497.25100,20.62845759
497.25150,18.18690233
497.25200,13.60898621
497.25250,10.55704214
497.25300,9.031070099
497.25350,7.810292469
497.25400,5.979126022
497.25450,2.621987538
497.25500,-2.261122986
497.25550,-7.449427917
497.25600,-9.58578877
497.25650,-6.839039101
497.25700,-2.871511801
497.25750,-1.040345355
497.25800,-2.261122986
497.25850,-3.176706209
497.25900,-2.261122986
497.25950,-0.7351509471
497.26000,-1.040345355
497.26050,-2.566317393
497.26100,-3.787095024
497.26150,-3.787095024
497.26200,-2.871511801
497.26250,-2.566317393
497.26300,-1.955928578
497.26350,-1.345539762
497.26400,-1.040345355
497.26450,-1.955928578
497.26500,-3.481900616
497.26550,-4.092289432
497.26600,-3.787095024
497.26650,-3.481900616
497.26700,-2.871511801
497.26750,-2.261122986
497.26800,-1.65073417
497.26850,-1.345539762
497.26900,-1.65073417
497.26950,-2.261122986
497.27000,-2.261122986
497.27050,-2.261122986
497.27100,-2.566317393
497.27150,-3.176706209
497.27200,-3.787095024
497.27250,-4.092289432
497.27300,-4.092289432
497.27350,-3.481900616
497.27400,-3.481900616
497.27450,-3.481900616
497.27500,-3.176706209
497.27550,-2.261122986
497.27600,-2.261122986
497.27650,-4.092289432
497.27700,-5.923455878
497.27750,-5.61826147
497.27800,-4.39748384
497.27850,-3.481900616
497.27900,-3.787095024
497.27950,-3.787095024
497.28000,-2.871511801
497.28050,-2.261122986
497.28100,-2.566317393
497.28150,-2.871511801
497.28200,-2.261122986
497.28250,-0.7351509471
497.28300,-0.1247621317
497.28350,-0.1247621317
497.28400,0.180432276
497.28450,1.401209907
497.28500,2.927181945
497.28550,3.537570761
497.28600,3.232376353
497.28650,2.927181945
497.28700,2.621987538
497.28750,2.927181945
497.28800,3.842765168
497.28850,5.063542799
497.28900,5.063542799
497.28950,4.147959576
497.29000,3.232376353
497.29050,2.927181945
497.29100,3.232376353
497.29150,3.842765168
497.29200,4.453153984
497.29250,3.842765168
497.29300,2.011598722
497.29350,-0.1247621317
497.29400,-0.7351509471
497.29450,-1.040345355
497.29500,-1.345539762
497.29550,-2.871511801
497.29600,-4.092289432
497.29650,-3.787095024
497.29700,-3.176706209
497.29750,-3.481900616
497.29800,-4.092289432
497.29850,-3.176706209
497.29900,-1.345539762
497.29950,-0.7351509471
497.30000,-1.345539762
497.30050,-1.345539762
497.30100,-0.1247621317
497.30150,-0.1247621317
497.30200,-1.955928578
497.30250,-3.176706209
497.30300,-1.345539762
497.30350,0.4856266837
497.30400,0.180432276
497.30450,-1.345539762
497.30500,-0.7351509471
497.30550,1.706404315
497.30600,3.232376353
497.30650,2.621987538
497.30700,1.706404315
497.30750,2.011598722
497.30800,2.011598722
497.30850,0.4856266837
497.30900,-0.4299565394
497.30950,-0.1247621317
497.31000,0.7908210914
497.31050,0.7908210914
497.31100,0.4856266837
497.31150,1.096015499
497.31200,1.401209907
497.31250,0.7908210914
497.31300,-0.1247621317
497.31350,-0.1247621317
497.31400,-0.1247621317
497.31450,-0.1247621317
497.31500,-0.1247621317
497.31550,1.401209907
497.31600,2.31679313
497.31650,1.706404315
497.31700,0.180432276
497.31750,0.4856266837
497.31800,2.31679313
497.31850,3.537570761
497.31900,3.232376353
497.31950,2.621987538
497.32000,2.31679313
497.32050,1.096015499
497.32100,-1.955928578
497.32150,-5.007872655
497.32200,-5.923455878
497.32250,-5.313067063
497.32300,-4.39748384
497.32350,-3.787095024
497.32400,-1.65073417
497.32450,0.4856266837
497.32500,0.7908210914
497.32550,1.096015499
497.32600,5.368737207
497.32650,14.52456944
497.32700,22.76481845
497.32750,22.76481845
497.32800,15.44015266
497.32850,8.725875692
497.32900,7.199903653
497.32950,7.810292469
497.33000,6.589514838
497.33050,4.147959576
497.33100,3.537570761
497.33150,4.453153984
497.33200,4.147959576
497.33250,2.621987538
497.33300,1.401209907
497.33350,1.401209907
497.33400,1.096015499
497.33450,-0.1247621317
497.33500,-1.345539762
497.33550,-1.040345355
497.33600,-0.7351509471
497.33650,-1.345539762
497.33700,-2.871511801
497.33750,-3.787095024
497.33800,-3.787095024
497.33850,-3.787095024
497.33900,-4.092289432
497.33950,-4.39748384
497.34000,-4.702678247
497.34050,-5.313067063
497.34100,-5.007872655
497.34150,-4.39748384
497.34200,-3.481900616
497.34250,-3.176706209
497.34300,-2.871511801
497.34350,-2.871511801
497.34400,-2.566317393
497.34450,-2.261122986
497.34500,-1.040345355
497.34550,0.7908210914
497.34600,2.621987538
497.34650,2.621987538
497.34700,2.011598722
497.34750,1.706404315
497.34800,2.31679313
497.34850,2.927181945
497.34900,2.927181945
497.34950,2.011598722
497.35000,0.180432276
497.35050,-1.345539762
497.35100,-1.955928578
497.35150,-0.1247621317
497.35200,1.706404315
497.35250,2.011598722
497.35300,0.4856266837
497.35350,-0.1247621317
497.35400,-0.1247621317
497.35450,0.4856266837
497.35500,1.096015499
497.35550,0.7908210914
497.35600,0.180432276
497.35650,-0.1247621317
497.35700,-0.1247621317
497.35750,0.180432276
497.35800,0.4856266837
497.35850,0.180432276
497.35900,-0.1247621317
497.35950,-0.4299565394
497.36000,-1.345539762
497.36050,-2.566317393
497.36100,-3.787095024
497.36150,-3.176706209
497.36200,-1.345539762
497.36250,-0.7351509471
497.36300,-1.65073417
497.36350,-2.566317393
497.36400,-2.871511801
497.36450,-2.871511801
497.36500,-2.261122986
497.36550,-1.65073417
497.36600,-0.7351509471
497.36650,-0.1247621317
497.36700,0.180432276
497.36750,0.7908210914
497.36800,0.7908210914
497.36850,-0.1247621317
497.36900,-0.7351509471
497.36950,-0.7351509471
497.37000,-0.4299565394
497.37050,-0.4299565394
497.37100,-1.345539762
497.37150,-1.040345355
497.37200,-0.1247621317
497.37250,1.096015499
497.37300,1.706404315
497.37350,2.927181945
497.37400,3.842765168
497.37450,3.232376353
497.37500,1.401209907
497.37550,0.180432276
497.37600,0.7908210914
497.37650,1.401209907
497.37700,0.7908210914
497.37750,-0.1247621317
497.37800,-0.1247621317
497.37850,-0.1247621317
497.37900,-0.1247621317
497.37950,-0.1247621317
497.38000,0.180432276
497.38050,0.180432276
497.38100,-0.4299565394
497.38150,-1.955928578
497.38200,-2.871511801
497.38250,-2.566317393
497.38300,-1.345539762
497.38350,-0.1247621317
497.38400,-0.4299565394
497.38450,-1.955928578
497.38500,-3.176706209
497.38550,-2.566317393
497.38600,-1.040345355
497.38650,-0.1247621317
497.38700,-0.1247621317
497.38750,-1.040345355
497.38800,-1.345539762
497.38850,-0.7351509471
497.38900,0.180432276
497.38950,0.7908210914
497.39000,0.180432276
497.39050,-0.4299565394
497.39100,-0.4299565394
497.39150,0.180432276
497.39200,1.096015499
497.39250,0.4856266837
497.39300,-0.4299565394
497.39350,-0.1247621317
497.39400,0.7908210914
497.39450,1.096015499
497.39500,-0.1247621317
497.39550,-1.040345355
497.39600,-1.345539762
497.39650,-1.65073417
497.39700,-2.566317393
497.39750,-3.176706209
497.39800,-2.566317393
497.39850,-1.955928578
497.39900,-2.261122986
497.39950,-3.176706209
497.40000,-3.787095024
497.40050,-3.481900616
497.40100,-2.871511801
497.40150,-2.871511801
497.40200,-3.176706209
497.40250,-2.566317393
497.40300,-1.65073417
497.40350,-0.7351509471
497.40400,-1.040345355
497.40450,-1.955928578
497.40500,-2.261122986
497.40550,-1.345539762
497.40600,-0.7351509471
497.40650,-0.4299565394
497.40700,-0.1247621317
497.40750,-0.1247621317
497.40800,0.4856266837
497.40850,0.180432276
497.40900,-0.1247621317
497.40950,-0.1247621317
497.41000,-0.1247621317
497.41050,-0.1247621317
497.41100,-0.1247621317
497.41150,-0.1247621317
497.41200,0.180432276
497.41250,0.4856266837
497.41300,-0.1247621317
497.41350,-0.4299565394
497.41400,-0.4299565394
497.41450,-1.040345355
497.41500,-2.566317393
497.41550,-3.787095024
497.41600,-3.176706209
497.41650,-1.955928578
497.41700,-2.261122986
497.41750,-3.481900616
497.41800,-4.092289432
497.41850,-2.871511801
497.41900,-1.345539762
497.41950,-0.7351509471
497.42000,-0.4299565394
497.42050,-0.1247621317
497.42100,0.4856266837
497.42150,0.7908210914
497.42200,-0.1247621317
497.42250,-0.7351509471
497.42300,-1.345539762
497.42350,-0.7351509471
497.42400,0.4856266837
497.42450,2.011598722
497.42500,2.31679313
497.42550,2.31679313
497.42600,2.011598722
497.42650,2.011598722
497.42700,0.7908210914
497.42750,-0.7351509471
497.42800,-1.65073417
497.42850,-0.7351509471
497.42900,0.180432276
497.42950,-0.1247621317
497.43000,-1.65073417
497.43050,-2.261122986
497.43100,-1.65073417
497.43150,-1.65073417
497.43200,-1.955928578
497.43250,-1.955928578
497.43300,-1.040345355
497.43350,0.180432276
497.43400,0.4856266837
497.43450,0.4856266837
497.43500,-0.1247621317
497.43550,-0.4299565394
497.43600,-0.4299565394
497.43650,-0.1247621317
497.43700,1.401209907
497.43750,2.011598722
497.43800,1.706404315
497.43850,1.096015499
497.43900,1.706404315
497.43950,2.927181945
497.44000,2.927181945
497.44050,2.621987538
497.44100,2.927181945
497.44150,3.537570761
497.44200,3.537570761
497.44250,2.621987538
497.44300,2.011598722
497.44350,2.011598722
497.44400,1.401209907
497.44450,1.096015499
497.44500,0.4856266837
497.44550,0.180432276
497.44600,-0.4299565394
497.44650,-1.040345355
497.44700,-0.4299565394
497.44750,0.4856266837
497.44800,0.7908210914
497.44850,0.180432276
497.44900,-0.1247621317
497.44950,0.180432276
497.45000,0.4856266837
497.45050,-0.1247621317
497.45100,-1.040345355
497.45150,-1.345539762
497.45200,-0.7351509471
497.45250,-0.1247621317
497.45300,-0.1247621317
497.45350,-0.7351509471
497.45400,-0.7351509471
497.45450,-0.4299565394
497.45500,-0.1247621317
497.45550,-0.4299565394
497.45600,-0.1247621317
497.45650,0.180432276
497.45700,1.096015499
497.45750,1.096015499
497.45800,0.180432276
497.45850,-0.1247621317
497.45900,0.180432276
497.45950,0.7908210914
497.46000,0.7908210914
497.46050,0.4856266837
497.46100,0.7908210914
497.46150,1.706404315
497.46200,2.31679313
497.46250,2.011598722
497.46300,1.401209907
497.46350,2.011598722
497.46400,2.927181945
497.46450,3.537570761
497.46500,2.621987538
497.46550,1.401209907
497.46600,0.7908210914
497.46650,0.4856266837
497.46700,0.4856266837
497.46750,-0.1247621317
497.46800,-1.345539762
497.46850,-2.261122986
497.46900,-2.261122986
497.46950,-1.955928578
497.47000,-1.955928578
497.47050,-2.261122986
497.47100,-2.566317393
497.47150,-2.566317393
497.47200,-1.955928578
497.47250,-0.7351509471
497.47300,-0.4299565394
497.47350,-0.7351509471
497.47400,-1.955928578
497.47450,-2.261122986
497.47500,-1.345539762
497.47550,-0.1247621317
497.47600,0.180432276
497.47650,-0.1247621317
497.47700,-0.4299565394
497.47750,-0.1247621317
497.47800,-0.1247621317
497.47850,-0.1247621317
497.47900,-0.1247621317
497.47950,0.180432276
497.48000,1.401209907
497.48050,2.011598722
497.48100,1.706404315
497.48150,1.096015499
497.48200,1.706404315
497.48250,2.011598722
497.48300,0.7908210914
497.48350,-0.7351509471
497.48400,-1.345539762
497.48450,-0.7351509471
497.48500,-0.1247621317
497.48550,0.180432276
497.48600,0.180432276
497.48650,1.096015499
497.48700,1.706404315
497.48750,1.401209907
497.48800,1.096015499
497.48850,1.706404315
497.48900,2.621987538
497.48950,2.31679313
497.49000,1.706404315
497.49050,2.011598722
497.49100,2.621987538
497.49150,2.621987538
497.49200,2.011598722
497.49250,1.096015499
497.49300,1.096015499
497.49350,1.706404315
497.49400,2.927181945
497.49450,3.842765168
497.49500,3.537570761
497.49550,2.621987538
497.49600,1.706404315
497.49650,1.401209907
497.49700,0.7908210914
497.49750,0.180432276
497.49800,0.4856266837
497.49850,1.401209907
497.49900,2.011598722
497.49950,1.401209907
497.50000,0.7908210914
497.50050,0.4856266837
497.50100,1.096015499
497.50150,1.096015499
497.50200,0.4856266837
497.50250,-0.1247621317
497.50300,-0.7351509471
497.50350,-0.4299565394
497.50400,-0.1247621317
497.50450,0.180432276
497.50500,-0.4299565394
497.50550,-1.65073417
497.50600,-1.955928578
497.50650,-1.65073417
497.50700,-1.345539762
497.50750,-1.345539762
497.50800,-0.7351509471
497.50850,-0.1247621317
497.50900,-0.1247621317
497.50950,-0.7351509471
497.51000,-0.4299565394
497.51050,0.4856266837
497.51100,1.096015499
497.51150,-0.1247621317
497.51200,-2.261122986
497.51250,-2.871511801
497.51300,-1.345539762
497.51350,-0.4299565394
497.51400,-0.7351509471
497.51450,-1.955928578
497.51500,-2.261122986
497.51550,-1.345539762
497.51600,-0.1247621317
497.51650,-0.7351509471
497.51700,-2.261122986
497.51750,-2.871511801
497.51800,-1.955928578
497.51850,-0.7351509471
497.51900,-0.7351509471
497.51950,-2.261122986
497.52000,-3.176706209
497.52050,-2.871511801
497.52100,-2.261122986
497.52150,-1.955928578
497.52200,-1.65073417
497.52250,-1.955928578
497.52300,-1.65073417
497.52350,-1.345539762
497.52400,-0.7351509471
497.52450,-0.4299565394
497.52500,-0.1247621317
497.52550,0.180432276
497.52600,0.180432276
497.52650,-0.4299565394
497.52700,-1.65073417
497.52750,-1.955928578
497.52800,-1.345539762
497.52850,-1.040345355
497.52900,-1.65073417
497.52950,-1.955928578
497.53000,-1.345539762
497.53050,-1.345539762
497.53100,-2.566317393
497.53150,-3.787095024
497.53200,-3.176706209
497.53250,-1.040345355
497.53300,-0.1247621317
497.53350,-1.040345355
497.53400,-2.566317393
497.53450,-3.176706209
497.53500,-2.871511801
497.53550,-1.955928578
497.53600,-1.955928578
497.53650,-2.261122986
497.53700,-3.176706209
497.53750,-3.481900616
497.53800,-2.566317393
497.53850,-1.955928578
497.53900,-2.566317393
497.53950,-3.176706209
497.54000,-2.261122986
497.54050,-0.4299565394
497.54100,0.180432276
497.54150,-0.1247621317
497.54200,-0.7351509471
497.54250,-1.345539762
497.54300,-1.65073417
497.54350,-1.65073417
497.54400,-0.7351509471
497.54450,-0.1247621317
497.54500,0.180432276
497.54550,-0.7351509471
497.54600,-1.345539762
497.54650,-1.040345355
497.54700,-0.4299565394
497.54750,-0.7351509471
497.54800,-1.345539762
497.54850,-2.261122986
497.54900,-1.955928578
497.54950,-0.1247621317
497.55000,1.706404315
497.55050,2.011598722
497.55100,0.180432276
497.55150,-1.65073417
497.55200,-1.955928578
497.55250,-0.7351509471
497.55300,-0.7351509471
497.55350,-1.65073417
497.55400,-1.65073417
497.55450,-0.4299565394
497.55500,-0.1247621317
497.55550,-0.7351509471
497.55600,-1.65073417
497.55650,-1.040345355
497.55700,-0.1247621317
497.55750,-0.1247621317
497.55800,-1.040345355
497.55850,-1.345539762
497.55900,-1.040345355
497.55950,-0.7351509471
497.56000,-0.7351509471
497.56050,-0.4299565394
497.56100,0.180432276
497.56150,0.4856266837
