"type","name","time_units","begin_time","frequency","count","units"
"signal","Ultium EMG-BRACHIORAD. RT","s",120.96000,2000,22000,"uV"

"time","value"
120.96000,1.806000491
120.96050,6.994305421
120.96100,9.741055091
120.96150,12.48780476
120.96200,16.45533206
120.96250,18.28649851
120.96300,16.76052647
120.96350,15.53974884
120.96400,18.59169291
120.96450,22.55922021
120.96500,21.33844258
120.96550,16.15013765
120.96600,14.0137768
120.96650,17.06572088
120.96700,18.89688732
120.96750,13.40338798
120.96800,1.806000491
120.96850,-9.180998187
120.96900,-16.20046956
120.96950,-18.03163601
120.97000,-15.89527516
120.97050,-11.31735904
120.97100,-7.34983174
120.97150,-4.603082071
120.97200,-1.551137994
120.97250,3.331972529
120.97300,9.130666275
120.97350,12.79299917
120.97400,12.48780476
120.97450,10.35144391
120.97500,10.35144391
120.97550,12.48780476
120.97600,13.09819358
120.97650,8.52027746
120.97700,0.8904172674
120.97750,-3.992693256
120.97800,-4.603082071
120.97850,-2.466721217
120.97900,-0.6355547711
120.97950,-0.02516595566
120.98000,1.500806083
120.98050,2.416389306
120.98100,1.806000491
120.98150,0.280028452
120.98200,0.280028452
120.98250,2.111194898
120.98300,3.637166937
120.98350,3.637166937
120.98400,1.806000491
120.98450,-1.245943586
120.98500,-5.213470887
120.98550,-8.265414964
120.98600,-8.875803779
120.98650,-7.044637333
120.98700,-6.12905411
120.98750,-6.739442925
120.98800,-7.655026148
120.98850,-5.823859702
120.98900,-2.771915625
120.98950,-1.551137994
120.99000,-2.771915625
120.99050,-3.38230444
120.99100,-1.551137994
120.99150,0.5852228597
120.99200,1.500806083
120.99250,1.195611675
120.99300,2.111194898
120.99350,5.468333383
120.99400,8.825471868
120.99450,10.0462495
120.99500,9.130666275
120.99550,7.604694237
120.99600,5.163138975
120.99650,0.5852228597
120.99700,-3.38230444
120.99750,-3.38230444
120.99800,3.026778121
120.99850,12.48780476
120.99900,20.11766495
120.99950,23.77999785
121.00000,25.00077548
121.00050,25.9163587
121.00100,26.83194192
121.00150,26.22155311
121.00200,21.64363699
121.00250,12.48780476
121.00300,2.111194898
121.00350,-4.603082071
121.00400,-6.739442925
121.00450,-7.34983174
121.00500,-10.70697023
121.00550,-15.89527516
121.00600,-20.47319127
121.00650,-24.44071857
121.00700,-30.54460673
121.00750,-39.39524455
121.00800,-48.24588237
121.00850,-54.04457612
121.00900,-56.48613138
121.00950,-54.96015934
121.01000,-50.07704882
121.01050,-43.66796626
121.01100,-36.34330047
121.01150,-28.10305146
121.01200,-19.25241364
121.01250,-11.31735904
121.01300,-7.044637333
121.01350,-5.823859702
121.01400,-5.213470887
121.01450,-3.077110033
121.01500,-0.3303603634
121.01550,2.721583714
121.01600,6.078722198
121.01650,9.130666275
121.01700,11.57222154
121.01750,13.70858239
121.01800,15.84494324
121.01850,17.37091528
121.01900,17.06572088
121.01950,16.45533206
121.02000,17.06572088
121.02050,18.28649851
121.02100,18.59169291
121.02150,18.89688732
121.02200,20.72805377
121.02250,23.77999785
121.02300,24.69558107
121.02350,21.9488314
121.02400,19.20208173
121.02450,19.20208173
121.02500,22.86441462
121.02550,28.66310837
121.02600,34.15660771
121.02650,36.90335738
121.02700,34.15660771
121.02750,25.9163587
121.02800,15.53974884
121.02850,6.383916606
121.02900,1.500806083
121.02950,1.500806083
121.03000,2.111194898
121.03050,-0.6355547711
121.03100,-8.570609371
121.03150,-18.33683042
121.03200,-24.74591298
121.03250,-26.27188502
121.03300,-25.6614962
121.03350,-23.52513535
121.03400,-19.25241364
121.03450,-13.45371989
121.03500,-8.875803779
121.03550,-7.960220556
121.03600,-7.960220556
121.03650,-5.518665294
121.03700,0.280028452
121.03750,7.604694237
121.03800,12.79299917
121.03850,14.62416561
121.03900,12.18261035
121.03950,6.994305421
121.04000,-0.02516595566
121.04050,-4.603082071
121.04100,-4.603082071
121.04150,-1.245943586
121.04200,1.806000491
121.04250,3.026778121
121.04300,3.331972529
121.04350,3.942361344
121.04400,4.55275016
121.04450,3.637166937
121.04500,2.721583714
121.04550,3.026778121
121.04600,4.857944568
121.04650,5.468333383
121.04700,3.637166937
121.04750,-0.02516595566
121.04800,-3.077110033
121.04850,-4.908276479
121.04900,-6.12905411
121.04950,-7.655026148
121.05000,-8.875803779
121.05050,-9.180998187
121.05100,-8.265414964
121.05150,-7.655026148
121.05200,-9.486192594
121.05250,-12.53813667
121.05300,-15.28488634
121.05350,-16.20046956
121.05400,-15.28488634
121.05450,-13.7589143
121.05500,-11.92774786
121.05550,-9.486192594
121.05600,-6.434248517
121.05650,-3.077110033
121.05700,0.280028452
121.05750,3.331972529
121.05800,6.689111014
121.05850,10.65663831
121.05900,15.84494324
121.05950,21.33844258
121.06000,24.69558107
121.06050,24.39038666
121.06100,21.33844258
121.06150,17.37091528
121.06200,12.48780476
121.06250,6.689111014
121.06300,2.416389306
121.06350,2.111194898
121.06400,7.604694237
121.06450,15.23455443
121.06500,21.64363699
121.06550,25.00077548
121.06600,25.30596988
121.06650,22.55922021
121.06700,16.76052647
121.06750,8.825471868
121.06800,-0.02516595566
121.06850,-8.875803779
121.06900,-17.42124719
121.06950,-23.52513535
121.07000,-25.6614962
121.07050,-25.96669061
121.07100,-28.10305146
121.07150,-31.15499554
121.07200,-29.6290235
121.07250,-20.16799686
121.07300,-7.960220556
121.07350,-0.3303603634
121.07400,0.8904172674
121.07450,0.8904172674
121.07500,2.111194898
121.07550,2.721583714
121.07600,1.195611675
121.07650,1.500806083
121.07700,5.773527791
121.07750,10.35144391
121.07800,8.52027746
121.07850,1.500806083
121.07900,-1.551137994
121.07950,2.111194898
121.08000,9.130666275
121.08050,10.96183272
121.08100,7.604694237
121.08150,3.637166937
121.08200,2.416389306
121.08250,3.637166937
121.08300,4.55275016
121.08350,5.163138975
121.08400,4.857944568
121.08450,3.637166937
121.08500,1.500806083
121.08550,-0.3303603634
121.08600,-0.9407491788
121.08650,-1.551137994
121.08700,-3.992693256
121.08750,-7.960220556
121.08800,-11.31735904
121.08850,-12.84333108
121.08900,-12.84333108
121.08950,-13.7589143
121.09000,-15.28488634
121.09050,-15.28488634
121.09100,-13.14852549
121.09150,-10.40177582
121.09200,-9.180998187
121.09250,-9.486192594
121.09300,-9.180998187
121.09350,-8.570609371
121.09400,-8.265414964
121.09450,-8.875803779
121.09500,-7.044637333
121.09550,-2.466721217
121.09600,2.416389306
121.09650,6.689111014
121.09700,10.96183272
121.09750,17.67610969
121.09800,25.00077548
121.09850,29.57869159
121.09900,29.883886
121.09950,29.27349718
121.10000,28.05271955
121.10050,24.39038666
121.10100,15.84494324
121.10150,4.247555752
121.10200,-5.823859702
121.10250,-12.53813667
121.10300,-14.06410871
121.10350,-10.70697023
121.10400,-4.603082071
121.10450,-0.02516595566
121.10500,0.5852228597
121.10550,-0.3303603634
121.10600,-1.245943586
121.10650,-1.551137994
121.10700,-2.771915625
121.10750,-4.908276479
121.10800,-7.34983174
121.10850,-9.486192594
121.10900,-10.09658141
121.10950,-9.486192594
121.11000,-7.34983174
121.11050,-6.12905411
121.11100,-7.044637333
121.11150,-8.875803779
121.11200,-8.875803779
121.11250,-6.739442925
121.11300,-3.992693256
121.11350,-2.16152681
121.11400,-0.3303603634
121.11450,1.195611675
121.11500,2.721583714
121.11550,4.55275016
121.11600,6.994305421
121.11650,9.435860683
121.11700,12.18261035
121.11750,16.45533206
121.11800,19.81247054
121.11850,17.9813041
121.11900,9.741055091
121.11950,2.416389306
121.12000,5.468333383
121.12050,17.06572088
121.12100,27.74752515
121.12150,31.40985804
121.12200,29.883886
121.12250,26.22155311
121.12300,22.55922021
121.12350,20.42285936
121.12400,20.11766495
121.12450,16.76052647
121.12500,6.078722198
121.12550,-9.180998187
121.12600,-22.30435772
121.12650,-30.84980113
121.12700,-40.61602218
121.12750,-52.21340967
121.12800,-59.84326987
121.12850,-60.14846427
121.12900,-58.62249223
121.12950,-58.62249223
121.13000,-58.01210342
121.13050,-53.4341873
121.13100,-48.24588237
121.13150,-44.27835507
121.13200,-38.78485573
121.13250,-28.10305146
121.13300,-15.89527516
121.13350,-7.655026148
121.13400,-3.38230444
121.13450,0.280028452
121.13500,3.942361344
121.13550,6.383916606
121.13600,7.604694237
121.13650,10.35144391
121.13700,13.40338798
121.13750,15.84494324
121.13800,17.06572088
121.13850,18.89688732
121.13900,20.11766495
121.13950,19.81247054
121.14000,18.28649851
121.14050,17.06572088
121.14100,17.06572088
121.14150,16.76052647
121.14200,16.15013765
121.14250,15.84494324
121.14300,17.06572088
121.14350,18.28649851
121.14400,17.9813041
121.14450,15.53974884
121.14500,12.48780476
121.14550,10.96183272
121.14600,12.18261035
121.14650,14.0137768
121.14700,14.0137768
121.14750,11.26702713
121.14800,6.689111014
121.14850,1.806000491
121.14900,-2.771915625
121.14950,-6.739442925
121.15000,-9.486192594
121.15050,-11.01216463
121.15100,-12.53813667
121.15150,-13.7589143
121.15200,-13.7589143
121.15250,-13.14852549
121.15300,-12.53813667
121.15350,-12.53813667
121.15400,-11.62255345
121.15450,-9.486192594
121.15500,-8.875803779
121.15550,-9.791387002
121.15600,-9.791387002
121.15650,-7.34983174
121.15700,-5.213470887
121.15750,-5.518665294
121.15800,-5.823859702
121.15850,-2.16152681
121.15900,3.942361344
121.15950,8.52027746
121.16000,10.96183272
121.16050,13.70858239
121.16100,16.45533206
121.16150,17.06572088
121.16200,15.23455443
121.16250,14.0137768
121.16300,14.0137768
121.16350,14.31897121
121.16400,15.23455443
121.16450,19.81247054
121.16500,25.9163587
121.16550,27.44233074
121.16600,25.30596988
121.16650,25.30596988
121.16700,29.27349718
121.16750,31.10466363
121.16800,27.44233074
121.16850,21.64363699
121.16900,16.45533206
121.16950,7.604694237
121.17000,-5.823859702
121.17050,-17.42124719
121.17100,-19.55760805
121.17150,-14.97969193
121.17200,-11.01216463
121.17250,-10.09658141
121.17300,-8.570609371
121.17350,-6.434248517
121.17400,-6.434248517
121.17450,-6.739442925
121.17500,-3.38230444
121.17550,2.721583714
121.17600,6.078722198
121.17650,4.247555752
121.17700,0.5852228597
121.17750,-0.9407491788
121.17800,-2.16152681
121.17850,-5.213470887
121.17900,-10.40177582
121.17950,-14.67449753
121.18000,-16.20046956
121.18050,-13.45371989
121.18100,-8.265414964
121.18150,-3.687498848
121.18200,-3.077110033
121.18250,-5.213470887
121.18300,-7.044637333
121.18350,-6.739442925
121.18400,-6.12905411
121.18450,-7.34983174
121.18500,-10.09658141
121.18550,-11.92774786
121.18600,-10.40177582
121.18650,-6.739442925
121.18700,-4.297887663
121.18750,-4.603082071
121.18800,-6.434248517
121.18850,-7.960220556
121.18900,-8.265414964
121.18950,-7.960220556
121.19000,-7.044637333
121.19050,-6.739442925
121.19100,-7.044637333
121.19150,-7.655026148
121.19200,-7.655026148
121.19250,-7.34983174
121.19300,-7.34983174
121.19350,-6.739442925
121.19400,-3.992693256
121.19450,-0.02516595566
121.19500,1.195611675
121.19550,-0.3303603634
121.19600,-3.077110033
121.19650,-3.992693256
121.19700,-3.687498848
121.19750,-3.077110033
121.19800,-1.245943586
121.19850,2.416389306
121.19900,6.689111014
121.19950,8.52027746
121.20000,8.825471868
121.20050,10.0462495
121.20100,12.79299917
121.20150,15.84494324
121.20200,18.59169291
121.20250,21.9488314
121.20300,24.39038666
121.20350,25.00077548
121.20400,23.47480344
121.20450,20.72805377
121.20500,16.76052647
121.20550,9.741055091
121.20600,-0.6355547711
121.20650,-11.62255345
121.20700,-18.33683042
121.20750,-18.94721923
121.20800,-14.97969193
121.20850,-11.01216463
121.20900,-8.875803779
121.20950,-8.875803779
121.21000,-9.486192594
121.21050,-10.40177582
121.21100,-11.62255345
121.21150,-12.53813667
121.21200,-12.53813667
121.21250,-11.92774786
121.21300,-10.70697023
121.21350,-8.570609371
121.21400,-5.823859702
121.21450,-3.077110033
121.21500,-1.551137994
121.21550,-0.3303603634
121.21600,0.8904172674
121.21650,3.331972529
121.21700,4.857944568
121.21750,5.163138975
121.21800,5.773527791
121.21850,6.689111014
121.21900,7.299499829
121.21950,6.994305421
121.22000,7.299499829
121.22050,8.52027746
121.22100,9.435860683
121.22150,8.52027746
121.22200,6.689111014
121.22250,5.468333383
121.22300,4.247555752
121.22350,2.111194898
121.22400,-0.02516595566
121.22450,-2.16152681
121.22500,-5.518665294
121.22550,-9.791387002
121.22600,-13.45371989
121.22650,-14.36930312
121.22700,-12.53813667
121.22750,-8.265414964
121.22800,-0.9407491788
121.22850,6.383916606
121.22900,10.65663831
121.22950,10.96183272
121.23000,11.87741594
121.23050,15.53974884
121.23100,16.45533206
121.23150,11.57222154
121.23200,5.468333383
121.23250,4.55275016
121.23300,6.994305421
121.23350,6.994305421
121.23400,4.247555752
121.23450,3.942361344
121.23500,7.604694237
121.23550,12.48780476
121.23600,16.15013765
121.23650,17.9813041
121.23700,16.15013765
121.23750,10.65663831
121.23800,5.773527791
121.23850,7.299499829
121.23900,12.18261035
121.23950,14.0137768
121.24000,10.65663831
121.24050,7.299499829
121.24100,7.299499829
121.24150,9.130666275
121.24200,11.57222154
121.24250,15.23455443
121.24300,19.20208173
121.24350,22.55922021
121.24400,27.74752515
121.24450,37.20855178
121.24500,45.7539952
121.24550,42.39685671
121.24600,25.30596988
121.24650,4.857944568
121.24700,-8.875803779
121.24750,-15.59008075
121.24800,-20.77838568
121.24850,-26.57707943
121.24900,-33.90174521
121.24950,-43.97316066
121.25000,-56.79132579
121.25050,-66.25235243
121.25100,-67.47313006
121.25150,-61.3692419
121.25200,-56.18093697
121.25250,-55.57054816
121.25300,-57.0965202
121.25350,-53.4341873
121.25400,-42.14199422
121.25450,-28.71344028
121.25500,-20.77838568
121.25550,-20.77838568
121.25600,-22.30435772
121.25650,-18.64202483
121.25700,-10.40177582
121.25750,-3.077110033
121.25800,0.8904172674
121.25850,4.55275016
121.25900,9.741055091
121.25950,14.62416561
121.26000,17.67610969
121.26050,18.59169291
121.26100,18.28649851
121.26150,17.37091528
121.26200,17.06572088
121.26250,17.67610969
121.26300,18.59169291
121.26350,17.9813041
121.26400,15.23455443
121.26450,12.48780476
121.26500,10.65663831
121.26550,8.52027746
121.26600,6.383916606
121.26650,5.468333383
121.26700,6.078722198
121.26750,5.163138975
121.26800,2.416389306
121.26850,-0.02516595566
121.26900,-0.02516595566
121.26950,0.280028452
121.27000,0.5852228597
121.27050,-0.02516595566
121.27100,-1.245943586
121.27150,-1.551137994
121.27200,-0.9407491788
121.27250,0.280028452
121.27300,1.195611675
121.27350,0.8904172674
121.27400,0.5852228597
121.27450,0.8904172674
121.27500,2.416389306
121.27550,4.247555752
121.27600,6.078722198
121.27650,8.825471868
121.27700,12.79299917
121.27750,17.06572088
121.27800,22.25402581
121.27850,27.74752515
121.27900,32.32544126
121.27950,34.46180211
121.28000,33.8514133
121.28050,30.49427481
121.28100,24.08519225
121.28150,14.0137768
121.28200,2.416389306
121.28250,-7.655026148
121.28300,-14.06410871
121.28350,-15.89527516
121.28400,-12.84333108
121.28450,-6.434248517
121.28500,-0.6355547711
121.28550,1.500806083
121.28600,0.8904172674
121.28650,0.8904172674
121.28700,2.111194898
121.28750,2.721583714
121.28800,0.8904172674
121.28850,-0.6355547711
121.28900,-0.9407491788
121.28950,-0.9407491788
121.29000,-2.466721217
121.29050,-5.213470887
121.29100,-7.044637333
121.29150,-7.960220556
121.29200,-8.265414964
121.29250,-7.34983174
121.29300,-6.12905411
121.29350,-5.823859702
121.29400,-6.12905411
121.29450,-5.213470887
121.29500,-1.551137994
121.29550,0.8904172674
121.29600,0.8904172674
121.29650,-0.3303603634
121.29700,0.5852228597
121.29750,3.026778121
121.29800,2.721583714
121.29850,0.8904172674
121.29900,2.721583714
121.29950,9.741055091
121.30000,16.15013765
121.30050,14.92936002
121.30100,7.909888645
121.30150,0.8904172674
121.30200,-1.856332402
121.30250,-1.551137994
121.30300,-0.6355547711
121.30350,1.195611675
121.30400,4.55275016
121.30450,6.689111014
121.30500,3.942361344
121.30550,-3.38230444
121.30600,-11.01216463
121.30650,-14.97969193
121.30700,-16.81085838
121.30750,-21.08358009
121.30800,-28.10305146
121.30850,-32.98616199
121.30900,-31.76538436
121.30950,-27.49266265
121.31000,-23.83032976
121.31050,-21.08358009
121.31100,-16.50566397
121.31150,-9.180998187
121.31200,-1.856332402
121.31250,3.331972529
121.31300,5.468333383
121.31350,2.416389306
121.31400,-3.687498848
121.31450,-8.570609371
121.31500,-8.570609371
121.31550,-5.213470887
121.31600,-3.687498848
121.31650,-5.823859702
121.31700,-7.044637333
121.31750,-4.297887663
121.31800,1.806000491
121.31850,8.215083052
121.31900,10.96183272
121.31950,10.35144391
121.32000,9.435860683
121.32050,10.96183272
121.32100,13.09819358
121.32150,12.48780476
121.32200,8.52027746
121.32250,6.078722198
121.32300,7.909888645
121.32350,10.0462495
121.32400,8.215083052
121.32450,3.331972529
121.32500,0.5852228597
121.32550,2.111194898
121.32600,3.942361344
121.32650,3.026778121
121.32700,0.280028452
121.32750,-1.551137994
121.32800,-3.077110033
121.32850,-4.603082071
121.32900,-5.213470887
121.32950,-4.908276479
121.33000,-4.603082071
121.33050,-6.739442925
121.33100,-10.09658141
121.33150,-11.31735904
121.33200,-9.180998187
121.33250,-6.739442925
121.33300,-7.960220556
121.33350,-13.14852549
121.33400,-19.25241364
121.33450,-21.38877449
121.33500,-17.7264416
121.33550,-9.791387002
121.33600,-2.16152681
121.33650,3.331972529
121.33700,10.96183272
121.33750,21.9488314
121.33800,33.24102448
121.33850,39.03971823
121.33900,38.73452382
121.33950,37.20855178
121.34000,38.12413501
121.34050,39.65010705
121.34100,39.34491264
121.34150,36.90335738
121.34200,31.10466363
121.34250,20.72805377
121.34300,5.773527791
121.34350,-7.655026148
121.34400,-14.67449753
121.34450,-14.67449753
121.34500,-11.01216463
121.34550,-5.823859702
121.34600,-1.551137994
121.34650,-1.551137994
121.34700,-6.12905411
121.34750,-9.486192594
121.34800,-6.739442925
121.34850,-0.6355547711
121.34900,0.8904172674
121.34950,-3.992693256
121.35000,-11.01216463
121.35050,-13.45371989
121.35100,-12.84333108
121.35150,-12.53813667
121.35200,-14.06410871
121.35250,-14.67449753
121.35300,-13.14852549
121.35350,-9.791387002
121.35400,-5.823859702
121.35450,-1.551137994
121.35500,2.721583714
121.35550,6.078722198
121.35600,5.773527791
121.35650,3.026778121
121.35700,-0.3303603634
121.35750,-3.38230444
121.35800,-5.518665294
121.35850,-7.34983174
121.35900,-9.180998187
121.35950,-10.09658141
121.36000,-11.01216463
121.36050,-12.53813667
121.36100,-12.23294226
121.36150,-8.875803779
121.36200,-4.297887663
121.36250,-2.16152681
121.36300,-4.297887663
121.36350,-7.960220556
121.36400,-10.09658141
121.36450,-9.486192594
121.36500,-6.434248517
121.36550,-1.245943586
121.36600,2.721583714
121.36650,3.026778121
121.36700,-0.02516595566
121.36750,-3.687498848
121.36800,-4.603082071
121.36850,-3.992693256
121.36900,-4.603082071
121.36950,-5.213470887
121.37000,-2.771915625
121.37050,2.416389306
121.37100,8.215083052
121.37150,12.18261035
121.37200,13.40338798
121.37250,9.741055091
121.37300,1.806000491
121.37350,-7.34983174
121.37400,-15.28488634
121.37450,-21.38877449
121.37500,-26.27188502
121.37550,-27.18746824
121.37600,-21.08358009
121.37650,-9.180998187
121.37700,2.416389306
121.37750,10.65663831
121.37800,16.45533206
121.37850,21.03324818
121.37900,24.39038666
121.37950,25.9163587
121.38000,25.9163587
121.38050,24.08519225
121.38100,19.20208173
121.38150,13.70858239
121.38200,9.130666275
121.38250,6.383916606
121.38300,2.721583714
121.38350,-0.3303603634
121.38400,-1.856332402
121.38450,-0.3303603634
121.38500,1.195611675
121.38550,1.500806083
121.38600,1.195611675
121.38650,2.111194898
121.38700,2.721583714
121.38750,1.500806083
121.38800,-2.466721217
121.38850,-7.960220556
121.38900,-11.01216463
121.38950,-9.791387002
121.39000,-6.739442925
121.39050,-7.044637333
121.39100,-11.31735904
121.39150,-14.06410871
121.39200,-10.09658141
121.39250,-2.466721217
121.39300,1.806000491
121.39350,1.500806083
121.39400,0.280028452
121.39450,0.280028452
121.39500,0.8904172674
121.39550,0.8904172674
121.39600,1.806000491
121.39650,4.247555752
121.39700,5.163138975
121.39750,2.111194898
121.39800,-1.856332402
121.39850,-3.077110033
121.39900,-0.3303603634
121.39950,3.637166937
121.40000,5.773527791
121.40050,4.857944568
121.40100,2.416389306
121.40150,-0.02516595566
121.40200,-1.551137994
121.40250,-1.856332402
121.40300,-0.6355547711
121.40350,0.5852228597
121.40400,1.500806083
121.40450,1.500806083
121.40500,0.8904172674
121.40550,-0.02516595566
121.40600,-0.9407491788
121.40650,-1.856332402
121.40700,-1.245943586
121.40750,-0.02516595566
121.40800,-0.3303603634
121.40850,-3.077110033
121.40900,-6.12905411
121.40950,-7.044637333
121.41000,-7.044637333
121.41050,-8.570609371
121.41100,-9.791387002
121.41150,-8.570609371
121.41200,-4.297887663
121.41250,-0.9407491788
121.41300,-1.245943586
121.41350,-2.771915625
121.41400,-3.077110033
121.41450,-1.551137994
121.41500,-0.6355547711
121.41550,-0.02516595566
121.41600,0.8904172674
121.41650,3.637166937
121.41700,7.299499829
121.41750,10.35144391
121.41800,12.18261035
121.41850,14.0137768
121.41900,15.23455443
121.41950,14.92936002
121.42000,11.87741594
121.42050,7.604694237
121.42100,4.55275016
121.42150,4.247555752
121.42200,4.247555752
121.42250,2.721583714
121.42300,0.5852228597
121.42350,-0.3303603634
121.42400,-0.9407491788
121.42450,-1.856332402
121.42500,-2.466721217
121.42550,-0.02516595566
121.42600,3.637166937
121.42650,5.773527791
121.42700,4.857944568
121.42750,3.637166937
121.42800,3.637166937
121.42850,3.331972529
121.42900,1.806000491
121.42950,1.806000491
121.43000,4.55275016
121.43050,9.435860683
121.43100,13.40338798
121.43150,15.53974884
121.43200,16.76052647
121.43250,16.76052647
121.43300,15.53974884
121.43350,13.40338798
121.43400,10.35144391
121.43450,4.55275016
121.43500,-2.771915625
121.43550,-7.960220556
121.43600,-8.875803779
121.43650,-7.960220556
121.43700,-8.570609371
121.43750,-9.791387002
121.43800,-8.875803779
121.43850,-6.12905411
121.43900,-4.603082071
121.43950,-3.992693256
121.44000,-2.16152681
121.44050,-0.3303603634
121.44100,-0.9407491788
121.44150,-3.077110033
121.44200,-2.771915625
121.44250,-0.6355547711
121.44300,-0.3303603634
121.44350,-2.771915625
121.44400,-3.992693256
121.44450,-3.077110033
121.44500,-2.16152681
121.44550,-2.16152681
121.44600,-0.6355547711
121.44650,2.111194898
121.44700,1.806000491
121.44750,-3.992693256
121.44800,-10.09658141
121.44850,-9.180998187
121.44900,-2.771915625
121.44950,0.8904172674
121.45000,-1.856332402
121.45050,-7.960220556
121.45100,-14.36930312
121.45150,-21.08358009
121.45200,-28.10305146
121.45250,-32.37577317
121.45300,-31.76538436
121.45350,-28.71344028
121.45400,-24.44071857
121.45450,-18.03163601
121.45500,-8.570609371
121.45550,-0.02516595566
121.45600,2.416389306
121.45650,-0.02516595566
121.45700,-3.992693256
121.45750,-6.739442925
121.45800,-8.570609371
121.45850,-8.265414964
121.45900,-3.992693256
121.45950,2.721583714
121.46000,8.825471868
121.46050,11.87741594
121.46100,14.92936002
121.46150,20.11766495
121.46200,24.69558107
121.46250,25.61116429
121.46300,23.77999785
121.46350,20.11766495
121.46400,14.0137768
121.46450,4.247555752
121.46500,-6.12905411
121.46550,-14.36930312
121.46600,-17.42124719
121.46650,-16.50566397
121.46700,-13.45371989
121.46750,-10.40177582
121.46800,-8.570609371
121.46850,-7.044637333
121.46900,-5.213470887
121.46950,-3.38230444
121.47000,-2.16152681
121.47050,-0.3303603634
121.47100,3.026778121
121.47150,6.383916606
121.47200,7.604694237
121.47250,8.215083052
121.47300,11.26702713
121.47350,14.31897121
121.47400,12.79299917
121.47450,9.130666275
121.47500,9.435860683
121.47550,13.40338798
121.47600,13.70858239
121.47650,6.383916606
121.47700,-0.9407491788
121.47750,-0.6355547711
121.47800,5.163138975
121.47850,9.130666275
121.47900,7.604694237
121.47950,3.942361344
121.48000,1.806000491
121.48050,2.111194898
121.48100,4.55275016
121.48150,7.604694237
121.48200,9.435860683
121.48250,7.299499829
121.48300,2.416389306
121.48350,-1.551137994
121.48400,-3.38230444
121.48450,-1.856332402
121.48500,0.280028452
121.48550,2.416389306
121.48600,2.416389306
121.48650,1.806000491
121.48700,2.416389306
121.48750,3.637166937
121.48800,4.55275016
121.48850,5.163138975
121.48900,7.299499829
121.48950,8.52027746
121.49000,5.163138975
121.49050,-2.16152681
121.49100,-10.70697023
121.49150,-16.20046956
121.49200,-19.25241364
121.49250,-21.08358009
121.49300,-21.38877449
121.49350,-21.38877449
121.49400,-22.60955213
121.49450,-24.44071857
121.49500,-23.52513535
121.49550,-20.47319127
121.49600,-18.33683042
121.49650,-16.81085838
121.49700,-9.791387002
121.49750,3.331972529
121.49800,16.15013765
121.49850,21.03324818
121.49900,19.81247054
121.49950,19.50727614
121.50000,20.72805377
121.50050,20.42285936
121.50100,17.9813041
121.50150,17.9813041
121.50200,20.11766495
121.50250,21.03324818
121.50300,19.20208173
121.50350,18.89688732
121.50400,21.9488314
121.50450,24.08519225
121.50500,20.11766495
121.50550,11.57222154
121.50600,3.331972529
121.50650,-1.856332402
121.50700,-6.739442925
121.50750,-10.40177582
121.50800,-9.180998187
121.50850,-2.16152681
121.50900,4.55275016
121.50950,5.468333383
121.51000,-0.02516595566
121.51050,-6.739442925
121.51100,-10.70697023
121.51150,-11.92774786
121.51200,-12.53813667
121.51250,-13.14852549
121.51300,-13.45371989
121.51350,-14.06410871
121.51400,-14.06410871
121.51450,-11.92774786
121.51500,-7.044637333
121.51550,-1.551137994
121.51600,1.195611675
121.51650,1.500806083
121.51700,0.280028452
121.51750,-0.6355547711
121.51800,-1.245943586
121.51850,-1.551137994
121.51900,-0.6355547711
121.51950,0.8904172674
121.52000,3.637166937
121.52050,6.994305421
121.52100,11.57222154
121.52150,15.84494324
121.52200,17.9813041
121.52250,18.59169291
121.52300,19.50727614
121.52350,21.33844258
121.52400,23.47480344
121.52450,24.08519225
121.52500,22.25402581
121.52550,18.28649851
121.52600,12.79299917
121.52650,6.078722198
121.52700,-0.02516595566
121.52750,-5.518665294
121.52800,-11.62255345
121.52850,-18.03163601
121.52900,-22.60955213
121.52950,-22.91474653
121.53000,-19.86280246
121.53050,-16.81085838
121.53100,-15.89527516
121.53150,-16.81085838
121.53200,-16.81085838
121.53250,-15.89527516
121.53300,-16.81085838
121.53350,-19.55760805
121.53400,-20.47319127
121.53450,-15.59008075
121.53500,-5.213470887
121.53550,4.55275016
121.53600,7.299499829
121.53650,3.637166937
121.53700,-0.6355547711
121.53750,-1.245943586
121.53800,-0.3303603634
121.53850,-0.3303603634
121.53900,-1.245943586
121.53950,-0.02516595566
121.54000,3.942361344
121.54050,7.909888645
121.54100,8.215083052
121.54150,4.857944568
121.54200,0.5852228597
121.54250,-2.466721217
121.54300,-4.297887663
121.54350,-5.518665294
121.54400,-6.12905411
121.54450,-6.434248517
121.54500,-5.823859702
121.54550,-5.213470887
121.54600,-5.213470887
121.54650,-6.434248517
121.54700,-7.655026148
121.54750,-8.265414964
121.54800,-9.180998187
121.54850,-10.40177582
121.54900,-10.40177582
121.54950,-7.34983174
121.55000,-0.6355547711
121.55050,5.163138975
121.55100,8.215083052
121.55150,8.825471868
121.55200,9.741055091
121.55250,10.35144391
121.55300,9.130666275
121.55350,6.383916606
121.55400,4.247555752
121.55450,4.55275016
121.55500,4.247555752
121.55550,1.806000491
121.55600,-1.856332402
121.55650,-5.518665294
121.55700,-9.180998187
121.55750,-13.45371989
121.55800,-16.81085838
121.55850,-16.81085838
121.55900,-13.45371989
121.55950,-9.791387002
121.56000,-6.739442925
121.56050,-4.297887663
121.56100,-1.551137994
121.56150,0.280028452
121.56200,2.111194898
121.56250,4.55275016
121.56300,6.689111014
121.56350,6.689111014
121.56400,3.637166937
121.56450,0.280028452
121.56500,-0.3303603634
121.56550,0.5852228597
121.56600,2.416389306
121.56650,4.857944568
121.56700,8.215083052
121.56750,11.87741594
121.56800,13.70858239
121.56850,13.70858239
121.56900,13.09819358
121.56950,12.48780476
121.57000,10.0462495
121.57050,3.026778121
121.57100,-7.960220556
121.57150,-20.47319127
121.57200,-29.3238291
121.57250,-30.54460673
121.57300,-24.13552416
121.57350,-13.7589143
121.57400,-3.992693256
121.57450,1.500806083
121.57500,3.637166937
121.57550,4.55275016
121.57600,4.857944568
121.57650,3.026778121
121.57700,-0.6355547711
121.57750,-3.38230444
121.57800,-1.551137994
121.57850,3.942361344
121.57900,9.130666275
121.57950,10.35144391
121.58000,8.52027746
121.58050,7.299499829
121.58100,6.994305421
121.58150,5.773527791
121.58200,3.026778121
121.58250,1.500806083
121.58300,3.331972529
121.58350,6.078722198
121.58400,5.163138975
121.58450,-0.02516595566
121.58500,-7.34983174
121.58550,-12.23294226
121.58600,-13.45371989
121.58650,-11.01216463
121.58700,-7.960220556
121.58750,-6.739442925
121.58800,-7.655026148
121.58850,-8.265414964
121.58900,-7.044637333
121.58950,-4.908276479
121.59000,-3.077110033
121.59050,-0.02516595566
121.59100,5.163138975
121.59150,9.435860683
121.59200,7.604694237
121.59250,-0.02516595566
121.59300,-6.12905411
121.59350,-5.213470887
121.59400,1.806000491
121.59450,10.65663831
121.59500,16.15013765
121.59550,17.67610969
121.59600,16.76052647
121.59650,15.84494324
121.59700,17.06572088
121.59750,21.03324818
121.59800,26.22155311
121.59850,31.40985804
121.59900,34.76699652
121.59950,34.46180211
121.60000,28.96830278
121.60050,19.50727614
121.60100,9.130666275
121.60150,2.416389306
121.60200,1.195611675
121.60250,4.857944568
121.60300,7.299499829
121.60350,3.026778121
121.60400,-7.960220556
121.60450,-21.38877449
121.60500,-30.84980113
121.60550,-36.03810606
121.60600,-38.78485573
121.60650,-40.61602218
121.60700,-40.92121659
121.60750,-38.47966133
121.60800,-32.37577317
121.60850,-23.83032976
121.60900,-15.59008075
121.60950,-10.40177582
121.61000,-7.34983174
121.61050,-3.687498848
121.61100,0.5852228597
121.61150,3.331972529
121.61200,2.721583714
121.61250,1.195611675
121.61300,0.8904172674
121.61350,1.195611675
121.61400,0.8904172674
121.61450,-0.02516595566
121.61500,-0.6355547711
121.61550,-2.16152681
121.61600,-3.687498848
121.61650,-3.687498848
121.61700,-2.466721217
121.61750,-3.077110033
121.61800,-5.518665294
121.61850,-6.12905411
121.61900,-2.771915625
121.61950,1.806000491
121.62000,3.942361344
121.62050,4.247555752
121.62100,5.163138975
121.62150,7.604694237
121.62200,10.96183272
121.62250,15.23455443
121.62300,19.20208173
121.62350,20.11766495
121.62400,17.37091528
121.62450,16.45533206
121.62500,20.42285936
121.62550,27.44233074
121.62600,32.63063567
121.62650,34.46180211
121.62700,32.63063567
121.62750,27.13713633
121.62800,19.20208173
121.62850,13.09819358
121.62900,11.26702713
121.62950,10.0462495
121.63000,4.857944568
121.63050,-1.856332402
121.63100,-4.603082071
121.63150,-0.9407491788
121.63200,3.942361344
121.63250,6.689111014
121.63300,6.689111014
121.63350,4.247555752
121.63400,-2.16152681
121.63450,-12.23294226
121.63500,-21.38877449
121.63550,-27.49266265
121.63600,-30.54460673
121.63650,-30.84980113
121.63700,-26.57707943
121.63750,-18.33683042
121.63800,-9.486192594
121.63850,-2.16152681
121.63900,2.416389306
121.63950,3.942361344
121.64000,3.026778121
121.64050,2.721583714
121.64100,6.383916606
121.64150,11.57222154
121.64200,12.18261035
121.64250,7.909888645
121.64300,3.026778121
121.64350,0.5852228597
121.64400,-1.245943586
121.64450,-3.077110033
121.64500,-1.856332402
121.64550,4.55275016
121.64600,12.18261035
121.64650,16.15013765
121.64700,14.62416561
121.64750,10.35144391
121.64800,5.773527791
121.64850,2.111194898
121.64900,-0.02516595566
121.64950,-1.856332402
121.65000,-4.603082071
121.65050,-8.265414964
121.65100,-12.23294226
121.65150,-15.89527516
121.65200,-18.03163601
121.65250,-18.33683042
121.65300,-16.81085838
121.65350,-17.7264416
121.65400,-21.99916331
121.65450,-23.83032976
121.65500,-16.81085838
121.65550,-4.908276479
121.65600,1.806000491
121.65650,0.5852228597
121.65700,-1.856332402
121.65750,-0.02516595566
121.65800,3.026778121
121.65850,3.637166937
121.65900,2.721583714
121.65950,4.247555752
121.66000,8.52027746
121.66050,12.79299917
121.66100,15.53974884
121.66150,16.15013765
121.66200,14.0137768
121.66250,8.825471868
121.66300,3.331972529
121.66350,0.280028452
121.66400,-0.02516595566
121.66450,-0.02516595566
121.66500,-0.6355547711
121.66550,-1.856332402
121.66600,-3.38230444
121.66650,-5.213470887
121.66700,-7.34983174
121.66750,-8.570609371
121.66800,-7.655026148
121.66850,-4.297887663
121.66900,-0.6355547711
121.66950,1.806000491
121.67000,1.806000491
121.67050,0.280028452
121.67100,-1.856332402
121.67150,-3.687498848
121.67200,-4.908276479
121.67250,-6.12905411
121.67300,-8.265414964
121.67350,-11.92774786
121.67400,-15.59008075
121.67450,-16.81085838
121.67500,-14.97969193
121.67550,-12.84333108
121.67600,-12.84333108
121.67650,-13.7589143
121.67700,-13.14852549
121.67750,-9.791387002
121.67800,-3.38230444
121.67850,3.942361344
121.67900,10.35144391
121.67950,14.0137768
121.68000,14.31897121
121.68050,13.40338798
121.68100,13.09819358
121.68150,14.0137768
121.68200,15.53974884
121.68250,17.9813041
121.68300,20.11766495
121.68350,21.9488314
121.68400,22.55922021
121.68450,23.47480344
121.68500,25.00077548
121.68550,25.61116429
121.68600,23.16960903
121.68650,17.67610969
121.68700,10.35144391
121.68750,2.111194898
121.68800,-5.823859702
121.68850,-13.7589143
121.68900,-19.55760805
121.68950,-21.38877449
121.69000,-18.33683042
121.69050,-12.53813667
121.69100,-7.655026148
121.69150,-6.739442925
121.69200,-9.486192594
121.69250,-11.62255345
121.69300,-10.40177582
121.69350,-6.12905411
121.69400,-2.771915625
121.69450,-3.077110033
121.69500,-7.34983174
121.69550,-14.06410871
121.69600,-21.38877449
121.69650,-26.57707943
121.69700,-26.27188502
121.69750,-20.47319127
121.69800,-11.92774786
121.69850,-3.992693256
121.69900,1.195611675
121.69950,4.55275016
121.70000,5.468333383
121.70050,5.468333383
121.70100,7.299499829
121.70150,10.96183272
121.70200,13.70858239
121.70250,13.09819358
121.70300,9.741055091
121.70350,6.689111014
121.70400,4.857944568
121.70450,1.500806083
121.70500,-3.687498848
121.70550,-9.791387002
121.70600,-14.36930312
121.70650,-17.42124719
121.70700,-18.94721923
121.70750,-16.50566397
121.70800,-9.486192594
121.70850,-2.16152681
121.70900,-0.02516595566
121.70950,-2.466721217
121.71000,-5.213470887
121.71050,-6.434248517
121.71100,-8.570609371
121.71150,-13.45371989
121.71200,-18.33683042
121.71250,-20.16799686
121.71300,-18.64202483
121.71350,-16.50566397
121.71400,-15.59008075
121.71450,-13.7589143
121.71500,-9.791387002
121.71550,-2.771915625
121.71600,5.468333383
121.71650,12.79299917
121.71700,17.37091528
121.71750,20.72805377
121.71800,23.47480344
121.71850,24.69558107
121.71900,23.47480344
121.71950,20.11766495
121.72000,16.15013765
121.72050,11.87741594
121.72100,6.078722198
121.72150,0.8904172674
121.72200,-1.245943586
121.72250,-0.6355547711
121.72300,1.195611675
121.72350,2.721583714
121.72400,3.331972529
121.72450,1.195611675
121.72500,-2.466721217
121.72550,-5.213470887
121.72600,-5.213470887
121.72650,-4.908276479
121.72700,-7.34983174
121.72750,-11.01216463
121.72800,-11.92774786
121.72850,-10.40177582
121.72900,-9.180998187
121.72950,-10.09658141
121.73000,-11.01216463
121.73050,-11.92774786
121.73100,-14.36930312
121.73150,-16.50566397
121.73200,-14.97969193
121.73250,-10.40177582
121.73300,-6.739442925
121.73350,-6.434248517
121.73400,-5.823859702
121.73450,-2.771915625
121.73500,0.8904172674
121.73550,3.637166937
121.73600,6.994305421
121.73650,11.87741594
121.73700,17.06572088
121.73750,19.81247054
121.73800,20.42285936
121.73850,21.9488314
121.73900,26.52674751
121.73950,32.32544126
121.74000,36.59816297
121.74050,37.8189406
121.74100,36.29296856
121.74150,34.15660771
121.74200,31.71505245
121.74250,26.83194192
121.74300,19.20208173
121.74350,10.96183272
121.74400,5.773527791
121.74450,3.942361344
121.74500,3.331972529
121.74550,2.721583714
121.74600,2.111194898
121.74650,0.8904172674
121.74700,-0.9407491788
121.74750,-3.077110033
121.74800,-4.297887663
121.74850,-3.992693256
121.74900,-3.992693256
121.74950,-4.908276479
121.75000,-6.12905411
121.75050,-7.655026148
121.75100,-8.875803779
121.75150,-9.486192594
121.75200,-10.09658141
121.75250,-12.53813667
121.75300,-14.97969193
121.75350,-14.06410871
121.75400,-9.791387002
121.75450,-4.603082071
121.75500,-1.551137994
121.75550,0.5852228597
121.75600,3.331972529
121.75650,4.857944568
121.75700,3.331972529
121.75750,1.195611675
121.75800,0.8904172674
121.75850,1.500806083
121.75900,2.111194898
121.75950,2.721583714
121.76000,3.026778121
121.76050,0.8904172674
121.76100,-2.771915625
121.76150,-4.297887663
121.76200,-0.02516595566
121.76250,4.247555752
121.76300,4.55275016
121.76350,2.721583714
121.76400,4.857944568
121.76450,10.96183272
121.76500,14.92936002
121.76550,14.0137768
121.76600,10.65663831
121.76650,6.383916606
121.76700,0.8904172674
121.76750,-3.077110033
121.76800,-1.551137994
121.76850,3.637166937
121.76900,5.773527791
121.76950,2.111194898
121.77000,-2.16152681
121.77050,-3.38230444
121.77100,-4.603082071
121.77150,-8.265414964
121.77200,-11.01216463
121.77250,-9.486192594
121.77300,-5.518665294
121.77350,-4.297887663
121.77400,-4.603082071
121.77450,-4.297887663
121.77500,-3.687498848
121.77550,-4.297887663
121.77600,-4.908276479
121.77650,-2.466721217
121.77700,0.8904172674
121.77750,2.416389306
121.77800,1.195611675
121.77850,0.280028452
121.77900,-0.02516595566
121.77950,0.8904172674
121.78000,2.721583714
121.78050,3.942361344
121.78100,2.416389306
121.78150,-0.9407491788
121.78200,-1.856332402
121.78250,1.195611675
121.78300,4.55275016
121.78350,3.637166937
121.78400,1.195611675
121.78450,2.111194898
121.78500,3.942361344
121.78550,2.111194898
121.78600,-1.856332402
121.78650,-3.992693256
121.78700,-3.077110033
121.78750,-3.077110033
121.78800,-4.908276479
121.78850,-6.12905411
121.78900,-5.213470887
121.78950,-4.908276479
121.79000,-6.739442925
121.79050,-9.486192594
121.79100,-12.84333108
121.79150,-16.50566397
121.79200,-18.03163601
121.79250,-14.36930312
121.79300,-7.960220556
121.79350,-5.213470887
121.79400,-7.655026148
121.79450,-11.01216463
121.79500,-12.84333108
121.79550,-13.45371989
121.79600,-14.67449753
121.79650,-14.97969193
121.79700,-12.84333108
121.79750,-8.265414964
121.79800,-2.16152681
121.79850,4.857944568
121.79900,11.57222154
121.79950,15.23455443
121.80000,16.76052647
121.80050,18.59169291
121.80100,19.81247054
121.80150,18.28649851
121.80200,14.31897121
121.80250,10.96183272
121.80300,9.435860683
121.80350,6.078722198
121.80400,0.8904172674
121.80450,-2.466721217
121.80500,-4.297887663
121.80550,-7.960220556
121.80600,-13.7589143
121.80650,-17.42124719
121.80700,-13.7589143
121.80750,-4.908276479
121.80800,3.026778121
121.80850,7.299499829
121.80900,9.130666275
121.80950,9.741055091
121.81000,8.825471868
121.81050,6.689111014
121.81100,4.247555752
121.81150,1.500806083
121.81200,-3.992693256
121.81250,-11.92774786
121.81300,-18.64202483
121.81350,-19.86280246
121.81400,-15.28488634
121.81450,-8.570609371
121.81500,-3.687498848
121.81550,-2.771915625
121.81600,-3.992693256
121.81650,-3.687498848
121.81700,-0.9407491788
121.81750,1.500806083
121.81800,-0.02516595566
121.81850,-5.823859702
121.81900,-12.53813667
121.81950,-15.59008075
121.82000,-13.45371989
121.82050,-7.960220556
121.82100,-2.16152681
121.82150,1.195611675
121.82200,2.721583714
121.82250,2.416389306
121.82300,1.500806083
121.82350,1.195611675
121.82400,1.806000491
121.82450,3.331972529
121.82500,4.55275016
121.82550,3.637166937
121.82600,0.5852228597
121.82650,-1.856332402
121.82700,-3.077110033
121.82750,-3.077110033
121.82800,-3.687498848
121.82850,-4.297887663
121.82900,-3.687498848
121.82950,-2.16152681
121.83000,-1.245943586
121.83050,-1.551137994
121.83100,-0.9407491788
121.83150,0.8904172674
121.83200,2.416389306
121.83250,1.806000491
121.83300,-0.02516595566
121.83350,-0.02516595566
121.83400,2.111194898
121.83450,4.857944568
121.83500,6.994305421
121.83550,8.825471868
121.83600,10.35144391
121.83650,12.18261035
121.83700,14.92936002
121.83750,17.9813041
121.83800,20.42285936
121.83850,21.03324818
121.83900,20.72805377
121.83950,21.33844258
121.84000,22.55922021
121.84050,23.16960903
121.84100,21.9488314
121.84150,19.81247054
121.84200,17.37091528
121.84250,13.09819358
121.84300,6.689111014
121.84350,0.8904172674
121.84400,-1.245943586
121.84450,-0.9407491788
121.84500,-2.16152681
121.84550,-5.823859702
121.84600,-9.180998187
121.84650,-9.791387002
121.84700,-9.180998187
121.84750,-10.09658141
121.84800,-13.45371989
121.84850,-17.42124719
121.84900,-19.55760805
121.84950,-19.25241364
121.85000,-17.7264416
121.85050,-15.89527516
121.85100,-15.59008075
121.85150,-16.20046956
121.85200,-15.59008075
121.85250,-13.14852549
121.85300,-10.40177582
121.85350,-7.960220556
121.85400,-5.213470887
121.85450,-1.856332402
121.85500,-0.02516595566
121.85550,-0.3303603634
121.85600,-1.856332402
121.85650,-3.077110033
121.85700,-3.992693256
121.85750,-3.992693256
121.85800,-2.16152681
121.85850,0.5852228597
121.85900,3.331972529
121.85950,3.331972529
121.86000,1.500806083
121.86050,-0.02516595566
121.86100,-0.3303603634
121.86150,0.5852228597
121.86200,5.468333383
121.86250,13.09819358
121.86300,21.33844258
121.86350,26.52674751
121.86400,29.57869159
121.86450,31.71505245
121.86500,32.63063567
121.86550,31.40985804
121.86600,27.44233074
121.86650,22.86441462
121.86700,17.06572088
121.86750,9.130666275
121.86800,0.5852228597
121.86850,-5.823859702
121.86900,-10.09658141
121.86950,-14.36930312
121.87000,-18.33683042
121.87050,-21.08358009
121.87100,-20.16799686
121.87150,-16.81085838
121.87200,-13.7589143
121.87250,-11.62255345
121.87300,-10.70697023
121.87350,-9.180998187
121.87400,-5.213470887
121.87450,-0.02516595566
121.87500,3.942361344
121.87550,4.247555752
121.87600,2.416389306
121.87650,1.500806083
121.87700,2.111194898
121.87750,2.721583714
121.87800,2.416389306
121.87850,1.806000491
121.87900,-0.02516595566
121.87950,-2.466721217
121.88000,-4.297887663
121.88050,-4.603082071
121.88100,-4.297887663
121.88150,-4.908276479
121.88200,-5.213470887
121.88250,-1.856332402
121.88300,3.026778121
121.88350,6.383916606
121.88400,7.299499829
121.88450,8.215083052
121.88500,10.0462495
121.88550,10.96183272
121.88600,9.435860683
121.88650,6.994305421
121.88700,4.857944568
121.88750,2.721583714
121.88800,0.8904172674
121.88850,1.500806083
121.88900,3.942361344
121.88950,3.942361344
121.89000,0.280028452
121.89050,-2.771915625
121.89100,-1.856332402
121.89150,0.8904172674
121.89200,-0.3303603634
121.89250,-6.12905411
121.89300,-11.92774786
121.89350,-14.06410871
121.89400,-14.36930312
121.89450,-14.97969193
121.89500,-15.89527516
121.89550,-16.20046956
121.89600,-16.50566397
121.89650,-14.36930312
121.89700,-7.044637333
121.89750,3.026778121
121.89800,8.215083052
121.89850,4.55275016
121.89900,-2.466721217
121.89950,-4.603082071
121.90000,-1.245943586
121.90050,0.5852228597
121.90100,-1.245943586
121.90150,-3.992693256
121.90200,-3.687498848
121.90250,-2.16152681
121.90300,-1.245943586
121.90350,-0.02516595566
121.90400,2.721583714
121.90450,5.163138975
121.90500,5.163138975
121.90550,3.331972529
121.90600,2.111194898
121.90650,1.500806083
121.90700,0.280028452
121.90750,-1.551137994
121.90800,-2.466721217
121.90850,-2.16152681
121.90900,-1.856332402
121.90950,-2.16152681
121.91000,-2.771915625
121.91050,-3.077110033
121.91100,-4.297887663
121.91150,-6.434248517
121.91200,-8.875803779
121.91250,-9.486192594
121.91300,-8.570609371
121.91350,-5.823859702
121.91400,-2.16152681
121.91450,0.5852228597
121.91500,2.416389306
121.91550,2.721583714
121.91600,2.111194898
121.91650,2.111194898
121.91700,3.026778121
121.91750,3.942361344
121.91800,4.857944568
121.91850,6.078722198
121.91900,9.435860683
121.91950,13.70858239
121.92000,17.06572088
121.92050,17.67610969
121.92100,17.37091528
121.92150,17.9813041
121.92200,17.67610969
121.92250,14.31897121
121.92300,8.52027746
121.92350,3.942361344
121.92400,3.637166937
121.92450,5.773527791
121.92500,5.773527791
121.92550,1.195611675
121.92600,-7.34983174
121.92650,-17.42124719
121.92700,-25.96669061
121.92750,-30.23941232
121.92800,-29.01863469
121.92850,-24.13552416
121.92900,-19.25241364
121.92950,-18.64202483
121.93000,-21.08358009
121.93050,-22.60955213
121.93100,-20.16799686
121.93150,-13.7589143
121.93200,-7.655026148
121.93250,-5.823859702
121.93300,-9.486192594
121.93350,-14.97969193
121.93400,-17.7264416
121.93450,-15.89527516
121.93500,-12.53813667
121.93550,-10.40177582
121.93600,-9.791387002
121.93650,-7.960220556
121.93700,-3.38230444
121.93750,1.806000491
121.93800,6.994305421
121.93850,11.57222154
121.93900,15.23455443
121.93950,17.37091528
121.94000,18.89688732
121.94050,20.72805377
121.94100,22.55922021
121.94150,23.47480344
121.94200,23.16960903
121.94250,21.9488314
121.94300,19.20208173
121.94350,14.31897121
121.94400,10.35144391
121.94450,9.741055091
121.94500,11.57222154
121.94550,12.48780476
121.94600,11.57222154
121.94650,10.65663831
121.94700,10.0462495
121.94750,7.909888645
121.94800,3.637166937
121.94850,-0.3303603634
121.94900,-4.297887663
121.94950,-10.40177582
121.95000,-17.11605279
121.95050,-20.77838568
121.95100,-19.55760805
121.95150,-16.50566397
121.95200,-13.14852549
121.95250,-7.34983174
121.95300,0.280028452
121.95350,4.247555752
121.95400,0.8904172674
121.95450,-6.12905411
121.95500,-11.62255345
121.95550,-13.14852549
121.95600,-13.7589143
121.95650,-13.14852549
121.95700,-9.791387002
121.95750,-3.992693256
121.95800,0.8904172674
121.95850,3.942361344
121.95900,4.55275016
121.95950,4.857944568
121.96000,4.55275016
121.96050,4.55275016
121.96100,5.773527791
121.96150,8.215083052
121.96200,10.0462495
121.96250,10.0462495
121.96300,8.825471868
121.96350,7.604694237
121.96400,7.604694237
121.96450,7.909888645
121.96500,8.215083052
121.96550,10.0462495
121.96600,14.62416561
121.96650,20.42285936
121.96700,22.86441462
121.96750,19.50727614
121.96800,13.09819358
121.96850,7.909888645
121.96900,5.468333383
121.96950,5.468333383
121.97000,6.994305421
121.97050,10.0462495
121.97100,12.48780476
121.97150,11.87741594
121.97200,8.52027746
121.97250,4.247555752
121.97300,0.8904172674
121.97350,-0.02516595566
121.97400,-0.6355547711
121.97450,-3.077110033
121.97500,-8.265414964
121.97550,-13.14852549
121.97600,-13.45371989
121.97650,-8.875803779
121.97700,-2.771915625
121.97750,1.806000491
121.97800,6.689111014
121.97850,12.48780476
121.97900,18.59169291
121.97950,21.64363699
121.98000,21.33844258
121.98050,19.81247054
121.98100,18.59169291
121.98150,17.37091528
121.98200,14.0137768
121.98250,6.689111014
121.98300,-2.771915625
121.98350,-11.62255345
121.98400,-15.28488634
121.98450,-13.45371989
121.98500,-10.09658141
121.98550,-8.875803779
121.98600,-9.791387002
121.98650,-10.09658141
121.98700,-9.486192594
121.98750,-9.791387002
121.98800,-11.92774786
121.98850,-14.97969193
121.98900,-16.81085838
121.98950,-17.11605279
121.99000,-16.81085838
121.99050,-15.89527516
121.99100,-14.67449753
121.99150,-13.45371989
121.99200,-12.53813667
121.99250,-11.92774786
121.99300,-10.40177582
121.99350,-7.960220556
121.99400,-5.823859702
121.99450,-6.12905411
121.99500,-7.655026148
121.99550,-7.655026148
121.99600,-5.518665294
121.99650,-4.603082071
121.99700,-7.960220556
121.99750,-12.23294226
121.99800,-11.92774786
121.99850,-4.908276479
121.99900,3.026778121
121.99950,8.215083052
122.00000,10.65663831
122.00050,12.79299917
122.00100,13.40338798
122.00150,10.65663831
122.00200,5.468333383
122.00250,0.280028452
122.00300,-1.856332402
122.00350,-0.6355547711
122.00400,4.247555752
122.00450,9.741055091
122.00500,10.96183272
122.00550,6.994305421
122.00600,3.026778121
122.00650,4.247555752
122.00700,7.604694237
122.00750,6.994305421
122.00800,2.111194898
122.00850,-3.687498848
122.00900,-7.960220556
122.00950,-10.40177582
122.01000,-11.92774786
122.01050,-12.84333108
122.01100,-13.14852549
122.01150,-13.45371989
122.01200,-14.06410871
122.01250,-14.97969193
122.01300,-14.67449753
122.01350,-13.14852549
122.01400,-11.01216463
122.01450,-10.09658141
122.01500,-11.62255345
122.01550,-11.31735904
122.01600,-6.434248517
122.01650,0.5852228597
122.01700,4.55275016
122.01750,3.637166937
122.01800,3.637166937
122.01850,9.130666275
122.01900,17.37091528
122.01950,23.47480344
122.02000,25.9163587
122.02050,27.13713633
122.02100,29.27349718
122.02150,31.71505245
122.02200,32.63063567
122.02250,29.57869159
122.02300,21.9488314
122.02350,12.48780476
122.02400,4.857944568
122.02450,-0.02516595566
122.02500,-4.908276479
122.02550,-7.960220556
122.02600,-6.434248517
122.02650,-0.02516595566
122.02700,6.689111014
122.02750,9.130666275
122.02800,7.909888645
122.02850,4.857944568
122.02900,0.280028452
122.02950,-7.044637333
122.03000,-15.28488634
122.03050,-19.86280246
122.03100,-18.64202483
122.03150,-14.06410871
122.03200,-10.40177582
122.03250,-10.40177582
122.03300,-13.7589143
122.03350,-17.7264416
122.03400,-18.94721923
122.03450,-16.81085838
122.03500,-12.23294226
122.03550,-6.739442925
122.03600,-1.856332402
122.03650,2.111194898
122.03700,5.163138975
122.03750,5.773527791
122.03800,4.55275016
122.03850,2.111194898
122.03900,-0.02516595566
122.03950,-1.245943586
122.04000,-1.856332402
122.04050,-0.6355547711
122.04100,2.416389306
122.04150,5.468333383
122.04200,4.857944568
122.04250,0.280028452
122.04300,-4.908276479
122.04350,-7.044637333
122.04400,-7.655026148
122.04450,-10.40177582
122.04500,-17.42124719
122.04550,-25.6614962
122.04600,-29.6290235
122.04650,-27.49266265
122.04700,-21.6939689
122.04750,-17.7264416
122.04800,-17.7264416
122.04850,-20.47319127
122.04900,-22.30435772
122.04950,-21.38877449
122.05000,-18.94721923
122.05050,-17.42124719
122.05100,-16.81085838
122.05150,-14.97969193
122.05200,-9.486192594
122.05250,-2.16152681
122.05300,3.942361344
122.05350,7.909888645
122.05400,10.0462495
122.05450,10.35144391
122.05500,8.825471868
122.05550,5.773527791
122.05600,3.942361344
122.05650,6.383916606
122.05700,12.18261035
122.05750,18.59169291
122.05800,22.86441462
122.05850,26.52674751
122.05900,30.79946922
122.05950,34.76699652
122.06000,34.76699652
122.06050,31.10466363
122.06100,25.9163587
122.06150,22.86441462
122.06200,21.33844258
122.06250,18.59169291
122.06300,12.79299917
122.06350,3.331972529
122.06400,-8.265414964
122.06450,-18.33683042
122.06500,-21.6939689
122.06550,-16.20046956
122.06600,-6.12905411
122.06650,2.416389306
122.06700,6.078722198
122.06750,4.857944568
122.06800,0.5852228597
122.06850,-4.603082071
122.06900,-9.180998187
122.06950,-10.40177582
122.07000,-7.34983174
122.07050,-1.551137994
122.07100,3.942361344
122.07150,8.825471868
122.07200,12.79299917
122.07250,15.53974884
122.07300,17.06572088
122.07350,17.9813041
122.07400,19.20208173
122.07450,20.42285936
122.07500,20.72805377
122.07550,18.59169291
122.07600,14.62416561
122.07650,10.65663831
122.07700,6.994305421
122.07750,2.416389306
122.07800,-2.771915625
122.07850,-7.044637333
122.07900,-8.265414964
122.07950,-6.434248517
122.08000,-3.992693256
122.08050,-3.077110033
122.08100,-3.077110033
122.08150,-2.466721217
122.08200,0.280028452
122.08250,5.468333383
122.08300,9.435860683
122.08350,9.741055091
122.08400,6.994305421
122.08450,4.247555752
122.08500,3.331972529
122.08550,3.637166937
122.08600,3.331972529
122.08650,2.721583714
122.08700,2.721583714
122.08750,3.331972529
122.08800,1.806000491
122.08850,-1.551137994
122.08900,-5.518665294
122.08950,-7.34983174
122.09000,-7.960220556
122.09050,-8.875803779
122.09100,-9.791387002
122.09150,-8.570609371
122.09200,-6.434248517
122.09250,-4.603082071
122.09300,-4.908276479
122.09350,-5.518665294
122.09400,-4.908276479
122.09450,-2.771915625
122.09500,-1.245943586
122.09550,-1.551137994
122.09600,-3.687498848
122.09650,-5.213470887
122.09700,-3.992693256
122.09750,-0.6355547711
122.09800,2.721583714
122.09850,5.468333383
122.09900,6.994305421
122.09950,6.689111014
122.10000,5.163138975
122.10050,3.942361344
122.10100,5.163138975
122.10150,7.604694237
122.10200,7.909888645
122.10250,4.857944568
122.10300,1.500806083
122.10350,0.8904172674
122.10400,1.806000491
122.10450,1.195611675
122.10500,-0.3303603634
122.10550,-1.856332402
122.10600,-2.771915625
122.10650,-4.603082071
122.10700,-6.12905411
122.10750,-5.823859702
122.10800,-5.213470887
122.10850,-7.044637333
122.10900,-11.31735904
122.10950,-14.36930312
122.11000,-14.97969193
122.11050,-15.89527516
122.11100,-18.03163601
122.11150,-19.25241364
122.11200,-17.11605279
122.11250,-12.84333108
122.11300,-8.875803779
122.11350,-7.044637333
122.11400,-6.739442925
122.11450,-7.655026148
122.11500,-9.180998187
122.11550,-10.09658141
122.11600,-10.70697023
122.11650,-10.70697023
122.11700,-9.486192594
122.11750,-6.739442925
122.11800,-3.992693256
122.11850,-2.771915625
122.11900,-2.466721217
122.11950,-0.02516595566
122.12000,5.163138975
122.12050,10.0462495
122.12100,13.09819358
122.12150,15.23455443
122.12200,18.59169291
122.12250,23.47480344
122.12300,28.66310837
122.12350,31.40985804
122.12400,31.40985804
122.12450,27.13713633
122.12500,18.28649851
122.12550,5.773527791
122.12600,-4.908276479
122.12650,-7.655026148
122.12700,-1.245943586
122.12750,7.299499829
122.12800,10.65663831
122.12850,7.604694237
122.12900,3.026778121
122.12950,1.195611675
122.13000,0.5852228597
122.13050,-0.3303603634
122.13100,-3.077110033
122.13150,-7.34983174
122.13200,-12.84333108
122.13250,-18.33683042
122.13300,-21.38877449
122.13350,-20.47319127
122.13400,-17.42124719
122.13450,-13.7589143
122.13500,-10.09658141
122.13550,-6.434248517
122.13600,-4.297887663
122.13650,-3.992693256
122.13700,-3.992693256
122.13750,-3.077110033
122.13800,-2.16152681
122.13850,-1.551137994
122.13900,-1.245943586
122.13950,-1.551137994
122.14000,-1.551137994
122.14050,-0.6355547711
122.14100,2.111194898
122.14150,5.773527791
122.14200,6.689111014
122.14250,4.55275016
122.14300,2.416389306
122.14350,3.331972529
122.14400,6.078722198
122.14450,7.604694237
122.14500,6.078722198
122.14550,3.331972529
122.14600,0.5852228597
122.14650,-0.02516595566
122.14700,2.111194898
122.14750,4.247555752
122.14800,1.195611675
122.14850,-7.044637333
122.14900,-15.28488634
122.14950,-18.03163601
122.15000,-16.20046956
122.15050,-14.36930312
122.15100,-13.45371989
122.15150,-12.84333108
122.15200,-11.92774786
122.15250,-11.31735904
122.15300,-10.40177582
122.15350,-9.486192594
122.15400,-8.570609371
122.15450,-7.960220556
122.15500,-7.655026148
122.15550,-6.739442925
122.15600,-4.297887663
122.15650,-0.6355547711
122.15700,3.331972529
122.15750,7.604694237
122.15800,10.0462495
122.15850,11.87741594
122.15900,14.31897121
122.15950,16.45533206
122.16000,17.06572088
122.16050,17.06572088
122.16100,19.20208173
122.16150,23.47480344
122.16200,25.61116429
122.16250,21.9488314
122.16300,14.0137768
122.16350,6.383916606
122.16400,1.500806083
122.16450,-0.02516595566
122.16500,-0.9407491788
122.16550,-3.077110033
122.16600,-7.34983174
122.16650,-12.53813667
122.16700,-16.20046956
122.16750,-17.7264416
122.16800,-17.7264416
122.16850,-17.42124719
122.16900,-16.20046956
122.16950,-14.36930312
122.17000,-12.53813667
122.17050,-10.40177582
122.17100,-7.34983174
122.17150,-3.687498848
122.17200,-0.9407491788
122.17250,0.5852228597
122.17300,3.942361344
122.17350,8.825471868
122.17400,12.79299917
122.17450,13.70858239
122.17500,11.57222154
122.17550,9.130666275
122.17600,9.435860683
122.17650,12.79299917
122.17700,16.45533206
122.17750,16.15013765
122.17800,10.65663831
122.17850,4.247555752
122.17900,3.026778121
122.17950,6.383916606
122.18000,7.909888645
122.18050,3.331972529
122.18100,-4.908276479
122.18150,-10.09658141
122.18200,-9.486192594
122.18250,-4.297887663
122.18300,2.416389306
122.18350,10.0462495
122.18400,15.84494324
122.18450,17.67610969
122.18500,15.53974884
122.18550,13.40338798
122.18600,12.48780476
122.18650,10.35144391
122.18700,5.773527791
122.18750,2.416389306
122.18800,1.500806083
122.18850,-0.3303603634
122.18900,-5.823859702
122.18950,-12.23294226
122.19000,-14.36930312
122.19050,-11.62255345
122.19100,-8.570609371
122.19150,-7.34983174
122.19200,-4.297887663
122.19250,1.195611675
122.19300,6.689111014
122.19350,8.52027746
122.19400,7.909888645
122.19450,7.299499829
122.19500,7.299499829
122.19550,7.299499829
122.19600,8.215083052
122.19650,9.130666275
122.19700,6.078722198
122.19750,-0.6355547711
122.19800,-7.044637333
122.19850,-8.570609371
122.19900,-8.265414964
122.19950,-12.53813667
122.20000,-21.08358009
122.20050,-26.88227383
122.20100,-23.52513535
122.20150,-12.53813667
122.20200,-2.16152681
122.20250,1.195611675
122.20300,-1.856332402
122.20350,-7.960220556
122.20400,-12.23294226
122.20450,-12.53813667
122.20500,-8.875803779
122.20550,-3.687498848
122.20600,-0.02516595566
122.20650,0.5852228597
122.20700,-0.02516595566
122.20750,1.195611675
122.20800,5.163138975
122.20850,8.52027746
122.20900,6.994305421
122.20950,0.280028452
122.21000,-6.739442925
122.21050,-10.70697023
122.21100,-11.92774786
122.21150,-12.53813667
122.21200,-11.62255345
122.21250,-9.180998187
122.21300,-7.34983174
122.21350,-8.875803779
122.21400,-12.23294226
122.21450,-12.23294226
122.21500,-7.655026148
122.21550,-2.466721217
122.21600,-1.245943586
122.21650,-2.466721217
122.21700,-2.771915625
122.21750,-0.02516595566
122.21800,4.247555752
122.21850,9.130666275
122.21900,13.09819358
122.21950,15.53974884
122.22000,15.84494324
122.22050,14.31897121
122.22100,12.18261035
122.22150,11.87741594
122.22200,14.31897121
122.22250,18.89688732
122.22300,21.9488314
122.22350,20.11766495
122.22400,15.53974884
122.22450,14.0137768
122.22500,16.76052647
122.22550,19.81247054
122.22600,19.20208173
122.22650,15.84494324
122.22700,13.09819358
122.22750,10.96183272
122.22800,6.383916606
122.22850,-1.856332402
122.22900,-10.40177582
122.22950,-13.14852549
122.23000,-8.875803779
122.23050,-2.771915625
122.23100,-0.02516595566
122.23150,-0.02516595566
122.23200,-0.9407491788
122.23250,-0.3303603634
122.23300,0.280028452
122.23350,-0.02516595566
122.23400,-1.245943586
122.23450,-0.9407491788
122.23500,0.5852228597
122.23550,1.195611675
122.23600,-1.856332402
122.23650,-8.265414964
122.23700,-13.45371989
122.23750,-15.59008075
122.23800,-15.89527516
122.23850,-15.59008075
122.23900,-12.84333108
122.23950,-6.739442925
122.24000,-0.02516595566
122.24050,2.721583714
122.24100,1.806000491
122.24150,0.280028452
122.24200,-0.02516595566
122.24250,0.5852228597
122.24300,2.721583714
122.24350,5.468333383
122.24400,6.689111014
122.24450,4.857944568
122.24500,1.195611675
122.24550,-0.02516595566
122.24600,-0.02516595566
122.24650,-0.02516595566
122.24700,-1.856332402
122.24750,-4.297887663
122.24800,-5.518665294
122.24850,-7.655026148
122.24900,-10.70697023
122.24950,-12.84333108
122.25000,-12.84333108
122.25050,-11.01216463
122.25100,-8.570609371
122.25150,-5.823859702
122.25200,-4.297887663
122.25250,-3.687498848
122.25300,-4.297887663
122.25350,-4.297887663
122.25400,-3.077110033
122.25450,-1.856332402
122.25500,-0.6355547711
122.25550,0.8904172674
122.25600,2.416389306
122.25650,2.721583714
122.25700,1.806000491
122.25750,0.5852228597
122.25800,0.8904172674
122.25850,2.721583714
122.25900,5.468333383
122.25950,7.604694237
122.26000,7.909888645
122.26050,6.994305421
122.26100,5.773527791
122.26150,4.857944568
122.26200,4.247555752
122.26250,3.942361344
122.26300,3.942361344
122.26350,2.721583714
122.26400,0.5852228597
122.26450,-0.3303603634
122.26500,-0.6355547711
122.26550,-1.551137994
122.26600,-4.603082071
122.26650,-7.34983174
122.26700,-6.739442925
122.26750,-4.297887663
122.26800,-4.603082071
122.26850,-7.34983174
122.26900,-8.875803779
122.26950,-7.044637333
122.27000,-5.213470887
122.27050,-6.12905411
122.27100,-7.34983174
122.27150,-7.044637333
122.27200,-5.823859702
122.27250,-5.213470887
122.27300,-4.603082071
122.27350,-2.16152681
122.27400,1.195611675
122.27450,3.637166937
122.27500,3.637166937
122.27550,3.026778121
122.27600,4.55275016
122.27650,8.52027746
122.27700,11.57222154
122.27750,10.65663831
122.27800,6.383916606
122.27850,4.857944568
122.27900,7.604694237
122.27950,10.65663831
122.28000,9.741055091
122.28050,7.604694237
122.28100,8.215083052
122.28150,11.26702713
122.28200,13.40338798
122.28250,15.23455443
122.28300,19.20208173
122.28350,22.55922021
122.28400,18.89688732
122.28450,7.604694237
122.28500,-5.213470887
122.28550,-14.67449753
122.28600,-21.99916331
122.28650,-29.93421791
122.28700,-37.86927251
122.28750,-41.5316054
122.28800,-40.31082777
122.28850,-35.42771725
122.28900,-29.3238291
122.28950,-24.13552416
122.29000,-19.86280246
122.29050,-18.03163601
122.29100,-19.86280246
122.29150,-24.13552416
122.29200,-26.57707943
122.29250,-23.52513535
122.29300,-15.89527516
122.29350,-8.570609371
122.29400,-6.12905411
122.29450,-8.875803779
122.29500,-13.14852549
122.29550,-15.59008075
122.29600,-15.28488634
122.29650,-11.92774786
122.29700,-4.908276479
122.29750,4.247555752
122.29800,13.09819358
122.29850,19.50727614
122.29900,23.77999785
122.29950,27.44233074
122.30000,30.18908041
122.30050,30.79946922
122.30100,30.79946922
122.30150,32.63063567
122.30200,36.90335738
122.30250,39.95530145
122.30300,39.03971823
122.30350,35.37738534
122.30400,31.71505245
122.30450,28.05271955
122.30500,22.25402581
122.30550,13.70858239
122.30600,5.163138975
122.30650,-1.245943586
122.30700,-6.12905411
122.30750,-10.40177582
122.30800,-13.14852549
122.30850,-13.7589143
122.30900,-12.84333108
122.30950,-11.31735904
122.31000,-10.09658141
122.31050,-9.791387002
122.31100,-10.09658141
122.31150,-10.09658141
122.31200,-8.570609371
122.31250,-5.823859702
122.31300,-3.687498848
122.31350,-4.297887663
122.31400,-5.823859702
122.31450,-5.518665294
122.31500,-1.551137994
122.31550,4.55275016
122.31600,8.52027746
122.31650,7.604694237
122.31700,3.331972529
122.31750,0.5852228597
122.31800,2.111194898
122.31850,6.994305421
122.31900,12.48780476
122.31950,17.9813041
122.32000,25.00077548
122.32050,34.46180211
122.32100,44.22802316
122.32150,50.94230013
122.32200,53.38385539
122.32250,51.55268895
122.32300,47.27996724
122.32350,40.87088468
122.32400,31.10466363
122.32450,16.45533206
122.32500,-0.9407491788
122.32550,-16.50566397
122.32600,-25.96669061
122.32650,-29.3238291
122.32700,-29.6290235
122.32750,-31.15499554
122.32800,-35.42771725
122.32850,-42.14199422
122.32900,-48.85627119
122.32950,-51.60302086
122.33000,-49.46666
122.33050,-44.58354948
122.33100,-39.39524455
122.33150,-33.90174521
122.33200,-28.40824587
122.33250,-24.13552416
122.33300,-21.6939689
122.33350,-18.94721923
122.33400,-14.67449753
122.33450,-9.791387002
122.33500,-7.044637333
122.33550,-5.518665294
122.33600,-2.771915625
122.33650,1.195611675
122.33700,4.247555752
122.33750,5.163138975
122.33800,6.383916606
122.33850,9.741055091
122.33900,13.09819358
122.33950,14.0137768
122.34000,13.70858239
122.34050,13.70858239
122.34100,14.0137768
122.34150,12.79299917
122.34200,11.26702713
122.34250,11.87741594
122.34300,16.45533206
122.34350,21.64363699
122.34400,22.86441462
122.34450,17.67610969
122.34500,9.130666275
122.34550,2.721583714
122.34600,0.8904172674
122.34650,2.111194898
122.34700,3.331972529
122.34750,3.026778121
122.34800,2.721583714
122.34850,2.721583714
122.34900,2.416389306
122.34950,1.195611675
122.35000,-0.02516595566
122.35050,-0.6355547711
122.35100,-0.9407491788
122.35150,-3.077110033
122.35200,-6.12905411
122.35250,-7.655026148
122.35300,-6.434248517
122.35350,-3.687498848
122.35400,-2.771915625
122.35450,-3.687498848
122.35500,-4.297887663
122.35550,-2.771915625
122.35600,-0.02516595566
122.35650,1.806000491
122.35700,2.721583714
122.35750,3.331972529
122.35800,3.637166937
122.35850,3.637166937
122.35900,3.942361344
122.35950,3.942361344
122.36000,4.55275016
122.36050,6.078722198
122.36100,8.52027746
122.36150,10.35144391
122.36200,10.65663831
122.36250,10.0462495
122.36300,9.741055091
122.36350,10.35144391
122.36400,11.87741594
122.36450,12.18261035
122.36500,10.0462495
122.36550,5.773527791
122.36600,1.806000491
122.36650,0.8904172674
122.36700,1.195611675
122.36750,-0.9407491788
122.36800,-6.12905411
122.36850,-11.31735904
122.36900,-14.67449753
122.36950,-19.25241364
122.37000,-24.74591298
122.37050,-25.05110739
122.37100,-17.11605279
122.37150,-6.434248517
122.37200,-3.077110033
122.37250,-7.34983174
122.37300,-10.40177582
122.37350,-6.739442925
122.37400,-0.9407491788
122.37450,-0.6355547711
122.37500,-5.213470887
122.37550,-8.875803779
122.37600,-7.34983174
122.37650,-2.16152681
122.37700,3.942361344
122.37750,8.52027746
122.37800,11.26702713
122.37850,13.40338798
122.37900,17.06572088
122.37950,21.33844258
122.38000,23.77999785
122.38050,23.77999785
122.38100,23.16960903
122.38150,22.25402581
122.38200,20.11766495
122.38250,15.84494324
122.38300,12.18261035
122.38350,10.35144391
122.38400,8.825471868
122.38450,5.468333383
122.38500,1.195611675
122.38550,-0.6355547711
122.38600,-0.6355547711
122.38650,-0.9407491788
122.38700,-3.077110033
122.38750,-5.823859702
122.38800,-7.655026148
122.38850,-8.875803779
122.38900,-10.09658141
122.38950,-12.23294226
122.39000,-13.7589143
122.39050,-13.14852549
122.39100,-11.31735904
122.39150,-11.01216463
122.39200,-13.14852549
122.39250,-14.36930312
122.39300,-11.92774786
122.39350,-6.739442925
122.39400,-3.077110033
122.39450,-3.077110033
122.39500,-5.213470887
122.39550,-7.34983174
122.39600,-7.34983174
122.39650,-5.213470887
122.39700,-2.771915625
122.39750,-2.16152681
122.39800,-3.38230444
122.39850,-4.908276479
122.39900,-5.823859702
122.39950,-7.34983174
122.40000,-9.180998187
122.40050,-10.40177582
122.40100,-10.70697023
122.40150,-10.40177582
122.40200,-11.01216463
122.40250,-11.62255345
122.40300,-12.23294226
122.40350,-12.53813667
122.40400,-11.92774786
122.40450,-8.875803779
122.40500,-3.687498848
122.40550,1.500806083
122.40600,5.468333383
122.40650,8.52027746
122.40700,10.96183272
122.40750,12.18261035
122.40800,11.26702713
122.40850,7.909888645
122.40900,5.163138975
122.40950,3.331972529
122.41000,1.806000491
122.41050,-0.6355547711
122.41100,-4.297887663
122.41150,-5.213470887
122.41200,-2.16152681
122.41250,4.55275016
122.41300,12.79299917
122.41350,20.42285936
122.41400,28.05271955
122.41450,34.76699652
122.41500,38.73452382
122.41550,39.65010705
122.41600,37.20855178
122.41650,31.40985804
122.41700,22.55922021
122.41750,13.09819358
122.41800,4.857944568
122.41850,-2.466721217
122.41900,-9.486192594
122.41950,-15.28488634
122.42000,-17.7264416
122.42050,-17.42124719
122.42100,-14.06410871
122.42150,-7.655026148
122.42200,1.806000491
122.42250,10.35144391
122.42300,12.79299917
122.42350,8.52027746
122.42400,1.500806083
122.42450,-5.823859702
122.42500,-14.36930312
122.42550,-22.91474653
122.42600,-28.71344028
122.42650,-31.46018995
122.42700,-33.90174521
122.42750,-35.73291166
122.42800,-35.12252284
122.42850,-32.98616199
122.42900,-32.07057876
122.42950,-33.5965508
122.43000,-35.42771725
122.43050,-36.03810606
122.43100,-36.34330047
122.43150,-36.95368929
122.43200,-35.42771725
122.43250,-29.93421791
122.43300,-22.30435772
122.43350,-15.28488634
122.43400,-10.70697023
122.43450,-7.34983174
122.43500,-3.992693256
122.43550,-0.02516595566
122.43600,4.55275016
122.43650,7.909888645
122.43700,9.130666275
122.43750,9.741055091
122.43800,12.48780476
122.43850,16.15013765
122.43900,18.59169291
122.43950,18.59169291
122.44000,18.28649851
122.44050,19.50727614
122.44100,21.64363699
122.44150,23.47480344
122.44200,24.69558107
122.44250,26.22155311
122.44300,26.22155311
122.44350,24.08519225
122.44400,21.33844258
122.44450,20.11766495
122.44500,18.89688732
122.44550,16.15013765
122.44600,11.87741594
122.44650,7.909888645
122.44700,5.773527791
122.44750,4.55275016
122.44800,2.721583714
122.44850,-0.3303603634
122.44900,-5.213470887
122.44950,-10.40177582
122.45000,-14.06410871
122.45050,-14.67449753
122.45100,-13.7589143
122.45150,-12.84333108
122.45200,-11.01216463
122.45250,-6.434248517
122.45300,-1.245943586
122.45350,1.195611675
122.45400,-0.02516595566
122.45450,-1.245943586
122.45500,-1.245943586
122.45550,-0.02516595566
122.45600,1.500806083
122.45650,2.416389306
122.45700,4.247555752
122.45750,6.383916606
122.45800,7.909888645
122.45850,7.909888645
122.45900,6.078722198
122.45950,4.247555752
122.46000,3.942361344
122.46050,5.468333383
122.46100,7.299499829
122.46150,7.604694237
122.46200,6.078722198
122.46250,3.637166937
122.46300,2.721583714
122.46350,2.721583714
122.46400,3.331972529
122.46450,3.942361344
122.46500,4.247555752
122.46550,4.55275016
122.46600,3.942361344
122.46650,2.721583714
122.46700,2.721583714
122.46750,5.163138975
122.46800,9.435860683
122.46850,12.48780476
122.46900,12.18261035
122.46950,10.96183272
122.47000,10.96183272
122.47050,10.96183272
122.47100,8.825471868
122.47150,6.383916606
122.47200,6.078722198
122.47250,6.078722198
122.47300,3.026778121
122.47350,-2.466721217
122.47400,-6.434248517
122.47450,-7.34983174
122.47500,-8.875803779
122.47550,-10.70697023
122.47600,-9.180998187
122.47650,-3.992693256
122.47700,0.280028452
122.47750,2.111194898
122.47800,4.247555752
122.47850,6.383916606
122.47900,6.994305421
122.47950,7.299499829
122.48000,12.79299917
122.48050,20.72805377
122.48100,19.50727614
122.48150,6.383916606
122.48200,-5.823859702
122.48250,-6.434248517
122.48300,-0.3303603634
122.48350,1.500806083
122.48400,-0.02516595566
122.48450,2.721583714
122.48500,7.909888645
122.48550,7.604694237
122.48600,2.111194898
122.48650,0.280028452
122.48700,4.55275016
122.48750,6.994305421
122.48800,3.026778121
122.48850,-1.551137994
122.48900,-2.771915625
122.48950,-2.466721217
122.49000,-4.603082071
122.49050,-7.655026148
122.49100,-8.875803779
122.49150,-8.875803779
122.49200,-10.09658141
122.49250,-11.62255345
122.49300,-12.23294226
122.49350,-12.53813667
122.49400,-13.14852549
122.49450,-13.45371989
122.49500,-11.92774786
122.49550,-9.791387002
122.49600,-8.875803779
122.49650,-9.486192594
122.49700,-9.791387002
122.49750,-7.34983174
122.49800,-1.245943586
122.49850,6.689111014
122.49900,12.48780476
122.49950,12.48780476
122.50000,8.825471868
122.50050,6.383916606
122.50100,7.604694237
122.50150,9.741055091
122.50200,10.35144391
122.50250,9.130666275
122.50300,7.604694237
122.50350,6.078722198
122.50400,3.942361344
122.50450,2.721583714
122.50500,3.331972529
122.50550,4.247555752
122.50600,3.331972529
122.50650,1.195611675
122.50700,-0.3303603634
122.50750,-2.771915625
122.50800,-7.044637333
122.50850,-11.62255345
122.50900,-13.14852549
122.50950,-11.62255345
122.51000,-9.791387002
122.51050,-10.40177582
122.51100,-12.23294226
122.51150,-13.7589143
122.51200,-15.59008075
122.51250,-18.94721923
122.51300,-23.21994094
122.51350,-25.35630179
122.51400,-23.52513535
122.51450,-19.25241364
122.51500,-14.67449753
122.51550,-11.92774786
122.51600,-11.92774786
122.51650,-14.36930312
122.51700,-17.7264416
122.51750,-18.94721923
122.51800,-18.03163601
122.51850,-15.89527516
122.51900,-14.06410871
122.51950,-10.09658141
122.52000,-3.687498848
122.52050,3.026778121
122.52100,8.825471868
122.52150,14.62416561
122.52200,20.42285936
122.52250,24.08519225
122.52300,24.69558107
122.52350,24.08519225
122.52400,25.30596988
122.52450,26.52674751
122.52500,26.22155311
122.52550,24.39038666
122.52600,24.39038666
122.52650,25.9163587
122.52700,28.66310837
122.52750,32.63063567
122.52800,38.12413501
122.52850,42.70205112
122.52900,42.70205112
122.52950,38.73452382
122.53000,31.71505245
122.53050,21.03324818
122.53100,5.468333383
122.53150,-10.70697023
122.53200,-22.60955213
122.53250,-28.40824587
122.53300,-29.93421791
122.53350,-27.49266265
122.53400,-20.16799686
122.53450,-10.40177582
122.53500,-3.38230444
122.53550,-0.02516595566
122.53600,0.280028452
122.53650,-0.6355547711
122.53700,-1.856332402
122.53750,-1.551137994
122.53800,0.280028452
122.53850,2.111194898
122.53900,3.026778121
122.53950,6.078722198
122.54000,12.48780476
122.54050,16.76052647
122.54100,14.31897121
122.54150,7.299499829
122.54200,2.721583714
122.54250,1.195611675
122.54300,-0.3303603634
122.54350,-4.603082071
122.54400,-9.486192594
122.54450,-13.45371989
122.54500,-17.7264416
122.54550,-21.38877449
122.54600,-24.74591298
122.54650,-29.3238291
122.54700,-38.17446692
122.54750,-49.46666
122.54800,-58.01210342
122.54850,-59.23288105
122.54900,-54.04457612
122.54950,-44.88874389
122.55000,-35.73291166
122.55050,-30.23941232
122.55100,-28.40824587
122.55150,-28.10305146
122.55200,-25.6614962
122.55250,-21.38877449
122.55300,-17.42124719
122.55350,-13.45371989
122.55400,-7.960220556
122.55450,-0.02516595566
122.55500,7.604694237
122.55550,13.09819358
122.55600,16.76052647
122.55650,19.81247054
122.55700,23.77999785
122.55750,27.44233074
122.55800,28.66310837
122.55850,26.52674751
122.55900,23.16960903
122.55950,19.50727614
122.56000,15.53974884
122.56050,10.65663831
122.56100,6.994305421
122.56150,7.299499829
122.56200,11.87741594
122.56250,15.53974884
122.56300,15.23455443
122.56350,12.79299917
122.56400,12.18261035
122.56450,13.70858239
122.56500,14.92936002
122.56550,14.0137768
122.56600,11.57222154
122.56650,8.215083052
122.56700,4.857944568
122.56750,2.416389306
122.56800,1.500806083
122.56850,1.195611675
122.56900,-0.02516595566
122.56950,-2.771915625
122.57000,-6.12905411
122.57050,-8.570609371
122.57100,-9.486192594
122.57150,-10.70697023
122.57200,-11.92774786
122.57250,-11.92774786
122.57300,-10.09658141
122.57350,-7.34983174
122.57400,-4.908276479
122.57450,-2.771915625
122.57500,-0.3303603634
122.57550,1.500806083
122.57600,2.111194898
122.57650,1.195611675
122.57700,1.195611675
122.57750,3.637166937
122.57800,7.909888645
122.57850,12.48780476
122.57900,16.15013765
122.57950,17.9813041
122.58000,18.28649851
122.58050,17.9813041
122.58100,17.37091528
122.58150,15.84494324
122.58200,13.70858239
122.58250,13.40338798
122.58300,14.0137768
122.58350,13.40338798
122.58400,10.65663831
122.58450,8.215083052
122.58500,8.825471868
122.58550,9.130666275
122.58600,6.383916606
122.58650,1.500806083
122.58700,-0.02516595566
122.58750,1.195611675
122.58800,0.280028452
122.58850,-4.603082071
122.58900,-10.09658141
122.58950,-11.31735904
122.59000,-9.486192594
122.59050,-7.960220556
122.59100,-6.739442925
122.59150,-6.12905411
122.59200,-8.875803779
122.59250,-16.20046956
122.59300,-23.21994094
122.59350,-24.74591298
122.59400,-22.91474653
122.59450,-23.21994094
122.59500,-25.96669061
122.59550,-25.6614962
122.59600,-18.94721923
122.59650,-10.40177582
122.59700,-5.213470887
122.59750,-3.687498848
122.59800,-2.16152681
122.59850,0.280028452
122.59900,3.942361344
122.59950,6.994305421
122.60000,7.604694237
122.60050,5.773527791
122.60100,3.637166937
122.60150,4.55275016
122.60200,8.215083052
122.60250,11.26702713
122.60300,12.79299917
122.60350,14.0137768
122.60400,15.84494324
122.60450,15.53974884
122.60500,13.40338798
122.60550,11.87741594
122.60600,11.57222154
122.60650,9.741055091
122.60700,6.078722198
122.60750,2.721583714
122.60800,1.806000491
122.60850,1.806000491
122.60900,2.721583714
122.60950,4.55275016
122.61000,5.468333383
122.61050,2.111194898
122.61100,-4.297887663
122.61150,-8.570609371
122.61200,-9.791387002
122.61250,-11.62255345
122.61300,-13.45371989
122.61350,-11.62255345
122.61400,-5.213470887
122.61450,-0.9407491788
122.61500,-1.551137994
122.61550,-1.856332402
122.61600,0.5852228597
122.61650,2.416389306
122.61700,0.280028452
122.61750,-0.02516595566
122.61800,6.078722198
122.61850,14.31897121
122.61900,17.67610969
122.61950,16.45533206
122.62000,14.92936002
122.62050,14.62416561
122.62100,13.40338798
122.62150,13.40338798
122.62200,15.53974884
122.62250,15.53974884
122.62300,9.130666275
122.62350,-0.02516595566
122.62400,-4.603082071
122.62450,-4.297887663
122.62500,-3.992693256
122.62550,-4.908276479
122.62600,-4.297887663
122.62650,-1.856332402
122.62700,-0.9407491788
122.62750,-3.38230444
122.62800,-7.34983174
122.62850,-11.31735904
122.62900,-13.7589143
122.62950,-14.67449753
122.63000,-14.36930312
122.63050,-13.7589143
122.63100,-13.7589143
122.63150,-12.23294226
122.63200,-8.265414964
122.63250,-3.38230444
122.63300,-0.9407491788
122.63350,0.280028452
122.63400,2.416389306
122.63450,3.942361344
122.63500,3.026778121
122.63550,0.5852228597
122.63600,-0.3303603634
122.63650,0.280028452
122.63700,3.331972529
122.63750,7.604694237
122.63800,13.09819358
122.63850,17.67610969
122.63900,18.89688732
122.63950,16.15013765
122.64000,12.48780476
122.64050,11.26702713
122.64100,13.40338798
122.64150,17.06572088
122.64200,19.81247054
122.64250,20.72805377
122.64300,19.20208173
122.64350,16.45533206
122.64400,13.09819358
122.64450,9.741055091
122.64500,5.468333383
122.64550,0.280028452
122.64600,-4.603082071
122.64650,-7.34983174
122.64700,-7.34983174
122.64750,-6.12905411
122.64800,-6.434248517
122.64850,-8.570609371
122.64900,-10.70697023
122.64950,-10.70697023
122.65000,-10.40177582
122.65050,-10.70697023
122.65100,-12.53813667
122.65150,-14.97969193
122.65200,-18.03163601
122.65250,-20.77838568
122.65300,-22.60955213
122.65350,-22.91474653
122.65400,-22.60955213
122.65450,-22.60955213
122.65500,-21.99916331
122.65550,-20.77838568
122.65600,-18.94721923
122.65650,-16.50566397
122.65700,-12.84333108
122.65750,-8.265414964
122.65800,-4.603082071
122.65850,-3.992693256
122.65900,-5.823859702
122.65950,-7.044637333
122.66000,-4.908276479
122.66050,-0.3303603634
122.66100,3.942361344
122.66150,6.994305421
122.66200,9.741055091
122.66250,13.70858239
122.66300,17.67610969
122.66350,20.72805377
122.66400,22.55922021
122.66450,23.77999785
122.66500,22.86441462
122.66550,18.89688732
122.66600,13.09819358
122.66650,6.383916606
122.66700,-0.9407491788
122.66750,-8.570609371
122.66800,-14.97969193
122.66850,-18.64202483
122.66900,-19.25241364
122.66950,-18.03163601
122.67000,-14.67449753
122.67050,-9.791387002
122.67100,-5.823859702
122.67150,-4.297887663
122.67200,-1.856332402
122.67250,3.942361344
122.67300,12.48780476
122.67350,18.59169291
122.67400,21.03324818
122.67450,21.03324818
122.67500,19.50727614
122.67550,15.23455443
122.67600,10.35144391
122.67650,7.604694237
122.67700,6.078722198
122.67750,1.500806083
122.67800,-6.739442925
122.67850,-15.28488634
122.67900,-19.25241364
122.67950,-20.16799686
122.68000,-20.47319127
122.68050,-21.38877449
122.68100,-21.6939689
122.68150,-21.6939689
122.68200,-21.38877449
122.68250,-19.55760805
122.68300,-15.89527516
122.68350,-12.53813667
122.68400,-12.23294226
122.68450,-13.14852549
122.68500,-12.84333108
122.68550,-9.180998187
122.68600,-3.992693256
122.68650,-0.02516595566
122.68700,2.721583714
122.68750,4.247555752
122.68800,5.163138975
122.68850,3.942361344
122.68900,-0.02516595566
122.68950,-5.518665294
122.69000,-10.40177582
122.69050,-12.53813667
122.69100,-11.01216463
122.69150,-8.570609371
122.69200,-6.434248517
122.69250,-4.603082071
122.69300,-2.16152681
122.69350,0.8904172674
122.69400,3.331972529
122.69450,5.468333383
122.69500,7.909888645
122.69550,10.65663831
122.69600,12.48780476
122.69650,13.09819358
122.69700,12.79299917
122.69750,13.09819358
122.69800,13.70858239
122.69850,13.70858239
122.69900,13.70858239
122.69950,14.62416561
122.70000,16.45533206
122.70050,18.28649851
122.70100,19.20208173
122.70150,19.50727614
122.70200,19.50727614
122.70250,20.11766495
122.70300,20.72805377
122.70350,21.03324818
122.70400,20.42285936
122.70450,18.28649851
122.70500,16.15013765
122.70550,14.31897121
122.70600,12.18261035
122.70650,9.435860683
122.70700,7.299499829
122.70750,6.383916606
122.70800,5.163138975
122.70850,2.721583714
122.70900,-1.551137994
122.70950,-7.044637333
122.71000,-11.92774786
122.71050,-14.36930312
122.71100,-13.7589143
122.71150,-11.31735904
122.71200,-9.486192594
122.71250,-8.875803779
122.71300,-9.180998187
122.71350,-9.486192594
122.71400,-9.180998187
122.71450,-8.875803779
122.71500,-7.655026148
122.71550,-4.908276479
122.71600,-2.466721217
122.71650,-0.9407491788
122.71700,-0.02516595566
122.71750,1.806000491
122.71800,5.163138975
122.71850,8.825471868
122.71900,11.87741594
122.71950,13.70858239
122.72000,14.92936002
122.72050,17.37091528
122.72100,19.20208173
122.72150,16.76052647
122.72200,10.65663831
122.72250,5.163138975
122.72300,4.857944568
122.72350,6.078722198
122.72400,2.416389306
122.72450,-4.297887663
122.72500,-8.875803779
122.72550,-7.960220556
122.72600,-6.12905411
122.72650,-5.823859702
122.72700,-4.908276479
122.72750,-1.551137994
122.72800,-0.02516595566
122.72850,-2.466721217
122.72900,-7.044637333
122.72950,-7.655026148
122.73000,-3.992693256
122.73050,-0.3303603634
122.73100,-0.3303603634
122.73150,-2.466721217
122.73200,-4.297887663
122.73250,-5.823859702
122.73300,-7.34983174
122.73350,-9.791387002
122.73400,-12.23294226
122.73450,-15.28488634
122.73500,-18.03163601
122.73550,-19.25241364
122.73600,-17.42124719
122.73650,-11.92774786
122.73700,-5.823859702
122.73750,-3.687498848
122.73800,-6.739442925
122.73850,-11.31735904
122.73900,-11.62255345
122.73950,-6.12905411
122.74000,-0.02516595566
122.74050,2.111194898
122.74100,1.806000491
122.74150,1.195611675
122.74200,-0.02516595566
122.74250,-3.077110033
122.74300,-4.297887663
122.74350,-0.3303603634
122.74400,5.468333383
122.74450,6.383916606
122.74500,1.195611675
122.74550,-2.771915625
122.74600,-1.245943586
122.74650,2.416389306
122.74700,4.247555752
122.74750,5.773527791
122.74800,10.96183272
122.74850,18.59169291
122.74900,25.30596988
122.74950,30.18908041
122.75000,32.63063567
122.75050,29.57869159
122.75100,20.11766495
122.75150,7.299499829
122.75200,-3.38230444
122.75250,-11.01216463
122.75300,-16.50566397
122.75350,-18.64202483
122.75400,-15.89527516
122.75450,-11.92774786
122.75500,-9.180998187
122.75550,-7.044637333
122.75600,-2.16152681
122.75650,3.637166937
122.75700,6.994305421
122.75750,5.773527791
122.75800,3.637166937
122.75850,3.026778121
122.75900,3.331972529
122.75950,3.942361344
122.76000,4.55275016
122.76050,5.773527791
122.76100,5.468333383
122.76150,3.942361344
122.76200,1.806000491
122.76250,-0.02516595566
122.76300,-2.16152681
122.76350,-3.687498848
122.76400,-3.38230444
122.76450,-2.16152681
122.76500,-2.16152681
122.76550,-3.077110033
122.76600,-3.38230444
122.76650,-4.297887663
122.76700,-6.12905411
122.76750,-8.570609371
122.76800,-9.791387002
122.76850,-11.62255345
122.76900,-15.59008075
122.76950,-20.77838568
122.77000,-23.83032976
122.77050,-23.21994094
122.77100,-21.6939689
122.77150,-19.86280246
122.77200,-16.50566397
122.77250,-12.53813667
122.77300,-10.70697023
122.77350,-11.62255345
122.77400,-11.92774786
122.77450,-9.486192594
122.77500,-6.12905411
122.77550,-4.297887663
122.77600,-3.687498848
122.77650,-2.771915625
122.77700,-1.551137994
122.77750,0.5852228597
122.77800,6.383916606
122.77850,14.31897121
122.77900,19.50727614
122.77950,19.20208173
122.78000,17.37091528
122.78050,19.50727614
122.78100,25.30596988
122.78150,29.57869159
122.78200,30.18908041
122.78250,28.05271955
122.78300,25.30596988
122.78350,21.64363699
122.78400,16.45533206
122.78450,10.35144391
122.78500,3.637166937
122.78550,-2.466721217
122.78600,-7.34983174
122.78650,-8.875803779
122.78700,-7.34983174
122.78750,-5.518665294
122.78800,-4.908276479
122.78850,-5.213470887
122.78900,-5.823859702
122.78950,-6.434248517
122.79000,-6.434248517
122.79050,-6.739442925
122.79100,-7.960220556
122.79150,-8.570609371
122.79200,-6.739442925
122.79250,-3.38230444
122.79300,-3.077110033
122.79350,-7.34983174
122.79400,-11.31735904
122.79450,-11.31735904
122.79500,-8.875803779
122.79550,-6.434248517
122.79600,-3.687498848
122.79650,0.280028452
122.79700,4.247555752
122.79750,5.163138975
122.79800,3.637166937
122.79850,2.721583714
122.79900,3.026778121
122.79950,3.026778121
122.80000,3.637166937
122.80050,5.773527791
122.80100,8.825471868
122.80150,10.0462495
122.80200,8.52027746
122.80250,5.163138975
122.80300,1.806000491
122.80350,-0.9407491788
122.80400,-2.16152681
122.80450,-1.245943586
122.80500,-0.3303603634
122.80550,-2.466721217
122.80600,-7.34983174
122.80650,-12.23294226
122.80700,-14.06410871
122.80750,-11.62255345
122.80800,-4.603082071
122.80850,4.857944568
122.80900,12.48780476
122.80950,14.92936002
122.81000,14.62416561
122.81050,15.84494324
122.81100,17.37091528
122.81150,15.53974884
122.81200,10.96183272
122.81250,6.689111014
122.81300,3.331972529
122.81350,-1.551137994
122.81400,-6.739442925
122.81450,-8.265414964
122.81500,-7.655026148
122.81550,-12.84333108
122.81600,-26.27188502
122.81650,-39.70043896
122.81700,-42.75238303
122.81750,-34.81732843
122.81800,-23.52513535
122.81850,-14.97969193
122.81900,-10.70697023
122.81950,-10.09658141
122.82000,-11.92774786
122.82050,-14.36930312
122.82100,-18.03163601
122.82150,-24.44071857
122.82200,-30.84980113
122.82250,-32.07057876
122.82300,-25.6614962
122.82350,-14.06410871
122.82400,-1.856332402
122.82450,6.994305421
122.82500,11.57222154
122.82550,11.26702713
122.82600,8.52027746
122.82650,6.994305421
122.82700,7.909888645
122.82750,9.435860683
122.82800,9.435860683
122.82850,9.130666275
122.82900,9.741055091
122.82950,11.26702713
122.83000,13.40338798
122.83050,16.76052647
122.83100,20.11766495
122.83150,21.33844258
122.83200,21.03324818
122.83250,21.9488314
122.83300,25.00077548
122.83350,25.30596988
122.83400,19.20208173
122.83450,8.215083052
122.83500,-1.856332402
122.83550,-7.34983174
122.83600,-7.044637333
122.83650,-2.16152681
122.83700,3.942361344
122.83750,8.825471868
122.83800,11.26702713
122.83850,13.40338798
122.83900,16.15013765
122.83950,18.28649851
122.84000,18.59169291
122.84050,17.9813041
122.84100,17.37091528
122.84150,16.15013765
122.84200,14.62416561
122.84250,13.09819358
122.84300,12.18261035
122.84350,10.35144391
122.84400,6.383916606
122.84450,1.500806083
122.84500,-0.6355547711
122.84550,-0.3303603634
122.84600,0.5852228597
122.84650,0.280028452
122.84700,-0.6355547711
122.84750,-1.551137994
122.84800,-2.466721217
122.84850,-4.297887663
122.84900,-6.434248517
122.84950,-6.12905411
122.85000,-3.992693256
122.85050,-2.466721217
122.85100,-3.077110033
122.85150,-5.823859702
122.85200,-7.655026148
122.85250,-7.960220556
122.85300,-8.875803779
122.85350,-10.09658141
122.85400,-10.40177582
122.85450,-8.570609371
122.85500,-4.297887663
122.85550,-0.3303603634
122.85600,2.416389306
122.85650,3.331972529
122.85700,3.942361344
122.85750,4.857944568
122.85800,6.689111014
122.85850,7.909888645
122.85900,8.215083052
122.85950,8.215083052
122.86000,7.909888645
122.86050,6.383916606
122.86100,2.721583714
122.86150,-0.6355547711
122.86200,-0.9407491788
122.86250,2.111194898
122.86300,6.994305421
122.86350,11.87741594
122.86400,15.53974884
122.86450,15.53974884
122.86500,12.18261035
122.86550,7.909888645
122.86600,5.773527791
122.86650,6.078722198
122.86700,6.078722198
122.86750,3.026778121
122.86800,-2.16152681
122.86850,-7.044637333
122.86900,-10.40177582
122.86950,-12.23294226
122.87000,-14.67449753
122.87050,-18.64202483
122.87100,-20.47319127
122.87150,-16.81085838
122.87200,-8.570609371
122.87250,-1.551137994
122.87300,-0.9407491788
122.87350,-5.213470887
122.87400,-9.180998187
122.87450,-10.09658141
122.87500,-8.265414964
122.87550,-5.823859702
122.87600,-4.297887663
122.87650,-4.603082071
122.87700,-6.434248517
122.87750,-10.09658141
122.87800,-14.06410871
122.87850,-14.97969193
122.87900,-11.92774786
122.87950,-5.823859702
122.88000,-0.3303603634
122.88050,3.637166937
122.88100,6.994305421
122.88150,8.825471868
122.88200,7.909888645
122.88250,5.773527791
122.88300,6.383916606
122.88350,9.130666275
122.88400,8.825471868
122.88450,3.637166937
122.88500,-0.9407491788
122.88550,-0.6355547711
122.88600,2.111194898
122.88650,1.500806083
122.88700,-2.771915625
122.88750,-7.044637333
122.88800,-8.875803779
122.88850,-8.570609371
122.88900,-7.34983174
122.88950,-5.213470887
122.89000,-2.771915625
122.89050,-1.551137994
122.89100,-1.245943586
122.89150,-0.6355547711
122.89200,0.5852228597
122.89250,1.195611675
122.89300,0.5852228597
122.89350,-1.245943586
122.89400,-3.687498848
122.89450,-3.992693256
122.89500,-1.245943586
122.89550,3.637166937
122.89600,7.299499829
122.89650,7.604694237
122.89700,6.078722198
122.89750,5.163138975
122.89800,3.942361344
122.89850,-0.6355547711
122.89900,-7.655026148
122.89950,-10.40177582
122.90000,-6.434248517
122.90050,-0.6355547711
122.90100,-0.02516595566
122.90150,-3.687498848
122.90200,-6.12905411
122.90250,-3.38230444
122.90300,0.280028452
122.90350,1.195611675
122.90400,0.280028452
122.90450,0.5852228597
122.90500,1.500806083
122.90550,0.8904172674
122.90600,-0.6355547711
122.90650,-1.856332402
122.90700,-2.771915625
122.90750,-4.603082071
122.90800,-8.265414964
122.90850,-13.45371989
122.90900,-18.94721923
122.90950,-23.21994094
122.91000,-24.44071857
122.91050,-21.6939689
122.91100,-17.42124719
122.91150,-15.59008075
122.91200,-16.50566397
122.91250,-17.11605279
122.91300,-15.59008075
122.91350,-13.14852549
122.91400,-10.09658141
122.91450,-6.434248517
122.91500,-2.466721217
122.91550,-0.02516595566
122.91600,2.416389306
122.91650,6.689111014
122.91700,12.79299917
122.91750,17.67610969
122.91800,20.11766495
122.91850,22.55922021
122.91900,28.66310837
122.91950,35.37738534
122.92000,37.8189406
122.92050,35.68257975
122.92100,32.32544126
122.92150,28.35791396
122.92200,21.9488314
122.92250,12.79299917
122.92300,4.55275016
122.92350,-0.02516595566
122.92400,-0.6355547711
122.92450,-0.3303603634
122.92500,0.8904172674
122.92550,3.331972529
122.92600,5.163138975
122.92650,4.857944568
122.92700,2.111194898
122.92750,-1.245943586
122.92800,-3.992693256
122.92850,-5.518665294
122.92900,-6.739442925
122.92950,-7.34983174
122.93000,-7.655026148
122.93050,-7.655026148
122.93100,-7.044637333
122.93150,-5.518665294
122.93200,-1.856332402
122.93250,1.500806083
122.93300,2.111194898
122.93350,-1.245943586
122.93400,-6.434248517
122.93450,-9.180998187
122.93500,-10.09658141
122.93550,-11.01216463
122.93600,-11.31735904
122.93650,-7.044637333
122.93700,1.195611675
122.93750,9.435860683
122.93800,13.70858239
122.93850,16.15013765
122.93900,21.03324818
122.93950,27.74752515
122.94000,29.883886
122.94050,24.39038666
122.94100,11.87741594
122.94150,-2.466721217
122.94200,-13.45371989
122.94250,-14.67449753
122.94300,-6.739442925
122.94350,1.195611675
122.94400,2.111194898
122.94450,-2.466721217
122.94500,-5.823859702
122.94550,-4.603082071
122.94600,-4.297887663
122.94650,-7.655026148
122.94700,-13.45371989
122.94750,-18.94721923
122.94800,-25.05110739
122.94850,-31.76538436
122.94900,-35.42771725
122.94950,-33.2913564
122.95000,-27.18746824
122.95050,-22.30435772
122.95100,-18.94721923
122.95150,-14.97969193
122.95200,-9.486192594
122.95250,-4.297887663
122.95300,-1.245943586
122.95350,-0.6355547711
122.95400,-1.245943586
122.95450,-2.16152681
122.95500,-2.16152681
122.95550,-1.856332402
122.95600,-2.16152681
122.95650,-3.38230444
122.95700,-3.077110033
122.95750,0.280028452
122.95800,6.078722198
122.95850,10.65663831
122.95900,13.09819358
122.95950,14.0137768
122.96000,14.0137768
122.96050,13.40338798
122.96100,13.09819358
122.96150,13.40338798
122.96200,14.62416561
122.96250,15.23455443
122.96300,15.53974884
122.96350,14.62416561
122.96400,12.79299917
122.96450,11.26702713
122.96500,11.57222154
122.96550,12.18261035
122.96600,9.130666275
122.96650,2.416389306
122.96700,-1.245943586
122.96750,0.8904172674
122.96800,5.773527791
122.96850,5.468333383
122.96900,-0.6355547711
122.96950,-7.34983174
122.97000,-11.31735904
122.97050,-13.45371989
122.97100,-15.28488634
122.97150,-14.06410871
122.97200,-9.791387002
122.97250,-5.518665294
122.97300,-4.297887663
122.97350,-5.213470887
122.97400,-4.908276479
122.97450,-3.38230444
122.97500,-2.466721217
122.97550,-2.466721217
122.97600,-3.38230444
122.97650,-3.687498848
122.97700,-3.38230444
122.97750,-1.551137994
122.97800,1.500806083
122.97850,4.55275016
122.97900,6.689111014
122.97950,8.52027746
122.98000,10.0462495
122.98050,10.65663831
122.98100,10.65663831
122.98150,10.96183272
122.98200,11.57222154
122.98250,12.48780476
122.98300,12.48780476
122.98350,12.48780476
122.98400,12.48780476
122.98450,11.87741594
122.98500,10.0462495
122.98550,7.909888645
122.98600,6.994305421
122.98650,8.52027746
122.98700,10.65663831
122.98750,10.0462495
122.98800,6.689111014
122.98850,3.026778121
122.98900,1.195611675
122.98950,0.8904172674
122.99000,-0.3303603634
122.99050,-2.16152681
122.99100,-2.771915625
122.99150,-2.16152681
122.99200,-3.687498848
122.99250,-7.960220556
122.99300,-11.62255345
122.99350,-11.62255345
122.99400,-9.180998187
122.99450,-7.960220556
122.99500,-8.570609371
122.99550,-8.570609371
122.99600,-5.823859702
122.99650,-1.856332402
122.99700,1.500806083
122.99750,5.773527791
122.99800,12.18261035
122.99850,17.9813041
122.99900,20.42285936
122.99950,20.11766495
123.00000,20.42285936
123.00050,21.33844258
123.00100,18.59169291
123.00150,11.26702713
123.00200,4.857944568
123.00250,2.111194898
123.00300,-0.3303603634
123.00350,-7.34983174
123.00400,-14.36930312
123.00450,-14.06410871
123.00500,-7.960220556
123.00550,-2.771915625
123.00600,-2.16152681
123.00650,-2.771915625
123.00700,-3.38230444
123.00750,-5.823859702
123.00800,-9.486192594
123.00850,-11.31735904
123.00900,-10.40177582
123.00950,-8.570609371
123.01000,-7.655026148
123.01050,-6.434248517
123.01100,-6.434248517
123.01150,-9.791387002
123.01200,-13.14852549
123.01250,-11.92774786
123.01300,-7.044637333
123.01350,-3.992693256
123.01400,-3.38230444
123.01450,-0.02516595566
123.01500,6.689111014
123.01550,10.65663831
123.01600,7.909888645
123.01650,3.637166937
123.01700,0.280028452
123.01750,-4.603082071
123.01800,-12.53813667
123.01850,-18.64202483
123.01900,-17.11605279
123.01950,-11.62255345
123.02000,-7.044637333
123.02050,-3.992693256
123.02100,0.5852228597
123.02150,5.163138975
123.02200,6.994305421
123.02250,6.383916606
123.02300,6.383916606
123.02350,6.078722198
123.02400,4.55275016
123.02450,3.942361344
123.02500,6.689111014
123.02550,9.741055091
123.02600,9.741055091
123.02650,7.299499829
123.02700,5.773527791
123.02750,3.942361344
123.02800,-0.3303603634
123.02850,-6.739442925
123.02900,-10.70697023
123.02950,-10.70697023
123.03000,-9.180998187
123.03050,-7.960220556
123.03100,-5.823859702
123.03150,-3.38230444
123.03200,-2.466721217
123.03250,-3.38230444
123.03300,-5.213470887
123.03350,-8.570609371
123.03400,-12.84333108
123.03450,-15.89527516
123.03500,-15.28488634
123.03550,-11.62255345
123.03600,-8.875803779
123.03650,-7.655026148
123.03700,-7.34983174
123.03750,-7.34983174
123.03800,-7.34983174
123.03850,-5.823859702
123.03900,-1.551137994
123.03950,2.721583714
123.04000,2.721583714
123.04050,-1.245943586
123.04100,-5.213470887
123.04150,-5.823859702
123.04200,-3.992693256
123.04250,-1.245943586
123.04300,1.500806083
123.04350,6.689111014
123.04400,13.40338798
123.04450,18.59169291
123.04500,20.72805377
123.04550,21.64363699
123.04600,23.47480344
123.04650,26.52674751
123.04700,28.66310837
123.04750,27.74752515
123.04800,24.39038666
123.04850,20.72805377
123.04900,17.37091528
123.04950,13.09819358
123.05000,6.383916606
123.05050,-2.16152681
123.05100,-13.45371989
123.05150,-26.57707943
123.05200,-39.09005014
123.05250,-47.63549356
123.05300,-49.46666
123.05350,-45.80432711
123.05400,-38.47966133
123.05450,-30.23941232
123.05500,-23.83032976
123.05550,-20.16799686
123.05600,-18.64202483
123.05650,-16.50566397
123.05700,-12.53813667
123.05750,-7.34983174
123.05800,-2.771915625
123.05850,-0.02516595566
123.05900,1.500806083
123.05950,2.721583714
123.06000,3.637166937
123.06050,5.468333383
123.06100,8.52027746
123.06150,11.87741594
123.06200,14.31897121
123.06250,15.53974884
123.06300,16.45533206
123.06350,17.06572088
123.06400,18.28649851
123.06450,19.20208173
123.06500,17.9813041
123.06550,14.31897121
123.06600,10.0462495
123.06650,6.994305421
123.06700,4.247555752
123.06750,0.8904172674
123.06800,-2.16152681
123.06850,-3.077110033
123.06900,-0.3303603634
123.06950,2.416389306
123.07000,3.331972529
123.07050,3.026778121
123.07100,1.806000491
123.07150,-0.9407491788
123.07200,-6.739442925
123.07250,-11.62255345
123.07300,-11.92774786
123.07350,-8.875803779
123.07400,-6.434248517
123.07450,-4.908276479
123.07500,-1.856332402
123.07550,3.026778121
123.07600,6.689111014
123.07650,6.994305421
123.07700,6.078722198
123.07750,6.689111014
123.07800,6.689111014
123.07850,3.026778121
123.07900,-3.077110033
123.07950,-6.739442925
123.08000,-6.12905411
123.08050,-4.297887663
123.08100,-2.771915625
123.08150,-0.9407491788
123.08200,3.331972529
123.08250,9.435860683
123.08300,15.84494324
123.08350,21.33844258
123.08400,25.30596988
123.08450,26.22155311
123.08500,23.77999785
123.08550,21.33844258
123.08600,22.55922021
123.08650,25.30596988
123.08700,25.9163587
123.08750,22.25402581
123.08800,17.06572088
123.08850,14.92936002
123.08900,15.84494324
123.08950,16.76052647
123.09000,15.23455443
123.09050,11.57222154
123.09100,5.468333383
123.09150,-1.245943586
123.09200,-7.960220556
123.09250,-11.62255345
123.09300,-13.45371989
123.09350,-18.33683042
123.09400,-27.49266265
123.09450,-36.64849488
123.09500,-40.00563336
123.09550,-37.86927251
123.09600,-34.51213403
123.09650,-31.15499554
123.09700,-25.05110739
123.09750,-15.89527516
123.09800,-7.34983174
123.09850,-2.771915625
123.09900,-1.856332402
123.09950,-2.466721217
123.10000,-2.466721217
123.10050,-1.551137994
123.10100,-0.02516595566
123.10150,3.026778121
123.10200,5.773527791
123.10250,6.689111014
123.10300,7.299499829
123.10350,7.909888645
123.10400,8.215083052
123.10450,7.604694237
123.10500,7.299499829
123.10550,7.909888645
123.10600,8.825471868
123.10650,7.604694237
123.10700,4.857944568
123.10750,3.331972529
123.10800,3.331972529
123.10850,3.942361344
123.10900,4.247555752
123.10950,6.078722198
123.11000,9.741055091
123.11050,14.0137768
123.11100,15.84494324
123.11150,14.62416561
123.11200,11.26702713
123.11250,7.909888645
123.11300,5.468333383
123.11350,2.721583714
123.11400,-1.245943586
123.11450,-7.044637333
123.11500,-11.62255345
123.11550,-13.14852549
123.11600,-12.23294226
123.11650,-10.40177582
123.11700,-10.70697023
123.11750,-13.45371989
123.11800,-16.81085838
123.11850,-17.11605279
123.11900,-11.31735904
123.11950,-1.856332402
123.12000,5.163138975
123.12050,6.994305421
123.12100,6.078722198
123.12150,4.857944568
123.12200,4.247555752
123.12250,3.026778121
123.12300,2.721583714
123.12350,5.163138975
123.12400,8.52027746
123.12450,9.130666275
123.12500,5.468333383
123.12550,-0.3303603634
123.12600,-5.823859702
123.12650,-9.791387002
123.12700,-11.92774786
123.12750,-12.53813667
123.12800,-12.84333108
123.12850,-13.14852549
123.12900,-14.36930312
123.12950,-14.97969193
123.13000,-13.14852549
123.13050,-10.40177582
123.13100,-8.875803779
123.13150,-10.40177582
123.13200,-13.45371989
123.13250,-14.36930312
123.13300,-10.40177582
123.13350,-4.297887663
123.13400,-0.9407491788
123.13450,-2.16152681
123.13500,-4.603082071
123.13550,-3.077110033
123.13600,2.721583714
123.13650,9.435860683
123.13700,14.31897121
123.13750,17.9813041
123.13800,22.25402581
123.13850,25.61116429
123.13900,25.9163587
123.13950,21.9488314
123.14000,15.53974884
123.14050,8.215083052
123.14100,0.280028452
123.14150,-5.823859702
123.14200,-8.265414964
123.14250,-4.603082071
123.14300,3.026778121
123.14350,10.0462495
123.14400,12.48780476
123.14450,11.57222154
123.14500,8.825471868
123.14550,5.773527791
123.14600,3.331972529
123.14650,3.026778121
123.14700,5.468333383
123.14750,5.773527791
123.14800,1.195611675
123.14850,-6.434248517
123.14900,-11.31735904
123.14950,-11.01216463
123.15000,-9.180998187
123.15050,-10.09658141
123.15100,-13.14852549
123.15150,-14.97969193
123.15200,-14.06410871
123.15250,-12.84333108
123.15300,-11.92774786
123.15350,-10.40177582
123.15400,-8.570609371
123.15450,-7.34983174
123.15500,-7.34983174
123.15550,-6.434248517
123.15600,-4.603082071
123.15650,-2.466721217
123.15700,-0.6355547711
123.15750,1.195611675
123.15800,3.942361344
123.15850,5.468333383
123.15900,5.468333383
123.15950,6.383916606
123.16000,9.741055091
123.16050,14.31897121
123.16100,15.53974884
123.16150,11.87741594
123.16200,6.383916606
123.16250,3.331972529
123.16300,3.942361344
123.16350,6.078722198
123.16400,6.994305421
123.16450,6.078722198
123.16500,4.247555752
123.16550,1.806000491
123.16600,-0.02516595566
123.16650,-1.245943586
123.16700,-0.9407491788
123.16750,-0.02516595566
123.16800,1.500806083
123.16850,0.8904172674
123.16900,-1.551137994
123.16950,-5.213470887
123.17000,-7.960220556
123.17050,-9.486192594
123.17100,-10.70697023
123.17150,-11.31735904
123.17200,-11.92774786
123.17250,-12.53813667
123.17300,-13.14852549
123.17350,-13.45371989
123.17400,-13.14852549
123.17450,-11.62255345
123.17500,-8.570609371
123.17550,-4.297887663
123.17600,-0.02516595566
123.17650,3.637166937
123.17700,6.383916606
123.17750,9.435860683
123.17800,12.79299917
123.17850,15.23455443
123.17900,15.84494324
123.17950,15.23455443
123.18000,15.53974884
123.18050,17.9813041
123.18100,20.11766495
123.18150,19.50727614
123.18200,18.28649851
123.18250,19.81247054
123.18300,25.00077548
123.18350,29.883886
123.18400,30.18908041
123.18450,23.77999785
123.18500,13.09819358
123.18550,1.806000491
123.18600,-6.12905411
123.18650,-9.486192594
123.18700,-10.70697023
123.18750,-12.53813667
123.18800,-14.67449753
123.18850,-15.28488634
123.18900,-14.36930312
123.18950,-14.06410871
123.19000,-15.28488634
123.19050,-15.59008075
123.19100,-14.06410871
123.19150,-13.14852549
123.19200,-14.36930312
123.19250,-15.89527516
123.19300,-16.50566397
123.19350,-18.03163601
123.19400,-21.08358009
123.19450,-23.52513535
123.19500,-22.60955213
123.19550,-18.64202483
123.19600,-15.28488634
123.19650,-13.45371989
123.19700,-11.31735904
123.19750,-7.34983174
123.19800,-2.771915625
123.19850,1.195611675
123.19900,4.55275016
123.19950,6.689111014
123.20000,8.52027746
123.20050,12.18261035
123.20100,17.06572088
123.20150,19.81247054
123.20200,17.67610969
123.20250,13.70858239
123.20300,11.87741594
123.20350,11.57222154
123.20400,9.130666275
123.20450,3.026778121
123.20500,-3.38230444
123.20550,-8.265414964
123.20600,-9.180998187
123.20650,-7.044637333
123.20700,-3.077110033
123.20750,0.280028452
123.20800,2.721583714
123.20850,3.637166937
123.20900,3.637166937
123.20950,1.500806083
123.21000,-1.856332402
123.21050,-4.603082071
123.21100,-5.213470887
123.21150,-6.12905411
123.21200,-8.875803779
123.21250,-11.92774786
123.21300,-12.23294226
123.21350,-11.31735904
123.21400,-11.62255345
123.21450,-12.23294226
123.21500,-11.62255345
123.21550,-11.01216463
123.21600,-10.70697023
123.21650,-7.960220556
123.21700,-1.245943586
123.21750,5.468333383
123.21800,7.604694237
123.21850,6.689111014
123.21900,7.299499829
123.21950,9.435860683
123.22000,8.825471868
123.22050,5.163138975
123.22100,3.637166937
123.22150,6.994305421
123.22200,11.87741594
123.22250,14.31897121
123.22300,16.15013765
123.22350,19.20208173
123.22400,23.47480344
123.22450,27.13713633
123.22500,29.27349718
123.22550,31.71505245
123.22600,33.8514133
123.22650,33.24102448
123.22700,28.35791396
123.22750,21.33844258
123.22800,14.31897121
123.22850,7.604694237
123.22900,-0.02516595566
123.22950,-7.960220556
123.23000,-13.14852549
123.23050,-13.45371989
123.23100,-11.31735904
123.23150,-10.40177582
123.23200,-10.09658141
123.23250,-8.875803779
123.23300,-7.34983174
123.23350,-7.960220556
123.23400,-9.486192594
123.23450,-8.265414964
123.23500,-4.603082071
123.23550,-2.16152681
123.23600,-2.466721217
123.23650,-3.687498848
123.23700,-2.466721217
123.23750,-0.9407491788
123.23800,-0.6355547711
123.23850,-0.6355547711
123.23900,0.8904172674
123.23950,3.942361344
123.24000,6.383916606
123.24050,6.994305421
123.24100,6.994305421
123.24150,6.994305421
123.24200,8.52027746
123.24250,10.0462495
123.24300,9.741055091
123.24350,5.163138975
123.24400,-1.245943586
123.24450,-7.34983174
123.24500,-11.62255345
123.24550,-15.59008075
123.24600,-18.64202483
123.24650,-18.33683042
123.24700,-14.67449753
123.24750,-11.31735904
123.24800,-11.62255345
123.24850,-13.45371989
123.24900,-13.14852549
123.24950,-10.70697023
123.25000,-7.960220556
123.25050,-4.603082071
123.25100,-0.3303603634
123.25150,4.857944568
123.25200,10.0462495
123.25250,13.09819358
123.25300,13.40338798
123.25350,9.130666275
123.25400,0.8904172674
123.25450,-8.265414964
123.25500,-13.45371989
123.25550,-11.01216463
123.25600,-2.771915625
123.25650,4.55275016
123.25700,6.383916606
123.25750,3.331972529
123.25800,2.416389306
123.25850,6.994305421
123.25900,12.18261035
123.25950,10.35144391
123.26000,1.806000491
123.26050,-7.34983174
123.26100,-12.84333108
123.26150,-14.97969193
123.26200,-14.36930312
123.26250,-9.791387002
123.26300,-3.077110033
123.26350,-1.245943586
123.26400,-6.434248517
123.26450,-13.45371989
123.26500,-15.28488634
123.26550,-13.14852549
123.26600,-11.31735904
123.26650,-9.180998187
123.26700,-4.603082071
123.26750,-0.02516595566
123.26800,0.5852228597
123.26850,-0.02516595566
123.26900,0.280028452
123.26950,1.806000491
123.27000,0.5852228597
123.27050,-2.466721217
123.27100,-3.38230444
123.27150,-2.16152681
123.27200,-2.466721217
123.27250,-5.213470887
123.27300,-7.960220556
123.27350,-8.570609371
123.27400,-9.180998187
123.27450,-8.875803779
123.27500,-4.908276479
123.27550,1.806000491
123.27600,6.689111014
123.27650,5.773527791
123.27700,2.111194898
123.27750,0.8904172674
123.27800,2.416389306
123.27850,3.942361344
123.27900,3.942361344
123.27950,5.163138975
123.28000,10.35144391
123.28050,17.06572088
123.28100,20.72805377
123.28150,18.28649851
123.28200,14.0137768
123.28250,12.79299917
123.28300,15.53974884
123.28350,18.28649851
123.28400,17.06572088
123.28450,13.09819358
123.28500,8.52027746
123.28550,4.55275016
123.28600,1.195611675
123.28650,-1.245943586
123.28700,-2.466721217
123.28750,-3.38230444
123.28800,-4.908276479
123.28850,-5.213470887
123.28900,-3.687498848
123.28950,-2.466721217
123.29000,-3.992693256
123.29050,-7.655026148
123.29100,-11.01216463
123.29150,-13.7589143
123.29200,-17.11605279
123.29250,-20.16799686
123.29300,-20.16799686
123.29350,-18.03163601
123.29400,-17.42124719
123.29450,-18.33683042
123.29500,-17.42124719
123.29550,-12.84333108
123.29600,-7.34983174
123.29650,-3.38230444
123.29700,-0.02516595566
123.29750,3.637166937
123.29800,7.604694237
123.29850,8.52027746
123.29900,6.994305421
123.29950,5.468333383
123.30000,4.55275016
123.30050,3.026778121
123.30100,1.500806083
123.30150,1.806000491
123.30200,4.55275016
123.30250,8.215083052
123.30300,10.65663831
123.30350,10.96183272
123.30400,7.909888645
123.30450,2.721583714
123.30500,-0.6355547711
123.30550,-0.02516595566
123.30600,5.163138975
123.30650,9.130666275
123.30700,9.130666275
123.30750,7.299499829
123.30800,5.468333383
123.30850,3.026778121
123.30900,0.8904172674
123.30950,1.500806083
123.31000,4.247555752
123.31050,5.163138975
123.31100,0.8904172674
123.31150,-4.297887663
123.31200,-5.518665294
123.31250,-3.38230444
123.31300,-3.077110033
123.31350,-4.603082071
123.31400,-4.603082071
123.31450,-3.077110033
123.31500,-4.297887663
123.31550,-9.791387002
123.31600,-14.67449753
123.31650,-14.36930312
123.31700,-10.70697023
123.31750,-7.960220556
123.31800,-6.434248517
123.31850,-3.992693256
123.31900,-0.6355547711
123.31950,0.8904172674
123.32000,0.5852228597
123.32050,-0.02516595566
123.32100,1.500806083
123.32150,4.247555752
123.32200,6.078722198
123.32250,5.163138975
123.32300,2.721583714
123.32350,1.195611675
123.32400,1.195611675
123.32450,2.111194898
123.32500,3.331972529
123.32550,5.163138975
123.32600,7.604694237
123.32650,8.52027746
123.32700,6.689111014
123.32750,3.942361344
123.32800,1.806000491
123.32850,-0.02516595566
123.32900,-3.077110033
123.32950,-6.12905411
123.33000,-6.434248517
123.33050,-3.687498848
123.33100,-0.9407491788
123.33150,-2.16152681
123.33200,-6.739442925
123.33250,-12.23294226
123.33300,-14.97969193
123.33350,-14.97969193
123.33400,-14.06410871
123.33450,-15.28488634
123.33500,-17.11605279
123.33550,-15.59008075
123.33600,-10.09658141
123.33650,-2.771915625
123.33700,2.416389306
123.33750,6.383916606
123.33800,10.35144391
123.33850,15.23455443
123.33900,21.03324818
123.33950,28.05271955
123.34000,35.07219093
123.34050,38.73452382
123.34100,38.12413501
123.34150,34.76699652
123.34200,30.79946922
123.34250,26.22155311
123.34300,20.72805377
123.34350,15.53974884
123.34400,12.79299917
123.34450,12.48780476
123.34500,13.09819358
123.34550,14.92936002
123.34600,17.06572088
123.34650,15.84494324
123.34700,10.65663831
123.34750,4.247555752
123.34800,-0.02516595566
123.34850,-5.213470887
123.34900,-14.06410871
123.34950,-22.30435772
123.35000,-24.44071857
123.35050,-21.6939689
123.35100,-18.03163601
123.35150,-14.97969193
123.35200,-11.62255345
123.35250,-8.570609371
123.35300,-10.70697023
123.35350,-17.11605279
123.35400,-22.60955213
123.35450,-22.91474653
123.35500,-18.94721923
123.35550,-14.06410871
123.35600,-8.875803779
123.35650,-3.687498848
123.35700,0.5852228597
123.35750,3.637166937
123.35800,5.163138975
123.35850,4.857944568
123.35900,4.55275016
123.35950,5.468333383
123.36000,8.215083052
123.36050,10.0462495
123.36100,9.435860683
123.36150,7.604694237
123.36200,8.215083052
123.36250,11.87741594
123.36300,16.45533206
123.36350,19.81247054
123.36400,21.64363699
123.36450,23.16960903
123.36500,24.39038666
123.36550,23.77999785
123.36600,19.81247054
123.36650,12.18261035
123.36700,2.416389306
123.36750,-6.434248517
123.36800,-14.36930312
123.36850,-19.55760805
123.36900,-20.16799686
123.36950,-16.20046956
123.37000,-11.62255345
123.37050,-10.40177582
123.37100,-12.23294226
123.37150,-12.84333108
123.37200,-11.01216463
123.37250,-10.70697023
123.37300,-12.53813667
123.37350,-14.67449753
123.37400,-14.67449753
123.37450,-14.36930312
123.37500,-14.67449753
123.37550,-14.06410871
123.37600,-10.70697023
123.37650,-5.518665294
123.37700,-1.245943586
123.37750,2.416389306
123.37800,5.773527791
123.37850,7.909888645
123.37900,6.689111014
123.37950,2.721583714
123.38000,-0.3303603634
123.38050,-1.245943586
123.38100,-2.16152681
123.38150,-5.823859702
123.38200,-10.09658141
123.38250,-10.09658141
123.38300,-5.518665294
123.38350,-1.551137994
123.38400,-1.245943586
123.38450,-2.16152681
123.38500,-0.02516595566
123.38550,2.721583714
123.38600,1.500806083
123.38650,-1.551137994
123.38700,-0.3303603634
123.38750,3.026778121
123.38800,1.806000491
123.38850,-4.603082071
123.38900,-6.739442925
123.38950,0.8904172674
123.39000,10.0462495
123.39050,10.65663831
123.39100,3.942361344
123.39150,-1.551137994
123.39200,-3.38230444
123.39250,-5.213470887
123.39300,-9.180998187
123.39350,-13.45371989
123.39400,-16.20046956
123.39450,-18.03163601
123.39500,-18.03163601
123.39550,-14.36930312
123.39600,-7.960220556
123.39650,-1.856332402
123.39700,2.111194898
123.39750,4.857944568
123.39800,7.909888645
123.39850,9.741055091
123.39900,10.0462495
123.39950,8.825471868
123.40000,6.078722198
123.40050,3.026778121
123.40100,1.806000491
123.40150,3.942361344
123.40200,6.383916606
123.40250,6.689111014
123.40300,5.163138975
123.40350,4.247555752
123.40400,4.857944568
123.40450,5.468333383
123.40500,3.637166937
123.40550,-0.02516595566
123.40600,-2.466721217
123.40650,-3.992693256
123.40700,-5.213470887
123.40750,-6.739442925
123.40800,-7.655026148
123.40850,-6.739442925
123.40900,-5.213470887
123.40950,-5.518665294
123.41000,-7.960220556
123.41050,-10.70697023
123.41100,-10.70697023
123.41150,-9.180998187
123.41200,-8.265414964
123.41250,-8.875803779
123.41300,-8.875803779
123.41350,-7.34983174
123.41400,-4.603082071
123.41450,-2.16152681
123.41500,0.5852228597
123.41550,3.637166937
123.41600,6.078722198
123.41650,8.215083052
123.41700,12.18261035
123.41750,17.9813041
123.41800,22.25402581
123.41850,21.64363699
123.41900,17.67610969
123.41950,12.79299917
123.42000,8.215083052
123.42050,3.637166937
123.42100,-0.02516595566
123.42150,-1.856332402
123.42200,-0.9407491788
123.42250,1.500806083
123.42300,5.773527791
123.42350,11.57222154
123.42400,18.89688732
123.42450,26.83194192
123.42500,34.46180211
123.42550,39.03971823
123.42600,37.20855178
123.42650,30.49427481
123.42700,23.77999785
123.42750,19.50727614
123.42800,17.06572088
123.42850,15.84494324
123.42900,18.59169291
123.42950,25.00077548
123.43000,28.35791396
123.43050,21.03324818
123.43100,5.163138975
123.43150,-10.70697023
123.43200,-23.83032976
123.43250,-36.95368929
123.43300,-50.68743763
123.43350,-60.14846427
123.43400,-60.75885309
123.43450,-55.26535375
123.43500,-48.85627119
123.43550,-43.97316066
123.43600,-39.70043896
123.43650,-34.51213403
123.43700,-29.3238291
123.43750,-23.83032976
123.43800,-17.11605279
123.43850,-9.791387002
123.43900,-3.687498848
123.43950,-0.3303603634
123.44000,-0.02516595566
123.44050,-0.3303603634
123.44100,-1.551137994
123.44150,-2.16152681
123.44200,-0.9407491788
123.44250,1.500806083
123.44300,4.55275016
123.44350,6.689111014
123.44400,7.604694237
123.44450,7.909888645
123.44500,8.52027746
123.44550,8.52027746
123.44600,9.130666275
123.44650,10.0462495
123.44700,10.96183272
123.44750,10.35144391
123.44800,9.130666275
123.44850,9.130666275
123.44900,10.65663831
123.44950,10.65663831
123.45000,7.604694237
123.45050,4.55275016
123.45100,3.942361344
123.45150,3.942361344
123.45200,2.416389306
123.45250,0.280028452
123.45300,0.5852228597
123.45350,1.195611675
123.45400,-0.6355547711
123.45450,-4.297887663
123.45500,-5.518665294
123.45550,-4.908276479
123.45600,-5.213470887
123.45650,-7.044637333
123.45700,-7.655026148
123.45750,-6.739442925
123.45800,-6.739442925
123.45850,-8.570609371
123.45900,-10.09658141
123.45950,-9.791387002
123.46000,-7.044637333
123.46050,-1.551137994
123.46100,5.163138975
123.46150,10.96183272
123.46200,11.57222154
123.46250,9.741055091
123.46300,10.65663831
123.46350,16.76052647
123.46400,24.39038666
123.46450,29.57869159
123.46500,33.54621889
123.46550,36.90335738
123.46600,40.26049586
123.46650,43.31243994
123.46700,46.36438401
123.46750,46.97477283
123.46800,41.48127349
123.46850,30.49427481
123.46900,15.53974884
123.46950,-3.077110033
123.47000,-25.35630179
123.47050,-43.66796626
123.47100,-48.85627119
123.47150,-39.39524455
123.47200,-24.74591298
123.47250,-14.97969193
123.47300,-13.14852549
123.47350,-16.81085838
123.47400,-21.08358009
123.47450,-20.77838568
123.47500,-14.67449753
123.47550,-6.739442925
123.47600,-3.38230444
123.47650,-5.213470887
123.47700,-7.044637333
123.47750,-6.434248517
123.47800,-5.823859702
123.47850,-6.434248517
123.47900,-5.823859702
123.47950,-3.077110033
123.48000,-0.02516595566
123.48050,1.806000491
123.48100,3.942361344
123.48150,7.299499829
123.48200,8.825471868
123.48250,7.604694237
123.48300,5.163138975
123.48350,3.942361344
123.48400,3.026778121
123.48450,1.806000491
123.48500,2.721583714
123.48550,5.773527791
123.48600,6.383916606
123.48650,1.500806083
123.48700,-5.213470887
123.48750,-7.655026148
123.48800,-5.823859702
123.48850,-4.603082071
123.48900,-6.739442925
123.48950,-8.875803779
123.49000,-9.791387002
123.49050,-11.62255345
123.49100,-15.28488634
123.49150,-18.33683042
123.49200,-17.7264416
123.49250,-15.59008075
123.49300,-15.59008075
123.49350,-18.03163601
123.49400,-18.94721923
123.49450,-16.50566397
123.49500,-11.92774786
123.49550,-6.739442925
123.49600,-1.245943586
123.49650,5.163138975
123.49700,11.26702713
123.49750,15.23455443
123.49800,16.15013765
123.49850,14.0137768
123.49900,9.741055091
123.49950,4.857944568
123.50000,0.280028452
123.50050,-1.856332402
123.50100,-1.551137994
123.50150,1.500806083
123.50200,4.247555752
123.50250,4.857944568
123.50300,4.857944568
123.50350,6.994305421
123.50400,12.18261035
123.50450,16.45533206
123.50500,17.9813041
123.50550,17.67610969
123.50600,16.45533206
123.50650,13.70858239
123.50700,8.52027746
123.50750,4.857944568
123.50800,4.55275016
123.50850,5.468333383
123.50900,1.500806083
123.50950,-7.044637333
123.51000,-15.28488634
123.51050,-17.7264416
123.51100,-15.28488634
123.51150,-11.31735904
123.51200,-9.180998187
123.51250,-7.655026148
123.51300,-5.518665294
123.51350,-3.38230444
123.51400,-0.9407491788
123.51450,0.5852228597
123.51500,2.721583714
123.51550,4.857944568
123.51600,6.383916606
123.51650,6.078722198
123.51700,4.247555752
123.51750,2.111194898
123.51800,-0.02516595566
123.51850,-2.16152681
123.51900,-3.38230444
123.51950,-1.245943586
123.52000,2.721583714
123.52050,6.078722198
123.52100,6.689111014
123.52150,5.773527791
123.52200,5.163138975
123.52250,4.247555752
123.52300,2.111194898
123.52350,-0.02516595566
123.52400,-0.02516595566
123.52450,2.721583714
123.52500,6.994305421
123.52550,10.65663831
123.52600,14.31897121
123.52650,19.20208173
123.52700,23.47480344
123.52750,24.08519225
123.52800,20.11766495
123.52850,14.0137768
123.52900,6.994305421
123.52950,-0.9407491788
123.53000,-10.40177582
123.53050,-17.11605279
123.53100,-18.03163601
123.53150,-15.59008075
123.53200,-14.36930312
123.53250,-17.11605279
123.53300,-20.47319127
123.53350,-21.99916331
123.53400,-21.99916331
123.53450,-22.30435772
123.53500,-22.60955213
123.53550,-21.38877449
123.53600,-18.03163601
123.53650,-13.45371989
123.53700,-9.486192594
123.53750,-6.739442925
123.53800,-5.213470887
123.53850,-3.687498848
123.53900,-0.9407491788
123.53950,2.416389306
123.54000,6.689111014
123.54050,12.18261035
123.54100,17.67610969
123.54150,21.9488314
123.54200,22.86441462
123.54250,20.11766495
123.54300,15.84494324
123.54350,11.57222154
123.54400,8.52027746
123.54450,7.299499829
123.54500,6.689111014
123.54550,3.942361344
123.54600,-1.551137994
123.54650,-7.34983174
123.54700,-8.875803779
123.54750,-5.518665294
123.54800,-0.02516595566
123.54850,5.468333383
123.54900,8.825471868
123.54950,10.35144391
123.55000,8.215083052
123.55050,2.111194898
123.55100,-6.739442925
123.55150,-16.50566397
123.55200,-25.6614962
123.55250,-31.76538436
123.55300,-32.37577317
123.55350,-27.49266265
123.55400,-18.64202483
123.55450,-10.70697023
123.55500,-6.434248517
123.55550,-7.34983174
123.55600,-11.62255345
123.55650,-16.50566397
123.55700,-19.86280246
123.55750,-19.86280246
123.55800,-16.81085838
123.55850,-10.70697023
123.55900,-2.466721217
123.55950,5.773527791
123.56000,14.0137768
123.56050,21.64363699
123.56100,28.05271955
123.56150,32.32544126
123.56200,34.15660771
123.56250,34.15660771
123.56300,32.93583008
123.56350,29.27349718
123.56400,22.55922021
123.56450,14.31897121
123.56500,7.299499829
123.56550,1.195611675
123.56600,-5.518665294
123.56650,-12.23294226
123.56700,-14.97969193
123.56750,-11.62255345
123.56800,-5.823859702
123.56850,-2.771915625
123.56900,-2.771915625
123.56950,-3.992693256
123.57000,-4.297887663
123.57050,-4.297887663
123.57100,-3.687498848
123.57150,-3.077110033
123.57200,-3.077110033
123.57250,-3.992693256
123.57300,-5.213470887
123.57350,-5.213470887
123.57400,-3.992693256
123.57450,-2.771915625
123.57500,-1.551137994
123.57550,-0.02516595566
123.57600,1.500806083
123.57650,2.416389306
123.57700,3.331972529
123.57750,4.55275016
123.57800,5.163138975
123.57850,4.857944568
123.57900,4.247555752
123.57950,4.55275016
123.58000,4.55275016
123.58050,3.026778121
123.58100,1.195611675
123.58150,1.806000491
123.58200,4.55275016
123.58250,6.689111014
123.58300,6.689111014
123.58350,6.078722198
123.58400,6.078722198
123.58450,5.773527791
123.58500,4.55275016
123.58550,3.942361344
123.58600,4.55275016
123.58650,6.078722198
123.58700,7.604694237
123.58750,7.909888645
123.58800,6.078722198
123.58850,1.195611675
123.58900,-4.908276479
123.58950,-8.265414964
123.59000,-7.34983174
123.59050,-6.434248517
123.59100,-9.180998187
123.59150,-13.45371989
123.59200,-14.67449753
123.59250,-11.62255345
123.59300,-7.655026148
123.59350,-3.077110033
123.59400,2.721583714
123.59450,9.435860683
123.59500,10.96183272
123.59550,4.247555752
123.59600,-5.213470887
123.59650,-8.570609371
123.59700,-4.603082071
123.59750,0.280028452
123.59800,2.416389306
123.59850,2.416389306
123.59900,3.026778121
123.59950,3.026778121
123.60000,0.5852228597
123.60050,-1.245943586
123.60100,-0.02516595566
123.60150,4.857944568
123.60200,8.825471868
123.60250,10.0462495
123.60300,11.26702713
123.60350,14.31897121
123.60400,17.67610969
123.60450,18.28649851
123.60500,15.84494324
123.60550,10.96183272
123.60600,4.55275016
123.60650,-2.16152681
123.60700,-7.960220556
123.60750,-10.70697023
123.60800,-9.180998187
123.60850,-5.823859702
123.60900,-4.908276479
123.60950,-6.739442925
123.61000,-10.09658141
123.61050,-12.23294226
123.61100,-12.23294226
123.61150,-11.62255345
123.61200,-11.01216463
123.61250,-11.62255345
123.61300,-12.23294226
123.61350,-11.62255345
123.61400,-7.655026148
123.61450,-0.9407491788
123.61500,5.163138975
123.61550,9.435860683
123.61600,12.18261035
123.61650,15.53974884
123.61700,18.59169291
123.61750,19.20208173
123.61800,18.28649851
123.61850,17.9813041
123.61900,18.89688732
123.61950,18.89688732
123.62000,16.15013765
123.62050,11.87741594
123.62100,9.130666275
123.62150,7.604694237
123.62200,4.55275016
