"type","name","time_units","begin_time","frequency","count","units"
"signal","Ultium EMG-BRACHIORAD. RT","s",186.92000,2000,22000,"uV"

"time","value"
186.92000,-4.156805791
186.92050,-7.819138683
186.92100,-10.56588835
186.92150,-13.00744361
186.92200,-15.14380447
186.92250,-14.83861006
186.92300,-12.70224921
186.92350,-11.48147158
186.92400,-12.3970548
186.92450,-13.00744361
186.92500,-9.345110722
186.92550,-3.241222568
186.92600,1.336693548
186.92650,2.862665586
186.92700,3.473054402
186.92750,4.693832032
186.92800,6.524998479
186.92850,7.440581702
186.92900,7.135387294
186.92950,6.524998479
186.93000,6.219804071
186.93050,5.609415256
186.93100,4.083443217
186.93150,2.252276771
186.93200,0.115915917
186.93250,-0.4944728984
186.93300,-0.1892784907
186.93350,0.7263047324
186.93400,2.252276771
186.93450,4.083443217
186.93500,5.304220848
186.93550,4.388637625
186.93600,1.03149914
186.93650,-3.546416975
186.93700,-7.208749868
186.93750,-8.429527499
186.93800,-7.819138683
186.93850,-5.987972237
186.93900,-2.630833752
186.93950,0.115915917
186.94000,2.252276771
186.94050,2.252276771
186.94100,2.252276771
186.94150,2.252276771
186.94200,1.336693548
186.94250,-0.7996673061
186.94300,-2.020444937
186.94350,-1.410056122
186.94400,0.115915917
186.94450,1.336693548
186.94500,1.947082363
186.94550,2.557471179
186.94600,3.473054402
186.94650,4.083443217
186.94700,4.083443217
186.94750,3.167859994
186.94800,1.641887955
186.94850,0.115915917
186.94900,0.115915917
186.94950,1.336693548
186.95000,2.557471179
186.95050,2.557471179
186.95100,1.336693548
186.95150,0.7263047324
186.95200,0.4211103247
186.95250,0.115915917
186.95300,-0.1892784907
186.95350,-0.7996673061
186.95400,-1.104861714
186.95450,-1.104861714
186.95500,-1.410056122
186.95550,-1.410056122
186.95600,-1.104861714
186.95650,-0.7996673061
186.95700,-0.1892784907
186.95750,1.03149914
186.95800,1.947082363
186.95850,1.336693548
186.95900,0.115915917
186.95950,0.4211103247
186.96000,2.557471179
186.96050,3.778248809
186.96100,1.947082363
186.96150,-0.7996673061
186.96200,-2.020444937
186.96250,-0.7996673061
186.96300,0.115915917
186.96350,-0.4944728984
186.96400,-0.4944728984
186.96450,0.4211103247
186.96500,1.03149914
186.96550,0.115915917
186.96600,-0.1892784907
186.96650,0.115915917
186.96700,0.115915917
186.96750,-0.4944728984
186.96800,-0.4944728984
186.96850,0.4211103247
186.96900,0.7263047324
186.96950,-1.104861714
186.97000,-2.93602816
186.97050,-0.4944728984
186.97100,3.473054402
186.97150,5.914609663
186.97200,4.99902644
186.97250,4.083443217
186.97300,4.083443217
186.97350,3.473054402
186.97400,2.252276771
186.97450,1.336693548
186.97500,2.862665586
186.97550,5.914609663
186.97600,8.661359333
186.97650,10.49252578
186.97700,10.79772019
186.97750,9.882136963
186.97800,8.661359333
186.97850,8.050970517
186.97900,8.050970517
186.97950,7.135387294
186.98000,5.304220848
186.98050,2.252276771
186.98100,-2.020444937
186.98150,-8.124333091
186.98200,-13.61783243
186.98250,-16.05938769
186.98300,-14.53341565
186.98350,-10.56588835
186.98400,-6.293166645
186.98450,-2.630833752
186.98500,0.115915917
186.98550,2.252276771
186.98600,2.862665586
186.98650,2.862665586
186.98700,2.557471179
186.98750,2.862665586
186.98800,3.167859994
186.98850,1.641887955
186.98900,-0.7996673061
186.98950,-3.241222568
186.99000,-3.546416975
186.99050,-2.630833752
186.99100,-2.020444937
186.99150,-1.410056122
186.99200,-0.1892784907
186.99250,0.4211103247
186.99300,-0.1892784907
186.99350,-3.241222568
186.99400,-8.124333091
186.99450,-14.83861006
186.99500,-22.77366466
186.99550,-26.74119196
186.99600,-21.85808144
186.99650,-11.48147158
186.99700,-3.546416975
186.99750,-2.325639345
186.99800,-4.156805791
186.99850,-2.93602816
186.99900,0.4211103247
186.99950,2.862665586
187.00000,3.778248809
187.00050,5.304220848
187.00100,8.050970517
187.00150,10.18733137
187.00200,9.882136963
187.00250,7.74577611
187.00300,4.99902644
187.00350,2.862665586
187.00400,1.641887955
187.00450,1.641887955
187.00500,2.557471179
187.00550,3.167859994
187.00600,3.473054402
187.00650,4.083443217
187.00700,4.693832032
187.00750,5.304220848
187.00800,6.219804071
187.00850,6.524998479
187.00900,6.830192886
187.00950,7.440581702
187.01000,7.74577611
187.01050,5.914609663
187.01100,0.7263047324
187.01150,-5.072389014
187.01200,-9.345110722
187.01250,-10.26069394
187.01300,-9.650305129
187.01350,-8.124333091
187.01400,-5.377583422
187.01450,-1.410056122
187.01500,1.336693548
187.01550,2.557471179
187.01600,2.557471179
187.01650,3.167859994
187.01700,3.778248809
187.01750,3.778248809
187.01800,3.778248809
187.01850,4.388637625
187.01900,4.693832032
187.01950,4.083443217
187.02000,4.083443217
187.02050,5.304220848
187.02100,6.219804071
187.02150,4.693832032
187.02200,1.03149914
187.02250,-2.325639345
187.02300,-4.767194606
187.02350,-6.598361052
187.02400,-7.513944276
187.02450,-7.208749868
187.02500,-5.987972237
187.02550,-4.462000199
187.02600,-3.241222568
187.02650,-1.104861714
187.02700,0.4211103247
187.02750,1.641887955
187.02800,2.862665586
187.02850,4.083443217
187.02900,5.304220848
187.02950,5.304220848
187.03000,4.693832032
187.03050,4.99902644
187.03100,6.524998479
187.03150,7.135387294
187.03200,5.914609663
187.03250,4.693832032
187.03300,4.693832032
187.03350,5.304220848
187.03400,4.99902644
187.03450,3.473054402
187.03500,1.641887955
187.03550,1.336693548
187.03600,1.947082363
187.03650,3.167859994
187.03700,3.167859994
187.03750,2.557471179
187.03800,1.947082363
187.03850,2.252276771
187.03900,2.862665586
187.03950,2.252276771
187.04000,0.7263047324
187.04050,-0.7996673061
187.04100,-1.715250529
187.04150,-1.715250529
187.04200,-0.1892784907
187.04250,1.641887955
187.04300,2.862665586
187.04350,1.03149914
187.04400,-2.325639345
187.04450,-5.072389014
187.04500,-6.598361052
187.04550,-7.208749868
187.04600,-6.598361052
187.04650,-3.546416975
187.04700,0.4211103247
187.04750,3.167859994
187.04800,4.083443217
187.04850,4.388637625
187.04900,4.388637625
187.04950,3.778248809
187.05000,2.557471179
187.05050,2.252276771
187.05100,2.557471179
187.05150,1.641887955
187.05200,-0.4944728984
187.05250,-2.325639345
187.05300,-2.325639345
187.05350,-0.7996673061
187.05400,0.4211103247
187.05450,1.641887955
187.05500,1.336693548
187.05550,0.115915917
187.05600,-1.410056122
187.05650,-1.410056122
187.05700,-0.4944728984
187.05750,0.4211103247
187.05800,1.03149914
187.05850,1.947082363
187.05900,2.252276771
187.05950,1.336693548
187.06000,0.7263047324
187.06050,1.947082363
187.06100,4.388637625
187.06150,4.99902644
187.06200,3.473054402
187.06250,1.336693548
187.06300,0.115915917
187.06350,-1.715250529
187.06400,-2.630833752
187.06450,-1.715250529
187.06500,0.115915917
187.06550,1.336693548
187.06600,0.7263047324
187.06650,-1.410056122
187.06700,-5.072389014
187.06750,-9.039916314
187.06800,-11.17627717
187.06850,-10.26069394
187.06900,-9.039916314
187.06950,-11.17627717
187.07000,-15.44899888
187.07050,-16.97497091
187.07100,-14.22822125
187.07150,-10.26069394
187.07200,-7.513944276
187.07250,-4.462000199
187.07300,1.641887955
187.07350,8.96655374
187.07400,13.54446986
187.07450,13.84966426
187.07500,11.10291459
187.07550,7.440581702
187.07600,4.693832032
187.07650,4.693832032
187.07700,6.219804071
187.07750,6.830192886
187.07800,5.609415256
187.07850,4.388637625
187.07900,3.778248809
187.07950,2.252276771
187.08000,-0.1892784907
187.08050,-2.93602816
187.08100,-3.546416975
187.08150,-2.630833752
187.08200,-2.93602816
187.08250,-4.462000199
187.08300,-5.987972237
187.08350,-6.293166645
187.08400,-5.682777829
187.08450,-5.682777829
187.08500,-5.377583422
187.08550,-4.767194606
187.08600,-4.462000199
187.08650,-4.767194606
187.08700,-4.767194606
187.08750,-3.546416975
187.08800,-0.7996673061
187.08850,1.336693548
187.08900,1.947082363
187.08950,1.336693548
187.09000,1.03149914
187.09050,1.641887955
187.09100,3.473054402
187.09150,4.388637625
187.09200,3.473054402
187.09250,1.641887955
187.09300,1.336693548
187.09350,3.167859994
187.09400,4.99902644
187.09450,4.693832032
187.09500,2.557471179
187.09550,1.336693548
187.09600,1.336693548
187.09650,1.336693548
187.09700,0.7263047324
187.09750,0.7263047324
187.09800,1.336693548
187.09850,2.252276771
187.09900,1.336693548
187.09950,0.115915917
187.10000,0.115915917
187.10050,1.03149914
187.10100,1.641887955
187.10150,1.947082363
187.10200,3.167859994
187.10250,5.304220848
187.10300,6.830192886
187.10350,6.830192886
187.10400,6.219804071
187.10450,6.524998479
187.10500,7.135387294
187.10550,7.135387294
187.10600,5.914609663
187.10650,4.083443217
187.10700,2.252276771
187.10750,0.115915917
187.10800,-3.851611383
187.10850,-9.039916314
187.10900,-13.31263802
187.10950,-14.22822125
187.11000,-12.70224921
187.11050,-10.56588835
187.11100,-8.734721906
187.11150,-6.598361052
187.11200,-4.462000199
187.11250,-4.156805791
187.11300,-5.377583422
187.11350,-6.293166645
187.11400,-5.682777829
187.11450,-5.072389014
187.11500,-5.987972237
187.11550,-7.513944276
187.11600,-7.208749868
187.11650,-5.682777829
187.11700,-4.156805791
187.11750,-4.156805791
187.11800,-4.462000199
187.11850,-5.072389014
187.11900,-5.682777829
187.11950,-6.293166645
187.12000,-6.598361052
187.12050,-6.293166645
187.12100,-5.377583422
187.12150,-1.715250529
187.12200,5.304220848
187.12250,13.54446986
187.12300,18.73277479
187.12350,18.12238597
187.12400,12.93408104
187.12450,6.830192886
187.12500,1.947082363
187.12550,0.115915917
187.12600,0.115915917
187.12650,1.03149914
187.12700,2.862665586
187.12750,4.99902644
187.12800,6.830192886
187.12850,7.440581702
187.12900,7.135387294
187.12950,6.830192886
187.13000,6.830192886
187.13050,7.135387294
187.13100,5.609415256
187.13150,2.557471179
187.13200,-0.1892784907
187.13250,-1.410056122
187.13300,-1.715250529
187.13350,-2.93602816
187.13400,-5.072389014
187.13450,-5.987972237
187.13500,-3.546416975
187.13550,-0.4944728984
187.13600,-0.7996673061
187.13650,-6.90355546
187.13700,-14.83861006
187.13750,-19.41652618
187.13800,-18.50094295
187.13850,-13.92302684
187.13900,-7.819138683
187.13950,-2.93602816
187.14000,-0.4944728984
187.14050,-1.715250529
187.14100,-5.987972237
187.14150,-10.56588835
187.14200,-13.31263802
187.14250,-12.3970548
187.14300,-9.650305129
187.14350,-8.429527499
187.14400,-9.955499537
187.14450,-12.09186039
187.14500,-11.48147158
187.14550,-7.819138683
187.14600,-3.851611383
187.14650,-2.325639345
187.14700,-2.020444937
187.14750,-0.1892784907
187.14800,4.083443217
187.14850,10.49252578
187.14900,17.20680275
187.14950,23.3106909
187.15000,27.2782182
187.15050,27.58341261
187.15100,24.53146853
187.15150,20.56394123
187.15200,16.29121953
187.15250,11.10291459
187.15300,5.304220848
187.15350,0.7263047324
187.15400,-2.325639345
187.15450,-5.072389014
187.15500,-7.819138683
187.15550,-9.039916314
187.15600,-7.208749868
187.15650,-4.156805791
187.15700,-2.630833752
187.15750,-3.241222568
187.15800,-4.462000199
187.15850,-5.377583422
187.15900,-6.598361052
187.15950,-6.90355546
187.16000,-5.682777829
187.16050,-2.93602816
187.16100,-0.7996673061
187.16150,-0.1892784907
187.16200,0.115915917
187.16250,1.336693548
187.16300,3.167859994
187.16350,4.693832032
187.16400,5.609415256
187.16450,6.830192886
187.16500,7.74577611
187.16550,8.050970517
187.16600,7.74577611
187.16650,8.356164925
187.16700,9.882136963
187.16750,11.408109
187.16800,11.408109
187.16850,9.271748148
187.16900,7.135387294
187.16950,5.914609663
187.17000,5.304220848
187.17050,4.693832032
187.17100,4.99902644
187.17150,5.914609663
187.17200,7.135387294
187.17250,6.524998479
187.17300,4.693832032
187.17350,2.557471179
187.17400,1.947082363
187.17450,2.252276771
187.17500,2.252276771
187.17550,0.7263047324
187.17600,-0.4944728984
187.17650,-0.7996673061
187.17700,-0.1892784907
187.17750,0.4211103247
187.17800,0.4211103247
187.17850,1.03149914
187.17900,2.862665586
187.17950,5.609415256
187.18000,7.440581702
187.18050,7.135387294
187.18100,5.914609663
187.18150,5.609415256
187.18200,5.914609663
187.18250,5.609415256
187.18300,4.99902644
187.18350,4.693832032
187.18400,4.388637625
187.18450,3.167859994
187.18500,1.03149914
187.18550,-1.410056122
187.18600,-3.241222568
187.18650,-4.462000199
187.18700,-4.767194606
187.18750,-4.156805791
187.18800,-2.93602816
187.18850,-3.241222568
187.18900,-3.851611383
187.18950,-3.851611383
187.19000,-2.630833752
187.19050,-2.020444937
187.19100,-2.630833752
187.19150,-3.546416975
187.19200,-5.377583422
187.19250,-7.513944276
187.19300,-9.039916314
187.19350,-8.124333091
187.19400,-5.377583422
187.19450,-4.156805791
187.19500,-5.072389014
187.19550,-6.293166645
187.19600,-7.513944276
187.19650,-9.345110722
187.19700,-12.09186039
187.19750,-12.09186039
187.19800,-8.734721906
187.19850,-4.462000199
187.19900,-1.410056122
187.19950,1.641887955
187.20000,6.830192886
187.20050,10.49252578
187.20100,10.18733137
187.20150,7.440581702
187.20200,5.304220848
187.20250,5.609415256
187.20300,7.440581702
187.20350,9.882136963
187.20400,12.62888663
187.20450,12.32369223
187.20500,8.96655374
187.20550,4.388637625
187.20600,1.641887955
187.20650,0.115915917
187.20700,-2.325639345
187.20750,-4.462000199
187.20800,-4.156805791
187.20850,-3.241222568
187.20900,-4.156805791
187.20950,-8.429527499
187.21000,-12.3970548
187.21050,-15.14380447
187.21100,-17.28016532
187.21150,-19.72172058
187.21200,-21.24769262
187.21250,-20.3321094
187.21300,-16.97497091
187.21350,-15.44899888
187.21400,-16.97497091
187.21450,-18.80613736
187.21500,-14.83861006
187.21550,-4.767194606
187.21600,5.304220848
187.21650,8.96655374
187.21700,7.74577611
187.21750,7.74577611
187.21800,9.882136963
187.21850,10.18733137
187.21900,7.135387294
187.21950,3.778248809
187.22000,3.473054402
187.22050,4.083443217
187.22100,3.778248809
187.22150,2.557471179
187.22200,2.252276771
187.22250,2.252276771
187.22300,2.252276771
187.22350,3.473054402
187.22400,5.914609663
187.22450,7.74577611
187.22500,7.74577611
187.22550,7.74577611
187.22600,8.356164925
187.22650,9.271748148
187.22700,8.96655374
187.22750,8.356164925
187.22800,8.050970517
187.22850,7.135387294
187.22900,4.99902644
187.22950,3.167859994
187.23000,3.473054402
187.23050,4.693832032
187.23100,4.99902644
187.23150,3.473054402
187.23200,0.115915917
187.23250,-3.546416975
187.23300,-7.819138683
187.23350,-9.955499537
187.23400,-8.124333091
187.23450,-5.377583422
187.23500,-3.851611383
187.23550,-4.156805791
187.23600,-4.462000199
187.23650,-3.546416975
187.23700,-1.715250529
187.23750,0.4211103247
187.23800,2.862665586
187.23850,3.167859994
187.23900,2.252276771
187.23950,1.947082363
187.24000,2.862665586
187.24050,3.473054402
187.24100,2.557471179
187.24150,1.641887955
187.24200,1.947082363
187.24250,2.862665586
187.24300,2.252276771
187.24350,1.641887955
187.24400,2.252276771
187.24450,2.557471179
187.24500,0.4211103247
187.24550,-2.325639345
187.24600,-2.325639345
187.24650,0.4211103247
187.24700,1.03149914
187.24750,-1.715250529
187.24800,-4.767194606
187.24850,-4.767194606
187.24900,-3.546416975
187.24950,-3.241222568
187.25000,-2.020444937
187.25050,1.336693548
187.25100,4.99902644
187.25150,5.609415256
187.25200,4.388637625
187.25250,3.778248809
187.25300,3.778248809
187.25350,2.557471179
187.25400,0.4211103247
187.25450,0.115915917
187.25500,1.336693548
187.25550,2.557471179
187.25600,1.03149914
187.25650,-1.104861714
187.25700,-1.104861714
187.25750,1.336693548
187.25800,3.778248809
187.25850,3.167859994
187.25900,0.7263047324
187.25950,-1.410056122
187.26000,-3.241222568
187.26050,-3.851611383
187.26100,-3.241222568
187.26150,-2.325639345
187.26200,-2.93602816
187.26250,-5.072389014
187.26300,-6.90355546
187.26350,-7.513944276
187.26400,-7.513944276
187.26450,-7.208749868
187.26500,-4.462000199
187.26550,0.115915917
187.26600,3.778248809
187.26650,2.862665586
187.26700,-0.1892784907
187.26750,-2.630833752
187.26800,-5.072389014
187.26850,-8.124333091
187.26900,-9.345110722
187.26950,-5.072389014
187.27000,3.473054402
187.27050,10.49252578
187.27100,12.93408104
187.27150,12.32369223
187.27200,11.10291459
187.27250,8.661359333
187.27300,5.914609663
187.27350,5.304220848
187.27400,6.524998479
187.27450,6.219804071
187.27500,3.778248809
187.27550,1.03149914
187.27600,0.115915917
187.27650,-0.1892784907
187.27700,-2.630833752
187.27750,-5.377583422
187.27800,-5.682777829
187.27850,-4.156805791
187.27900,-2.93602816
187.27950,-2.325639345
187.28000,-1.410056122
187.28050,-0.1892784907
187.28100,-0.1892784907
187.28150,-1.104861714
187.28200,-1.104861714
187.28250,0.115915917
187.28300,1.336693548
187.28350,0.4211103247
187.28400,-0.4944728984
187.28450,-0.7996673061
187.28500,0.4211103247
187.28550,1.947082363
187.28600,2.252276771
187.28650,1.641887955
187.28700,1.641887955
187.28750,2.557471179
187.28800,4.388637625
187.28850,6.219804071
187.28900,7.135387294
187.28950,4.99902644
187.29000,0.115915917
187.29050,-5.072389014
187.29100,-6.598361052
187.29150,-4.462000199
187.29200,-2.020444937
187.29250,-1.410056122
187.29300,-2.020444937
187.29350,-2.020444937
187.29400,-1.715250529
187.29450,-3.241222568
187.29500,-6.598361052
187.29550,-11.17627717
187.29600,-15.44899888
187.29650,-17.58535973
187.29700,-17.58535973
187.29750,-16.66977651
187.29800,-16.05938769
187.29850,-15.14380447
187.29900,-13.00744361
187.29950,-10.56588835
187.30000,-9.039916314
187.30050,-8.124333091
187.30100,-4.767194606
187.30150,3.167859994
187.30200,13.23927545
187.30250,20.25874683
187.30300,19.95355242
187.30350,13.84966426
187.30400,6.219804071
187.30450,2.252276771
187.30500,3.167859994
187.30550,6.830192886
187.30600,8.356164925
187.30650,6.219804071
187.30700,2.557471179
187.30750,0.115915917
187.30800,-1.410056122
187.30850,-1.410056122
187.30900,-0.1892784907
187.30950,1.336693548
187.31000,1.641887955
187.31050,0.115915917
187.31100,-0.7996673061
187.31150,0.115915917
187.31200,2.557471179
187.31250,4.083443217
187.31300,2.557471179
187.31350,-1.104861714
187.31400,-4.767194606
187.31450,-5.682777829
187.31500,-4.462000199
187.31550,-2.325639345
187.31600,-0.4944728984
187.31650,1.03149914
187.31700,3.167859994
187.31750,3.167859994
187.31800,0.7263047324
187.31850,-1.715250529
187.31900,-0.1892784907
187.31950,4.083443217
187.32000,7.74577611
187.32050,7.440581702
187.32100,6.219804071
187.32150,7.135387294
187.32200,9.271748148
187.32250,10.18733137
187.32300,9.576942556
187.32350,8.356164925
187.32400,6.830192886
187.32450,5.914609663
187.32500,5.914609663
187.32550,7.135387294
187.32600,9.576942556
187.32650,12.32369223
187.32700,14.76524749
187.32750,15.3756363
187.32800,13.23927545
187.32850,8.661359333
187.32900,4.388637625
187.32950,1.641887955
187.33000,-0.7996673061
187.33050,-4.462000199
187.33100,-7.208749868
187.33150,-6.90355546
187.33200,-5.377583422
187.33250,-6.293166645
187.33300,-9.345110722
187.33350,-11.17627717
187.33400,-10.26069394
187.33450,-7.819138683
187.33500,-6.598361052
187.33550,-6.293166645
187.33600,-6.293166645
187.33650,-5.987972237
187.33700,-5.987972237
187.33750,-6.90355546
187.33800,-7.513944276
187.33850,-8.124333091
187.33900,-8.429527499
187.33950,-8.734721906
187.34000,-8.734721906
187.34050,-8.429527499
187.34100,-5.987972237
187.34150,-1.715250529
187.34200,2.862665586
187.34250,7.135387294
187.34300,10.49252578
187.34350,12.62888663
187.34400,13.84966426
187.34450,15.07044189
187.34500,16.29121953
187.34550,17.51199716
187.34600,17.20680275
187.34650,13.54446986
187.34700,8.356164925
187.34750,4.693832032
187.34800,3.167859994
187.34850,2.557471179
187.34900,1.03149914
187.34950,-0.1892784907
187.35000,0.115915917
187.35050,2.252276771
187.35100,4.388637625
187.35150,3.778248809
187.35200,0.115915917
187.35250,-3.546416975
187.35300,-5.072389014
187.35350,-3.546416975
187.35400,-0.7996673061
187.35450,0.7263047324
187.35500,1.336693548
187.35550,1.947082363
187.35600,3.167859994
187.35650,4.693832032
187.35700,4.693832032
187.35750,2.862665586
187.35800,-0.1892784907
187.35850,-3.546416975
187.35900,-6.293166645
187.35950,-8.124333091
187.36000,-9.345110722
187.36050,-10.26069394
187.36100,-10.56588835
187.36150,-11.78666598
187.36200,-14.53341565
187.36250,-17.28016532
187.36300,-16.3645821
187.36350,-11.17627717
187.36400,-4.767194606
187.36450,-2.020444937
187.36500,-4.462000199
187.36550,-8.734721906
187.36600,-9.650305129
187.36650,-5.682777829
187.36700,0.4211103247
187.36750,5.609415256
187.36800,6.219804071
187.36850,3.167859994
187.36900,-0.1892784907
187.36950,-1.104861714
187.37000,0.7263047324
187.37050,3.778248809
187.37100,4.99902644
187.37150,3.167859994
187.37200,0.4211103247
187.37250,-1.104861714
187.37300,-1.715250529
187.37350,-2.020444937
187.37400,-1.715250529
187.37450,-0.4944728984
187.37500,0.4211103247
187.37550,0.4211103247
187.37600,-1.410056122
187.37650,-3.241222568
187.37700,-3.851611383
187.37750,-3.851611383
187.37800,-5.072389014
187.37850,-7.208749868
187.37900,-7.513944276
187.37950,-5.682777829
187.38000,-4.156805791
187.38050,-4.462000199
187.38100,-5.072389014
187.38150,-3.546416975
187.38200,-0.7996673061
187.38250,0.7263047324
187.38300,1.336693548
187.38350,1.947082363
187.38400,2.557471179
187.38450,1.947082363
187.38500,1.03149914
187.38550,1.336693548
187.38600,2.557471179
187.38650,3.167859994
187.38700,2.557471179
187.38750,2.252276771
187.38800,2.557471179
187.38850,1.947082363
187.38900,0.7263047324
187.38950,0.115915917
187.39000,0.4211103247
187.39050,0.7263047324
187.39100,0.4211103247
187.39150,0.115915917
187.39200,0.115915917
187.39250,-0.1892784907
187.39300,-1.104861714
187.39350,-1.410056122
187.39400,-0.4944728984
187.39450,-0.7996673061
187.39500,-2.325639345
187.39550,-2.630833752
187.39600,-0.7996673061
187.39650,0.7263047324
187.39700,0.4211103247
187.39750,-1.104861714
187.39800,-1.410056122
187.39850,-0.4944728984
187.39900,-0.7996673061
187.39950,-1.715250529
187.40000,-2.020444937
187.40050,-1.410056122
187.40100,-0.4944728984
187.40150,-0.1892784907
187.40200,0.115915917
187.40250,0.4211103247
187.40300,1.03149914
187.40350,1.641887955
187.40400,1.336693548
187.40450,0.115915917
187.40500,-0.1892784907
187.40550,1.336693548
187.40600,3.473054402
187.40650,3.167859994
187.40700,0.115915917
187.40750,-2.325639345
187.40800,-1.410056122
187.40850,1.03149914
187.40900,2.252276771
187.40950,1.947082363
187.41000,2.252276771
187.41050,2.862665586
187.41100,2.862665586
187.41150,2.862665586
187.41200,3.473054402
187.41250,4.388637625
187.41300,4.388637625
187.41350,3.167859994
187.41400,1.336693548
187.41450,0.115915917
187.41500,-1.410056122
187.41550,-2.630833752
187.41600,-2.93602816
187.41650,-2.93602816
187.41700,-2.630833752
187.41750,-1.715250529
187.41800,0.4211103247
187.41850,2.557471179
187.41900,2.862665586
187.41950,1.641887955
187.42000,0.7263047324
187.42050,0.7263047324
187.42100,1.336693548
187.42150,1.336693548
187.42200,1.03149914
187.42250,0.115915917
187.42300,-0.4944728984
187.42350,-1.410056122
187.42400,-1.715250529
187.42450,-1.715250529
187.42500,-1.104861714
187.42550,-0.4944728984
187.42600,-1.104861714
187.42650,-2.630833752
187.42700,-3.546416975
187.42750,-2.630833752
187.42800,-0.4944728984
187.42850,0.4211103247
187.42900,0.115915917
187.42950,0.115915917
187.43000,1.641887955
187.43050,4.99902644
187.43100,9.271748148
187.43150,11.71330341
187.43200,9.271748148
187.43250,3.167859994
187.43300,-2.325639345
187.43350,-2.325639345
187.43400,1.03149914
187.43450,2.862665586
187.43500,0.7263047324
187.43550,-1.104861714
187.43600,0.115915917
187.43650,4.083443217
187.43700,7.135387294
187.43750,8.050970517
187.43800,8.050970517
187.43850,7.440581702
187.43900,4.99902644
187.43950,0.4211103247
187.44000,-2.630833752
187.44050,-2.020444937
187.44100,1.641887955
187.44150,5.304220848
187.44200,5.304220848
187.44250,4.388637625
187.44300,4.388637625
187.44350,5.609415256
187.44400,5.914609663
187.44450,4.083443217
187.44500,1.947082363
187.44550,0.115915917
187.44600,-1.410056122
187.44650,-3.241222568
187.44700,-3.241222568
187.44750,0.115915917
187.44800,3.778248809
187.44850,6.219804071
187.44900,7.440581702
187.44950,7.74577611
187.45000,6.830192886
187.45050,4.693832032
187.45100,2.252276771
187.45150,1.03149914
187.45200,0.4211103247
187.45250,-1.715250529
187.45300,-5.072389014
187.45350,-8.124333091
187.45400,-9.039916314
187.45450,-7.819138683
187.45500,-4.767194606
187.45550,-1.104861714
187.45600,1.641887955
187.45650,2.252276771
187.45700,1.336693548
187.45750,0.7263047324
187.45800,0.7263047324
187.45850,-0.7996673061
187.45900,-5.072389014
187.45950,-9.955499537
187.46000,-13.00744361
187.46050,-12.3970548
187.46100,-7.513944276
187.46150,-0.7996673061
187.46200,4.388637625
187.46250,5.914609663
187.46300,6.219804071
187.46350,8.356164925
187.46400,11.408109
187.46450,12.62888663
187.46500,10.18733137
187.46550,6.219804071
187.46600,2.557471179
187.46650,0.115915917
187.46700,-1.410056122
187.46750,-2.93602816
187.46800,-5.377583422
187.46850,-9.650305129
187.46900,-13.92302684
187.46950,-15.44899888
187.47000,-14.83861006
187.47050,-13.92302684
187.47100,-12.3970548
187.47150,-7.819138683
187.47200,-1.104861714
187.47250,4.388637625
187.47300,6.219804071
187.47350,6.219804071
187.47400,6.524998479
187.47450,5.914609663
187.47500,3.778248809
187.47550,1.03149914
187.47600,0.115915917
187.47650,-0.1892784907
187.47700,-1.410056122
187.47750,-2.020444937
187.47800,-1.104861714
187.47850,0.115915917
187.47900,0.4211103247
187.47950,0.115915917
187.48000,1.03149914
187.48050,1.947082363
187.48100,2.252276771
187.48150,3.167859994
187.48200,5.914609663
187.48250,8.96655374
187.48300,8.661359333
187.48350,5.914609663
187.48400,4.388637625
187.48450,4.99902644
187.48500,5.609415256
187.48550,4.99902644
187.48600,4.693832032
187.48650,5.304220848
187.48700,4.99902644
187.48750,2.862665586
187.48800,1.03149914
187.48850,1.336693548
187.48900,2.252276771
187.48950,1.947082363
187.49000,0.4211103247
187.49050,-0.7996673061
187.49100,-2.630833752
187.49150,-5.682777829
187.49200,-9.039916314
187.49250,-11.17627717
187.49300,-11.48147158
187.49350,-11.17627717
187.49400,-11.48147158
187.49450,-10.87108276
187.49500,-9.039916314
187.49550,-5.682777829
187.49600,-2.020444937
187.49650,2.557471179
187.49700,8.96655374
187.49750,14.46005308
187.49800,15.98602512
187.49850,13.84966426
187.49900,11.71330341
187.49950,11.71330341
187.50000,12.01849782
187.50050,9.576942556
187.50100,4.693832032
187.50150,1.03149914
187.50200,0.115915917
187.50250,-0.7996673061
187.50300,-2.93602816
187.50350,-5.377583422
187.50400,-6.598361052
187.50450,-6.90355546
187.50500,-7.513944276
187.50550,-6.293166645
187.50600,-3.241222568
187.50650,-0.1892784907
187.50700,-0.1892784907
187.50750,-1.410056122
187.50800,-1.410056122
187.50850,-0.4944728984
187.50900,-1.104861714
187.50950,-2.325639345
187.51000,-2.630833752
187.51050,-2.020444937
187.51100,-3.241222568
187.51150,-6.293166645
187.51200,-7.513944276
187.51250,-5.377583422
187.51300,-2.020444937
187.51350,-0.4944728984
187.51400,-0.7996673061
187.51450,-1.715250529
187.51500,-2.325639345
187.51550,-2.630833752
187.51600,-1.104861714
187.51650,1.641887955
187.51700,4.693832032
187.51750,5.609415256
187.51800,4.388637625
187.51850,3.167859994
187.51900,2.862665586
187.51950,3.473054402
187.52000,4.083443217
187.52050,2.252276771
187.52100,-1.410056122
187.52150,-5.987972237
187.52200,-8.124333091
187.52250,-8.429527499
187.52300,-9.955499537
187.52350,-13.92302684
187.52400,-18.19574855
187.52450,-20.02691499
187.52500,-19.41652618
187.52550,-17.28016532
187.52600,-14.22822125
187.52650,-10.56588835
187.52700,-6.90355546
187.52750,-3.241222568
187.52800,0.4211103247
187.52850,3.778248809
187.52900,4.083443217
187.52950,0.7263047324
187.53000,-3.241222568
187.53050,-5.072389014
187.53100,-3.241222568
187.53150,-0.4944728984
187.53200,0.7263047324
187.53250,1.336693548
187.53300,1.336693548
187.53350,1.641887955
187.53400,1.336693548
187.53450,0.115915917
187.53500,-0.7996673061
187.53550,-0.7996673061
187.53600,0.7263047324
187.53650,1.947082363
187.53700,1.641887955
187.53750,-0.1892784907
187.53800,-2.325639345
187.53850,-2.93602816
187.53900,-2.020444937
187.53950,-0.4944728984
187.54000,0.7263047324
187.54050,1.336693548
187.54100,0.115915917
187.54150,-1.715250529
187.54200,-1.715250529
187.54250,2.557471179
187.54300,9.271748148
187.54350,13.84966426
187.54400,14.15485867
187.54450,12.62888663
187.54500,11.71330341
187.54550,12.01849782
187.54600,12.01849782
187.54650,11.71330341
187.54700,12.01849782
187.54750,12.32369223
187.54800,11.408109
187.54850,9.576942556
187.54900,7.135387294
187.54950,4.388637625
187.55000,0.4211103247
187.55050,-5.377583422
187.55100,-11.17627717
187.55150,-14.22822125
187.55200,-13.92302684
187.55250,-11.78666598
187.55300,-8.734721906
187.55350,-5.987972237
187.55400,-4.156805791
187.55450,-3.546416975
187.55500,-3.851611383
187.55550,-3.241222568
187.55600,-1.410056122
187.55650,0.7263047324
187.55700,1.641887955
187.55750,1.03149914
187.55800,0.115915917
187.55850,-0.7996673061
187.55900,-0.4944728984
187.55950,0.115915917
187.56000,0.4211103247
187.56050,1.641887955
187.56100,3.473054402
187.56150,4.083443217
187.56200,2.252276771
187.56250,0.115915917
187.56300,-0.1892784907
187.56350,1.641887955
187.56400,3.778248809
187.56450,4.99902644
187.56500,5.914609663
187.56550,6.830192886
187.56600,7.74577611
187.56650,7.440581702
187.56700,6.524998479
187.56750,5.304220848
187.56800,4.388637625
187.56850,4.99902644
187.56900,6.524998479
187.56950,7.440581702
187.57000,6.524998479
187.57050,4.99902644
187.57100,4.99902644
187.57150,5.914609663
187.57200,5.304220848
187.57250,4.083443217
187.57300,3.473054402
187.57350,4.388637625
187.57400,4.083443217
187.57450,1.947082363
187.57500,0.115915917
187.57550,0.115915917
187.57600,-0.4944728984
187.57650,-4.767194606
187.57700,-11.17627717
187.57750,-15.14380447
187.57800,-13.92302684
187.57850,-9.955499537
187.57900,-6.293166645
187.57950,-4.462000199
187.58000,-3.546416975
187.58050,-2.93602816
187.58100,-2.325639345
187.58150,-2.020444937
187.58200,-1.104861714
187.58250,-0.4944728984
187.58300,-0.4944728984
187.58350,-1.104861714
187.58400,-1.104861714
187.58450,0.115915917
187.58500,1.641887955
187.58550,1.641887955
187.58600,1.03149914
187.58650,0.4211103247
187.58700,0.115915917
187.58750,-0.7996673061
187.58800,-2.020444937
187.58850,-3.241222568
187.58900,-3.241222568
187.58950,-2.630833752
187.59000,-1.104861714
187.59050,1.947082363
187.59100,5.304220848
187.59150,6.830192886
187.59200,6.219804071
187.59250,5.304220848
187.59300,4.388637625
187.59350,2.862665586
187.59400,1.03149914
187.59450,0.7263047324
187.59500,1.947082363
187.59550,3.167859994
187.59600,2.557471179
187.59650,0.115915917
187.59700,-1.104861714
187.59750,-0.1892784907
187.59800,1.336693548
187.59850,1.641887955
187.59900,0.4211103247
187.59950,0.115915917
187.60000,1.03149914
187.60050,2.557471179
187.60100,1.947082363
187.60150,0.115915917
187.60200,-1.104861714
187.60250,-1.104861714
187.60300,-1.104861714
187.60350,-1.715250529
187.60400,-2.630833752
187.60450,-3.851611383
187.60500,-5.682777829
187.60550,-6.90355546
187.60600,-4.767194606
187.60650,0.4211103247
187.60700,6.219804071
187.60750,8.356164925
187.60800,7.440581702
187.60850,6.219804071
187.60900,6.219804071
187.60950,7.135387294
187.61000,7.440581702
187.61050,7.74577611
187.61100,7.135387294
187.61150,6.219804071
187.61200,5.304220848
187.61250,4.99902644
187.61300,4.693832032
187.61350,2.862665586
187.61400,-1.410056122
187.61450,-7.208749868
187.61500,-11.48147158
187.61550,-13.31263802
187.61600,-12.3970548
187.61650,-9.955499537
187.61700,-5.987972237
187.61750,-2.325639345
187.61800,0.4211103247
187.61850,1.947082363
187.61900,2.557471179
187.61950,3.473054402
187.62000,4.083443217
187.62050,4.388637625
187.62100,4.388637625
187.62150,4.693832032
187.62200,4.99902644
187.62250,4.388637625
187.62300,3.167859994
187.62350,2.252276771
187.62400,2.557471179
187.62450,4.388637625
187.62500,5.609415256
187.62550,5.609415256
187.62600,4.693832032
187.62650,3.167859994
187.62700,1.641887955
187.62750,0.115915917
187.62800,-1.104861714
187.62850,-1.104861714
187.62900,-0.7996673061
187.62950,-1.410056122
187.63000,-2.325639345
187.63050,-2.325639345
187.63100,-1.410056122
187.63150,-0.7996673061
187.63200,-0.7996673061
187.63250,-1.104861714
187.63300,-2.020444937
187.63350,-3.241222568
187.63400,-4.462000199
187.63450,-4.767194606
187.63500,-4.156805791
187.63550,-4.462000199
187.63600,-6.598361052
187.63650,-10.26069394
187.63700,-13.92302684
187.63750,-16.3645821
187.63800,-17.58535973
187.63850,-17.89055414
187.63900,-16.97497091
187.63950,-13.92302684
187.64000,-9.039916314
187.64050,-3.851611383
187.64100,0.115915917
187.64150,3.167859994
187.64200,6.219804071
187.64250,8.96655374
187.64300,9.882136963
187.64350,7.440581702
187.64400,4.083443217
187.64450,3.167859994
187.64500,4.693832032
187.64550,6.524998479
187.64600,6.830192886
187.64650,5.914609663
187.64700,4.99902644
187.64750,3.778248809
187.64800,2.557471179
187.64850,1.947082363
187.64900,3.473054402
187.64950,4.693832032
187.65000,3.778248809
187.65050,1.336693548
187.65100,-0.4944728984
187.65150,-1.715250529
187.65200,-2.630833752
187.65250,-3.241222568
187.65300,-2.93602816
187.65350,-2.325639345
187.65400,-2.020444937
187.65450,-0.7996673061
187.65500,1.641887955
187.65550,5.304220848
187.65600,7.135387294
187.65650,6.524998479
187.65700,4.388637625
187.65750,3.167859994
187.65800,2.557471179
187.65850,1.947082363
187.65900,1.03149914
187.65950,-0.1892784907
187.66000,-2.020444937
187.66050,-3.546416975
187.66100,-3.546416975
187.66150,-3.546416975
187.66200,-5.987972237
187.66250,-10.26069394
187.66300,-12.3970548
187.66350,-10.56588835
187.66400,-7.513944276
187.66450,-6.293166645
187.66500,-6.293166645
187.66550,-5.987972237
187.66600,-4.767194606
187.66650,-4.767194606
187.66700,-5.987972237
187.66750,-5.987972237
187.66800,-3.546416975
187.66850,0.115915917
187.66900,2.252276771
187.66950,3.167859994
187.67000,4.083443217
187.67050,5.609415256
187.67100,7.440581702
187.67150,8.96655374
187.67200,10.18733137
187.67250,10.79772019
187.67300,10.18733137
187.67350,8.96655374
187.67400,8.661359333
187.67450,8.96655374
187.67500,8.661359333
187.67550,5.609415256
187.67600,0.115915917
187.67650,-5.682777829
187.67700,-9.650305129
187.67750,-11.17627717
187.67800,-11.17627717
187.67850,-10.87108276
187.67900,-10.87108276
187.67950,-10.26069394
187.68000,-8.734721906
187.68050,-6.293166645
187.68100,-4.462000199
187.68150,-2.020444937
187.68200,1.641887955
187.68250,6.830192886
187.68300,9.271748148
187.68350,8.96655374
187.68400,8.356164925
187.68450,10.18733137
187.68500,12.01849782
187.68550,10.49252578
187.68600,7.440581702
187.68650,7.135387294
187.68700,9.576942556
187.68750,11.71330341
187.68800,10.79772019
187.68850,8.96655374
187.68900,5.609415256
187.68950,0.115915917
187.69000,-7.513944276
187.69050,-12.3970548
187.69100,-12.09186039
187.69150,-9.650305129
187.69200,-9.345110722
187.69250,-10.26069394
187.69300,-9.345110722
187.69350,-6.90355546
187.69400,-4.767194606
187.69450,-3.851611383
187.69500,-2.325639345
187.69550,-0.7996673061
187.69600,-0.7996673061
187.69650,-2.325639345
187.69700,-2.325639345
187.69750,-0.4944728984
187.69800,0.4211103247
187.69850,0.115915917
187.69900,-0.4944728984
187.69950,0.7263047324
187.70000,3.473054402
187.70050,4.99902644
187.70100,5.914609663
187.70150,7.135387294
187.70200,8.050970517
187.70250,6.830192886
187.70300,4.99902644
187.70350,4.083443217
187.70400,4.388637625
187.70450,3.473054402
187.70500,1.641887955
187.70550,1.03149914
187.70600,2.252276771
187.70650,3.778248809
187.70700,4.083443217
187.70750,3.167859994
187.70800,1.336693548
187.70850,-1.104861714
187.70900,-5.682777829
187.70950,-9.650305129
187.71000,-10.26069394
187.71050,-8.124333091
187.71100,-5.377583422
187.71150,-4.156805791
187.71200,-3.851611383
187.71250,-3.851611383
187.71300,-2.93602816
187.71350,-1.104861714
187.71400,-0.7996673061
187.71450,-2.325639345
187.71500,-5.072389014
187.71550,-6.293166645
187.71600,-3.851611383
187.71650,0.115915917
187.71700,3.778248809
187.71750,5.914609663
187.71800,6.830192886
187.71850,7.135387294
187.71900,6.830192886
187.71950,5.914609663
187.72000,5.914609663
187.72050,6.524998479
187.72100,5.609415256
187.72150,3.473054402
187.72200,1.947082363
187.72250,3.167859994
187.72300,5.304220848
187.72350,5.609415256
187.72400,4.99902644
187.72450,5.609415256
187.72500,6.524998479
187.72550,6.219804071
187.72600,4.99902644
187.72650,5.304220848
187.72700,6.524998479
187.72750,6.830192886
187.72800,5.304220848
187.72850,4.388637625
187.72900,4.693832032
187.72950,2.862665586
187.73000,-1.715250529
187.73050,-6.293166645
187.73100,-8.429527499
187.73150,-9.650305129
187.73200,-11.48147158
187.73250,-12.3970548
187.73300,-10.26069394
187.73350,-7.208749868
187.73400,-6.598361052
187.73450,-7.513944276
187.73500,-5.682777829
187.73550,-0.1892784907
187.73600,4.99902644
187.73650,7.74577611
187.73700,7.440581702
187.73750,5.609415256
187.73800,3.473054402
187.73850,2.557471179
187.73900,3.778248809
187.73950,5.304220848
187.74000,4.99902644
187.74050,3.167859994
187.74100,1.336693548
187.74150,0.4211103247
187.74200,-0.4944728984
187.74250,-2.93602816
187.74300,-5.682777829
187.74350,-6.90355546
187.74400,-6.293166645
187.74450,-4.767194606
187.74500,-2.93602816
187.74550,-1.715250529
187.74600,-1.104861714
187.74650,-0.4944728984
187.74700,0.115915917
187.74750,0.4211103247
187.74800,-0.7996673061
187.74850,-3.546416975
187.74900,-6.293166645
187.74950,-8.124333091
187.75000,-7.819138683
187.75050,-6.598361052
187.75100,-5.987972237
187.75150,-6.598361052
187.75200,-6.598361052
187.75250,-4.767194606
187.75300,-2.93602816
187.75350,-2.93602816
187.75400,-2.630833752
187.75450,0.115915917
187.75500,4.693832032
187.75550,8.356164925
187.75600,8.661359333
187.75650,8.050970517
187.75700,8.050970517
187.75750,8.050970517
187.75800,6.219804071
187.75850,4.083443217
187.75900,2.862665586
187.75950,1.641887955
187.76000,0.115915917
187.76050,-0.7996673061
187.76100,-1.104861714
187.76150,-0.7996673061
187.76200,-0.4944728984
187.76250,-0.7996673061
187.76300,-1.410056122
187.76350,-1.104861714
187.76400,0.115915917
187.76450,1.641887955
187.76500,2.557471179
187.76550,2.862665586
187.76600,2.862665586
187.76650,3.473054402
187.76700,3.473054402
187.76750,2.252276771
187.76800,0.115915917
187.76850,-3.241222568
187.76900,-5.682777829
187.76950,-6.293166645
187.77000,-5.682777829
187.77050,-5.987972237
187.77100,-7.513944276
187.77150,-6.90355546
187.77200,-3.241222568
187.77250,1.03149914
187.77300,3.167859994
187.77350,3.167859994
187.77400,4.388637625
187.77450,8.356164925
187.77500,11.408109
187.77550,10.79772019
187.77600,8.050970517
187.77650,5.914609663
187.77700,5.609415256
187.77750,5.914609663
187.77800,5.609415256
187.77850,4.083443217
187.77900,0.4211103247
187.77950,-3.546416975
187.78000,-5.682777829
187.78050,-5.072389014
187.78100,-5.682777829
187.78150,-9.955499537
187.78200,-15.14380447
187.78250,-16.66977651
187.78300,-13.61783243
187.78350,-10.26069394
187.78400,-7.819138683
187.78450,-5.377583422
187.78500,-1.104861714
187.78550,2.252276771
187.78600,1.947082363
187.78650,-1.410056122
187.78700,-4.767194606
187.78750,-6.90355546
187.78800,-9.345110722
187.78850,-12.70224921
187.78900,-15.14380447
187.78950,-14.53341565
187.79000,-11.78666598
187.79050,-10.56588835
187.79100,-12.09186039
187.79150,-14.83861006
187.79200,-15.44899888
187.79250,-13.00744361
187.79300,-10.26069394
187.79350,-12.3970548
187.79400,-19.11133177
187.79450,-23.99444229
187.79500,-20.02691499
187.79550,-6.598361052
187.79600,10.79772019
187.79650,29.10938465
187.79700,44.67429944
187.79750,52.30415963
187.79800,49.55740996
187.79850,40.70677214
187.79900,35.2132728
187.79950,34.90807839
187.80000,33.99249517
187.80050,27.88860702
187.80100,19.95355242
187.80150,15.07044189
187.80200,13.84966426
187.80250,12.32369223
187.80300,9.271748148
187.80350,5.609415256
187.80400,2.252276771
187.80450,-1.104861714
187.80500,-5.072389014
187.80550,-8.734721906
187.80600,-12.09186039
187.80650,-15.14380447
187.80700,-16.97497091
187.80750,-16.05938769
187.80800,-12.70224921
187.80850,-5.682777829
187.80900,2.862665586
187.80950,9.576942556
187.81000,11.408109
187.81050,8.356164925
187.81100,4.693832032
187.81150,2.252276771
187.81200,0.115915917
187.81250,-1.715250529
187.81300,-2.630833752
187.81350,-2.630833752
187.81400,-3.241222568
187.81450,-4.767194606
187.81500,-5.377583422
187.81550,-4.767194606
187.81600,-4.462000199
187.81650,-5.072389014
187.81700,-5.682777829
187.81750,-5.682777829
187.81800,-5.682777829
187.81850,-4.462000199
187.81900,-2.020444937
187.81950,0.7263047324
187.82000,2.252276771
187.82050,2.557471179
187.82100,3.473054402
187.82150,4.693832032
187.82200,4.083443217
187.82250,2.252276771
187.82300,1.336693548
187.82350,1.641887955
187.82400,1.641887955
187.82450,0.4211103247
187.82500,1.03149914
187.82550,3.473054402
187.82600,5.304220848
187.82650,4.99902644
187.82700,3.167859994
187.82750,1.641887955
187.82800,0.115915917
187.82850,-2.325639345
187.82900,-4.156805791
187.82950,-3.546416975
187.83000,-1.715250529
187.83050,-0.7996673061
187.83100,-1.410056122
187.83150,-2.93602816
187.83200,-4.462000199
187.83250,-5.072389014
187.83300,-4.462000199
187.83350,-4.156805791
187.83400,-5.682777829
187.83450,-7.819138683
187.83500,-9.039916314
187.83550,-8.124333091
187.83600,-7.208749868
187.83650,-6.598361052
187.83700,-6.293166645
187.83750,-5.682777829
187.83800,-4.767194606
187.83850,-4.462000199
187.83900,-4.767194606
187.83950,-4.767194606
187.84000,-4.462000199
187.84050,-2.630833752
187.84100,0.115915917
187.84150,2.557471179
187.84200,4.693832032
187.84250,6.219804071
187.84300,7.440581702
187.84350,7.135387294
187.84400,4.693832032
187.84450,2.557471179
187.84500,2.557471179
187.84550,3.167859994
187.84600,1.947082363
187.84650,-0.1892784907
187.84700,-0.7996673061
187.84750,1.336693548
187.84800,4.083443217
187.84850,4.388637625
187.84900,3.167859994
187.84950,2.862665586
187.85000,3.167859994
187.85050,2.252276771
187.85100,1.03149914
187.85150,0.7263047324
187.85200,1.03149914
187.85250,1.03149914
187.85300,0.4211103247
187.85350,0.4211103247
187.85400,1.641887955
187.85450,3.473054402
187.85500,4.083443217
187.85550,4.083443217
187.85600,5.304220848
187.85650,7.440581702
187.85700,8.356164925
187.85750,6.524998479
187.85800,3.778248809
187.85850,3.473054402
187.85900,4.388637625
187.85950,3.167859994
187.86000,-1.715250529
187.86050,-6.90355546
187.86100,-8.124333091
187.86150,-6.598361052
187.86200,-5.987972237
187.86250,-8.429527499
187.86300,-12.3970548
187.86350,-15.14380447
187.86400,-14.83861006
187.86450,-11.48147158
187.86500,-5.987972237
187.86550,-1.104861714
187.86600,0.4211103247
187.86650,-1.104861714
187.86700,-4.767194606
187.86750,-7.513944276
187.86800,-8.734721906
187.86850,-9.650305129
187.86900,-10.26069394
187.86950,-10.26069394
187.87000,-9.650305129
187.87050,-6.90355546
187.87100,-1.715250529
187.87150,4.99902644
187.87200,10.79772019
187.87250,14.76524749
187.87300,15.3756363
187.87350,12.01849782
187.87400,5.609415256
187.87450,-1.104861714
187.87500,-4.767194606
187.87550,-5.072389014
187.87600,-4.156805791
187.87650,-3.241222568
187.87700,-1.104861714
187.87750,1.03149914
187.87800,1.03149914
187.87850,-2.020444937
187.87900,-5.987972237
187.87950,-7.819138683
187.88000,-7.513944276
187.88050,-6.90355546
187.88100,-5.987972237
187.88150,-3.546416975
187.88200,-0.4944728984
187.88250,1.641887955
187.88300,3.473054402
187.88350,5.304220848
187.88400,8.356164925
187.88450,12.01849782
187.88500,14.76524749
187.88550,15.3756363
187.88600,12.62888663
187.88650,8.356164925
187.88700,6.219804071
187.88750,7.135387294
187.88800,7.74577611
187.88850,5.609415256
187.88900,2.557471179
187.88950,2.557471179
187.89000,4.388637625
187.89050,4.083443217
187.89100,1.641887955
187.89150,0.115915917
187.89200,-0.4944728984
187.89250,-2.325639345
187.89300,-6.293166645
187.89350,-9.955499537
187.89400,-12.09186039
187.89450,-13.92302684
187.89500,-16.97497091
187.89550,-19.72172058
187.89600,-20.3321094
187.89650,-18.80613736
187.89700,-15.44899888
187.89750,-10.56588835
187.89800,-5.072389014
187.89850,0.4211103247
187.89900,7.440581702
187.89950,16.29121953
187.90000,23.92107972
187.90050,25.75224616
187.90100,21.78471886
187.90150,17.51199716
187.90200,16.59641393
187.90250,15.98602512
187.90300,13.54446986
187.90350,9.882136963
187.90400,7.135387294
187.90450,3.778248809
187.90500,-0.7996673061
187.90550,-4.462000199
187.90600,-2.93602816
187.90650,0.7263047324
187.90700,2.862665586
187.90750,2.557471179
187.90800,2.252276771
187.90850,2.862665586
187.90900,2.862665586
187.90950,1.03149914
187.91000,0.115915917
187.91050,0.115915917
187.91100,0.115915917
187.91150,-0.1892784907
187.91200,-1.104861714
187.91250,-1.410056122
187.91300,-1.410056122
187.91350,-1.104861714
187.91400,-0.7996673061
187.91450,0.115915917
187.91500,0.7263047324
187.91550,1.641887955
187.91600,1.641887955
187.91650,0.7263047324
187.91700,-0.1892784907
187.91750,-0.7996673061
187.91800,-0.4944728984
187.91850,-1.104861714
187.91900,-2.93602816
187.91950,-5.072389014
187.92000,-6.293166645
187.92050,-6.293166645
187.92100,-6.293166645
187.92150,-5.377583422
187.92200,-3.851611383
187.92250,-3.241222568
187.92300,-3.546416975
187.92350,-2.630833752
187.92400,0.115915917
187.92450,2.862665586
187.92500,3.167859994
187.92550,0.7263047324
187.92600,-1.410056122
187.92650,-3.241222568
187.92700,-4.462000199
187.92750,-4.767194606
187.92800,-2.630833752
187.92850,-0.1892784907
187.92900,0.115915917
187.92950,-1.410056122
187.93000,-2.630833752
187.93050,-1.410056122
187.93100,0.115915917
187.93150,0.4211103247
187.93200,0.7263047324
187.93250,2.252276771
187.93300,4.083443217
187.93350,3.778248809
187.93400,1.641887955
187.93450,0.115915917
187.93500,1.03149914
187.93550,2.557471179
187.93600,2.252276771
187.93650,0.115915917
187.93700,-2.325639345
187.93750,-3.546416975
187.93800,-3.851611383
187.93850,-3.851611383
187.93900,-4.767194606
187.93950,-7.819138683
187.94000,-11.48147158
187.94050,-14.53341565
187.94100,-14.83861006
187.94150,-13.00744361
187.94200,-10.87108276
187.94250,-8.429527499
187.94300,-5.987972237
187.94350,-3.851611383
187.94400,-2.93602816
187.94450,-2.630833752
187.94500,-2.020444937
187.94550,-0.7996673061
187.94600,-0.4944728984
187.94650,-2.020444937
187.94700,-4.156805791
187.94750,-5.072389014
187.94800,-4.767194606
187.94850,-2.325639345
187.94900,4.388637625
187.94950,15.3756363
187.95000,25.75224616
187.95050,29.41457906
187.95100,25.75224616
187.95150,19.95355242
187.95200,15.98602512
187.95250,13.54446986
187.95300,10.49252578
187.95350,6.219804071
187.95400,3.778248809
187.95450,3.167859994
187.95500,3.167859994
187.95550,2.557471179
187.95600,1.947082363
187.95650,1.947082363
187.95700,2.557471179
187.95750,3.167859994
187.95800,2.862665586
187.95850,1.336693548
187.95900,0.115915917
187.95950,0.115915917
187.96000,0.115915917
187.96050,-0.1892784907
187.96100,-1.410056122
187.96150,-2.630833752
187.96200,-2.325639345
187.96250,-1.715250529
187.96300,-1.410056122
187.96350,-2.020444937
187.96400,-2.630833752
187.96450,-3.546416975
187.96500,-5.682777829
187.96550,-8.429527499
187.96600,-9.955499537
187.96650,-9.345110722
187.96700,-7.513944276
187.96750,-6.293166645
187.96800,-5.682777829
187.96850,-4.767194606
187.96900,-3.851611383
187.96950,-2.630833752
187.97000,-0.1892784907
187.97050,3.778248809
187.97100,7.440581702
187.97150,8.96655374
187.97200,8.050970517
187.97250,7.440581702
187.97300,7.440581702
187.97350,6.524998479
187.97400,3.167859994
187.97450,-1.715250529
187.97500,-5.377583422
187.97550,-7.208749868
187.97600,-6.598361052
187.97650,-4.767194606
187.97700,-2.020444937
187.97750,0.4211103247
187.97800,2.252276771
187.97850,3.778248809
187.97900,4.693832032
187.97950,4.99902644
187.98000,4.99902644
187.98050,5.914609663
187.98100,7.74577611
187.98150,8.356164925
187.98200,6.524998479
187.98250,2.862665586
187.98300,-0.1892784907
187.98350,-2.325639345
187.98400,-2.93602816
187.98450,-1.104861714
187.98500,1.947082363
187.98550,3.473054402
187.98600,1.641887955
187.98650,-2.630833752
187.98700,-6.598361052
187.98750,-9.345110722
187.98800,-11.78666598
187.98850,-14.83861006
187.98900,-16.66977651
187.98950,-15.44899888
187.99000,-11.78666598
187.99050,-6.90355546
187.99100,-2.93602816
187.99150,0.115915917
187.99200,2.252276771
187.99250,4.083443217
187.99300,4.083443217
187.99350,3.473054402
187.99400,3.778248809
187.99450,4.693832032
187.99500,4.693832032
187.99550,3.167859994
187.99600,1.641887955
187.99650,1.947082363
187.99700,2.862665586
187.99750,1.641887955
187.99800,-0.7996673061
187.99850,-2.93602816
187.99900,-2.93602816
187.99950,-1.715250529
188.00000,-0.4944728984
188.00050,0.4211103247
188.00100,1.641887955
188.00150,3.473054402
188.00200,4.99902644
188.00250,7.135387294
188.00300,8.96655374
188.00350,10.79772019
188.00400,12.32369223
188.00450,12.32369223
188.00500,9.882136963
188.00550,5.914609663
188.00600,3.473054402
188.00650,3.167859994
188.00700,3.473054402
188.00750,1.947082363
188.00800,0.115915917
188.00850,0.115915917
188.00900,1.641887955
188.00950,2.557471179
188.01000,2.557471179
188.01050,2.862665586
188.01100,2.557471179
188.01150,1.336693548
188.01200,1.641887955
188.01250,4.388637625
188.01300,6.219804071
188.01350,3.473054402
188.01400,-1.410056122
188.01450,-4.767194606
188.01500,-5.682777829
188.01550,-5.987972237
188.01600,-6.293166645
188.01650,-4.767194606
188.01700,-2.93602816
188.01750,-3.546416975
188.01800,-5.987972237
188.01850,-6.598361052
188.01900,-4.156805791
188.01950,-2.93602816
188.02000,-4.156805791
188.02050,-5.682777829
188.02100,-4.462000199
188.02150,-2.020444937
188.02200,-0.4944728984
188.02250,-0.1892784907
188.02300,0.115915917
188.02350,0.4211103247
188.02400,0.115915917
188.02450,0.115915917
188.02500,0.115915917
188.02550,-1.715250529
188.02600,-5.072389014
188.02650,-6.598361052
188.02700,-5.377583422
188.02750,-3.546416975
188.02800,-4.462000199
188.02850,-5.987972237
188.02900,-4.156805791
188.02950,1.336693548
188.03000,6.830192886
188.03050,9.576942556
188.03100,9.271748148
188.03150,7.74577611
188.03200,6.524998479
188.03250,5.609415256
188.03300,5.304220848
188.03350,4.693832032
188.03400,3.473054402
188.03450,1.336693548
188.03500,-1.410056122
188.03550,-4.156805791
188.03600,-5.072389014
188.03650,-3.546416975
188.03700,-2.325639345
188.03750,-3.241222568
188.03800,-5.987972237
188.03850,-6.598361052
188.03900,-4.767194606
188.03950,-2.93602816
188.04000,-2.93602816
188.04050,-3.241222568
188.04100,-2.93602816
188.04150,-4.156805791
188.04200,-7.208749868
188.04250,-7.208749868
188.04300,-0.7996673061
188.04350,8.661359333
188.04400,14.15485867
188.04450,12.01849782
188.04500,6.830192886
188.04550,2.252276771
188.04600,-0.4944728984
188.04650,-3.546416975
188.04700,-5.987972237
188.04750,-6.598361052
188.04800,-5.682777829
188.04850,-3.546416975
188.04900,-0.4944728984
188.04950,1.336693548
188.05000,1.947082363
188.05050,1.03149914
188.05100,-0.4944728984
188.05150,-2.93602816
188.05200,-5.072389014
188.05250,-5.987972237
188.05300,-4.462000199
188.05350,-2.020444937
188.05400,-0.1892784907
188.05450,1.03149914
188.05500,3.167859994
188.05550,5.304220848
188.05600,5.609415256
188.05650,5.914609663
188.05700,7.440581702
188.05750,9.271748148
188.05800,9.576942556
188.05850,9.576942556
188.05900,11.71330341
188.05950,14.15485867
188.06000,12.93408104
188.06050,7.135387294
188.06100,1.947082363
188.06150,0.7263047324
188.06200,1.947082363
188.06250,1.336693548
188.06300,-1.410056122
188.06350,-3.851611383
188.06400,-3.851611383
188.06450,-1.410056122
188.06500,1.336693548
188.06550,4.693832032
188.06600,8.356164925
188.06650,9.882136963
188.06700,6.830192886
188.06750,-1.715250529
188.06800,-13.31263802
188.06850,-22.46847025
188.06900,-24.91002551
188.06950,-20.02691499
188.07000,-12.09186039
188.07050,-4.767194606
188.07100,-1.715250529
188.07150,-2.325639345
188.07200,-4.462000199
188.07250,-5.072389014
188.07300,-4.156805791
188.07350,-2.325639345
188.07400,-0.4944728984
188.07450,1.03149914
188.07500,2.557471179
188.07550,3.167859994
188.07600,1.947082363
188.07650,0.4211103247
188.07700,0.4211103247
188.07750,1.947082363
188.07800,3.167859994
188.07850,2.252276771
188.07900,1.03149914
188.07950,0.4211103247
188.08000,0.4211103247
188.08050,0.115915917
188.08100,-1.715250529
188.08150,-3.851611383
188.08200,-4.767194606
188.08250,-4.462000199
188.08300,-4.462000199
188.08350,-5.072389014
188.08400,-5.377583422
188.08450,-3.851611383
188.08500,-0.7996673061
188.08550,1.03149914
188.08600,1.03149914
188.08650,0.115915917
188.08700,-0.1892784907
188.08750,0.115915917
188.08800,1.03149914
188.08850,1.641887955
188.08900,1.03149914
188.08950,-0.1892784907
188.09000,-0.4944728984
188.09050,1.641887955
188.09100,7.135387294
188.09150,12.62888663
188.09200,14.76524749
188.09250,11.10291459
188.09300,3.778248809
188.09350,-2.020444937
188.09400,-3.851611383
188.09450,-2.630833752
188.09500,-2.020444937
188.09550,-2.93602816
188.09600,-3.241222568
188.09650,-1.715250529
188.09700,0.115915917
188.09750,0.7263047324
188.09800,1.336693548
188.09850,2.862665586
188.09900,3.778248809
188.09950,2.862665586
188.10000,0.7263047324
188.10050,0.115915917
188.10100,1.641887955
188.10150,2.862665586
188.10200,2.252276771
188.10250,1.336693548
188.10300,0.7263047324
188.10350,-0.1892784907
188.10400,-2.630833752
188.10450,-4.462000199
188.10500,-4.462000199
188.10550,-2.93602816
188.10600,-1.715250529
188.10650,-1.715250529
188.10700,-2.325639345
188.10750,-2.325639345
188.10800,-1.104861714
188.10850,0.4211103247
188.10900,1.336693548
188.10950,0.115915917
188.11000,-2.020444937
188.11050,-3.241222568
188.11100,-3.241222568
188.11150,-2.630833752
188.11200,-1.715250529
188.11250,-0.4944728984
188.11300,-0.7996673061
188.11350,-3.241222568
188.11400,-6.598361052
188.11450,-8.734721906
188.11500,-9.039916314
188.11550,-7.513944276
188.11600,-5.987972237
188.11650,-4.462000199
188.11700,-3.851611383
188.11750,-4.462000199
188.11800,-5.377583422
188.11850,-4.462000199
188.11900,0.115915917
188.11950,7.135387294
188.12000,13.84966426
188.12050,17.81719156
188.12100,19.3431636
188.12150,19.03796919
188.12200,19.64835801
188.12250,20.25874683
188.12300,19.03796919
188.12350,14.46005308
188.12400,9.576942556
188.12450,7.440581702
188.12500,7.440581702
188.12550,6.219804071
188.12600,3.778248809
188.12650,1.947082363
188.12700,1.336693548
188.12750,0.4211103247
188.12800,-1.715250529
188.12850,-4.462000199
188.12900,-5.072389014
188.12950,-4.156805791
188.13000,-2.93602816
188.13050,-1.410056122
188.13100,0.115915917
188.13150,0.4211103247
188.13200,-0.4944728984
188.13250,-4.462000199
188.13300,-9.955499537
188.13350,-15.14380447
188.13400,-17.89055414
188.13450,-17.28016532
188.13500,-13.92302684
188.13550,-10.26069394
188.13600,-6.90355546
188.13650,-3.851611383
188.13700,-0.7996673061
188.13750,0.4211103247
188.13800,0.115915917
188.13850,-1.104861714
188.13900,-1.410056122
188.13950,0.115915917
188.14000,1.947082363
188.14050,2.252276771
188.14100,-0.1892784907
188.14150,-4.462000199
188.14200,-6.293166645
188.14250,-4.462000199
188.14300,-2.325639345
188.14350,-2.630833752
188.14400,-4.156805791
188.14450,-3.241222568
188.14500,-0.4944728984
188.14550,0.7263047324
188.14600,0.115915917
188.14650,-0.4944728984
188.14700,0.115915917
188.14750,1.641887955
188.14800,2.862665586
188.14850,4.083443217
188.14900,4.388637625
188.14950,4.388637625
188.15000,4.388637625
188.15050,5.609415256
188.15100,7.74577611
188.15150,8.661359333
188.15200,7.74577611
188.15250,6.219804071
188.15300,5.304220848
188.15350,4.388637625
188.15400,3.167859994
188.15450,2.252276771
188.15500,1.947082363
188.15550,1.336693548
188.15600,-0.4944728984
188.15650,-3.241222568
188.15700,-5.377583422
188.15750,-7.208749868
188.15800,-7.513944276
188.15850,-5.377583422
188.15900,-1.104861714
188.15950,2.557471179
188.16000,4.083443217
188.16050,2.557471179
188.16100,-0.7996673061
188.16150,-5.682777829
188.16200,-9.345110722
188.16250,-9.345110722
188.16300,-7.819138683
188.16350,-9.039916314
188.16400,-13.61783243
188.16450,-18.50094295
188.16500,-18.80613736
188.16550,-15.75419328
188.16600,-13.00744361
188.16650,-10.26069394
188.16700,-5.377583422
188.16750,1.641887955
188.16800,7.440581702
188.16850,7.440581702
188.16900,2.862665586
188.16950,-2.325639345
188.17000,-4.767194606
188.17050,-2.93602816
188.17100,0.7263047324
188.17150,4.388637625
188.17200,4.99902644
188.17250,2.252276771
188.17300,-2.020444937
188.17350,-5.377583422
188.17400,-5.377583422
188.17450,-2.325639345
188.17500,1.03149914
188.17550,2.252276771
188.17600,1.03149914
188.17650,0.7263047324
188.17700,2.862665586
188.17750,6.830192886
188.17800,9.882136963
188.17850,11.10291459
188.17900,12.32369223
188.17950,13.54446986
188.18000,13.54446986
188.18050,11.71330341
188.18100,7.74577611
188.18150,3.778248809
188.18200,2.557471179
188.18250,3.778248809
188.18300,5.609415256
188.18350,6.524998479
188.18400,5.914609663
188.18450,5.914609663
188.18500,7.74577611
188.18550,10.18733137
188.18600,12.32369223
188.18650,12.01849782
188.18700,9.882136963
188.18750,8.661359333
188.18800,9.882136963
188.18850,12.32369223
188.18900,13.23927545
188.18950,11.10291459
188.19000,8.661359333
188.19050,6.524998479
188.19100,5.304220848
188.19150,4.388637625
188.19200,4.083443217
188.19250,4.083443217
188.19300,2.862665586
188.19350,0.7263047324
188.19400,0.115915917
188.19450,1.641887955
188.19500,3.778248809
188.19550,4.388637625
188.19600,3.167859994
188.19650,1.641887955
188.19700,0.7263047324
188.19750,0.115915917
188.19800,-0.7996673061
188.19850,-1.715250529
188.19900,-2.325639345
188.19950,-2.630833752
188.20000,-2.325639345
188.20050,-0.4944728984
188.20100,2.252276771
188.20150,5.304220848
188.20200,7.135387294
188.20250,6.830192886
188.20300,6.219804071
188.20350,6.524998479
188.20400,8.050970517
188.20450,7.74577611
188.20500,4.99902644
188.20550,0.4211103247
188.20600,-2.93602816
188.20650,-4.767194606
188.20700,-5.987972237
188.20750,-7.513944276
188.20800,-9.039916314
188.20850,-9.650305129
188.20900,-9.955499537
188.20950,-8.734721906
188.21000,-7.513944276
188.21050,-6.90355546
188.21100,-8.429527499
188.21150,-10.56588835
188.21200,-11.17627717
188.21250,-10.56588835
188.21300,-9.650305129
188.21350,-8.734721906
188.21400,-8.124333091
188.21450,-8.429527499
188.21500,-10.56588835
188.21550,-12.70224921
188.21600,-11.78666598
188.21650,-7.208749868
188.21700,-2.325639345
188.21750,0.115915917
188.21800,1.03149914
188.21850,2.557471179
188.21900,4.693832032
188.21950,5.914609663
188.22000,5.304220848
188.22050,4.083443217
188.22100,3.167859994
188.22150,2.862665586
188.22200,1.641887955
188.22250,0.7263047324
188.22300,1.947082363
188.22350,6.830192886
188.22400,12.62888663
188.22450,15.68083071
188.22500,15.98602512
188.22550,16.90160834
188.22600,19.03796919
188.22650,19.64835801
188.22700,15.3756363
188.22750,8.661359333
188.22800,3.473054402
188.22850,0.4211103247
188.22900,-2.020444937
188.22950,-5.377583422
188.23000,-5.987972237
188.23050,-3.546416975
188.23100,-2.325639345
188.23150,-4.462000199
188.23200,-7.513944276
188.23250,-7.819138683
188.23300,-5.682777829
188.23350,-4.462000199
188.23400,-6.90355546
188.23450,-10.26069394
188.23500,-11.48147158
188.23550,-9.955499537
188.23600,-6.598361052
188.23650,-2.93602816
188.23700,-1.104861714
188.23750,-2.020444937
188.23800,-4.462000199
188.23850,-5.682777829
188.23900,-5.072389014
188.23950,-3.851611383
188.24000,-4.462000199
188.24050,-5.987972237
188.24100,-7.208749868
188.24150,-7.513944276
188.24200,-7.208749868
188.24250,-6.293166645
188.24300,-2.93602816
188.24350,3.473054402
188.24400,11.10291459
188.24450,14.76524749
188.24500,12.62888663
188.24550,8.661359333
188.24600,7.135387294
188.24650,8.661359333
188.24700,9.271748148
188.24750,8.356164925
188.24800,6.830192886
188.24850,5.609415256
188.24900,2.557471179
188.24950,-1.104861714
188.25000,-3.546416975
188.25050,-3.241222568
188.25100,-3.546416975
188.25150,-6.90355546
188.25200,-12.09186039
188.25250,-16.66977651
188.25300,-20.63730381
188.25350,-23.07885907
188.25400,-23.07885907
188.25450,-20.63730381
188.25500,-18.50094295
188.25550,-17.89055414
188.25600,-17.28016532
188.25650,-14.83861006
188.25700,-11.78666598
188.25750,-10.26069394
188.25800,-9.039916314
188.25850,-7.208749868
188.25900,-4.767194606
188.25950,-2.93602816
188.26000,-1.715250529
188.26050,0.115915917
188.26100,2.557471179
188.26150,3.778248809
188.26200,3.778248809
188.26250,3.778248809
188.26300,4.083443217
188.26350,5.304220848
188.26400,5.914609663
188.26450,6.219804071
188.26500,6.524998479
188.26550,7.135387294
188.26600,8.356164925
188.26650,9.271748148
188.26700,8.661359333
188.26750,7.135387294
188.26800,5.609415256
188.26850,4.693832032
188.26900,3.167859994
188.26950,1.336693548
188.27000,0.4211103247
188.27050,0.4211103247
188.27100,1.336693548
188.27150,1.641887955
188.27200,1.03149914
188.27250,-0.1892784907
188.27300,-1.715250529
188.27350,-2.630833752
188.27400,-2.325639345
188.27450,-2.325639345
188.27500,-2.93602816
188.27550,-2.93602816
188.27600,-1.715250529
188.27650,-0.1892784907
188.27700,0.7263047324
188.27750,2.862665586
188.27800,5.304220848
188.27850,4.388637625
188.27900,-1.410056122
188.27950,-7.819138683
188.28000,-10.56588835
188.28050,-10.87108276
188.28100,-13.61783243
188.28150,-18.80613736
188.28200,-20.94249821
188.28250,-16.97497091
188.28300,-9.345110722
188.28350,-2.325639345
188.28400,1.336693548
188.28450,2.862665586
188.28500,2.862665586
188.28550,2.862665586
188.28600,4.388637625
188.28650,7.440581702
188.28700,9.882136963
188.28750,11.71330341
188.28800,12.93408104
188.28850,13.54446986
188.28900,12.93408104
188.28950,11.10291459
188.29000,9.882136963
188.29050,9.271748148
188.29100,7.74577611
188.29150,4.99902644
188.29200,2.862665586
188.29250,1.947082363
188.29300,0.7263047324
188.29350,-0.7996673061
188.29400,-2.020444937
188.29450,-1.104861714
188.29500,1.336693548
188.29550,4.083443217
188.29600,6.219804071
188.29650,8.356164925
188.29700,9.882136963
188.29750,10.49252578
188.29800,10.49252578
188.29850,11.10291459
188.29900,12.01849782
188.29950,11.408109
188.30000,8.661359333
188.30050,5.609415256
188.30100,4.388637625
188.30150,2.862665586
188.30200,-1.104861714
188.30250,-6.90355546
188.30300,-10.56588835
188.30350,-9.650305129
188.30400,-7.208749868
188.30450,-6.598361052
188.30500,-8.124333091
188.30550,-9.650305129
188.30600,-10.26069394
188.30650,-9.955499537
188.30700,-10.87108276
188.30750,-13.00744361
188.30800,-15.75419328
188.30850,-15.14380447
188.30900,-8.734721906
188.30950,1.947082363
188.31000,14.15485867
188.31050,23.92107972
188.31100,29.10938465
188.31150,27.2782182
188.31200,19.03796919
188.31250,8.96655374
188.31300,4.083443217
188.31350,5.914609663
188.31400,9.271748148
188.31450,9.576942556
188.31500,8.356164925
188.31550,9.576942556
188.31600,13.84966426
188.31650,16.90160834
188.31700,15.68083071
188.31750,12.01849782
188.31800,8.96655374
188.31850,7.440581702
188.31900,7.74577611
188.31950,8.96655374
188.32000,7.74577611
188.32050,2.862665586
188.32100,-3.546416975
188.32150,-8.734721906
188.32200,-10.87108276
188.32250,-11.48147158
188.32300,-11.48147158
188.32350,-10.56588835
188.32400,-8.429527499
188.32450,-6.293166645
188.32500,-4.767194606
188.32550,-2.93602816
188.32600,-0.1892784907
188.32650,1.641887955
188.32700,2.252276771
188.32750,1.641887955
188.32800,1.03149914
188.32850,0.7263047324
188.32900,1.336693548
188.32950,1.336693548
188.33000,0.4211103247
188.33050,-0.7996673061
188.33100,-1.715250529
188.33150,-2.325639345
188.33200,-3.241222568
188.33250,-4.156805791
188.33300,-5.072389014
188.33350,-5.072389014
188.33400,-3.851611383
188.33450,-2.93602816
188.33500,-2.630833752
188.33550,-2.630833752
188.33600,-2.630833752
188.33650,-1.410056122
188.33700,-0.1892784907
188.33750,0.115915917
188.33800,0.115915917
188.33850,0.115915917
188.33900,0.115915917
188.33950,-0.1892784907
188.34000,-2.020444937
188.34050,-3.851611383
188.34100,-4.156805791
188.34150,-2.325639345
188.34200,-0.4944728984
188.34250,-0.4944728984
188.34300,-2.325639345
188.34350,-4.767194606
188.34400,-5.987972237
188.34450,-5.987972237
188.34500,-4.462000199
188.34550,-1.410056122
188.34600,3.167859994
188.34650,8.356164925
188.34700,11.71330341
188.34750,10.49252578
188.34800,6.219804071
188.34850,3.167859994
188.34900,3.167859994
188.34950,3.473054402
188.35000,0.115915917
188.35050,-5.377583422
188.35100,-9.345110722
188.35150,-9.039916314
188.35200,-7.208749868
188.35250,-6.90355546
188.35300,-8.734721906
188.35350,-10.26069394
188.35400,-10.87108276
188.35450,-11.17627717
188.35500,-10.56588835
188.35550,-8.734721906
188.35600,-6.598361052
188.35650,-4.767194606
188.35700,-3.851611383
188.35750,-2.93602816
188.35800,-2.325639345
188.35850,-3.241222568
188.35900,-5.072389014
188.35950,-6.598361052
188.36000,-6.293166645
188.36050,-4.462000199
188.36100,-2.630833752
188.36150,-2.020444937
188.36200,-2.020444937
188.36250,-0.1892784907
188.36300,3.167859994
188.36350,6.830192886
188.36400,8.356164925
188.36450,7.135387294
188.36500,5.914609663
188.36550,6.830192886
188.36600,8.96655374
188.36650,9.271748148
188.36700,7.440581702
188.36750,5.609415256
188.36800,5.914609663
188.36850,6.219804071
188.36900,3.778248809
188.36950,0.115915917
188.37000,-2.020444937
188.37050,-1.410056122
188.37100,-1.104861714
188.37150,-2.020444937
188.37200,-3.546416975
188.37250,-3.241222568
188.37300,-1.715250529
188.37350,0.115915917
188.37400,1.03149914
188.37450,1.641887955
188.37500,0.4211103247
188.37550,-2.325639345
188.37600,-4.767194606
188.37650,-5.682777829
188.37700,-5.072389014
188.37750,-4.462000199
188.37800,-3.851611383
188.37850,-2.630833752
188.37900,-0.7996673061
188.37950,1.03149914
188.38000,1.947082363
188.38050,2.252276771
188.38100,2.557471179
188.38150,3.473054402
188.38200,4.083443217
188.38250,2.862665586
188.38300,0.7263047324
188.38350,0.115915917
188.38400,1.641887955
188.38450,3.778248809
188.38500,4.99902644
188.38550,4.99902644
188.38600,5.304220848
188.38650,5.304220848
188.38700,5.609415256
188.38750,6.830192886
188.38800,7.74577611
188.38850,5.609415256
188.38900,-0.1892784907
188.38950,-8.734721906
188.39000,-15.44899888
188.39050,-17.89055414
188.39100,-17.58535973
188.39150,-17.28016532
188.39200,-18.80613736
188.39250,-21.55288703
188.39300,-22.77366466
188.39350,-20.02691499
188.39400,-11.17627717
188.39450,0.4211103247
188.39500,11.71330341
188.39550,18.12238597
188.39600,19.3431636
188.39650,17.51199716
188.39700,15.68083071
188.39750,15.3756363
188.39800,14.46005308
188.39850,11.71330341
188.39900,8.96655374
188.39950,8.96655374
188.40000,11.408109
188.40050,12.01849782
188.40100,7.440581702
188.40150,0.115915917
188.40200,-5.377583422
188.40250,-6.90355546
188.40300,-5.987972237
188.40350,-5.072389014
188.40400,-4.156805791
188.40450,-2.630833752
188.40500,-0.1892784907
188.40550,1.03149914
188.40600,2.252276771
188.40650,3.473054402
188.40700,5.609415256
188.40750,7.440581702
188.40800,7.74577611
188.40850,4.693832032
188.40900,-1.410056122
188.40950,-8.734721906
188.41000,-13.92302684
188.41050,-13.92302684
188.41100,-9.345110722
188.41150,-4.156805791
188.41200,-2.020444937
188.41250,-1.715250529
188.41300,-0.1892784907
188.41350,2.252276771
188.41400,3.778248809
188.41450,2.557471179
188.41500,-0.1892784907
188.41550,-2.020444937
188.41600,-2.020444937
188.41650,-1.104861714
188.41700,-0.1892784907
188.41750,-0.1892784907
188.41800,-0.7996673061
188.41850,-1.104861714
188.41900,-1.104861714
188.41950,-1.104861714
188.42000,-1.104861714
188.42050,1.336693548
188.42100,7.74577611
188.42150,13.84966426
188.42200,15.68083071
188.42250,13.54446986
188.42300,11.408109
188.42350,11.71330341
188.42400,12.01849782
188.42450,10.18733137
188.42500,5.914609663
188.42550,1.641887955
188.42600,-1.410056122
188.42650,-5.377583422
188.42700,-8.734721906
188.42750,-9.650305129
188.42800,-7.208749868
188.42850,-2.93602816
188.42900,-0.7996673061
188.42950,-1.104861714
188.43000,-1.715250529
188.43050,-1.104861714
188.43100,0.115915917
188.43150,1.336693548
188.43200,2.252276771
188.43250,2.557471179
188.43300,2.252276771
188.43350,0.4211103247
188.43400,-1.104861714
188.43450,-2.325639345
188.43500,-3.546416975
188.43550,-4.462000199
188.43600,-4.767194606
188.43650,-3.241222568
188.43700,-1.715250529
188.43750,-0.4944728984
188.43800,-0.1892784907
188.43850,0.115915917
188.43900,0.115915917
188.43950,1.03149914
188.44000,3.778248809
188.44050,6.524998479
188.44100,8.050970517
188.44150,8.96655374
188.44200,10.49252578
188.44250,12.32369223
188.44300,12.32369223
188.44350,9.576942556
188.44400,5.914609663
188.44450,3.167859994
188.44500,2.862665586
188.44550,3.778248809
188.44600,4.693832032
188.44650,1.641887955
188.44700,-5.682777829
188.44750,-14.53341565
188.44800,-19.11133177
188.44850,-18.19574855
188.44900,-15.44899888
188.44950,-11.78666598
188.45000,-5.682777829
188.45050,0.4211103247
188.45100,2.862665586
188.45150,1.03149914
188.45200,-1.410056122
188.45250,-2.020444937
188.45300,-1.410056122
188.45350,-1.715250529
188.45400,-2.325639345
188.45450,-1.104861714
188.45500,0.4211103247
188.45550,1.641887955
188.45600,1.641887955
188.45650,0.7263047324
188.45700,-0.4944728984
188.45750,-2.630833752
188.45800,-4.462000199
188.45850,-5.377583422
188.45900,-5.377583422
188.45950,-4.767194606
188.46000,-4.462000199
188.46050,-5.072389014
188.46100,-5.987972237
188.46150,-5.682777829
188.46200,-3.546416975
188.46250,-2.020444937
188.46300,-3.851611383
188.46350,-6.598361052
188.46400,-5.987972237
188.46450,0.115915917
188.46500,7.74577611
188.46550,13.84966426
188.46600,15.68083071
188.46650,13.23927545
188.46700,7.74577611
188.46750,2.557471179
188.46800,0.115915917
188.46850,0.4211103247
188.46900,1.641887955
188.46950,0.7263047324
188.47000,-2.020444937
188.47050,-5.682777829
188.47100,-6.598361052
188.47150,-3.851611383
188.47200,1.947082363
188.47250,9.576942556
188.47300,16.59641393
188.47350,19.3431636
188.47400,17.51199716
188.47450,13.54446986
188.47500,10.79772019
188.47550,10.49252578
188.47600,9.271748148
188.47650,6.524998479
188.47700,3.778248809
188.47750,4.388637625
188.47800,5.914609663
188.47850,4.693832032
188.47900,0.115915917
188.47950,-4.462000199
188.48000,-6.598361052
188.48050,-5.377583422
188.48100,-3.241222568
188.48150,-2.325639345
188.48200,-2.630833752
188.48250,-2.630833752
188.48300,-1.104861714
188.48350,0.7263047324
188.48400,1.641887955
188.48450,1.641887955
188.48500,2.862665586
188.48550,5.914609663
188.48600,8.050970517
188.48650,7.74577611
188.48700,5.914609663
188.48750,5.914609663
188.48800,6.524998479
188.48850,4.99902644
188.48900,1.641887955
188.48950,-1.410056122
188.49000,-2.630833752
188.49050,-3.851611383
188.49100,-7.208749868
188.49150,-10.56588835
188.49200,-11.48147158
188.49250,-10.26069394
188.49300,-9.039916314
188.49350,-8.429527499
188.49400,-7.208749868
188.49450,-5.682777829
188.49500,-4.156805791
188.49550,-3.851611383
188.49600,-3.241222568
188.49650,-2.325639345
188.49700,-3.851611383
188.49750,-8.734721906
188.49800,-14.83861006
188.49850,-17.89055414
188.49900,-16.97497091
188.49950,-15.14380447
188.50000,-14.53341565
188.50050,-16.05938769
188.50100,-18.19574855
188.50150,-19.41652618
188.50200,-18.80613736
188.50250,-15.14380447
188.50300,-12.09186039
188.50350,-12.09186039
188.50400,-15.44899888
188.50450,-16.66977651
188.50500,-13.00744361
188.50550,-6.90355546
188.50600,-2.020444937
188.50650,0.115915917
188.50700,0.7263047324
188.50750,2.252276771
188.50800,4.388637625
188.50850,7.440581702
188.50900,12.62888663
188.50950,19.3431636
188.51000,24.83666294
188.51050,26.66782939
188.51100,24.53146853
188.51150,21.78471886
188.51200,20.56394123
188.51250,20.56394123
188.51300,18.42758038
188.51350,12.32369223
188.51400,4.083443217
188.51450,-1.104861714
188.51500,-2.020444937
188.51550,0.115915917
188.51600,2.252276771
188.51650,3.778248809
188.51700,2.252276771
188.51750,-2.630833752
188.51800,-9.039916314
188.51850,-12.3970548
188.51900,-11.78666598
188.51950,-9.345110722
188.52000,-6.90355546
188.52050,-3.851611383
188.52100,-0.1892784907
188.52150,1.03149914
188.52200,0.115915917
188.52250,0.115915917
188.52300,1.641887955
188.52350,4.083443217
188.52400,5.609415256
188.52450,6.524998479
188.52500,8.050970517
188.52550,9.576942556
188.52600,9.576942556
188.52650,8.96655374
188.52700,8.356164925
188.52750,7.135387294
188.52800,4.693832032
188.52850,2.862665586
188.52900,2.557471179
188.52950,2.252276771
188.53000,0.4211103247
188.53050,-0.7996673061
188.53100,0.115915917
188.53150,1.947082363
188.53200,1.641887955
188.53250,0.4211103247
188.53300,0.7263047324
188.53350,2.252276771
188.53400,2.252276771
188.53450,0.4211103247
188.53500,-1.715250529
188.53550,-2.93602816
188.53600,-2.630833752
188.53650,-1.104861714
188.53700,0.4211103247
188.53750,1.336693548
188.53800,0.7263047324
188.53850,-0.4944728984
188.53900,-1.410056122
188.53950,-2.020444937
188.54000,-1.715250529
188.54050,0.4211103247
188.54100,2.862665586
188.54150,2.862665586
188.54200,0.7263047324
188.54250,0.4211103247
188.54300,2.252276771
188.54350,2.862665586
188.54400,-0.4944728984
188.54450,-5.072389014
188.54500,-6.90355546
188.54550,-6.598361052
188.54600,-6.90355546
188.54650,-7.819138683
188.54700,-7.819138683
188.54750,-8.124333091
188.54800,-9.039916314
188.54850,-8.124333091
188.54900,-2.630833752
188.54950,4.083443217
188.55000,7.135387294
188.55050,4.388637625
188.55100,-0.1892784907
188.55150,-3.241222568
188.55200,-4.767194606
188.55250,-5.072389014
188.55300,-5.072389014
188.55350,-5.072389014
188.55400,-5.682777829
188.55450,-5.377583422
188.55500,-2.630833752
188.55550,1.947082363
188.55600,6.524998479
188.55650,8.661359333
188.55700,8.356164925
188.55750,5.914609663
188.55800,1.336693548
188.55850,-2.93602816
188.55900,-4.767194606
188.55950,-2.93602816
188.56000,0.115915917
188.56050,1.641887955
188.56100,1.336693548
188.56150,0.7263047324
188.56200,0.7263047324
188.56250,1.336693548
188.56300,1.336693548
188.56350,0.115915917
188.56400,-2.630833752
188.56450,-5.072389014
188.56500,-3.546416975
188.56550,1.336693548
188.56600,6.830192886
188.56650,7.135387294
188.56700,1.947082363
188.56750,-3.546416975
188.56800,-5.987972237
188.56850,-5.377583422
188.56900,-4.156805791
188.56950,-3.851611383
188.57000,-2.630833752
188.57050,0.115915917
188.57100,2.252276771
188.57150,4.388637625
188.57200,5.609415256
188.57250,6.830192886
188.57300,6.524998479
188.57350,5.609415256
188.57400,5.914609663
188.57450,7.135387294
188.57500,6.830192886
188.57550,4.083443217
188.57600,1.336693548
188.57650,1.03149914
188.57700,2.252276771
188.57750,1.947082363
188.57800,-0.4944728984
188.57850,-3.851611383
188.57900,-6.598361052
188.57950,-8.124333091
188.58000,-7.513944276
188.58050,-4.767194606
188.58100,-1.410056122
188.58150,1.03149914
188.58200,2.557471179
188.58250,3.167859994
188.58300,2.862665586
188.58350,-0.1892784907
188.58400,-5.072389014
188.58450,-7.819138683
188.58500,-8.429527499
188.58550,-7.819138683
188.58600,-8.124333091
188.58650,-8.429527499
188.58700,-7.819138683
188.58750,-6.90355546
188.58800,-6.90355546
188.58850,-6.598361052
188.58900,-4.156805791
188.58950,0.115915917
188.59000,5.609415256
188.59050,11.10291459
188.59100,14.46005308
188.59150,15.3756363
188.59200,13.84966426
188.59250,12.01849782
188.59300,11.408109
188.59350,11.408109
188.59400,10.49252578
188.59450,9.271748148
188.59500,8.050970517
188.59550,6.524998479
188.59600,1.947082363
188.59650,-5.072389014
188.59700,-12.3970548
188.59750,-16.66977651
188.59800,-16.05938769
188.59850,-11.17627717
188.59900,-4.767194606
188.59950,-1.104861714
188.60000,-1.104861714
188.60050,-2.325639345
188.60100,-0.7996673061
188.60150,2.862665586
188.60200,5.914609663
188.60250,6.524998479
188.60300,6.219804071
188.60350,6.524998479
188.60400,6.219804071
188.60450,3.778248809
188.60500,1.03149914
188.60550,-0.7996673061
188.60600,-2.020444937
188.60650,-3.546416975
188.60700,-4.156805791
188.60750,-3.851611383
188.60800,-2.93602816
188.60850,-3.241222568
188.60900,-2.325639345
188.60950,0.7263047324
188.61000,5.609415256
188.61050,9.271748148
188.61100,11.10291459
188.61150,13.23927545
188.61200,17.20680275
188.61250,21.17433005
188.61300,23.3106909
188.61350,23.00549649
188.61400,17.51199716
188.61450,6.830192886
188.61500,-4.462000199
188.61550,-10.87108276
188.61600,-8.734721906
188.61650,-2.020444937
188.61700,2.557471179
188.61750,4.388637625
188.61800,3.778248809
188.61850,2.557471179
188.61900,1.947082363
188.61950,1.641887955
188.62000,1.03149914
188.62050,-1.715250529
188.62100,-5.377583422
188.62150,-6.293166645
188.62200,-4.156805791
188.62250,-2.325639345
188.62300,-4.462000199
188.62350,-7.513944276
188.62400,-8.124333091
188.62450,-5.987972237
188.62500,-4.156805791
188.62550,-4.156805791
188.62600,-4.156805791
188.62650,-3.546416975
188.62700,-3.851611383
188.62750,-5.377583422
188.62800,-6.293166645
188.62850,-5.072389014
188.62900,-3.241222568
188.62950,-3.241222568
188.63000,-5.072389014
188.63050,-5.682777829
188.63100,-3.851611383
188.63150,-1.410056122
188.63200,-0.1892784907
188.63250,-0.1892784907
188.63300,0.115915917
188.63350,0.115915917
188.63400,0.4211103247
188.63450,0.7263047324
188.63500,2.557471179
188.63550,4.693832032
188.63600,5.609415256
188.63650,4.693832032
188.63700,3.473054402
188.63750,3.778248809
188.63800,4.693832032
188.63850,4.388637625
188.63900,2.557471179
188.63950,0.115915917
188.64000,-1.104861714
188.64050,-1.104861714
188.64100,-0.7996673061
188.64150,-0.1892784907
188.64200,-0.1892784907
188.64250,0.115915917
188.64300,1.03149914
188.64350,2.557471179
188.64400,3.778248809
188.64450,3.778248809
188.64500,3.167859994
188.64550,3.778248809
188.64600,4.99902644
188.64650,6.524998479
188.64700,6.830192886
188.64750,6.830192886
188.64800,5.914609663
188.64850,3.778248809
188.64900,1.03149914
188.64950,-0.7996673061
188.65000,-2.325639345
188.65050,-3.851611383
188.65100,-5.377583422
188.65150,-4.462000199
188.65200,-1.104861714
188.65250,0.115915917
188.65300,-4.156805791
188.65350,-12.09186039
188.65400,-16.05938769
188.65450,-13.31263802
188.65500,-8.124333091
188.65550,-5.682777829
188.65600,-4.767194606
188.65650,-3.241222568
188.65700,-0.7996673061
188.65750,-0.4944728984
188.65800,-2.325639345
188.65850,-4.462000199
188.65900,-5.682777829
188.65950,-6.598361052
188.66000,-8.124333091
188.66050,-9.650305129
188.66100,-9.650305129
188.66150,-7.819138683
188.66200,-4.156805791
188.66250,-0.1892784907
188.66300,1.947082363
188.66350,2.557471179
188.66400,2.862665586
188.66450,3.167859994
188.66500,3.778248809
188.66550,3.778248809
188.66600,3.167859994
188.66650,1.947082363
188.66700,0.7263047324
188.66750,-0.1892784907
188.66800,-2.020444937
188.66850,-4.462000199
188.66900,-5.987972237
188.66950,-6.293166645
188.67000,-6.293166645
188.67050,-7.208749868
188.67100,-9.039916314
188.67150,-9.955499537
188.67200,-9.039916314
188.67250,-6.90355546
188.67300,-5.377583422
188.67350,-4.156805791
188.67400,-3.546416975
188.67450,-2.630833752
188.67500,-2.020444937
188.67550,-1.410056122
188.67600,0.7263047324
188.67650,4.99902644
188.67700,9.576942556
188.67750,12.93408104
188.67800,14.46005308
188.67850,15.3756363
188.67900,15.68083071
188.67950,15.3756363
188.68000,13.54446986
188.68050,11.10291459
188.68100,9.271748148
188.68150,7.74577611
188.68200,4.99902644
188.68250,1.03149914
188.68300,-1.715250529
188.68350,-3.241222568
188.68400,-3.851611383
188.68450,-4.767194606
188.68500,-5.072389014
188.68550,-4.462000199
188.68600,-4.462000199
188.68650,-5.377583422
188.68700,-5.987972237
188.68750,-3.851611383
188.68800,-0.1892784907
188.68850,1.947082363
188.68900,2.557471179
188.68950,4.083443217
188.69000,5.609415256
188.69050,4.99902644
188.69100,1.641887955
188.69150,-1.410056122
188.69200,-2.93602816
188.69250,-2.93602816
188.69300,-2.630833752
188.69350,-2.020444937
188.69400,0.115915917
188.69450,1.947082363
188.69500,2.557471179
188.69550,1.03149914
188.69600,-1.104861714
188.69650,-3.546416975
188.69700,-5.377583422
188.69750,-5.377583422
188.69800,-4.462000199
188.69850,-3.546416975
188.69900,-2.93602816
188.69950,-1.715250529
188.70000,0.115915917
188.70050,1.947082363
188.70100,4.388637625
188.70150,8.356164925
188.70200,12.32369223
188.70250,12.93408104
188.70300,9.576942556
188.70350,6.219804071
188.70400,6.524998479
188.70450,9.576942556
188.70500,11.408109
188.70550,11.71330341
188.70600,11.10291459
188.70650,11.10291459
188.70700,9.882136963
188.70750,7.74577611
188.70800,5.914609663
188.70850,5.304220848
188.70900,5.304220848
188.70950,3.473054402
188.71000,0.7263047324
188.71050,-0.7996673061
188.71100,-1.410056122
188.71150,-1.715250529
188.71200,-4.462000199
188.71250,-8.734721906
188.71300,-12.09186039
188.71350,-14.53341565
188.71400,-16.05938769
188.71450,-16.97497091
188.71500,-15.44899888
188.71550,-13.00744361
188.71600,-11.48147158
188.71650,-11.48147158
188.71700,-9.650305129
188.71750,-2.630833752
188.71800,6.524998479
188.71850,13.84966426
188.71900,15.68083071
188.71950,14.15485867
188.72000,12.62888663
188.72050,12.32369223
188.72100,12.01849782
188.72150,10.79772019
188.72200,8.96655374
188.72250,7.74577611
188.72300,7.135387294
188.72350,6.524998479
188.72400,4.083443217
188.72450,1.336693548
188.72500,1.336693548
188.72550,3.778248809
188.72600,5.304220848
188.72650,4.99902644
188.72700,4.388637625
188.72750,3.778248809
188.72800,0.7263047324
188.72850,-5.987972237
188.72900,-14.83861006
188.72950,-18.50094295
188.73000,-15.75419328
188.73050,-10.87108276
188.73100,-7.819138683
188.73150,-7.513944276
188.73200,-7.819138683
188.73250,-8.124333091
188.73300,-8.734721906
188.73350,-9.955499537
188.73400,-9.955499537
188.73450,-9.345110722
188.73500,-8.429527499
188.73550,-6.598361052
188.73600,-2.93602816
188.73650,1.03149914
188.73700,3.473054402
188.73750,3.167859994
188.73800,1.947082363
188.73850,1.641887955
188.73900,1.641887955
188.73950,0.115915917
188.74000,-1.410056122
188.74050,-1.104861714
188.74100,0.4211103247
188.74150,1.03149914
188.74200,1.03149914
188.74250,1.947082363
188.74300,4.083443217
188.74350,4.083443217
188.74400,1.336693548
188.74450,-1.715250529
188.74500,-2.93602816
188.74550,-2.325639345
188.74600,-1.715250529
188.74650,-1.715250529
188.74700,-2.020444937
188.74750,-2.93602816
188.74800,-3.851611383
188.74850,-4.767194606
188.74900,-5.377583422
188.74950,-6.293166645
188.75000,-6.598361052
188.75050,-5.072389014
188.75100,-0.7996673061
188.75150,2.862665586
188.75200,4.083443217
188.75250,3.778248809
188.75300,4.388637625
188.75350,5.609415256
188.75400,4.388637625
188.75450,1.03149914
188.75500,-2.325639345
188.75550,-4.462000199
188.75600,-5.682777829
188.75650,-5.377583422
188.75700,-2.93602816
188.75750,0.7263047324
188.75800,4.083443217
188.75850,4.99902644
188.75900,5.609415256
188.75950,7.440581702
188.76000,8.356164925
188.76050,6.219804071
188.76100,1.947082363
188.76150,-0.4944728984
188.76200,-1.410056122
188.76250,-2.020444937
188.76300,-4.462000199
188.76350,-6.598361052
188.76400,-7.513944276
188.76450,-7.208749868
188.76500,-6.293166645
188.76550,-5.072389014
188.76600,-3.546416975
188.76650,-1.715250529
188.76700,-0.1892784907
188.76750,0.4211103247
188.76800,-0.1892784907
188.76850,-2.020444937
188.76900,-3.851611383
188.76950,-5.682777829
188.77000,-6.90355546
188.77050,-7.819138683
188.77100,-7.819138683
188.77150,-6.293166645
188.77200,-4.462000199
188.77250,-3.546416975
188.77300,-4.156805791
188.77350,-4.156805791
188.77400,-2.020444937
188.77450,1.336693548
188.77500,5.914609663
188.77550,11.10291459
188.77600,17.20680275
188.77650,22.08991327
188.77700,22.70030209
188.77750,18.42758038
188.77800,12.93408104
188.77850,9.576942556
188.77900,7.74577611
188.77950,4.083443217
188.78000,-1.410056122
188.78050,-6.293166645
188.78100,-7.819138683
188.78150,-7.819138683
188.78200,-7.819138683
188.78250,-7.208749868
188.78300,-4.462000199
188.78350,-0.4944728984
188.78400,2.252276771
188.78450,5.609415256
188.78500,10.79772019
188.78550,15.3756363
188.78600,15.3756363
188.78650,12.01849782
188.78700,9.576942556
188.78750,10.18733137
188.78800,12.01849782
188.78850,13.23927545
188.78900,13.54446986
188.78950,14.15485867
188.79000,13.54446986
188.79050,12.01849782
188.79100,10.18733137
188.79150,8.661359333
188.79200,5.304220848
188.79250,1.947082363
188.79300,0.115915917
188.79350,-0.4944728984
188.79400,-1.715250529
188.79450,-5.072389014
188.79500,-8.429527499
188.79550,-10.56588835
188.79600,-12.3970548
188.79650,-14.83861006
188.79700,-15.75419328
188.79750,-14.22822125
188.79800,-12.3970548
188.79850,-12.09186039
188.79900,-12.70224921
188.79950,-11.48147158
188.80000,-8.734721906
188.80050,-5.987972237
188.80100,-3.241222568
188.80150,0.115915917
188.80200,2.557471179
188.80250,2.862665586
188.80300,1.947082363
188.80350,1.641887955
188.80400,2.862665586
188.80450,4.083443217
188.80500,4.388637625
188.80550,4.083443217
188.80600,2.862665586
188.80650,2.252276771
188.80700,2.557471179
188.80750,4.693832032
188.80800,6.219804071
188.80850,4.99902644
188.80900,1.336693548
188.80950,-1.715250529
188.81000,-2.630833752
188.81050,-0.7996673061
188.81100,1.03149914
188.81150,1.336693548
188.81200,-0.1892784907
188.81250,-2.630833752
188.81300,-2.93602816
188.81350,-1.715250529
188.81400,-2.325639345
188.81450,-5.987972237
188.81500,-9.650305129
188.81550,-10.56588835
188.81600,-9.345110722
188.81650,-8.429527499
188.81700,-8.734721906
188.81750,-8.734721906
188.81800,-7.208749868
188.81850,-3.851611383
188.81900,-0.1892784907
188.81950,2.557471179
188.82000,4.388637625
188.82050,5.609415256
188.82100,7.135387294
188.82150,8.356164925
188.82200,8.661359333
188.82250,8.661359333
188.82300,9.271748148
188.82350,9.882136963
188.82400,9.576942556
188.82450,8.050970517
188.82500,6.830192886
188.82550,6.830192886
188.82600,6.219804071
188.82650,4.99902644
188.82700,3.167859994
188.82750,2.557471179
188.82800,1.641887955
188.82850,-2.020444937
188.82900,-7.513944276
188.82950,-11.78666598
188.83000,-13.00744361
188.83050,-11.48147158
188.83100,-9.345110722
188.83150,-8.124333091
188.83200,-7.208749868
188.83250,-5.682777829
188.83300,-4.156805791
188.83350,-2.325639345
188.83400,-1.104861714
188.83450,-0.1892784907
188.83500,0.7263047324
188.83550,2.252276771
188.83600,3.167859994
188.83650,3.778248809
188.83700,3.778248809
188.83750,1.641887955
188.83800,-2.630833752
188.83850,-6.598361052
188.83900,-5.377583422
188.83950,1.03149914
188.84000,8.356164925
188.84050,12.32369223
188.84100,13.23927545
188.84150,13.54446986
188.84200,12.93408104
188.84250,10.79772019
188.84300,8.356164925
188.84350,8.356164925
188.84400,9.271748148
188.84450,8.661359333
188.84500,5.914609663
188.84550,3.778248809
188.84600,3.167859994
188.84650,1.336693548
188.84700,-1.715250529
188.84750,-5.072389014
188.84800,-5.987972237
188.84850,-5.682777829
188.84900,-5.377583422
188.84950,-5.072389014
188.85000,-3.851611383
188.85050,-2.325639345
188.85100,-1.410056122
188.85150,0.4211103247
188.85200,5.609415256
188.85250,12.01849782
188.85300,15.3756363
188.85350,13.23927545
188.85400,8.661359333
188.85450,4.693832032
188.85500,2.557471179
188.85550,0.7263047324
188.85600,-0.1892784907
188.85650,-1.715250529
188.85700,-3.851611383
188.85750,-8.124333091
188.85800,-13.31263802
188.85850,-16.3645821
188.85900,-16.05938769
188.85950,-13.31263802
188.86000,-9.955499537
188.86050,-7.208749868
188.86100,-5.377583422
188.86150,-4.767194606
188.86200,-5.072389014
188.86250,-5.682777829
188.86300,-5.682777829
188.86350,-4.462000199
188.86400,-3.546416975
188.86450,-2.630833752
188.86500,-1.410056122
188.86550,0.7263047324
188.86600,2.557471179
188.86650,2.252276771
188.86700,1.336693548
188.86750,1.641887955
188.86800,3.473054402
188.86850,5.304220848
188.86900,5.914609663
188.86950,5.609415256
188.87000,4.388637625
188.87050,1.641887955
188.87100,-2.325639345
188.87150,-5.987972237
188.87200,-7.208749868
188.87250,-7.513944276
188.87300,-8.429527499
188.87350,-9.955499537
188.87400,-10.87108276
188.87450,-10.87108276
188.87500,-10.26069394
188.87550,-9.039916314
188.87600,-7.208749868
188.87650,-5.682777829
188.87700,-3.851611383
188.87750,-0.1892784907
188.87800,3.778248809
188.87850,4.99902644
188.87900,1.641887955
188.87950,-2.325639345
188.88000,-3.241222568
188.88050,0.115915917
188.88100,3.167859994
188.88150,4.99902644
188.88200,5.609415256
188.88250,5.304220848
188.88300,2.862665586
188.88350,-0.4944728984
188.88400,-2.020444937
188.88450,0.115915917
188.88500,2.557471179
188.88550,3.473054402
188.88600,2.862665586
188.88650,2.252276771
188.88700,1.641887955
188.88750,0.7263047324
188.88800,-0.7996673061
188.88850,-3.241222568
188.88900,-5.682777829
188.88950,-6.90355546
188.89000,-7.513944276
188.89050,-7.208749868
188.89100,-6.598361052
188.89150,-4.156805791
188.89200,0.115915917
188.89250,4.99902644
188.89300,7.440581702
188.89350,7.440581702
188.89400,6.219804071
188.89450,5.914609663
188.89500,5.914609663
188.89550,4.693832032
188.89600,3.167859994
188.89650,1.03149914
188.89700,-0.1892784907
188.89750,-0.7996673061
188.89800,0.115915917
188.89850,1.03149914
188.89900,2.252276771
188.89950,2.862665586
188.90000,3.167859994
188.90050,3.778248809
188.90100,4.083443217
188.90150,4.083443217
188.90200,4.083443217
188.90250,4.388637625
188.90300,4.99902644
188.90350,5.609415256
188.90400,4.99902644
188.90450,3.473054402
188.90500,2.557471179
188.90550,2.862665586
188.90600,2.862665586
188.90650,1.641887955
188.90700,0.115915917
188.90750,0.7263047324
188.90800,4.388637625
188.90850,8.050970517
188.90900,8.050970517
188.90950,5.609415256
188.91000,3.778248809
188.91050,3.473054402
188.91100,3.167859994
188.91150,2.557471179
188.91200,2.557471179
188.91250,2.862665586
188.91300,1.336693548
188.91350,-2.020444937
188.91400,-5.377583422
188.91450,-5.987972237
188.91500,-5.072389014
188.91550,-5.377583422
188.91600,-8.734721906
188.91650,-13.61783243
188.91700,-18.19574855
188.91750,-22.77366466
188.91800,-26.74119196
188.91850,-29.79313604
188.91900,-31.92949689
188.91950,-31.92949689
188.92000,-28.57235841
188.92050,-20.3321094
188.92100,-5.987972237
188.92150,10.18733137
188.92200,21.78471886
188.92250,25.14185735
188.92300,22.70030209
188.92350,19.64835801
188.92400,18.73277479
188.92450,18.12238597
188.92500,16.59641393
188.92550,15.07044189
188.92600,14.76524749
188.92650,14.76524749
188.92700,13.54446986
188.92750,11.408109
188.92800,10.79772019
188.92850,11.71330341
188.92900,12.01849782
188.92950,10.18733137
188.93000,7.440581702
188.93050,6.219804071
188.93100,6.219804071
188.93150,6.219804071
188.93200,4.693832032
188.93250,2.862665586
188.93300,1.03149914
188.93350,0.115915917
188.93400,-2.020444937
188.93450,-4.462000199
188.93500,-7.208749868
188.93550,-8.734721906
188.93600,-8.124333091
188.93650,-5.377583422
188.93700,-2.020444937
188.93750,-0.4944728984
188.93800,-0.4944728984
188.93850,-0.7996673061
188.93900,-0.7996673061
188.93950,-0.4944728984
188.94000,-1.410056122
188.94050,-2.325639345
188.94100,-2.020444937
188.94150,-0.7996673061
188.94200,-0.4944728984
188.94250,-1.715250529
188.94300,-2.630833752
188.94350,-2.020444937
188.94400,-0.4944728984
188.94450,0.115915917
188.94500,0.115915917
188.94550,1.947082363
188.94600,4.083443217
188.94650,4.083443217
188.94700,1.641887955
188.94750,-0.4944728984
188.94800,-1.104861714
188.94850,-1.104861714
188.94900,-1.715250529
188.94950,-1.715250529
188.95000,-1.104861714
188.95050,-0.1892784907
188.95100,0.4211103247
188.95150,1.641887955
188.95200,2.252276771
188.95250,1.03149914
188.95300,-1.715250529
188.95350,-5.072389014
188.95400,-5.987972237
188.95450,-5.072389014
188.95500,-5.072389014
188.95550,-5.987972237
188.95600,-6.90355546
188.95650,-6.90355546
188.95700,-6.293166645
188.95750,-5.377583422
188.95800,-5.377583422
188.95850,-5.682777829
188.95900,-5.987972237
188.95950,-5.682777829
188.96000,-6.598361052
188.96050,-9.345110722
188.96100,-12.09186039
188.96150,-11.17627717
188.96200,-7.208749868
188.96250,-3.851611383
188.96300,-3.546416975
188.96350,-3.546416975
188.96400,0.115915917
188.96450,6.219804071
188.96500,11.408109
188.96550,12.32369223
188.96600,10.49252578
188.96650,7.74577611
188.96700,4.693832032
188.96750,2.862665586
188.96800,1.641887955
188.96850,0.115915917
188.96900,-2.630833752
188.96950,-5.682777829
188.97000,-6.90355546
188.97050,-6.90355546
188.97100,-7.513944276
188.97150,-9.345110722
188.97200,-10.87108276
188.97250,-11.48147158
188.97300,-11.48147158
188.97350,-10.87108276
188.97400,-7.513944276
188.97450,-0.4944728984
188.97500,7.440581702
188.97550,15.68083071
188.97600,22.70030209
188.97650,28.19380143
188.97700,30.02496787
188.97750,28.49899583
188.97800,25.75224616
188.97850,24.22627413
188.97900,22.08991327
188.97950,17.20680275
188.98000,9.576942556
188.98050,3.778248809
188.98100,1.641887955
188.98150,0.115915917
188.98200,-3.851611383
188.98250,-9.650305129
188.98300,-12.70224921
188.98350,-10.87108276
188.98400,-7.513944276
188.98450,-6.90355546
188.98500,-8.734721906
188.98550,-9.345110722
188.98600,-8.734721906
188.98650,-8.734721906
188.98700,-10.87108276
188.98750,-13.31263802
188.98800,-13.92302684
188.98850,-12.70224921
188.98900,-11.17627717
188.98950,-9.955499537
188.99000,-8.429527499
188.99050,-6.293166645
188.99100,-2.93602816
188.99150,1.641887955
188.99200,8.356164925
188.99250,15.3756363
188.99300,19.64835801
188.99350,18.42758038
188.99400,13.54446986
188.99450,8.661359333
188.99500,7.135387294
188.99550,7.74577611
188.99600,6.219804071
188.99650,1.641887955
188.99700,-3.851611383
188.99750,-6.598361052
188.99800,-6.293166645
188.99850,-5.377583422
188.99900,-4.462000199
188.99950,-2.020444937
189.00000,0.7263047324
189.00050,1.336693548
189.00100,0.115915917
189.00150,-1.104861714
189.00200,0.115915917
189.00250,1.641887955
189.00300,2.252276771
189.00350,1.641887955
189.00400,1.947082363
189.00450,2.862665586
189.00500,2.862665586
189.00550,3.167859994
189.00600,4.083443217
189.00650,4.693832032
189.00700,4.388637625
189.00750,4.99902644
189.00800,7.135387294
189.00850,8.661359333
189.00900,7.135387294
189.00950,4.388637625
189.01000,2.862665586
189.01050,2.557471179
189.01100,1.641887955
189.01150,0.7263047324
189.01200,1.336693548
189.01250,2.557471179
189.01300,1.641887955
189.01350,-0.4944728984
189.01400,-1.104861714
189.01450,0.4211103247
189.01500,2.252276771
189.01550,2.252276771
189.01600,1.03149914
189.01650,0.115915917
189.01700,-0.1892784907
189.01750,0.115915917
189.01800,1.336693548
189.01850,3.473054402
189.01900,4.388637625
189.01950,4.693832032
189.02000,6.219804071
189.02050,8.356164925
189.02100,9.576942556
189.02150,8.96655374
189.02200,8.050970517
189.02250,7.135387294
189.02300,4.083443217
189.02350,0.115915917
189.02400,-2.93602816
189.02450,-4.156805791
189.02500,-5.377583422
189.02550,-5.987972237
189.02600,-5.377583422
189.02650,-4.462000199
189.02700,-6.598361052
189.02750,-11.78666598
189.02800,-14.83861006
189.02850,-13.61783243
189.02900,-10.56588835
189.02950,-9.039916314
189.03000,-8.124333091
189.03050,-5.987972237
189.03100,-4.156805791
189.03150,-3.851611383
189.03200,-4.462000199
189.03250,-3.546416975
189.03300,-1.104861714
189.03350,0.115915917
189.03400,0.115915917
189.03450,-0.7996673061
189.03500,-1.715250529
189.03550,-1.715250529
189.03600,0.115915917
189.03650,2.252276771
189.03700,3.473054402
189.03750,3.167859994
189.03800,3.167859994
189.03850,4.083443217
189.03900,4.693832032
189.03950,3.778248809
189.04000,2.557471179
189.04050,1.03149914
189.04100,-2.020444937
189.04150,-6.598361052
189.04200,-10.26069394
189.04250,-12.09186039
189.04300,-12.3970548
189.04350,-12.09186039
189.04400,-9.955499537
189.04450,-5.377583422
189.04500,0.115915917
189.04550,4.083443217
189.04600,5.304220848
189.04650,4.083443217
189.04700,1.641887955
189.04750,0.4211103247
189.04800,1.03149914
189.04850,1.641887955
189.04900,0.7263047324
189.04950,-0.4944728984
189.05000,-0.4944728984
189.05050,0.115915917
189.05100,-0.1892784907
189.05150,-1.104861714
189.05200,-0.1892784907
189.05250,1.947082363
189.05300,1.336693548
189.05350,-2.630833752
189.05400,-8.124333091
189.05450,-11.17627717
189.05500,-12.09186039
189.05550,-12.3970548
189.05600,-11.48147158
189.05650,-7.819138683
189.05700,-3.851611383
189.05750,-2.325639345
189.05800,-2.630833752
189.05850,-2.630833752
189.05900,-1.104861714
189.05950,0.115915917
189.06000,0.4211103247
189.06050,1.03149914
189.06100,2.862665586
189.06150,4.388637625
189.06200,4.693832032
189.06250,4.388637625
189.06300,4.388637625
189.06350,5.304220848
189.06400,6.524998479
189.06450,7.440581702
189.06500,7.74577611
189.06550,6.830192886
189.06600,5.304220848
189.06650,4.693832032
189.06700,3.778248809
189.06750,1.336693548
189.06800,-2.630833752
189.06850,-7.513944276
189.06900,-9.955499537
189.06950,-10.26069394
189.07000,-9.345110722
189.07050,-7.819138683
189.07100,-5.987972237
189.07150,-3.546416975
189.07200,-1.104861714
189.07250,0.4211103247
189.07300,1.03149914
189.07350,1.641887955
189.07400,1.641887955
189.07450,1.947082363
189.07500,2.252276771
189.07550,3.167859994
189.07600,5.304220848
189.07650,7.74577611
189.07700,8.356164925
189.07750,5.304220848
189.07800,1.03149914
189.07850,-1.410056122
189.07900,-1.715250529
189.07950,-1.104861714
189.08000,-1.104861714
189.08050,-1.410056122
189.08100,-1.410056122
189.08150,-2.325639345
189.08200,-4.767194606
189.08250,-8.124333091
189.08300,-10.56588835
189.08350,-11.17627717
189.08400,-10.26069394
189.08450,-8.124333091
189.08500,-3.851611383
189.08550,2.252276771
189.08600,9.271748148
189.08650,13.54446986
189.08700,12.93408104
189.08750,8.96655374
189.08800,6.524998479
189.08850,8.356164925
189.08900,12.93408104
189.08950,15.68083071
189.09000,13.84966426
189.09050,9.576942556
189.09100,6.830192886
189.09150,7.440581702
189.09200,9.271748148
189.09250,8.96655374
189.09300,4.083443217
189.09350,-2.93602816
189.09400,-8.734721906
189.09450,-11.48147158
189.09500,-10.87108276
189.09550,-9.650305129
189.09600,-7.819138683
189.09650,-5.682777829
189.09700,-2.93602816
189.09750,-1.104861714
189.09800,-1.104861714
189.09850,-2.020444937
189.09900,-2.93602816
189.09950,-2.93602816
189.10000,-2.325639345
189.10050,-2.325639345
189.10100,-2.93602816
189.10150,-3.241222568
189.10200,-2.630833752
189.10250,-1.104861714
189.10300,0.115915917
189.10350,1.641887955
189.10400,3.167859994
189.10450,4.99902644
189.10500,5.609415256
189.10550,2.862665586
189.10600,-1.715250529
189.10650,-4.462000199
189.10700,-2.630833752
189.10750,0.4211103247
189.10800,0.4211103247
189.10850,-2.325639345
189.10900,-3.851611383
189.10950,-2.325639345
189.11000,-1.410056122
189.11050,-3.546416975
189.11100,-5.682777829
189.11150,-1.715250529
189.11200,8.050970517
189.11250,18.12238597
189.11300,22.08991327
189.11350,19.95355242
189.11400,15.3756363
189.11450,12.01849782
189.11500,10.18733137
189.11550,8.96655374
189.11600,8.050970517
189.11650,8.050970517
189.11700,8.356164925
189.11750,7.135387294
189.11800,4.388637625
189.11850,1.641887955
189.11900,1.03149914
189.11950,1.641887955
189.12000,1.03149914
189.12050,-1.104861714
189.12100,-3.241222568
189.12150,-3.241222568
189.12200,-2.93602816
189.12250,-3.546416975
189.12300,-3.851611383
189.12350,-1.410056122
189.12400,3.778248809
189.12450,7.440581702
189.12500,7.440581702
189.12550,5.914609663
189.12600,6.219804071
189.12650,8.661359333
189.12700,9.882136963
189.12750,7.440581702
189.12800,1.947082363
189.12850,-3.851611383
189.12900,-7.513944276
189.12950,-8.734721906
189.13000,-9.345110722
189.13050,-10.26069394
189.13100,-11.78666598
189.13150,-13.00744361
189.13200,-12.3970548
189.13250,-10.56588835
189.13300,-7.513944276
189.13350,-5.377583422
189.13400,-4.462000199
189.13450,-3.546416975
189.13500,-0.1892784907
189.13550,6.219804071
189.13600,12.93408104
189.13650,15.98602512
189.13700,13.84966426
189.13750,8.661359333
189.13800,3.473054402
189.13850,0.115915917
189.13900,-2.325639345
189.13950,-3.851611383
189.14000,-3.241222568
189.14050,-0.7996673061
189.14100,0.4211103247
189.14150,0.115915917
189.14200,-1.410056122
189.14250,-2.630833752
189.14300,-2.93602816
189.14350,-3.546416975
189.14400,-5.682777829
189.14450,-8.124333091
189.14500,-9.955499537
189.14550,-9.650305129
189.14600,-8.734721906
189.14650,-7.513944276
189.14700,-6.90355546
189.14750,-6.598361052
189.14800,-6.598361052
189.14850,-6.598361052
189.14900,-5.987972237
189.14950,-5.377583422
189.15000,-5.072389014
189.15050,-4.462000199
189.15100,-2.630833752
189.15150,0.4211103247
189.15200,2.252276771
189.15250,1.641887955
189.15300,-0.7996673061
189.15350,-2.93602816
189.15400,-2.630833752
189.15450,-1.104861714
189.15500,0.115915917
189.15550,-0.1892784907
189.15600,-0.4944728984
189.15650,0.4211103247
189.15700,3.473054402
189.15750,6.524998479
189.15800,6.524998479
189.15850,4.083443217
189.15900,1.336693548
189.15950,0.115915917
189.16000,-0.4944728984
189.16050,-1.715250529
189.16100,-2.93602816
189.16150,-3.851611383
189.16200,-5.377583422
189.16250,-7.208749868
189.16300,-7.208749868
189.16350,-3.546416975
189.16400,3.473054402
189.16450,10.18733137
189.16500,12.62888663
189.16550,10.18733137
189.16600,6.524998479
189.16650,4.693832032
189.16700,5.914609663
189.16750,6.830192886
189.16800,4.388637625
189.16850,0.115915917
189.16900,-1.715250529
189.16950,0.4211103247
189.17000,3.473054402
189.17050,3.167859994
189.17100,1.03149914
189.17150,0.115915917
189.17200,0.4211103247
189.17250,0.115915917
189.17300,-0.7996673061
189.17350,0.115915917
189.17400,3.473054402
189.17450,7.74577611
189.17500,9.576942556
189.17550,9.271748148
189.17600,7.74577611
189.17650,4.083443217
189.17700,-1.410056122
189.17750,-8.429527499
189.17800,-13.61783243
189.17850,-15.14380447
189.17900,-13.61783243
189.17950,-11.17627717
189.18000,-8.734721906
189.18050,-8.124333091
189.18100,-8.124333091
189.18150,-6.90355546
189.18200,-3.851611383
189.18250,-0.7996673061
189.18300,0.4211103247
189.18350,-0.1892784907
189.18400,-2.630833752
189.18450,-4.767194606
189.18500,-5.987972237
189.18550,-5.682777829
189.18600,-5.072389014
189.18650,-5.072389014
189.18700,-5.682777829
189.18750,-5.377583422
189.18800,-4.156805791
189.18850,-2.020444937
189.18900,0.7263047324
189.18950,6.219804071
189.19000,12.93408104
189.19050,18.12238597
189.19100,19.03796919
189.19150,17.51199716
189.19200,15.98602512
189.19250,14.76524749
189.19300,13.54446986
189.19350,12.93408104
189.19400,12.93408104
189.19450,11.10291459
189.19500,6.524998479
189.19550,2.252276771
189.19600,0.115915917
189.19650,0.115915917
189.19700,0.115915917
189.19750,-0.4944728984
189.19800,-1.104861714
189.19850,-1.410056122
189.19900,-2.325639345
189.19950,-2.020444937
189.20000,0.115915917
189.20050,2.252276771
189.20100,2.862665586
189.20150,1.947082363
189.20200,1.641887955
189.20250,2.252276771
189.20300,2.557471179
189.20350,2.557471179
189.20400,1.947082363
189.20450,0.115915917
189.20500,-2.93602816
189.20550,-3.851611383
189.20600,-0.7996673061
189.20650,2.557471179
189.20700,1.641887955
189.20750,-2.630833752
189.20800,-6.598361052
189.20850,-6.598361052
189.20900,-5.072389014
189.20950,-4.156805791
189.21000,-3.546416975
189.21050,-2.325639345
189.21100,0.115915917
189.21150,1.947082363
189.21200,2.862665586
189.21250,2.862665586
189.21300,2.862665586
189.21350,2.862665586
189.21400,2.557471179
189.21450,1.03149914
189.21500,-0.4944728984
189.21550,-1.104861714
189.21600,-0.4944728984
189.21650,-0.7996673061
189.21700,-2.325639345
189.21750,-3.546416975
189.21800,-2.325639345
189.21850,-0.4944728984
189.21900,-0.1892784907
189.21950,-2.325639345
189.22000,-4.156805791
189.22050,-2.020444937
189.22100,2.862665586
189.22150,6.524998479
189.22200,5.304220848
189.22250,0.4211103247
189.22300,-4.767194606
189.22350,-8.124333091
189.22400,-10.26069394
189.22450,-11.48147158
189.22500,-11.17627717
189.22550,-9.650305129
189.22600,-7.208749868
189.22650,-6.293166645
189.22700,-6.90355546
189.22750,-6.293166645
189.22800,-2.020444937
189.22850,5.609415256
189.22900,13.23927545
189.22950,16.29121953
189.23000,13.54446986
189.23050,8.356164925
189.23100,4.083443217
189.23150,1.641887955
189.23200,-0.4944728984
189.23250,-4.156805791
189.23300,-6.293166645
189.23350,-5.987972237
189.23400,-3.546416975
189.23450,-1.715250529
189.23500,-1.715250529
189.23550,-2.93602816
189.23600,-3.241222568
189.23650,-2.020444937
189.23700,-0.1892784907
189.23750,0.7263047324
189.23800,0.7263047324
189.23850,0.115915917
189.23900,-1.410056122
189.23950,-3.241222568
189.24000,-4.767194606
189.24050,-5.377583422
189.24100,-5.072389014
189.24150,-5.072389014
189.24200,-4.462000199
189.24250,-1.715250529
189.24300,1.947082363
189.24350,5.914609663
189.24400,10.79772019
189.24450,16.29121953
189.24500,19.64835801
189.24550,17.51199716
189.24600,12.32369223
189.24650,9.882136963
189.24700,10.79772019
189.24750,10.79772019
189.24800,8.050970517
189.24850,5.914609663
189.24900,6.219804071
189.24950,5.609415256
189.25000,1.641887955
189.25050,-2.325639345
189.25100,-4.767194606
189.25150,-7.208749868
189.25200,-12.3970548
189.25250,-16.66977651
189.25300,-16.66977651
189.25350,-13.00744361
189.25400,-9.039916314
189.25450,-5.377583422
189.25500,-2.325639345
189.25550,-1.715250529
189.25600,-2.93602816
189.25650,-2.630833752
189.25700,-0.4944728984
189.25750,0.115915917
189.25800,-2.325639345
189.25850,-5.377583422
189.25900,-5.072389014
189.25950,-2.93602816
189.26000,-1.104861714
189.26050,1.336693548
189.26100,4.99902644
189.26150,7.135387294
189.26200,6.219804071
189.26250,5.914609663
189.26300,8.96655374
189.26350,12.32369223
189.26400,11.10291459
189.26450,7.74577611
189.26500,6.830192886
189.26550,7.135387294
189.26600,3.778248809
189.26650,-2.93602816
189.26700,-9.345110722
189.26750,-13.31263802
189.26800,-16.3645821
189.26850,-18.50094295
189.26900,-17.28016532
189.26950,-12.70224921
189.27000,-8.429527499
189.27050,-7.208749868
189.27100,-8.734721906
189.27150,-11.48147158
189.27200,-13.31263802
189.27250,-12.70224921
189.27300,-9.345110722
189.27350,-5.377583422
189.27400,-2.630833752
189.27450,-1.410056122
189.27500,-0.7996673061
189.27550,-1.104861714
189.27600,-3.241222568
189.27650,-5.377583422
189.27700,-6.598361052
189.27750,-5.987972237
189.27800,-4.767194606
189.27850,-1.410056122
189.27900,3.473054402
189.27950,6.830192886
189.28000,6.219804071
189.28050,3.778248809
189.28100,4.693832032
189.28150,8.050970517
189.28200,9.882136963
189.28250,9.882136963
189.28300,10.18733137
189.28350,10.79772019
189.28400,8.96655374
189.28450,4.99902644
189.28500,3.167859994
189.28550,5.304220848
189.28600,8.356164925
189.28650,8.96655374
189.28700,8.356164925
189.28750,8.96655374
189.28800,10.18733137
189.28850,10.79772019
189.28900,10.79772019
189.28950,11.71330341
189.29000,11.71330341
189.29050,9.271748148
189.29100,5.609415256
189.29150,4.083443217
189.29200,4.083443217
189.29250,2.252276771
189.29300,-1.715250529
189.29350,-3.851611383
189.29400,-2.325639345
189.29450,0.115915917
189.29500,-0.1892784907
189.29550,-2.325639345
189.29600,-3.546416975
189.29650,-3.851611383
189.29700,-6.90355546
189.29750,-12.09186039
189.29800,-15.44899888
189.29850,-14.83861006
189.29900,-13.92302684
189.29950,-18.19574855
189.30000,-26.13080315
189.30050,-31.62430248
189.30100,-29.79313604
189.30150,-22.46847025
189.30200,-13.31263802
189.30250,-4.156805791
189.30300,4.99902644
189.30350,14.15485867
189.30400,19.3431636
189.30450,19.64835801
189.30500,16.90160834
189.30550,15.3756363
189.30600,15.3756363
189.30650,13.84966426
189.30700,9.271748148
189.30750,4.083443217
189.30800,0.7263047324
189.30850,-0.4944728984
189.30900,-2.325639345
189.30950,-4.462000199
189.31000,-5.987972237
189.31050,-6.598361052
189.31100,-6.90355546
189.31150,-6.293166645
189.31200,-3.851611383
189.31250,0.4211103247
189.31300,5.304220848
189.31350,8.96655374
189.31400,10.79772019
189.31450,11.10291459
189.31500,10.49252578
189.31550,10.18733137
189.31600,10.79772019
189.31650,12.32369223
189.31700,13.54446986
189.31750,13.23927545
189.31800,11.10291459
189.31850,6.524998479
189.31900,0.7263047324
189.31950,-4.462000199
189.32000,-6.598361052
189.32050,-5.682777829
189.32100,-2.020444937
189.32150,2.557471179
189.32200,7.440581702
189.32250,10.79772019
189.32300,12.01849782
189.32350,12.01849782
189.32400,11.71330341
189.32450,11.71330341
189.32500,12.62888663
189.32550,14.46005308
189.32600,14.46005308
189.32650,10.18733137
189.32700,3.778248809
189.32750,-0.1892784907
189.32800,-0.1892784907
189.32850,-0.1892784907
189.32900,-3.241222568
189.32950,-7.513944276
189.33000,-9.345110722
189.33050,-7.819138683
189.33100,-6.90355546
189.33150,-8.124333091
189.33200,-9.955499537
189.33250,-10.56588835
189.33300,-9.955499537
189.33350,-8.734721906
189.33400,-6.90355546
189.33450,-4.462000199
189.33500,-2.630833752
189.33550,-1.104861714
189.33600,-0.7996673061
189.33650,-2.020444937
189.33700,-4.156805791
189.33750,-5.682777829
189.33800,-5.072389014
189.33850,-3.241222568
189.33900,-2.630833752
189.33950,-3.851611383
189.34000,-4.462000199
189.34050,-2.93602816
189.34100,-1.104861714
189.34150,-0.4944728984
189.34200,-1.104861714
189.34250,-1.410056122
189.34300,0.115915917
189.34350,2.557471179
189.34400,3.778248809
189.34450,2.862665586
189.34500,2.252276771
189.34550,3.473054402
189.34600,4.99902644
189.34650,5.304220848
189.34700,4.388637625
189.34750,5.304220848
189.34800,6.524998479
189.34850,5.609415256
189.34900,1.947082363
189.34950,-1.104861714
189.35000,-0.4944728984
189.35050,2.557471179
189.35100,5.914609663
189.35150,8.050970517
189.35200,8.050970517
189.35250,6.830192886
189.35300,4.99902644
189.35350,3.778248809
189.35400,2.862665586
189.35450,1.947082363
189.35500,0.4211103247
189.35550,-1.104861714
189.35600,-3.851611383
189.35650,-7.513944276
189.35700,-10.87108276
189.35750,-12.70224921
189.35800,-13.61783243
189.35850,-14.22822125
189.35900,-13.92302684
189.35950,-12.09186039
189.36000,-10.26069394
189.36050,-9.955499537
189.36100,-10.26069394
189.36150,-9.039916314
189.36200,-6.598361052
189.36250,-5.072389014
189.36300,-4.156805791
189.36350,-2.325639345
189.36400,0.115915917
189.36450,1.03149914
189.36500,0.4211103247
189.36550,0.115915917
189.36600,0.115915917
189.36650,-0.1892784907
189.36700,-1.104861714
189.36750,-1.410056122
189.36800,-2.020444937
189.36850,-3.546416975
189.36900,-3.851611383
189.36950,-1.104861714
189.37000,2.557471179
189.37050,4.083443217
189.37100,2.557471179
189.37150,1.641887955
189.37200,2.252276771
189.37250,2.557471179
189.37300,1.03149914
189.37350,-0.1892784907
189.37400,-0.1892784907
189.37450,0.115915917
189.37500,-0.4944728984
189.37550,-1.104861714
189.37600,-0.4944728984
189.37650,0.115915917
189.37700,0.4211103247
189.37750,0.7263047324
189.37800,1.947082363
189.37850,2.862665586
189.37900,3.473054402
189.37950,3.473054402
189.38000,3.778248809
189.38050,4.693832032
189.38100,6.830192886
189.38150,8.96655374
189.38200,9.271748148
189.38250,7.74577611
189.38300,6.830192886
189.38350,7.74577611
189.38400,7.74577611
189.38450,4.388637625
189.38500,-0.7996673061
189.38550,-5.072389014
189.38600,-7.208749868
189.38650,-8.429527499
189.38700,-8.124333091
189.38750,-5.377583422
189.38800,-1.410056122
189.38850,1.03149914
189.38900,4.693832032
189.38950,10.18733137
189.39000,15.3756363
189.39050,13.54446986
189.39100,4.083443217
189.39150,-6.293166645
189.39200,-10.56588835
189.39250,-7.513944276
189.39300,-2.325639345
189.39350,-0.1892784907
189.39400,-2.020444937
189.39450,-5.682777829
189.39500,-8.124333091
189.39550,-8.429527499
189.39600,-7.513944276
189.39650,-6.90355546
189.39700,-6.90355546
189.39750,-6.293166645
189.39800,-4.767194606
189.39850,-3.241222568
189.39900,-2.93602816
189.39950,-3.546416975
189.40000,-2.630833752
189.40050,0.4211103247
189.40100,5.304220848
189.40150,8.661359333
189.40200,10.18733137
189.40250,11.408109
189.40300,12.93408104
189.40350,13.84966426
189.40400,13.23927545
189.40450,12.01849782
189.40500,11.71330341
189.40550,11.10291459
189.40600,7.74577611
189.40650,3.167859994
189.40700,0.115915917
189.40750,-1.104861714
189.40800,-2.325639345
189.40850,-5.072389014
189.40900,-8.429527499
189.40950,-11.48147158
189.41000,-13.61783243
189.41050,-13.61783243
189.41100,-9.345110722
189.41150,-1.715250529
189.41200,5.609415256
189.41250,9.882136963
189.41300,10.49252578
189.41350,9.271748148
189.41400,7.74577611
189.41450,8.356164925
189.41500,10.49252578
189.41550,11.10291459
189.41600,8.050970517
189.41650,2.252276771
189.41700,-1.410056122
189.41750,-2.020444937
189.41800,-2.325639345
189.41850,-5.682777829
189.41900,-10.87108276
189.41950,-14.22822125
189.42000,-14.53341565
189.42050,-14.83861006
189.42100,-15.75419328
189.42150,-15.75419328
189.42200,-14.22822125
189.42250,-13.00744361
189.42300,-12.3970548
189.42350,-10.87108276
189.42400,-6.90355546
189.42450,-1.715250529
189.42500,3.167859994
189.42550,7.74577611
189.42600,11.71330341
189.42650,13.84966426
189.42700,12.93408104
189.42750,11.408109
189.42800,10.18733137
189.42850,9.271748148
189.42900,6.219804071
189.42950,2.252276771
189.43000,-1.104861714
189.43050,-4.156805791
189.43100,-7.208749868
189.43150,-7.819138683
189.43200,-5.072389014
189.43250,-0.4944728984
189.43300,1.336693548
189.43350,0.115915917
189.43400,-1.410056122
189.43450,-0.4944728984
189.43500,1.336693548
189.43550,2.557471179
189.43600,3.473054402
189.43650,4.99902644
189.43700,6.524998479
189.43750,6.830192886
189.43800,7.135387294
189.43850,8.356164925
189.43900,8.96655374
189.43950,6.830192886
189.44000,4.388637625
189.44050,4.693832032
189.44100,6.830192886
189.44150,7.135387294
189.44200,4.693832032
189.44250,1.336693548
189.44300,-0.4944728984
189.44350,-3.546416975
189.44400,-8.734721906
189.44450,-13.92302684
189.44500,-16.3645821
189.44550,-16.05938769
189.44600,-16.3645821
189.44650,-18.19574855
189.44700,-19.41652618
189.44750,-17.89055414
189.44800,-14.22822125
189.44850,-9.345110722
189.44900,-5.377583422
189.44950,-4.462000199
189.45000,-7.819138683
189.45050,-12.70224921
189.45100,-14.53341565
189.45150,-12.09186039
189.45200,-8.124333091
189.45250,-5.682777829
189.45300,-4.156805791
189.45350,-2.630833752
189.45400,-0.1892784907
189.45450,1.641887955
189.45500,2.862665586
189.45550,1.947082363
189.45600,-0.1892784907
189.45650,-2.325639345
189.45700,-2.325639345
189.45750,-0.4944728984
189.45800,1.947082363
189.45850,4.693832032
189.45900,7.440581702
189.45950,9.271748148
189.46000,9.576942556
189.46050,10.79772019
189.46100,14.46005308
189.46150,19.03796919
189.46200,20.56394123
189.46250,18.12238597
189.46300,14.46005308
189.46350,10.18733137
189.46400,5.609415256
189.46450,1.947082363
189.46500,2.862665586
189.46550,6.830192886
189.46600,7.74577611
189.46650,5.304220848
189.46700,3.778248809
189.46750,6.219804071
189.46800,8.050970517
189.46850,4.693832032
189.46900,-0.4944728984
189.46950,-2.325639345
189.47000,-0.4944728984
189.47050,1.03149914
189.47100,1.947082363
189.47150,3.473054402
189.47200,5.609415256
189.47250,5.914609663
189.47300,4.99902644
189.47350,4.388637625
189.47400,2.862665586
189.47450,-1.104861714
189.47500,-5.377583422
189.47550,-6.293166645
189.47600,-4.767194606
189.47650,-3.546416975
189.47700,-3.546416975
189.47750,-2.93602816
189.47800,-1.715250529
189.47850,-1.410056122
189.47900,-2.020444937
189.47950,-1.715250529
189.48000,-1.715250529
189.48050,-2.93602816
189.48100,-4.462000199
189.48150,-4.156805791
189.48200,-2.325639345
189.48250,-1.104861714
189.48300,0.115915917
189.48350,4.388637625
189.48400,9.576942556
189.48450,11.10291459
189.48500,8.356164925
189.48550,4.99902644
189.48600,3.473054402
189.48650,3.473054402
189.48700,3.778248809
189.48750,4.388637625
189.48800,4.99902644
189.48850,4.083443217
189.48900,2.557471179
189.48950,2.557471179
189.49000,3.778248809
189.49050,2.862665586
189.49100,0.4211103247
189.49150,-1.104861714
189.49200,-0.4944728984
189.49250,1.03149914
189.49300,1.336693548
189.49350,0.4211103247
189.49400,-1.715250529
189.49450,-5.682777829
189.49500,-9.345110722
189.49550,-10.56588835
189.49600,-10.56588835
189.49650,-11.17627717
189.49700,-13.31263802
189.49750,-14.53341565
189.49800,-13.61783243
189.49850,-10.87108276
189.49900,-5.682777829
189.49950,1.03149914
189.50000,6.219804071
189.50050,5.914609663
189.50100,1.947082363
189.50150,-1.104861714
189.50200,-2.325639345
189.50250,-4.156805791
189.50300,-4.767194606
189.50350,-1.104861714
189.50400,5.914609663
189.50450,11.10291459
189.50500,11.408109
189.50550,9.271748148
189.50600,8.050970517
189.50650,7.74577611
189.50700,7.440581702
189.50750,9.271748148
189.50800,11.71330341
189.50850,9.271748148
189.50900,0.4211103247
189.50950,-8.124333091
189.51000,-10.26069394
189.51050,-7.208749868
189.51100,-4.462000199
189.51150,-3.851611383
189.51200,-2.93602816
189.51250,-0.7996673061
189.51300,1.336693548
189.51350,3.167859994
189.51400,4.388637625
189.51450,4.083443217
189.51500,1.947082363
189.51550,-0.1892784907
189.51600,-0.1892784907
189.51650,1.336693548
189.51700,2.557471179
189.51750,2.252276771
189.51800,1.641887955
189.51850,1.336693548
189.51900,1.947082363
189.51950,3.473054402
189.52000,6.830192886
189.52050,9.271748148
189.52100,8.050970517
189.52150,4.083443217
189.52200,0.4211103247
189.52250,0.115915917
189.52300,2.252276771
189.52350,4.99902644
189.52400,6.219804071
189.52450,5.914609663
189.52500,4.388637625
189.52550,2.862665586
189.52600,1.03149914
189.52650,-2.020444937
189.52700,-7.208749868
189.52750,-11.78666598
189.52800,-13.00744361
189.52850,-11.17627717
189.52900,-9.650305129
189.52950,-9.650305129
189.53000,-9.955499537
189.53050,-9.039916314
189.53100,-7.819138683
189.53150,-6.598361052
189.53200,-2.630833752
189.53250,4.083443217
189.53300,9.271748148
189.53350,7.74577611
189.53400,2.557471179
189.53450,-0.1892784907
189.53500,0.115915917
189.53550,0.4211103247
189.53600,-1.410056122
189.53650,-2.630833752
189.53700,-1.715250529
189.53750,-0.1892784907
189.53800,-0.1892784907
189.53850,-0.4944728984
189.53900,-0.1892784907
189.53950,1.03149914
189.54000,3.778248809
189.54050,7.440581702
189.54100,10.18733137
189.54150,10.18733137
189.54200,8.96655374
189.54250,9.576942556
189.54300,11.71330341
189.54350,12.32369223
189.54400,9.882136963
189.54450,7.135387294
189.54500,6.830192886
189.54550,6.830192886
189.54600,3.167859994
189.54650,-2.630833752
189.54700,-6.90355546
189.54750,-7.819138683
189.54800,-8.124333091
189.54850,-10.26069394
189.54900,-13.31263802
189.54950,-14.53341565
189.55000,-13.31263802
189.55050,-11.48147158
189.55100,-9.650305129
189.55150,-7.513944276
189.55200,-5.682777829
189.55250,-5.377583422
189.55300,-7.208749868
189.55350,-9.039916314
189.55400,-8.429527499
189.55450,-5.987972237
189.55500,-4.156805791
189.55550,-3.546416975
189.55600,-2.93602816
189.55650,-2.020444937
189.55700,-1.104861714
189.55750,-0.1892784907
189.55800,0.7263047324
189.55850,2.252276771
189.55900,2.862665586
189.55950,3.778248809
189.56000,4.99902644
189.56050,6.524998479
189.56100,5.609415256
189.56150,3.167859994
189.56200,2.557471179
189.56250,3.167859994
189.56300,2.252276771
189.56350,-0.1892784907
189.56400,-0.7996673061
189.56450,2.557471179
189.56500,6.830192886
189.56550,6.219804071
189.56600,1.336693548
189.56650,-2.020444937
189.56700,-1.715250529
189.56750,-1.104861714
189.56800,-3.851611383
189.56850,-8.734721906
189.56900,-11.78666598
189.56950,-10.87108276
189.57000,-8.734721906
189.57050,-7.208749868
189.57100,-6.293166645
189.57150,-4.462000199
189.57200,-2.325639345
189.57250,-2.020444937
189.57300,-3.241222568
189.57350,-3.241222568
189.57400,-1.104861714
189.57450,0.7263047324
189.57500,0.4211103247
189.57550,0.115915917
189.57600,2.252276771
189.57650,4.693832032
189.57700,4.083443217
189.57750,0.115915917
189.57800,-1.715250529
189.57850,-0.4944728984
189.57900,2.557471179
189.57950,4.693832032
189.58000,5.609415256
189.58050,6.219804071
189.58100,5.914609663
189.58150,4.388637625
189.58200,2.252276771
189.58250,0.115915917
189.58300,-0.4944728984
189.58350,-0.1892784907
189.58400,0.7263047324
189.58450,1.336693548
189.58500,1.03149914
