"type","name","time_units","begin_time","frequency","count","units"
"signal","Ultium EMG-EXT.DIG. RT","s",76.92000,2000,22000,"uV"

"time","value"
76.92000,0.7908210914
76.92050,-16.60526015
76.92100,-32.47536935
76.92150,-38.88445191
76.92200,-40.41042395
76.92250,-46.20911769
76.92300,-53.83897789
76.92350,-51.09222822
76.92400,-33.08575816
76.92450,-10.19617759
76.92500,4.147959576
76.92550,8.115486876
76.92600,5.673931615
76.92650,-1.345539762
76.92700,-14.46889929
76.92750,-30.94939731
76.92800,-40.71561836
76.92850,-36.74809106
76.92900,-20.57278745
76.92950,-2.261122986
76.93000,6.589514838
76.93050,5.368737207
76.93100,1.096015499
76.93150,-0.4299565394
76.93200,-0.4299565394
76.93250,-1.955928578
76.93300,-5.313067063
76.93350,-7.449427917
76.93400,-8.059816732
76.93450,-9.280594363
76.93500,-11.11176081
76.93550,-12.33253844
76.93600,-12.63773285
76.93650,-12.02734403
76.93700,-9.280594363
76.93750,-3.176706209
76.93800,2.621987538
76.93850,3.842765168
76.93900,0.180432276
76.93950,-1.040345355
76.94000,4.147959576
76.94050,12.38820858
76.94100,18.18690233
76.94150,22.45962404
76.94200,27.95312338
76.94250,32.22584508
76.94300,30.08948423
76.94350,21.23884641
76.94400,11.77781977
76.94450,5.979126022
76.94500,2.927181945
76.94550,0.7908210914
76.94600,-0.7351509471
76.94650,-2.261122986
76.94700,-5.61826147
76.94750,-11.11176081
76.94800,-15.99487133
76.94850,-18.13123219
76.94900,-19.35200982
76.94950,-21.18317626
76.95000,-21.79356508
76.95050,-19.04681541
76.95100,-14.7740937
76.95150,-10.8065664
76.95200,-7.449427917
76.95250,-4.702678247
76.95300,-2.871511801
76.95350,-0.1247621317
76.95400,5.368737207
76.95450,14.21937503
76.95500,22.76481845
76.95550,27.95312338
76.95600,28.56351219
76.95650,25.51156812
76.95700,19.71287437
76.95750,14.52456944
76.95800,14.21937503
76.95850,19.10248555
76.95900,24.59598489
76.95950,25.20637371
76.96000,21.54404082
76.96050,16.9661247
76.96100,12.38820858
76.96150,6.589514838
76.96200,1.096015499
76.96250,-1.345539762
76.96300,-1.040345355
76.96350,-0.4299565394
76.96400,-0.1247621317
76.96450,1.401209907
76.96500,3.232376353
76.96550,3.842765168
76.96600,3.232376353
76.96650,2.927181945
76.96700,2.621987538
76.96750,0.180432276
76.96800,-4.092289432
76.96850,-8.670205547
76.96900,-13.85851048
76.96950,-19.35200982
76.97000,-23.01434271
76.97050,-21.18317626
76.97100,-14.7740937
76.97150,-9.890983178
76.97200,-9.58578877
76.97250,-10.19617759
76.97300,-9.280594363
76.97350,-8.36501114
76.97400,-9.890983178
76.97450,-12.63773285
76.97500,-13.55331607
76.97550,-12.63773285
76.97600,-12.02734403
76.97650,-11.72214962
76.97700,-9.890983178
76.97750,-5.61826147
76.97800,-1.040345355
76.97850,1.706404315
76.97900,4.453153984
76.97950,11.16743095
76.98000,23.07001285
76.98050,36.49856679
76.98100,43.51803817
76.98150,37.41415002
76.98200,20.01806878
76.98250,1.401209907
76.98300,-6.839039101
76.98350,-3.176706209
76.98400,3.232376353
76.98450,4.453153984
76.98500,1.401209907
76.98550,2.621987538
76.98600,8.420681284
76.98650,9.946653322
76.98700,1.706404315
76.98750,-8.975399955
76.98800,-13.24812166
76.98850,-11.41695522
76.98900,-12.02734403
76.98950,-16.60526015
76.99000,-18.43642659
76.99050,-14.7740937
76.99100,-11.11176081
76.99150,-10.8065664
76.99200,-10.19617759
76.99250,-8.36501114
76.99300,-10.8065664
76.99350,-21.18317626
76.99400,-32.17017494
76.99450,-34.30653579
76.99500,-28.20264764
76.99550,-21.48837067
76.99600,-17.82603778
76.99650,-14.7740937
76.99700,-10.19617759
76.99750,-7.449427917
76.99800,-6.533844693
76.99850,-5.007872655
76.99900,-1.345539762
76.99950,1.706404315
77.00000,3.537570761
77.00050,5.368737207
77.00100,7.505098061
77.00150,7.505098061
77.00200,5.368737207
77.00250,4.758348392
77.00300,7.199903653
77.00350,9.031070099
77.00400,7.810292469
77.00450,4.453153984
77.00500,1.706404315
77.00550,1.096015499
77.00600,6.589514838
77.00650,23.37520726
77.00700,44.43362139
77.00750,54.81023125
77.00800,49.31673192
77.00850,40.16089968
77.00900,37.10895561
77.00950,31.00506745
77.01000,10.55704214
77.01050,-12.94292726
77.01100,-17.82603778
77.01150,-2.566317393
77.01200,12.9985974
77.01250,16.35573588
77.01300,12.69340299
77.01350,11.16743095
77.01400,9.946653322
77.01450,8.420681284
77.01500,10.25184773
77.01550,15.44015266
77.01600,18.79729115
77.01650,19.10248555
77.01700,20.01806878
77.01750,17.57651352
77.01800,2.621987538
77.01850,-17.52084337
77.01900,-23.31953712
77.01950,-9.280594363
77.02000,3.537570761
77.02050,-0.1247621317
77.02100,-12.02734403
77.02150,-15.68967692
77.02200,-12.02734403
77.02250,-11.11176081
77.02300,-14.7740937
77.02350,-19.65720422
77.02400,-30.03381409
77.02450,-48.95586736
77.02500,-63.60519893
77.02550,-59.33247723
77.02600,-41.63120158
77.02650,-30.33900849
77.02700,-30.6442029
77.02750,-29.42342527
77.02800,-17.21564896
77.02850,-1.040345355
77.02900,7.505098061
77.02950,7.199903653
77.03000,3.232376353
77.03050,0.180432276
77.03100,-0.1247621317
77.03150,3.232376353
77.03200,7.505098061
77.03250,9.336264507
77.03300,7.505098061
77.03350,4.453153984
77.03400,0.7908210914
77.03450,-2.566317393
77.03500,-4.092289432
77.03550,-0.7351509471
77.03600,4.453153984
77.03650,7.810292469
77.03700,8.115486876
77.03750,9.336264507
77.03800,10.86223655
77.03850,10.86223655
77.03900,12.69340299
77.03950,21.23884641
77.04000,33.14142831
77.04050,36.8037612
77.04100,29.78428982
77.04150,23.07001285
77.04200,23.98559608
77.04250,25.20637371
77.04300,15.44015266
77.04350,-1.345539762
77.04400,-13.24812166
77.04450,-14.46889929
77.04500,-13.24812166
77.04550,-15.07928811
77.04600,-19.35200982
77.04650,-23.31953712
77.04700,-27.59225882
77.04750,-30.33900849
77.04800,-26.98187001
77.04850,-19.35200982
77.04900,-16.60526015
77.04950,-24.23512034
77.05000,-34.91692461
77.05050,-37.96886869
77.05100,-32.78056376
77.05150,-27.89745323
77.05200,-26.6766756
77.05250,-24.54031475
77.05300,-15.99487133
77.05350,-4.702678247
77.05400,2.621987538
77.05450,3.842765168
77.05500,2.621987538
77.05550,6.894709245
77.05600,20.01806878
77.05650,40.16089968
77.05700,60.608925
77.05750,74.64786776
77.05800,81.66733913
77.05850,82.88811676
77.05900,77.69981183
77.05950,64.88164671
77.06000,46.87517665
77.06050,30.39467864
77.06100,20.62845759
77.06150,16.05054148
77.06200,11.16743095
77.06250,2.927181945
77.06300,-5.007872655
77.06350,-10.19617759
77.06400,-12.02734403
77.06450,-13.55331607
77.06500,-13.85851048
77.06550,-11.11176081
77.06600,-5.61826147
77.06650,-1.65073417
77.06700,-1.955928578
77.06750,-1.955928578
77.06800,1.401209907
77.06850,5.368737207
77.06900,5.368737207
77.06950,1.096015499
77.07000,-3.787095024
77.07050,-7.754622324
77.07100,-11.72214962
77.07150,-13.85851048
77.07200,-12.33253844
77.07250,-9.280594363
77.07300,-9.58578877
77.07350,-13.24812166
77.07400,-14.46889929
77.07450,-10.50137199
77.07500,-6.228650286
77.07550,-6.839039101
77.07600,-10.19617759
77.07650,-10.8065664
77.07700,-8.36501114
77.07750,-6.839039101
77.07800,-7.144233509
77.07850,-7.144233509
77.07900,-5.61826147
77.07950,-4.702678247
77.08000,-5.313067063
77.08050,-5.313067063
77.08100,-3.176706209
77.08150,-1.040345355
77.08200,-0.7351509471
77.08250,-1.955928578
77.08300,-3.481900616
77.08350,-5.313067063
77.08400,-7.449427917
77.08450,-9.58578877
77.08500,-11.11176081
77.08550,-11.72214962
77.08600,-10.19617759
77.08650,-7.449427917
77.08700,-5.313067063
77.08750,-5.313067063
77.08800,-6.228650286
77.08850,-6.533844693
77.08900,-7.754622324
77.08950,-13.24812166
77.09000,-20.26759304
77.09050,-22.7091483
77.09100,-18.13123219
77.09150,-11.11176081
77.09200,-6.839039101
77.09250,-4.39748384
77.09300,-1.040345355
77.09350,2.31679313
77.09400,3.537570761
77.09450,2.31679313
77.09500,0.4856266837
77.09550,-0.1247621317
77.09600,-0.7351509471
77.09650,-0.1247621317
77.09700,2.621987538
77.09750,5.368737207
77.09800,5.368737207
77.09850,4.453153984
77.09900,4.758348392
77.09950,7.199903653
77.10000,10.25184773
77.10050,13.60898621
77.10100,16.9661247
77.10150,15.13495825
77.10200,5.063542799
77.10250,-9.280594363
77.10300,-17.82603778
77.10350,-15.99487133
77.10400,-7.754622324
77.10450,0.4856266837
77.10500,5.979126022
77.10550,8.725875692
77.10600,8.725875692
77.10650,7.199903653
77.10700,5.979126022
77.10750,5.673931615
77.10800,5.063542799
77.10850,4.758348392
77.10900,4.758348392
77.10950,4.758348392
77.11000,2.927181945
77.11050,0.180432276
77.11100,-2.261122986
77.11150,-7.754622324
77.11200,-17.82603778
77.11250,-28.81303646
77.11300,-32.47536935
77.11350,-25.45589797
77.11400,-13.55331607
77.11450,-5.007872655
77.11500,-0.7351509471
77.11550,4.147959576
77.11600,12.9985974
77.11650,20.933652
77.11700,22.45962404
77.11750,18.18690233
77.11800,14.82976385
77.11850,18.18690233
77.11900,24.59598489
77.11950,27.03754015
77.12000,23.37520726
77.12050,16.05054148
77.12100,4.147959576
77.12150,-16.30006574
77.12200,-44.98834006
77.12250,-68.18311505
77.12300,-71.54025353
77.12350,-54.75456111
77.12400,-31.55978612
77.12450,-13.24812166
77.12500,-0.4299565394
77.12550,10.55704214
77.12600,20.933652
77.12650,25.20637371
77.12700,22.15442963
77.12750,16.35573588
77.12800,12.69340299
77.12850,9.641458915
77.12900,1.706404315
77.12950,-9.890983178
77.13000,-18.43642659
77.13050,-18.43642659
77.13100,-15.68967692
77.13150,-17.21564896
77.13200,-20.26759304
77.13250,-18.43642659
77.13300,-12.33253844
77.13350,-7.144233509
77.13400,-1.040345355
77.13450,11.77781977
77.13500,28.56351219
77.13550,38.63492765
77.13600,39.55051087
77.13650,40.46609409
77.13700,46.26478784
77.13750,47.48556547
77.13800,35.58298357
77.13850,16.66093029
77.13900,3.842765168
77.13950,-0.7351509471
77.14000,-2.871511801
77.14050,-5.61826147
77.14100,-6.839039101
77.14150,-6.533844693
77.14200,-8.059816732
77.14250,-10.50137199
77.14300,-9.890983178
77.14350,-7.754622324
77.14400,-7.449427917
77.14450,-7.754622324
77.14500,-3.481900616
77.14550,5.673931615
77.14600,14.82976385
77.14650,18.18690233
77.14700,16.9661247
77.14750,15.13495825
77.14800,14.21937503
77.14850,11.16743095
77.14900,4.758348392
77.14950,-2.566317393
77.15000,-8.059816732
77.15050,-10.19617759
77.15100,-9.58578877
77.15150,-7.449427917
77.15200,-5.007872655
77.15250,-3.481900616
77.15300,-5.61826147
77.15350,-7.449427917
77.15400,-2.566317393
77.15450,9.031070099
77.15500,17.27131911
77.15550,13.60898621
77.15600,2.927181945
77.15650,-4.092289432
77.15700,-7.449427917
77.15750,-12.02734403
77.15800,-17.82603778
77.15850,-19.04681541
77.15900,-13.55331607
77.15950,-2.261122986
77.16000,15.74534707
77.16050,41.07648291
77.16100,63.96606349
77.16150,70.68034046
77.16200,61.52450822
77.16250,48.40114869
77.16300,38.63492765
77.16350,29.17390101
77.16400,17.27131911
77.16450,6.589514838
77.16500,-0.1247621317
77.16550,-5.313067063
77.16600,-9.58578877
77.16650,-12.33253844
77.16700,-18.741621
77.16750,-37.05328546
77.16800,-61.16364367
77.16850,-72.15064235
77.16900,-61.16364367
77.16950,-41.93639599
77.17000,-33.39095257
77.17050,-34.6117302
77.17100,-34.00134139
77.17150,-27.89745323
77.17200,-23.01434271
77.17250,-21.48837067
77.17300,-18.13123219
77.17350,-11.41695522
77.17400,-6.839039101
77.17450,-8.059816732
77.17500,-9.890983178
77.17550,-8.059816732
77.17600,-4.702678247
77.17650,-4.092289432
77.17700,-4.702678247
77.17750,-3.176706209
77.17800,-0.1247621317
77.17850,2.31679313
77.17900,3.537570761
77.17950,6.28432043
77.18000,10.86223655
77.18050,14.52456944
77.18100,14.21937503
77.18150,10.86223655
77.18200,7.505098061
77.18250,5.368737207
77.18300,3.537570761
77.18350,2.621987538
77.18400,2.31679313
77.18450,2.31679313
77.18500,2.927181945
77.18550,4.147959576
77.18600,5.368737207
77.18650,5.368737207
77.18700,3.537570761
77.18750,2.31679313
77.18800,2.011598722
77.18850,2.31679313
77.18900,1.401209907
77.18950,-0.1247621317
77.19000,-0.7351509471
77.19050,-0.4299565394
77.19100,0.4856266837
77.19150,1.096015499
77.19200,0.7908210914
77.19250,0.180432276
77.19300,-0.1247621317
77.19350,0.180432276
77.19400,0.4856266837
77.19450,-0.1247621317
77.19500,-0.7351509471
77.19550,0.4856266837
77.19600,2.927181945
77.19650,2.927181945
77.19700,0.4856266837
77.19750,-0.4299565394
77.19800,-0.4299565394
77.19850,-2.566317393
77.19900,-7.449427917
77.19950,-8.975399955
77.20000,-2.566317393
77.20050,7.810292469
77.20100,16.66093029
77.20150,22.76481845
77.20200,27.03754015
77.20250,28.25831778
77.20300,25.51156812
77.20350,23.07001285
77.20400,23.68040167
77.20450,20.62845759
77.20500,9.641458915
77.20550,-1.040345355
77.20600,-0.7351509471
77.20650,4.758348392
77.20700,0.180432276
77.20750,-16.30006574
77.20800,-28.20264764
77.20850,-23.92992593
77.20900,-14.7740937
77.20950,-15.07928811
77.21000,-21.18317626
77.21050,-19.35200982
77.21100,-7.754622324
77.21150,3.232376353
77.21200,8.420681284
77.21250,11.16743095
77.21300,12.69340299
77.21350,12.38820858
77.21400,10.25184773
77.21450,8.725875692
77.21500,5.368737207
77.21550,-2.261122986
77.21600,-11.72214962
77.21650,-15.68967692
77.21700,-16.30006574
77.21750,-21.48837067
77.21800,-31.25459172
77.21850,-35.52731343
77.21900,-28.50784205
77.21950,-14.16370489
77.22000,1.096015499
77.22050,16.9661247
77.22100,30.69987305
77.22150,36.19337238
77.22200,30.69987305
77.22250,21.23884641
77.22300,15.13495825
77.22350,12.38820858
77.22400,9.946653322
77.22450,6.894709245
77.22500,2.31679313
77.22550,-7.144233509
77.22600,-21.79356508
77.22650,-32.78056376
77.22700,-34.00134139
77.22750,-30.33900849
77.22800,-31.25459172
77.22850,-35.83250783
77.22900,-34.00134139
77.22950,-24.23512034
77.23000,-14.16370489
77.23050,-9.280594363
77.23100,-3.787095024
77.23150,9.031070099
77.23200,28.8687066
77.23250,48.7063431
77.23300,63.35567467
77.23350,69.76475723
77.23400,65.18684112
77.23450,49.62192632
77.23500,29.47909542
77.23550,13.60898621
77.23600,6.28432043
77.23650,4.758348392
77.23700,5.063542799
77.23750,4.147959576
77.23800,2.31679313
77.23850,-0.1247621317
77.23900,-2.261122986
77.23950,-4.092289432
77.24000,-6.839039101
77.24050,-10.50137199
77.24100,-12.63773285
77.24150,-11.11176081
77.24200,-6.839039101
77.24250,-3.176706209
77.24300,-1.65073417
77.24350,-1.65073417
77.24400,-1.65073417
77.24450,-1.040345355
77.24500,0.4856266837
77.24550,1.706404315
77.24600,0.4856266837
77.24650,-3.176706209
77.24700,-7.449427917
77.24750,-8.670205547
77.24800,-7.144233509
77.24850,-5.313067063
77.24900,-5.313067063
77.24950,-7.449427917
77.25000,-9.58578877
77.25050,-9.280594363
77.25100,-6.533844693
77.25150,-3.787095024
77.25200,-1.345539762
77.25250,2.31679313
77.25300,7.199903653
77.25350,10.55704214
77.25400,10.55704214
77.25450,10.86223655
77.25500,12.38820858
77.25550,11.47262536
77.25600,5.368737207
77.25650,-1.65073417
77.25700,-3.176706209
77.25750,-0.7351509471
77.25800,-0.4299565394
77.25850,-3.481900616
77.25900,-5.313067063
77.25950,-5.61826147
77.26000,-8.975399955
77.26050,-14.46889929
77.26100,-15.99487133
77.26150,-12.02734403
77.26200,-8.670205547
77.26250,-8.059816732
77.26300,-5.923455878
77.26350,-0.1247621317
77.26400,2.621987538
77.26450,-2.871511801
77.26500,-11.72214962
77.26550,-14.46889929
77.26600,-10.8065664
77.26650,-8.670205547
77.26700,-10.8065664
77.26750,-12.33253844
77.26800,-10.50137199
77.26850,-7.754622324
77.26900,-6.228650286
77.26950,-5.313067063
77.27000,-3.176706209
77.27050,0.180432276
77.27100,4.758348392
77.27150,10.25184773
77.27200,14.82976385
77.27250,15.13495825
77.27300,8.115486876
77.27350,-3.787095024
77.27400,-15.68967692
77.27450,-23.62473152
77.27500,-26.06628679
77.27550,-24.84550916
77.27600,-20.57278745
77.27650,-13.55331607
77.27700,-5.007872655
77.27750,4.453153984
77.27800,13.91418062
77.27850,22.76481845
77.27900,31.61545627
77.27950,39.55051087
77.28000,45.34920462
77.28050,46.26478784
77.28100,42.60245495
77.28150,38.02453883
77.28200,34.05701153
77.28250,24.59598489
77.28300,2.31679313
77.28350,-26.37148119
77.28400,-46.5143121
77.28450,-46.5143121
77.28500,-32.17017494
77.28550,-16.60526015
77.28600,-6.533844693
77.28650,-1.345539762
77.28700,0.7908210914
77.28750,-0.1247621317
77.28800,-1.65073417
77.28850,-2.261122986
77.28900,-1.345539762
77.28950,-1.65073417
77.29000,-2.261122986
77.29050,-1.040345355
77.29100,1.096015499
77.29150,2.621987538
77.29200,2.621987538
77.29250,2.011598722
77.29300,1.706404315
77.29350,1.706404315
77.29400,1.401209907
77.29450,0.4856266837
77.29500,-1.345539762
77.29550,-4.092289432
77.29600,-5.007872655
77.29650,-3.176706209
77.29700,-1.955928578
77.29750,-4.092289432
77.29800,-8.36501114
77.29850,-10.8065664
77.29900,-10.50137199
77.29950,-9.280594363
77.30000,-6.228650286
77.30050,-0.7351509471
77.30100,4.147959576
77.30150,5.368737207
77.30200,3.232376353
77.30250,2.011598722
77.30300,2.011598722
77.30350,-0.4299565394
77.30400,-6.228650286
77.30450,-12.02734403
77.30500,-15.68967692
77.30550,-20.87798186
77.30600,-27.59225882
77.30650,-29.72861968
77.30700,-19.96239863
77.30750,-1.65073417
77.30800,12.38820858
77.30850,13.91418062
77.30900,5.673931615
77.30950,-2.871511801
77.31000,-6.839039101
77.31050,-6.533844693
77.31100,-6.228650286
77.31150,-7.449427917
77.31200,-8.059816732
77.31250,-6.839039101
77.31300,-4.39748384
77.31350,-1.65073417
77.31400,0.7908210914
77.31450,3.842765168
77.31500,5.673931615
77.31550,5.063542799
77.31600,2.31679313
77.31650,0.180432276
77.31700,0.7908210914
77.31750,1.096015499
77.31800,-0.7351509471
77.31850,-3.787095024
77.31900,-4.092289432
77.31950,-0.1247621317
77.32000,4.453153984
77.32050,6.894709245
77.32100,7.505098061
77.32150,8.115486876
77.32200,8.115486876
77.32250,7.505098061
77.32300,6.28432043
77.32350,6.28432043
77.32400,7.505098061
77.32450,9.336264507
77.32500,10.55704214
77.32550,9.946653322
77.32600,8.115486876
77.32650,4.758348392
77.32700,0.7908210914
77.32750,-2.261122986
77.32800,-4.39748384
77.32850,-5.313067063
77.32900,-4.702678247
77.32950,-4.39748384
77.33000,-4.702678247
77.33050,-6.228650286
77.33100,-8.975399955
77.33150,-12.33253844
77.33200,-14.46889929
77.33250,-12.02734403
77.33300,-3.787095024
77.33350,5.063542799
77.33400,9.031070099
77.33450,7.505098061
77.33500,7.199903653
77.33550,12.69340299
77.33600,21.23884641
77.33650,27.03754015
77.33700,27.03754015
77.33750,22.76481845
77.33800,16.05054148
77.33850,6.894709245
77.33900,-1.955928578
77.33950,-7.754622324
77.34000,-9.58578877
77.34050,-9.58578877
77.34100,-8.36501114
77.34150,-4.39748384
77.34200,1.096015499
77.34250,5.063542799
77.34300,5.979126022
77.34350,6.28432043
77.34400,7.199903653
77.34450,4.453153984
77.34500,-5.007872655
77.34550,-16.30006574
77.34600,-21.48837067
77.34650,-17.52084337
77.34700,-11.11176081
77.34750,-8.059816732
77.34800,-6.228650286
77.34850,0.4856266837
77.34900,14.21937503
77.34950,26.73234575
77.35000,29.78428982
77.35050,25.81676252
77.35100,23.07001285
77.35150,25.81676252
77.35200,27.64792897
77.35250,20.32326318
77.35300,5.673931615
77.35350,-7.449427917
77.35400,-13.24812166
77.35450,-13.55331607
77.35500,-12.94292726
77.35550,-14.16370489
77.35600,-15.99487133
77.35650,-17.21564896
77.35700,-16.91045456
77.35750,-15.68967692
77.35800,-16.30006574
77.35850,-17.82603778
77.35900,-15.99487133
77.35950,-6.533844693
77.36000,6.894709245
77.36050,17.27131911
77.36100,20.62845759
77.36150,20.32326318
77.36200,20.32326318
77.36250,20.32326318
77.36300,18.79729115
77.36350,17.57651352
77.36400,15.74534707
77.36450,9.336264507
77.36500,-2.261122986
77.36550,-13.55331607
77.36600,-17.52084337
77.36650,-15.07928811
77.36700,-14.7740937
77.36750,-21.18317626
77.36800,-29.42342527
77.36850,-31.86498053
77.36900,-27.28706442
77.36950,-20.87798186
77.37000,-16.60526015
77.37050,-12.02734403
77.37100,-4.092289432
77.37150,5.368737207
77.37200,11.47262536
77.37250,12.69340299
77.37300,12.38820858
77.37350,15.13495825
77.37400,19.71287437
77.37450,22.15442963
77.37500,24.59598489
77.37550,30.39467864
77.37600,36.49856679
77.37650,32.8362339
77.37700,14.21937503
77.37750,-9.280594363
77.37800,-26.37148119
77.37850,-33.08575816
77.37900,-33.39095257
77.37950,-29.72861968
77.38000,-20.26759304
77.38050,-8.670205547
77.38100,-1.955928578
77.38150,-1.955928578
77.38200,-2.871511801
77.38250,-0.7351509471
77.38300,1.096015499
77.38350,-0.1247621317
77.38400,-3.176706209
77.38450,-4.39748384
77.38500,-3.481900616
77.38550,-1.65073417
77.38600,-0.4299565394
77.38650,-0.1247621317
77.38700,-1.345539762
77.38750,-6.228650286
77.38800,-14.16370489
77.38850,-22.7091483
77.38900,-26.98187001
77.38950,-24.84550916
77.39000,-18.43642659
77.39050,-12.63773285
77.39100,-7.144233509
77.39150,1.706404315
77.39200,17.27131911
77.39250,33.44662272
77.39300,41.38167732
77.39350,36.8037612
77.39400,24.59598489
77.39450,12.9985974
77.39500,9.031070099
77.39550,14.82976385
77.39600,25.20637371
77.39650,31.31026186
77.39700,27.64792897
77.39750,17.57651352
77.39800,10.25184773
77.39850,8.420681284
77.39900,8.725875692
77.39950,7.505098061
77.40000,5.368737207
77.40050,3.842765168
77.40100,2.31679313
77.40150,0.7908210914
77.40200,-0.1247621317
77.40250,-0.7351509471
77.40300,-2.566317393
77.40350,-5.923455878
77.40400,-8.059816732
77.40450,-7.754622324
77.40500,-5.61826147
77.40550,-4.39748384
77.40600,-5.923455878
77.40650,-8.059816732
77.40700,-8.670205547
77.40750,-7.449427917
77.40800,-5.007872655
77.40850,-2.566317393
77.40900,-0.1247621317
77.40950,1.401209907
77.41000,2.31679313
77.41050,2.31679313
77.41100,2.927181945
77.41150,5.368737207
77.41200,8.420681284
77.41250,9.946653322
77.41300,10.25184773
77.41350,9.641458915
77.41400,8.115486876
77.41450,5.063542799
77.41500,2.011598722
77.41550,0.180432276
77.41600,-0.7351509471
77.41650,-4.39748384
77.41700,-11.41695522
77.41750,-19.65720422
77.41800,-25.76109238
77.41850,-29.11823086
77.41900,-29.72861968
77.41950,-28.50784205
77.42000,-25.45589797
77.42050,-19.96239863
77.42100,-12.63773285
77.42150,-5.923455878
77.42200,-3.176706209
77.42250,-4.702678247
77.42300,-6.533844693
77.42350,-5.313067063
77.42400,-1.345539762
77.42450,2.011598722
77.42500,2.927181945
77.42550,1.401209907
77.42600,-1.65073417
77.42650,-6.228650286
77.42700,-10.50137199
77.42750,-12.33253844
77.42800,-11.11176081
77.42850,-7.754622324
77.42900,-3.787095024
77.42950,0.180432276
77.43000,4.453153984
77.43050,8.115486876
77.43100,11.77781977
77.43150,15.44015266
77.43200,19.10248555
77.43250,22.76481845
77.43300,26.73234575
77.43350,28.8687066
77.43400,24.29079048
77.43450,10.86223655
77.43500,-7.144233509
77.43550,-21.18317626
77.43600,-27.59225882
77.43650,-27.89745323
77.43700,-24.54031475
77.43750,-17.82603778
77.43800,-13.55331607
77.43850,-16.30006574
77.43900,-21.18317626
77.43950,-18.13123219
77.44000,-7.449427917
77.44050,-2.871511801
77.44100,-10.19617759
77.44150,-19.04681541
77.44200,-18.43642659
77.44250,-10.8065664
77.44300,-3.787095024
77.44350,3.537570761
77.44400,15.44015266
77.44450,25.20637371
77.44500,27.03754015
77.44550,27.34273456
77.44600,34.36220594
77.44650,41.07648291
77.44700,35.58298357
77.44750,20.933652
77.44800,11.16743095
77.44850,4.453153984
77.44900,-11.72214962
77.44950,-37.66367428
77.45000,-54.14417229
77.45050,-48.34547855
77.45100,-31.86498053
77.45150,-20.57278745
77.45200,-17.21564896
77.45250,-15.38448252
77.45300,-12.94292726
77.45350,-12.02734403
77.45400,-11.11176081
77.45450,-9.280594363
77.45500,-7.144233509
77.45550,-6.228650286
77.45600,-5.61826147
77.45650,-3.176706209
77.45700,0.4856266837
77.45750,6.589514838
77.45800,14.82976385
77.45850,22.15442963
77.45900,24.9011793
77.45950,23.68040167
77.46000,21.54404082
77.46050,19.10248555
77.46100,15.44015266
77.46150,12.08301418
77.46200,11.16743095
77.46250,12.38820858
77.46300,12.08301418
77.46350,10.25184773
77.46400,8.725875692
77.46450,8.115486876
77.46500,8.420681284
77.46550,10.55704214
77.46600,14.52456944
77.46650,16.05054148
77.46700,13.30379181
77.46750,9.946653322
77.46800,10.55704214
77.46850,15.44015266
77.46900,21.23884641
77.46950,25.51156812
77.47000,25.51156812
77.47050,19.71287437
77.47100,11.16743095
77.47150,4.453153984
77.47200,-1.65073417
77.47250,-12.63773285
77.47300,-24.23512034
77.47350,-26.06628679
77.47400,-15.07928811
77.47450,-0.7351509471
77.47500,8.725875692
77.47550,14.52456944
77.47600,18.49209674
77.47650,17.88170792
77.47700,14.21937503
77.47750,17.57651352
77.47800,32.8362339
77.47850,51.14789836
77.47900,59.99853619
77.47950,56.6413977
77.48000,44.43362139
77.48050,23.68040167
77.48100,-3.176706209
77.48150,-31.25459172
77.48200,-53.83897789
77.48250,-68.79350386
77.48300,-73.67661439
77.48350,-67.26753183
77.48400,-53.53378348
77.48450,-41.93639599
77.48500,-36.74809106
77.48550,-37.66367428
77.48600,-41.93639599
77.48650,-48.34547855
77.48700,-50.78703381
77.48750,-44.07275684
77.48800,-33.69614698
77.48850,-30.03381409
77.48900,-32.47536935
77.48950,-34.30653579
77.49000,-34.91692461
77.49050,-40.41042395
77.49100,-46.20911769
77.49150,-41.93639599
77.49200,-27.89745323
77.49250,-18.13123219
77.49300,-19.35200982
77.49350,-20.57278745
77.49400,-9.58578877
77.49450,8.115486876
77.49500,20.62845759
77.49550,23.37520726
77.49600,23.37520726
77.49650,31.61545627
77.49700,54.81023125
77.49750,90.82317136
77.49800,125.3101394
77.49850,139.3490822
77.49900,129.2776667
77.49950,108.2192526
77.50000,92.3491434
77.50050,81.66733913
77.50100,67.32320197
77.50150,47.48556547
77.50200,29.17390101
77.50250,13.30379181
77.50300,-9.58578877
77.50350,-45.29353447
77.50400,-80.08569695
77.50450,-97.7869726
77.50500,-101.1441111
77.50550,-107.5531936
77.50600,-116.7090259
77.50650,-107.8583881
77.50700,-72.76103116
77.50750,-38.27406309
77.50800,-36.74809106
77.50850,-64.82597656
77.50900,-89.851918
77.50950,-88.32594596
77.51000,-63.60519893
77.51050,-27.59225882
77.51100,8.420681284
77.51150,33.44662272
77.51200,37.71934442
77.51250,23.68040167
77.51300,2.31679313
77.51350,-19.35200982
77.51400,-38.27406309
77.51450,-40.10522954
77.51500,-14.16370489
77.51550,26.73234575
77.51600,56.6413977
77.51650,62.74528585
77.51700,53.28425922
77.51750,39.55051087
77.51800,30.69987305
77.51850,40.16089968
77.51900,73.73228453
77.51950,107.6088638
77.52000,108.8296414
77.52050,84.10889439
77.52100,74.03747894
77.52150,96.01147629
77.52200,117.0698904
77.52250,103.3361421
77.52300,67.01800756
77.52350,39.85570528
77.52400,28.8687066
77.52450,19.10248555
77.52500,5.979126022
77.52550,-1.040345355
77.52600,-1.040345355
77.52650,0.7908210914
77.52700,6.28432043
77.52750,22.15442963
77.52800,44.43362139
77.52850,63.05048026
77.52900,78.61539506
77.52950,97.23225393
77.53000,112.1867799
77.53050,106.6932806
77.53100,73.73228453
77.53150,25.20637371
77.53200,-19.04681541
77.53250,-49.87145059
77.53300,-70.62467031
77.53350,-91.07269563
77.53400,-115.4882482
77.53450,-132.8843295
77.53500,-132.2739407
77.53550,-120.3713588
77.53600,-116.0986371
77.53650,-128.001219
77.53700,-142.9557449
77.53750,-146.007689
77.53800,-130.4427742
77.53850,-95.34541733
77.53900,-46.20911769
77.53950,-1.040345355
77.54000,18.49209674
77.54050,13.91418062
77.54100,3.842765168
77.54150,-2.566317393
77.54200,-13.24812166
77.54250,-25.76109238
77.54300,-18.741621
77.54350,16.9661247
77.54400,61.21931382
77.54450,88.07642169
77.54500,99.36861478
77.54550,113.7127519
77.54600,136.9075269
77.54650,158.5763299
77.54700,169.2581341
77.54750,165.5958013
77.54800,148.5049144
77.54850,117.9854736
77.54900,71.29072927
77.54950,8.115486876
77.55000,-56.58572756
77.55050,-95.04022293
77.55100,-95.04022293
77.55150,-85.8843907
77.55200,-105.7220272
77.55250,-152.1115772
77.55300,-188.4297117
77.55350,-192.0920446
77.55400,-172.2544081
77.55450,-140.2089953
77.55500,-95.95580615
77.55550,-53.53378348
77.55600,-35.52731343
77.55650,-40.71561836
77.55700,-37.96886869
77.55750,-9.58578877
77.55800,25.20637371
77.55850,43.82323258
77.55900,46.26478784
77.55950,42.60245495
77.56000,34.36220594
77.56050,23.37520726
77.56100,17.57651352
77.56150,14.52456944
77.56200,-0.1247621317
77.56250,-27.89745323
77.56300,-51.09222822
77.56350,-55.97533874
77.56400,-50.4818394
77.56450,-47.42989533
77.56500,-45.59872888
77.56550,-43.76756243
77.56600,-47.42989533
77.56650,-57.19611637
77.56700,-63.91039334
77.56750,-62.99481012
77.56800,-56.58572756
77.56850,-39.18964632
77.56900,-1.955928578
77.56950,43.51803817
77.57000,68.84917401
77.57050,60.91411941
77.57100,43.21284376
77.57150,44.12842699
77.57200,63.66086908
77.57250,81.05695032
77.57300,87.46603288
77.57350,92.95953222
77.57400,108.2192526
77.57450,125.6153338
77.57500,123.7841674
77.57550,88.3816161
77.57600,30.39467864
77.57650,-22.09875949
77.57700,-52.31300585
77.57750,-63.30000453
77.57800,-61.46883808
77.57850,-43.46236803
77.57900,-8.36501114
77.57950,25.81676252
77.58000,42.29726054
77.58050,45.65439902
77.58100,52.97906481
77.58150,67.62839638
77.58200,78.92058946
77.58250,83.49850558
77.58300,81.97253354
77.58350,68.23878519
77.58400,33.14142831
77.58450,-14.46889929
77.58500,-56.28053315
77.58550,-83.13764103
77.58600,-91.37789003
77.58650,-71.54025353
77.58700,-21.79356508
77.58750,30.39467864
77.58800,51.45309277
77.58850,39.55051087
77.58900,24.29079048
77.58950,20.01806878
77.59000,11.77781977
77.59050,-6.533844693
77.59100,-17.21564896
77.59150,-5.313067063
77.59200,10.25184773
77.59250,2.011598722
77.59300,-32.78056376
77.59350,-74.59219761
77.59400,-102.9752775
77.59450,-109.3843601
77.59500,-91.37789003
77.59550,-58.72208841
77.59600,-34.00134139
77.59650,-32.17017494
77.59700,-41.32600717
77.59750,-35.22211902
77.59800,-7.144233509
77.59850,23.98559608
77.59900,38.94012205
77.59950,38.94012205
77.60000,38.32973324
77.60050,48.40114869
77.60100,68.23878519
77.60150,92.04394899
77.60200,114.3231408
77.60250,132.6348052
77.60300,143.6218039
77.60350,141.1802486
77.60400,119.2062513
77.60450,80.14136709
77.60500,36.8037612
77.60550,0.4856266837
77.60600,-25.45589797
77.60650,-40.71561836
77.60700,-40.41042395
77.60750,-25.15070356
77.60800,-15.99487133
77.60850,-35.22211902
77.60900,-74.89739202
77.60950,-96.56619497
77.61000,-80.69608576
77.61050,-60.85844926
77.61100,-82.2220578
77.61150,-135.6310792
77.61200,-164.3193535
77.61250,-140.2089953
77.61300,-98.70255582
77.61350,-89.851918
77.61400,-118.2349979
77.61450,-150.8907995
77.61500,-162.7933814
77.61550,-146.9232722
77.61600,-102.0596943
77.61650,-34.00134139
77.61700,34.66740035
77.61750,86.24525525
77.61800,121.9530009
77.61850,143.9269983
77.61900,135.0763605
77.61950,89.29719932
77.62000,42.90764935
77.62050,40.16089968
77.62100,74.03747894
77.62150,93.56992103
77.62200,65.79722993
77.62250,0.7908210914
77.62300,-75.20258643
77.62350,-138.6830232
77.62400,-160.962215
77.62450,-123.1181084
77.62500,-45.59872888
77.62550,30.69987305
77.62600,93.26472662
77.62650,157.0503578
77.62700,218.6996282
77.62750,248.9138746
77.62800,235.790515
77.62850,201.6087414
77.62900,166.5113845
77.62950,128.0568891
77.63000,84.4140888
77.63050,45.34920462
77.63100,10.25184773
77.63150,-31.55978612
77.63200,-71.23505913
77.63250,-79.17011373
77.63300,-53.22858907
77.63350,-28.20264764
77.63400,-28.20264764
77.63450,-34.91692461
77.63500,-28.50784205
77.63550,-27.89745323
77.63600,-61.16364367
77.63650,-117.9298035
77.63700,-155.4687157
77.63750,-148.4492443
77.63800,-108.4687769
77.63850,-61.46883808
77.63900,-24.54031475
77.63950,-3.481900616
77.64000,1.706404315
77.64050,-3.176706209
77.64100,-11.72214962
77.64150,-16.91045456
77.64200,-21.18317626
77.64250,-35.52731343
77.64300,-70.92986472
77.64350,-122.2025252
77.64400,-169.202464
77.64450,-190.8712669
77.64500,-177.442713
77.64550,-132.8843295
77.64600,-79.17011373
77.64650,-46.20911769
77.64700,-44.37795125
77.64750,-46.5143121
77.64800,-23.31953712
77.64850,9.336264507
77.64900,12.9985974
77.64950,-8.670205547
77.65000,-5.007872655
77.65050,46.56998225
77.65100,99.06342037
77.65150,100.284198
77.65200,65.79722993
77.65250,42.90764935
77.65300,37.41415002
77.65350,20.32326318
77.65400,-7.144233509
77.65450,-6.839039101
77.65500,34.97259475
77.65550,83.49850558
77.65600,100.8945868
77.65650,92.3491434
77.65700,87.46603288
77.65750,95.70628189
77.65800,100.8945868
77.65850,90.82317136
77.65900,75.56345098
77.65950,73.12189572
77.66000,83.49850558
77.66050,92.65433781
77.66100,99.36861478
77.66150,123.1737786
77.66200,171.6996894
77.66250,216.8684617
77.66300,217.784045
77.66350,171.0893006
77.66400,118.9010569
77.66450,105.7776973
77.66500,141.7906374
77.66550,195.8100476
77.66600,222.6671555
77.66650,196.4204364
77.66700,131.4140276
77.66750,63.66086908
77.66800,5.979126022
77.66850,-55.97533874
77.66900,-124.9492749
77.66950,-169.202464
77.67000,-164.9297423
77.67050,-130.4427742
77.67100,-96.26100056
77.67150,-66.0467542
77.67200,-38.27406309
77.67250,-33.08575816
77.67300,-66.3519486
77.67350,-115.7934427
77.67400,-152.721966
77.67450,-180.4946571
77.67500,-207.9621538
77.67550,-211.0140979
77.67600,-164.6245479
77.67650,-99.92333345
77.67700,-70.92986472
77.67750,-79.47530813
77.67800,-83.74802984
77.67850,-73.67661439
77.67900,-70.92986472
77.67950,-64.21558775
77.68000,-10.8065664
77.68050,77.08942302
77.68100,121.3426121
77.68150,77.08942302
77.68200,-4.092289432
77.68250,-51.39742263
77.68300,-58.416894
77.68350,-58.416894
77.68400,-54.14417229
77.68450,-28.50784205
77.68500,2.011598722
77.68550,-2.566317393
77.68600,-52.00781144
77.68650,-117.6246091
77.68700,-174.3907689
77.68750,-211.6244867
77.68800,-209.1829314
77.68850,-150.8907995
77.68900,-58.416894
77.68950,19.71287437
77.69000,69.45956282
77.69050,122.2581954
77.69100,197.0308252
77.69150,254.7125683
77.69200,240.6736255
77.69250,153.9984138
77.69300,52.97906481
77.69350,-2.871511801
77.69400,-10.8065664
77.69450,-11.41695522
77.69500,-41.93639599
77.69550,-99.00775023
77.69600,-149.3648275
77.69650,-165.5401311
77.69700,-141.7349673
77.69750,-89.851918
77.69800,-26.98187001
77.69850,30.39467864
77.69900,79.22578387
77.69950,132.9399996
77.70000,200.3879637
77.70050,269.9722887
77.70100,319.7189771
77.70150,332.5371423
77.70200,287.6735643
77.70250,171.0893006
77.70300,26.42715134
77.70350,-44.68314566
77.70400,5.979126022
77.70450,87.77122729
77.70500,59.99853619
77.70550,-91.37789003
77.70600,-248.55301
77.70650,-323.6308343
77.70700,-342.5528876
77.70750,-349.2671645
77.70800,-321.4944734
77.70850,-233.2932896
77.70900,-124.0336917
77.70950,-49.56625618
77.71000,-6.228650286
77.71050,49.62192632
77.71100,130.4984444
77.71150,208.9334071
77.71200,252.8814019
77.71250,249.8294578
77.71300,222.6671555
77.71350,225.7190996
77.71400,286.7579811
77.71450,352.3747788
77.71500,338.6410304
77.71550,244.9463473
77.71600,159.7971075
77.71650,139.3490822
77.71700,141.1802486
77.71750,102.1153644
77.71800,18.49209674
77.71850,-73.37141998
77.71900,-152.4167716
77.71950,-216.2024028
77.72000,-271.747785
77.72050,-336.7541938
77.72100,-411.2216293
77.72150,-444.1826253
77.72200,-379.7866053
77.72250,-247.027038
77.72300,-141.7349673
77.72350,-103.2804719
77.72400,-70.3194759
77.72450,10.86223655
77.72500,100.5893924
77.72550,128.6672779
77.72600,99.67380919
77.72650,70.68034046
77.72700,61.21931382
77.72750,46.56998225
77.72800,25.51156812
77.72850,34.66740035
77.72900,84.10889439
77.72950,126.2257227
77.73000,111.5763911
77.73050,52.36867599
77.73100,0.4856266837
77.73150,-19.96239863
77.73200,-33.08575816
77.73250,-58.11169959
77.73300,-78.2545305
77.73350,-72.45583676
77.73400,-49.56625618
77.73450,-31.86498053
77.73500,-16.60526015
77.73550,6.28432043
77.73600,19.40767996
77.73650,-8.36501114
77.73700,-68.18311505
77.73750,-113.9622762
77.73800,-117.9298035
77.73850,-96.26100056
77.73900,-69.40389268
77.73950,-38.5792575
77.74000,-5.923455878
77.74050,15.74534707
77.74100,28.25831778
77.74150,49.01153751
77.74200,70.37514605
77.74250,58.77775855
77.74300,11.16743095
77.74350,-18.43642659
77.74400,13.60898621
77.74450,74.03747894
77.74500,85.32967202
77.74550,24.59598489
77.74600,-46.81950651
77.74650,-46.5143121
77.74700,56.03100889
77.74750,217.1736562
77.74800,354.2059452
77.74850,412.4980771
77.74900,411.5824939
77.74950,412.1928827
77.75000,426.5370198
77.75050,399.0695231
77.75100,299.2709518
77.75150,184.8230489
77.75200,112.4919743
77.75250,22.15442963
77.75300,-199.111516
77.75350,-525.9747266
77.75400,-759.4484485
77.75450,-738.6952288
77.75500,-514.9877279
77.75550,-269.3062297
77.75600,-111.2155265
77.75650,-28.50784205
77.75700,8.725875692
77.75750,-1.040345355
77.75800,-44.68314566
77.75850,-72.15064235
77.75900,-55.97533874
77.75950,-23.31953712
77.76000,-14.16370489
77.76050,-35.52731343
77.76100,-68.18311505
77.76150,-89.851918
77.76200,-84.96880747
77.76250,-52.61820026
77.76300,-10.8065664
77.76350,29.78428982
77.76400,86.55044966
77.76450,162.5438572
77.76500,208.6282127
77.76550,174.1412447
77.76600,85.02447762
77.76650,16.66093029
77.76700,-12.63773285
77.76750,-61.77403249
77.76800,-156.9946877
77.76850,-238.4815945
77.76900,-238.786789
77.76950,-172.8647969
77.77000,-105.4168328
77.77050,-66.96233742
77.77100,-48.34547855
77.77150,-46.5143121
77.77200,-68.79350386
77.77250,-101.4493055
77.77300,-112.7414986
77.77350,-89.851918
77.77400,-54.75456111
77.77450,-35.83250783
77.77500,-32.78056376
77.77550,-19.35200982
77.77600,25.51156812
77.77650,83.49850558
77.77700,115.238724
77.77750,114.6283352
77.77800,111.8815855
77.77850,113.1023631
77.77900,74.95306216
77.77950,-12.33253844
77.78000,-69.40389268
77.78050,-20.57278745
77.78100,79.53097828
77.78150,99.67380919
77.78200,11.47262536
77.78250,-73.9818088
77.78300,-66.0467542
77.78350,-1.955928578
77.78400,38.94012205
77.78450,53.58945362
77.78500,83.80369999
77.78550,130.8036388
77.78600,163.4594404
77.78650,183.9074657
77.78700,217.784045
77.78750,259.9008732
77.78800,275.7709824
77.78850,248.3034857
77.78900,188.4853818
77.78950,113.7127519
77.79000,36.49856679
77.79050,-35.83250783
77.79100,-116.4038315
77.79150,-225.358235
77.79200,-343.4684708
77.79250,-400.539825
77.79300,-347.4359981
77.79350,-219.5595413
77.79400,-101.4493055
77.79450,-30.6442029
77.79500,27.03754015
77.79550,115.5439184
77.79600,229.9918213
77.79650,327.3488373
77.79700,371.9072209
77.79750,363.3617774
77.79800,331.3163646
77.79850,302.3228959
77.79900,274.2450104
77.79950,225.4139052
77.80000,152.4724417
77.80050,81.36214472
77.80100,36.19337238
77.80150,3.537570761
77.80200,-54.75456111
77.80250,-160.0466318
77.80300,-283.9555613
77.80350,-361.1697464
77.80400,-340.4165267
77.80450,-238.4815945
77.80500,-145.3973002
77.80550,-140.2089953
77.80600,-205.2154041
77.80650,-246.7218436
77.80700,-213.4556531
77.80750,-148.7544387
77.80800,-110.9103321
77.80850,-89.851918
77.80900,-47.12470092
77.80950,-1.65073417
77.81000,-9.890983178
77.81050,-72.45583676
77.81100,-123.7284973
77.81150,-116.7090259
77.81200,-69.09869827
77.81250,-16.30006574
77.81300,36.8037612
77.81350,96.01147629
77.81400,149.1153032
77.81450,185.4334378
77.81500,209.543796
77.81550,221.4463779
77.81600,208.6282127
77.81650,167.7321621
77.81700,110.6608079
77.81750,33.75181712
77.81800,-79.47530813
77.81850,-215.2868196
77.81900,-316.6113629
77.81950,-337.3645826
77.82000,-284.5659501
77.82050,-194.5335998
77.82100,-92.90386207
77.82150,2.011598722
77.82200,73.12189572
77.82250,118.5958625
77.82300,153.3880249
77.82350,181.7711049
77.82400,186.0438266
77.82450,162.8490516
77.82500,135.3815549
77.82550,122.8685842
77.82600,121.0374177
77.82650,125.004945
77.82700,137.2127213
77.82750,143.3166095
77.82800,116.1543072
77.82850,68.84917401
77.82900,56.6413977
77.82950,96.62186511
77.83000,127.1413059
77.83050,89.29719932
77.83100,11.16743095
77.83150,-37.05328546
77.83200,-43.46236803
77.83250,-48.95586736
77.83300,-70.3194759
77.83350,-83.44283543
77.83400,-83.13764103
77.83450,-97.17658378
77.83500,-134.7154959
77.83550,-166.1505199
77.83600,-174.3907689
77.83650,-175.916741
77.83700,-175.3063522
77.83750,-136.241468
77.83800,-27.28706442
77.83850,124.3945562
77.83900,259.9008732
77.83950,346.2708906
77.84000,388.0825245
77.84050,390.8292741
77.84100,341.0825857
77.84150,233.0437654
77.84200,98.45303156
77.84250,-8.975399955
77.84300,-70.0142815
77.84350,-128.001219
77.84400,-246.7218436
77.84450,-419.1566839
77.84500,-551.3058624
77.84550,-554.0526121
77.84600,-437.4683484
77.84650,-285.4815333
77.84700,-159.7414374
77.84750,-62.0792269
77.84800,13.91418062
77.84850,53.58945362
77.84900,52.6738704
77.84950,37.10895561
77.85000,27.03754015
77.85050,14.52456944
77.85100,-4.702678247
77.85150,-10.8065664
77.85200,7.199903653
77.85250,27.34273456
77.85300,29.17390101
77.85350,34.05701153
77.85400,77.69981183
77.85450,154.6088026
77.85500,217.784045
77.85550,226.6346828
77.85600,182.0762993
77.85650,120.4270289
77.85700,87.16083847
77.85750,106.0828917
77.85800,153.6932193
77.85850,175.3620223
77.85900,142.4010263
77.85950,81.05695032
77.86000,37.71934442
77.86050,24.29079048
77.86100,18.18690233
77.86150,2.621987538
77.86200,-15.38448252
77.86250,-22.09875949
77.86300,-13.85851048
77.86350,-3.787095024
77.86400,-17.52084337
77.86450,-69.09869827
77.86500,-134.1051071
77.86550,-164.9297423
77.86600,-150.8907995
77.86650,-143.2609393
77.86700,-188.1245173
77.86750,-248.8582044
77.86800,-229.3257623
77.86850,-88.32594596
77.86900,101.1997812
77.86950,223.8879331
77.87000,240.0632367
77.87050,205.8814631
77.87100,186.6542154
77.87150,182.9918825
77.87200,163.4594404
77.87250,135.3815549
77.87300,139.3490822
77.87350,165.2906068
77.87400,130.8036388
77.87450,-16.91045456
77.87500,-209.7933202
77.87550,-316.3061685
77.87600,-288.5334774
77.87650,-200.0270992
77.87700,-140.2089953
77.87750,-119.4557755
77.87800,-100.2285279
77.87850,-74.89739202
77.87900,-72.15064235
77.87950,-108.4687769
77.88000,-172.8647969
77.88050,-244.8906771
77.88100,-303.4880034
77.88150,-325.4620007
77.88200,-302.5724202
77.88250,-257.0984534
77.88300,-215.592014
77.88350,-169.202464
77.88400,-91.68308444
77.88450,5.979126022
77.88500,66.10242434
77.88550,45.04401021
77.88600,-30.03381409
77.88650,-86.49477951
77.88700,-79.17011373
77.88750,-20.57278745
77.88800,46.26478784
77.88850,90.82317136
77.88900,103.9465309
77.88950,97.84264274
77.89000,103.3361421
77.89050,152.1672473
77.89100,244.6411528
77.89150,339.2514192
77.89200,388.3877189
77.89250,378.6214978
77.89300,332.2319479
77.89350,274.5502048
77.89400,217.784045
77.89450,168.3425509
77.89500,131.719222
77.89550,105.7776973
77.89600,79.83617269
77.89650,47.79075988
77.89700,15.13495825
77.89750,-7.144233509
77.89800,-10.50137199
77.89850,5.979126022
77.89900,33.14142831
77.89950,53.58945362
77.90000,55.72581448
77.90050,45.65439902
77.90100,35.88817798
77.90150,29.78428982
77.90200,19.71287437
77.90250,2.31679313
77.90300,-12.02734403
77.90350,-8.670205547
77.90400,12.08301418
77.90450,26.73234575
77.90500,7.810292469
77.90550,-40.10522954
77.90600,-78.86491932
77.90650,-76.42336406
77.90700,-42.85197921
77.90750,-13.55331607
77.90800,-0.4299565394
77.90850,13.60898621
77.90900,38.02453883
77.90950,57.86217533
77.91000,63.66086908
77.91050,67.32320197
77.91100,78.31020065
77.91150,83.49850558
77.91200,66.10242434
77.91250,30.08948423
77.91300,-9.58578877
77.91350,-46.20911769
77.91400,-73.06622557
77.91450,-80.39089136
77.91500,-69.40389268
77.91550,-54.75456111
77.91600,-37.96886869
77.91650,3.232376353
77.91700,75.25825657
77.91750,140.8750542
77.91800,160.4074963
77.91850,140.8750542
77.91900,116.764696
77.91950,99.36861478
77.92000,76.4790342
77.92050,49.62192632
77.92100,31.00506745
77.92150,5.673931615
77.92200,-58.72208841
77.92250,-160.6570206
77.92300,-257.0984534
77.92350,-318.137335
77.92400,-353.8450807
77.92450,-375.819078
77.92500,-368.4944122
77.92550,-323.3256399
77.92600,-263.2023416
77.92650,-214.3712363
77.92700,-175.916741
77.92750,-138.0726344
77.92800,-105.4168328
77.92850,-81.30647458
77.92900,-54.14417229
77.92950,-17.82603778
77.93000,10.55704214
77.93050,16.9661247
77.93100,13.91418062
77.93150,19.10248555
77.93200,28.25831778
77.93250,29.17390101
77.93300,27.03754015
77.93350,29.78428982
77.93400,28.56351219
77.93450,17.57651352
77.93500,13.60898621
77.93550,35.58298357
77.93600,67.62839638
77.93650,75.56345098
77.93700,53.89464803
77.93750,31.92065068
77.93800,35.27778916
77.93850,58.47256415
77.93900,76.17383979
77.93950,67.62839638
77.94000,30.69987305
77.94050,-17.82603778
77.94100,-57.50131078
77.94150,-81.61166899
77.94200,-98.39736141
77.94250,-111.5207209
77.94300,-114.8778594
77.94350,-103.2804719
77.94400,-72.45583676
77.94450,-9.280594363
77.94500,91.43356018
77.94550,193.6736868
77.94600,239.7580423
77.94650,220.835989
77.94700,199.1671861
77.94750,225.1087108
77.94800,267.8359278
77.94850,262.9528173
77.94900,205.8814631
77.94950,150.3360809
77.95000,125.004945
77.95050,105.1673085
77.95100,70.37514605
77.95150,38.32973324
77.95200,29.78428982
77.95250,31.92065068
77.95300,21.84923522
77.95350,2.011598722
77.95400,-14.16370489
77.95450,-26.6766756
77.95500,-38.5792575
77.95550,-41.93639599
77.95600,-31.55978612
77.95650,-21.48837067
77.95700,-29.11823086
77.95750,-53.53378348
77.95800,-83.13764103
77.95850,-107.8583881
77.95900,-117.9298035
77.95950,-106.6376104
77.96000,-86.1895851
77.96050,-84.96880747
77.96100,-106.0272216
77.96150,-113.9622762
77.96200,-78.86491932
77.96250,-19.96239863
77.96300,23.37520726
77.96350,49.31673192
77.96400,89.90758814
77.96450,157.6607466
77.96500,224.1931275
77.96550,252.8814019
77.96600,232.1281821
77.96650,175.9724111
77.96700,110.9660023
77.96750,66.40761875
77.96800,55.42062007
77.96850,64.27125789
77.96900,67.01800756
77.96950,57.25178652
77.97000,45.65439902
77.97050,39.24531646
77.97100,36.19337238
77.97150,38.02453883
77.97200,48.7063431
77.97250,62.13489704
77.97300,65.18684112
77.97350,56.03100889
77.97400,35.58298357
77.97450,-12.02734403
77.97500,-107.5531936
77.97550,-230.2413455
77.97600,-318.4425294
77.97650,-326.9879728
77.97700,-272.0529794
77.97750,-203.0790433
77.97800,-150.8907995
77.97850,-116.4038315
77.97900,-95.95580615
77.97950,-90.1571124
77.98000,-90.1571124
77.98050,-82.2220578
77.98100,-65.74155979
77.98150,-55.36494993
77.98200,-55.36494993
77.98250,-51.39742263
77.98300,-32.17017494
77.98350,-6.228650286
77.98400,2.927181945
77.98450,-15.07928811
77.98500,-50.4818394
77.98550,-79.47530813
77.98600,-86.49477951
77.98650,-77.03375287
77.98700,-68.79350386
77.98750,-67.87792064
77.98800,-62.3844213
77.98850,-44.68314566
77.98900,-29.42342527
77.98950,-37.05328546
77.99000,-63.30000453
77.99050,-82.52725221
77.99100,-77.64414169
77.99150,-55.36494993
77.99200,-30.03381409
77.99250,-10.8065664
77.99300,-2.261122986
77.99350,-5.61826147
77.99400,-8.975399955
77.99450,5.673931615
77.99500,38.63492765
77.99550,65.18684112
77.99600,64.5764523
77.99650,42.60245495
77.99700,19.71287437
77.99750,7.199903653
77.99800,3.842765168
77.99850,6.894709245
77.99900,12.38820858
77.99950,14.52456944
78.00000,11.16743095
78.00050,10.55704214
78.00100,23.07001285
78.00150,44.7388158
78.00200,61.82970263
78.00250,65.18684112
78.00300,58.47256415
78.00350,45.34920462
78.00400,28.56351219
78.00450,12.08301418
78.00500,2.621987538
78.00550,4.147959576
78.00600,12.69340299
78.00650,23.68040167
78.00700,33.75181712
78.00750,38.94012205
78.00800,34.05701153
78.00850,18.18690233
78.00900,-5.313067063
78.00950,-34.6117302
78.01000,-63.30000453
78.01050,-77.64414169
78.01100,-66.0467542
78.01150,-38.88445191
78.01200,-21.48837067
78.01250,-22.7091483
78.01300,-23.01434271
78.01350,-3.787095024
78.01400,22.76481845
78.01450,34.66740035
78.01500,30.08948423
78.01550,28.56351219
78.01600,41.99206613
78.01650,63.96606349
78.01700,87.16083847
78.01750,110.050419
78.01800,125.9205282
78.01850,123.7841674
78.01900,104.8621141
78.01950,85.32967202
78.02000,75.86864539
78.02050,67.93359079
78.02100,53.28425922
78.02150,36.8037612
78.02200,27.03754015
78.02250,20.01806878
78.02300,9.031070099
78.02350,-1.345539762
78.02400,2.621987538
78.02450,25.51156812
78.02500,52.97906481
78.02550,66.40761875
78.02600,62.13489704
78.02650,52.36867599
78.02700,52.06348159
78.02750,62.74528585
78.02800,70.68034046
78.02850,60.608925
78.02900,31.00506745
78.02950,-5.313067063
78.03000,-35.83250783
78.03050,-56.58572756
78.03100,-71.84544794
78.03150,-84.96880747
78.03200,-91.07269563
78.03250,-82.83244662
78.03300,-62.0792269
78.03350,-39.80003513
78.03400,-23.62473152
78.03450,-12.02734403
78.03500,-0.4299565394
78.03550,7.505098061
78.03600,6.894709245
78.03650,1.401209907
78.03700,-0.1247621317
78.03750,2.31679313
78.03800,-0.1247621317
78.03850,-9.280594363
78.03900,-17.82603778
78.03950,-17.52084337
78.04000,-7.449427917
78.04050,7.199903653
78.04100,20.62845759
78.04150,22.15442963
78.04200,6.28432043
78.04250,-20.26759304
78.04300,-45.90392329
78.04350,-65.13117097
78.04400,-77.9493361
78.04450,-81.9168634
78.04500,-73.9818088
78.04550,-60.55325486
78.04600,-51.39742263
78.04650,-47.12470092
78.04700,-42.5467848
78.04750,-42.85197921
78.04800,-56.89092196
78.04850,-77.64414169
78.04900,-81.61166899
78.04950,-55.05975552
78.05000,-11.11176081
78.05050,25.51156812
78.05100,40.46609409
78.05150,33.44662272
78.05200,17.27131911
78.05250,8.420681284
78.05300,10.55704214
78.05350,5.673931615
78.05400,-23.31953712
78.05450,-67.26753183
78.05500,-90.46230681
78.05550,-72.45583676
78.05600,-24.54031475
78.05650,27.03754015
78.05700,67.62839638
78.05750,94.48550426
78.05800,111.8815855
78.05850,127.1413059
78.05900,145.1477759
78.05950,153.6932193
78.06000,132.6348052
78.06050,78.31020065
78.06100,12.9985974
78.06150,-40.10522954
78.06200,-76.42336406
78.06250,-103.5856663
78.06300,-121.8973308
78.06350,-127.3908301
78.06400,-120.6765532
78.06450,-106.9428048
78.06500,-89.24152918
78.06550,-68.79350386
78.06600,-46.20911769
78.06650,-18.43642659
78.06700,18.49209674
78.06750,55.11542566
78.06800,68.23878519
78.06850,50.23231514
78.06900,23.37520726
78.06950,16.9661247
78.07000,33.44662272
78.07050,52.06348159
78.07100,58.16736974
78.07150,53.58945362
78.07200,42.29726054
78.07250,24.29079048
78.07300,6.589514838
78.07350,4.758348392
78.07400,23.07001285
78.07450,45.34920462
78.07500,53.28425922
78.07550,45.04401021
78.07600,34.05701153
78.07650,29.47909542
78.07700,30.39467864
78.07750,29.78428982
78.07800,24.9011793
78.07850,19.40767996
78.07900,18.79729115
78.07950,20.32326318
78.08000,12.69340299
78.08050,-8.059816732
78.08100,-29.72861968
78.08150,-32.47536935
78.08200,-13.85851048
78.08250,4.758348392
78.08300,4.758348392
78.08350,-8.670205547
78.08400,-16.60526015
78.08450,-11.11176081
78.08500,-2.871511801
78.08550,-0.7351509471
78.08600,-1.040345355
78.08650,3.232376353
78.08700,7.199903653
78.08750,-0.1247621317
78.08800,-17.21564896
78.08850,-29.11823086
78.08900,-25.45589797
78.08950,-11.41695522
78.09000,5.063542799
78.09050,23.37520726
78.09100,42.60245495
78.09150,55.42062007
78.09200,55.42062007
78.09250,49.01153751
78.09300,49.01153751
78.09350,56.03100889
78.09400,59.99853619
78.09450,49.62192632
78.09500,22.45962404
78.09550,-17.21564896
78.09600,-59.33247723
78.09650,-88.93633477
78.09700,-98.70255582
78.09750,-101.7544999
78.09800,-115.1830538
78.09850,-134.1051071
78.09900,-136.241468
78.09950,-110.6051377
78.10000,-72.45583676
78.10050,-41.32600717
78.10100,-20.26759304
78.10150,-3.481900616
78.10200,9.946653322
78.10250,22.15442963
78.10300,41.99206613
78.10350,73.42709012
78.10400,99.97900359
78.10450,103.6413365
78.10500,89.29719932
78.10550,78.92058946
78.10600,78.61539506
78.10650,74.03747894
78.10700,58.47256415
78.10750,46.87517665
78.10800,51.14789836
78.10850,57.86217533
78.10900,49.31673192
78.10950,33.14142831
78.11000,29.78428982
78.11050,37.71934442
78.11100,30.08948423
78.11150,-7.449427917
78.11200,-57.19611637
78.11250,-92.90386207
78.11300,-106.332416
78.11350,-100.2285279
78.11400,-71.84544794
78.11450,-20.57278745
78.11500,33.14142831
78.11550,67.01800756
78.11600,80.14136709
78.11650,85.02447762
78.11700,77.39461742
78.11750,42.60245495
78.11800,-6.228650286
78.11850,-24.54031475
78.11900,8.420681284
78.11950,56.94659211
78.12000,69.15436842
78.12050,40.46609409
78.12100,8.725875692
78.12150,2.011598722
78.12200,12.69340299
78.12250,18.49209674
78.12300,1.401209907
78.12350,-51.09222822
78.12400,-135.3258847
78.12450,-211.9296811
78.12500,-233.598484
78.12550,-196.9751551
78.12600,-146.007689
78.12650,-110.6051377
78.12700,-74.2870032
78.12750,-16.91045456
78.12800,44.12842699
78.12850,81.05695032
78.12900,98.75822596
78.12950,115.238724
78.13000,115.8491128
78.13050,71.59592368
78.13100,-2.261122986
78.13150,-55.67014433
78.13200,-65.43636538
78.13250,-60.24806045
78.13300,-69.40389268
78.13350,-82.83244662
78.13400,-77.64414169
78.13450,-58.11169959
78.13500,-48.34547855
78.13550,-61.16364367
78.13600,-88.93633477
78.13650,-109.6895545
78.13700,-102.0596943
78.13750,-61.46883808
78.13800,-13.55331607
78.13850,5.673931615
78.13900,-12.63773285
78.13950,-41.93639599
78.14000,-52.31300585
78.14050,-41.63120158
78.14100,-25.15070356
78.14150,-12.94292726
78.14200,-5.007872655
78.14250,0.7908210914
78.14300,6.894709245
78.14350,14.21937503
78.14400,20.32326318
78.14450,26.73234575
78.14500,39.55051087
78.14550,57.86217533
78.14600,66.40761875
78.14650,54.50503685
78.14700,33.14142831
78.14750,22.45962404
78.14800,23.98559608
78.14850,26.12195693
78.14900,30.08948423
78.14950,46.26478784
78.15000,66.10242434
78.15050,59.38814737
78.15100,14.52456944
78.15150,-41.63120158
78.15200,-75.81297524
78.15250,-78.55972491
78.15300,-61.77403249
78.15350,-31.86498053
78.15400,8.725875692
78.15450,50.53750955
78.15500,74.64786776
78.15550,72.81670131
78.15600,58.47256415
78.15650,55.11542566
78.15700,77.08942302
78.15750,121.3426121
78.15800,174.7516335
78.15850,221.7515723
78.15900,249.5242634
78.15950,246.7775137
78.16000,211.9853512
78.16050,161.628274
78.16100,122.8685842
78.16150,109.7452246
78.16200,110.3556135
78.16250,104.5569197
78.16300,86.24525525
78.16350,61.82970263
78.16400,33.14142831
78.16450,-6.228650286
78.16500,-57.19611637
78.16550,-105.7220272
78.16600,-130.7479686
78.16650,-121.286942
78.16700,-86.79997392
78.16750,-50.78703381
78.16800,-36.74809106
78.16850,-55.36494993
78.16900,-96.26100056
78.16950,-135.0206903
78.17000,-150.2804107
78.17050,-136.5466624
78.17100,-107.8583881
78.17150,-84.96880747
78.17200,-76.42336406
78.17250,-72.15064235
78.17300,-55.97533874
78.17350,-25.45589797
78.17400,4.147959576
78.17450,17.88170792
78.17500,15.44015266
78.17550,9.641458915
78.17600,9.031070099
78.17650,11.16743095
78.17700,16.05054148
78.17750,28.8687066
78.17800,46.56998225
78.17850,47.48556547
78.17900,14.21937503
78.17950,-41.02081276
78.18000,-84.35841866
78.18050,-93.8194453
78.18100,-78.55972491
78.18150,-58.416894
78.18200,-39.18964632
78.18250,-14.7740937
78.18300,16.05054148
78.18350,45.04401021
78.18400,66.40761875
78.18450,83.49850558
78.18500,98.75822596
78.18550,108.8296414
78.18600,108.524447
78.18650,99.97900359
78.18700,88.07642169
78.18750,70.98553486
78.18800,37.71934442
78.18850,-14.16370489
78.18900,-72.76103116
78.18950,-120.9817476
78.19000,-153.9427436
78.19050,-176.5271298
78.19100,-187.8193229
78.19150,-178.0531018
78.19200,-142.6505505
78.19250,-91.98827885
78.19300,-44.07275684
78.19350,-12.02734403
78.19400,-0.4299565394
78.19450,-2.871511801
78.19500,-6.839039101
78.19550,-5.313067063
78.19600,-2.871511801
78.19650,-4.092289432
78.19700,-4.092289432
78.19750,-1.040345355
78.19800,-8.059816732
78.19850,-34.6117302
78.19900,-63.91039334
78.19950,-68.18311505
78.20000,-46.5143121
78.20050,-24.54031475
78.20100,-15.07928811
78.20150,-5.61826147
78.20200,12.69340299
78.20250,28.8687066
78.20300,30.39467864
78.20350,23.68040167
78.20400,18.79729115
78.20450,10.86223655
78.20500,-6.228650286
78.20550,-24.54031475
78.20600,-32.47536935
78.20650,-32.17017494
78.20700,-30.94939731
78.20750,-29.11823086
78.20800,-20.87798186
78.20850,-6.228650286
78.20900,11.47262536
78.20950,33.14142831
78.21000,55.11542566
78.21050,67.62839638
78.21100,67.32320197
78.21150,69.45956282
78.21200,90.21278255
78.21250,121.3426121
78.21300,136.2971381
78.21350,121.0374177
78.21400,86.85564406
78.21450,50.84270395
78.21500,16.35573588
78.21550,-18.741621
78.21600,-47.12470092
78.21650,-56.89092196
78.21700,-45.29353447
78.21750,-20.26759304
78.21800,12.69340299
78.21850,48.09595429
78.21900,73.12189572
78.21950,74.34267335
78.22000,57.55698092
78.22050,42.90764935
78.22100,39.85570528
78.22150,36.49856679
78.22200,17.88170792
78.22250,-13.24812166
78.22300,-45.29353447
78.22350,-70.0142815
78.22400,-83.74802984
78.22450,-81.61166899
78.22500,-64.21558775
78.22550,-40.71561836
78.22600,-19.96239863
78.22650,-1.345539762
78.22700,17.57651352
78.22750,32.53103949
78.22800,40.46609409
78.22850,49.01153751
78.22900,63.66086908
78.22950,73.73228453
78.23000,63.66086908
78.23050,33.14142831
78.23100,0.180432276
78.23150,-16.30006574
78.23200,-15.68967692
78.23250,-8.059816732
78.23300,-6.228650286
78.23350,-13.85851048
78.23400,-20.87798186
78.23450,-16.91045456
78.23500,-6.228650286
78.23550,-1.65073417
78.23600,-5.007872655
78.23650,-1.345539762
78.23700,16.05054148
78.23750,38.32973324
78.23800,54.81023125
78.23850,70.98553486
78.23900,91.73875459
78.23950,106.6932806
78.24000,104.8621141
78.24050,93.87511544
78.24100,86.24525525
78.24150,78.92058946
78.24200,60.91411941
78.24250,34.36220594
78.24300,8.725875692
78.24350,-16.30006574
78.24400,-50.17664499
78.24450,-90.1571124
78.24500,-124.3388861
78.24550,-151.1959939
78.24600,-178.6634906
78.24650,-205.5205985
78.24700,-215.592014
78.24750,-194.8387942
78.24800,-148.4492443
78.24850,-99.31294463
78.24900,-69.09869827
78.24950,-54.14417229
78.25000,-25.76109238
78.25050,33.75181712
78.25100,99.97900359
78.25150,121.6478065
78.25200,79.53097828
78.25250,6.589514838
78.25300,-54.4493667
78.25350,-91.68308444
78.25400,-112.1311098
78.25450,-111.2155265
78.25500,-80.08569695
78.25550,-26.98187001
78.25600,27.95312338
78.25650,76.17383979
78.25700,117.3750848
78.25750,143.6218039
78.25800,145.7581647
78.25850,134.4659717
78.25900,128.6672779
78.25950,127.1413059
78.26000,108.2192526
78.26050,63.05048026
78.26100,12.9985974
78.26150,-15.38448252
78.26200,-24.84550916
78.26250,-34.91692461
78.26300,-52.92339466
78.26350,-62.99481012
78.26400,-51.39742263
78.26450,-24.23512034
78.26500,2.011598722
78.26550,20.62845759
78.26600,31.61545627
78.26650,32.22584508
78.26700,16.35573588
78.26750,-9.890983178
78.26800,-28.50784205
78.26850,-26.6766756
78.26900,-11.11176081
78.26950,3.537570761
78.27000,12.08301418
78.27050,16.35573588
78.27100,15.13495825
78.27150,6.589514838
78.27200,-2.871511801
78.27250,-1.955928578
78.27300,13.60898621
78.27350,31.61545627
78.27400,34.66740035
78.27450,18.18690233
78.27500,-5.007872655
78.27550,-18.741621
78.27600,-19.35200982
78.27650,-16.30006574
78.27700,-16.60526015
78.27750,-18.43642659
78.27800,-18.13123219
78.27850,-21.18317626
78.27900,-34.91692461
78.27950,-57.80650519
78.28000,-81.00128017
78.28050,-96.26100056
78.28100,-97.7869726
78.28150,-84.35841866
78.28200,-64.52078216
78.28250,-51.09222822
78.28300,-47.73508973
78.28350,-46.81950651
78.28400,-41.63120158
78.28450,-36.44289665
78.28500,-29.72861968
78.28550,-7.449427917
78.28600,36.49856679
78.28650,82.88811676
78.28700,102.1153644
78.28750,91.12836577
78.28800,71.59592368
78.28850,61.21931382
78.28900,56.33620329
78.28950,49.31673192
78.29000,41.68687172
78.29050,37.10895561
78.29100,33.14142831
78.29150,25.20637371
78.29200,14.52456944
78.29250,5.673931615
78.29300,0.180432276
78.29350,-1.345539762
78.29400,-0.4299565394
78.29450,0.4856266837
78.29500,-0.4299565394
78.29550,-3.481900616
78.29600,-5.007872655
78.29650,-3.787095024
78.29700,-2.566317393
78.29750,-3.176706209
78.29800,-4.39748384
78.29850,-5.007872655
78.29900,-5.313067063
78.29950,-4.702678247
78.30000,-1.65073417
78.30050,2.621987538
78.30100,4.147959576
78.30150,1.706404315
78.30200,-0.4299565394
78.30250,-0.1247621317
78.30300,0.4856266837
78.30350,-2.566317393
78.30400,-8.975399955
78.30450,-15.07928811
78.30500,-19.04681541
78.30550,-21.48837067
78.30600,-22.09875949
78.30650,-21.18317626
78.30700,-21.48837067
78.30750,-24.54031475
78.30800,-25.45589797
78.30850,-19.35200982
78.30900,-8.670205547
78.30950,-1.345539762
78.31000,-1.955928578
78.31050,-5.923455878
78.31100,-8.059816732
78.31150,-6.228650286
78.31200,-1.345539762
78.31250,2.927181945
78.31300,2.011598722
78.31350,-5.923455878
78.31400,-15.07928811
78.31450,-15.38448252
78.31500,-7.144233509
78.31550,-2.261122986
78.31600,-8.670205547
78.31650,-16.30006574
78.31700,-10.19617759
78.31750,6.894709245
78.31800,18.18690233
78.31850,12.69340299
78.31900,-0.1247621317
78.31950,-4.092289432
78.32000,4.758348392
78.32050,19.10248555
78.32100,30.39467864
78.32150,35.58298357
78.32200,33.14142831
78.32250,24.29079048
78.32300,13.60898621
78.32350,3.842765168
78.32400,-8.36501114
78.32450,-27.89745323
78.32500,-45.90392329
78.32550,-48.04028414
78.32600,-35.52731343
78.32650,-25.15070356
78.32700,-26.98187001
78.32750,-28.81303646
78.32800,-17.82603778
78.32850,-0.4299565394
78.32900,6.589514838
78.32950,0.180432276
78.33000,-8.670205547
78.33050,-12.02734403
78.33100,-10.19617759
78.33150,-7.449427917
78.33200,-7.754622324
78.33250,-13.24812166
78.33300,-20.87798186
78.33350,-22.09875949
78.33400,-12.63773285
78.33450,3.842765168
78.33500,23.68040167
78.33550,49.01153751
78.33600,79.83617269
78.33650,108.524447
78.33700,129.2776667
78.33750,143.0114151
78.33800,147.8945256
78.33850,136.9075269
78.33900,111.5763911
78.33950,88.07642169
78.34000,74.34267335
78.34050,59.08295296
78.34100,31.31026186
78.34150,0.4856266837
78.34200,-20.87798186
78.34250,-42.85197921
78.34300,-78.55972491
78.34350,-115.4882482
78.34400,-124.6440805
78.34450,-102.6700831
78.34500,-75.50778083
78.34550,-65.43636538
78.34600,-68.48830946
78.34650,-66.96233742
78.34700,-52.00781144
78.34750,-28.20264764
78.34800,-6.533844693
78.34850,3.232376353
78.34900,-0.1247621317
78.34950,-8.059816732
78.35000,-10.8065664
78.35050,-8.670205547
78.35100,-8.059816732
78.35150,-10.50137199
78.35200,-13.24812166
78.35250,-15.38448252
78.35300,-17.52084337
78.35350,-15.68967692
78.35400,-8.36501114
78.35450,-1.65073417
78.35500,-1.345539762
78.35550,-1.345539762
78.35600,4.453153984
78.35650,9.641458915
78.35700,0.7908210914
78.35750,-22.09875949
78.35800,-45.90392329
78.35850,-59.63767163
78.35900,-60.85844926
78.35950,-48.65067296
78.36000,-25.45589797
78.36050,-0.4299565394
78.36100,16.05054148
78.36150,27.03754015
78.36200,40.16089968
78.36250,52.36867599
78.36300,54.81023125
78.36350,50.53750955
78.36400,50.84270395
78.36450,56.33620329
78.36500,54.81023125
78.36550,43.21284376
78.36600,35.58298357
78.36650,38.63492765
78.36700,43.51803817
78.36750,39.85570528
78.36800,32.8362339
78.36850,30.69987305
78.36900,29.78428982
78.36950,22.76481845
78.37000,11.77781977
78.37050,5.368737207
78.37100,3.842765168
78.37150,2.927181945
78.37200,0.180432276
78.37250,-1.345539762
78.37300,-2.566317393
78.37350,-3.787095024
78.37400,-4.39748384
78.37450,-1.955928578
78.37500,0.7908210914
78.37550,2.011598722
78.37600,3.842765168
78.37650,8.115486876
78.37700,12.38820858
78.37750,11.47262536
78.37800,6.28432043
78.37850,1.401209907
78.37900,-2.566317393
78.37950,-8.36501114
78.38000,-15.07928811
78.38050,-17.21564896
78.38100,-13.55331607
78.38150,-8.059816732
78.38200,-4.702678247
78.38250,-4.39748384
78.38300,-6.533844693
78.38350,-10.50137199
78.38400,-12.63773285
78.38450,-10.50137199
78.38500,-6.839039101
78.38550,-7.144233509
78.38600,-10.8065664
78.38650,-10.19617759
78.38700,-2.871511801
78.38750,2.927181945
78.38800,-1.65073417
78.38850,-13.85851048
78.38900,-22.09875949
78.38950,-21.48837067
78.39000,-18.13123219
78.39050,-18.741621
78.39100,-21.48837067
78.39150,-20.57278745
78.39200,-13.85851048
78.39250,-4.702678247
78.39300,2.621987538
78.39350,6.894709245
78.39400,6.894709245
78.39450,4.758348392
78.39500,4.147959576
78.39550,4.758348392
78.39600,3.537570761
78.39650,0.180432276
78.39700,0.4856266837
78.39750,9.031070099
78.39800,19.10248555
78.39850,19.71287437
78.39900,8.725875692
78.39950,-3.481900616
78.40000,-10.19617759
78.40050,-12.63773285
78.40100,-15.68967692
78.40150,-17.82603778
78.40200,-16.30006574
78.40250,-11.41695522
78.40300,-4.702678247
78.40350,2.31679313
78.40400,9.336264507
78.40450,14.52456944
78.40500,20.01806878
78.40550,27.95312338
78.40600,33.44662272
78.40650,26.73234575
78.40700,5.063542799
78.40750,-18.43642659
78.40800,-31.55978612
78.40850,-32.17017494
78.40900,-26.98187001
78.40950,-19.96239863
78.41000,-12.94292726
78.41050,-9.280594363
78.41100,-10.50137199
78.41150,-12.02734403
78.41200,-8.059816732
78.41250,0.180432276
78.41300,8.420681284
78.41350,13.60898621
78.41400,16.9661247
78.41450,20.01806878
78.41500,22.45962404
78.41550,23.68040167
78.41600,22.76481845
78.41650,20.32326318
78.41700,17.88170792
78.41750,12.69340299
78.41800,-0.1247621317
78.41850,-20.87798186
78.41900,-39.49484073
78.41950,-44.98834006
78.42000,-39.80003513
78.42050,-33.69614698
78.42100,-29.42342527
78.42150,-23.31953712
78.42200,-16.60526015
78.42250,-13.55331607
78.42300,-8.36501114
78.42350,12.9985974
78.42400,54.19984244
78.42450,95.09589307
78.42500,111.5763911
78.42550,97.84264274
78.42600,66.40761875
78.42650,34.36220594
78.42700,13.91418062
78.42750,9.946653322
78.42800,19.71287437
78.42850,38.32973324
78.42900,61.52450822
78.42950,77.08942302
78.43000,59.69334178
78.43050,-6.228650286
78.43100,-97.48177819
78.43150,-164.0141591
78.43200,-175.6115466
78.43250,-147.5336611
78.43300,-112.7414986
78.43350,-85.8843907
78.43400,-61.77403249
78.43450,-38.5792575
78.43500,-21.18317626
78.43550,-10.8065664
78.43600,-2.566317393
78.43650,6.589514838
78.43700,16.05054148
78.43750,25.51156812
78.43800,35.27778916
78.43850,42.29726054
78.43900,41.38167732
78.43950,34.66740035
78.44000,28.25831778
78.44050,27.34273456
78.44100,30.39467864
78.44150,31.92065068
78.44200,27.03754015
78.44250,15.74534707
78.44300,3.537570761
78.44350,-7.754622324
78.44400,-23.31953712
78.44450,-46.81950651
78.44500,-71.23505913
78.44550,-83.74802984
78.44600,-79.78050254
78.44650,-66.65714301
78.44700,-51.70261703
78.44750,-35.22211902
78.44800,-19.04681541
78.44850,-9.890983178
78.44900,-9.890983178
78.44950,-12.33253844
78.45000,-10.19617759
78.45050,-4.39748384
78.45100,0.4856266837
78.45150,7.199903653
78.45200,16.35573588
78.45250,23.07001285
78.45300,20.933652
78.45350,10.55704214
78.45400,1.706404315
78.45450,0.4856266837
78.45500,7.505098061
78.45550,18.18690233
78.45600,26.73234575
78.45650,31.00506745
78.45700,34.36220594
78.45750,40.7712885
78.45800,44.7388158
78.45850,34.66740035
78.45900,8.420681284
78.45950,-19.04681541
78.46000,-32.17017494
78.46050,-28.50784205
78.46100,-17.52084337
78.46150,-7.144233509
78.46200,0.4856266837
78.46250,5.368737207
78.46300,5.979126022
78.46350,5.368737207
78.46400,8.420681284
78.46450,15.13495825
78.46500,20.32326318
78.46550,16.9661247
78.46600,4.453153984
78.46650,-10.19617759
78.46700,-20.26759304
78.46750,-25.45589797
78.46800,-32.17017494
78.46850,-45.59872888
78.46900,-61.16364367
78.46950,-69.40389268
78.47000,-63.91039334
78.47050,-46.20911769
78.47100,-19.04681541
78.47150,13.91418062
78.47200,43.51803817
78.47250,62.74528585
78.47300,74.34267335
78.47350,88.3816161
78.47400,105.7776973
78.47450,112.1867799
78.47500,98.75822596
78.47550,74.64786776
78.47600,55.72581448
78.47650,44.12842699
78.47700,31.61545627
78.47750,15.74534707
78.47800,3.842765168
78.47850,1.401209907
78.47900,3.842765168
78.47950,4.453153984
78.48000,2.011598722
78.48050,-2.261122986
78.48100,-8.36501114
78.48150,-12.02734403
78.48200,-8.36501114
78.48250,0.180432276
78.48300,3.842765168
78.48350,-0.7351509471
78.48400,-6.533844693
78.48450,-6.533844693
78.48500,-4.092289432
78.48550,-8.059816732
78.48600,-17.21564896
78.48650,-24.84550916
78.48700,-27.28706442
78.48750,-24.23512034
78.48800,-14.46889929
78.48850,-3.176706209
78.48900,-2.261122986
78.48950,-15.99487133
78.49000,-25.45589797
78.49050,-8.975399955
78.49100,27.03754015
78.49150,57.25178652
78.49200,67.32320197
78.49250,63.66086908
78.49300,49.31673192
78.49350,17.27131911
78.49400,-23.62473152
78.49450,-48.04028414
78.49500,-45.29353447
78.49550,-34.6117302
78.49600,-35.52731343
78.49650,-40.10522954
78.49700,-35.52731343
78.49750,-30.6442029
78.49800,-39.18964632
78.49850,-52.61820026
78.49900,-50.17664499
78.49950,-30.03381409
78.50000,-9.890983178
78.50050,1.096015499
78.50100,10.25184773
78.50150,19.10248555
78.50200,18.18690233
78.50250,5.368737207
78.50300,-7.754622324
78.50350,-13.85851048
78.50400,-15.38448252
78.50450,-16.60526015
78.50500,-15.07928811
78.50550,-10.8065664
78.50600,-8.059816732
78.50650,-8.670205547
78.50700,-6.533844693
78.50750,0.7908210914
78.50800,9.946653322
78.50850,14.82976385
78.50900,16.9661247
78.50950,19.40767996
78.51000,23.37520726
78.51050,26.42715134
78.51100,25.20637371
78.51150,19.40767996
78.51200,12.08301418
78.51250,8.420681284
78.51300,9.641458915
78.51350,10.25184773
78.51400,5.063542799
78.51450,-3.787095024
78.51500,-10.8065664
78.51550,-15.38448252
78.51600,-20.26759304
78.51650,-22.09875949
78.51700,-17.21564896
78.51750,-9.58578877
78.51800,-10.19617759
78.51850,-18.741621
78.51900,-22.40395389
78.51950,-11.72214962
78.52000,7.505098061
78.52050,20.933652
78.52100,21.23884641
78.52150,12.08301418
78.52200,1.096015499
78.52250,-5.313067063
78.52300,-6.228650286
78.52350,-4.092289432
78.52400,-4.39748384
78.52450,-7.144233509
78.52500,-9.280594363
78.52550,-8.059816732
78.52600,-5.313067063
78.52650,-3.176706209
78.52700,-3.176706209
78.52750,-7.449427917
78.52800,-14.7740937
78.52850,-19.65720422
78.52900,-15.38448252
78.52950,-5.923455878
78.53000,-1.040345355
78.53050,-3.787095024
78.53100,-7.754622324
78.53150,-8.670205547
78.53200,-9.280594363
78.53250,-11.72214962
78.53300,-9.58578877
78.53350,0.7908210914
78.53400,15.74534707
78.53450,26.42715134
78.53500,30.69987305
78.53550,30.69987305
78.53600,26.42715134
78.53650,19.40767996
78.53700,14.52456944
78.53750,15.44015266
78.53800,17.57651352
78.53850,15.44015266
78.53900,10.25184773
78.53950,6.589514838
78.54000,4.147959576
78.54050,0.4856266837
78.54100,-2.566317393
78.54150,-2.261122986
78.54200,-1.345539762
78.54250,-3.481900616
78.54300,-5.007872655
78.54350,1.096015499
78.54400,12.9985974
78.54450,18.18690233
78.54500,10.86223655
78.54550,1.401209907
78.54600,2.31679313
78.54650,11.77781977
78.54700,17.27131911
78.54750,12.69340299
78.54800,7.505098061
78.54850,9.641458915
78.54900,13.60898621
78.54950,9.031070099
78.55000,-3.787095024
78.55050,-13.85851048
78.55100,-17.52084337
78.55150,-25.76109238
78.55200,-45.29353447
78.55250,-63.60519893
78.55300,-61.77403249
78.55350,-40.41042395
78.55400,-15.68967692
78.55450,-0.1247621317
78.55500,9.336264507
78.55550,15.44015266
78.55600,13.30379181
78.55650,2.621987538
78.55700,-6.839039101
78.55750,-7.449427917
78.55800,-4.702678247
78.55850,-8.670205547
78.55900,-16.91045456
78.55950,-19.04681541
78.56000,-11.11176081
78.56050,-0.7351509471
78.56100,6.589514838
78.56150,14.21937503
78.56200,25.51156812
78.56250,38.02453883
78.56300,45.04401021
78.56350,43.51803817
78.56400,35.58298357
78.56450,26.42715134
78.56500,18.79729115
78.56550,12.9985974
78.56600,6.894709245
78.56650,0.180432276
78.56700,-5.007872655
78.56750,-8.059816732
78.56800,-12.63773285
78.56850,-21.79356508
78.56900,-31.25459172
78.56950,-31.55978612
78.57000,-21.79356508
78.57050,-10.50137199
78.57100,-5.923455878
78.57150,-5.007872655
78.57200,-2.261122986
78.57250,1.706404315
78.57300,4.453153984
78.57350,6.589514838
78.57400,9.641458915
78.57450,8.725875692
78.57500,-0.4299565394
78.57550,-10.50137199
78.57600,-8.975399955
78.57650,1.096015499
78.57700,4.758348392
78.57750,-2.871511801
78.57800,-6.839039101
78.57850,6.894709245
78.57900,30.08948423
78.57950,45.95959343
78.58000,52.97906481
78.58050,61.52450822
78.58100,72.5115069
78.58150,72.5115069
78.58200,53.28425922
78.58250,21.84923522
78.58300,-9.280594363
78.58350,-35.52731343
78.58400,-53.22858907
78.58450,-57.50131078
78.58500,-49.87145059
78.58550,-41.02081276
78.58600,-40.10522954
78.58650,-43.46236803
78.58700,-41.02081276
78.58750,-31.25459172
78.58800,-22.40395389
78.58850,-20.26759304
78.58900,-19.96239863
78.58950,-15.68967692
78.59000,-7.449427917
78.59050,-0.7351509471
78.59100,2.011598722
78.59150,2.927181945
78.59200,2.927181945
78.59250,-0.4299565394
78.59300,-7.449427917
78.59350,-13.55331607
78.59400,-15.68967692
78.59450,-15.07928811
78.59500,-14.46889929
78.59550,-12.63773285
78.59600,-6.839039101
78.59650,1.706404315
78.59700,10.55704214
78.59750,17.88170792
78.59800,22.15442963
78.59850,20.32326318
78.59900,12.9985974
78.59950,6.28432043
78.60000,3.537570761
78.60050,1.096015499
78.60100,-4.39748384
78.60150,-10.19617759
78.60200,-11.41695522
78.60250,-12.33253844
78.60300,-19.04681541
78.60350,-30.03381409
78.60400,-37.35847987
78.60450,-37.35847987
78.60500,-29.11823086
78.60550,-10.19617759
78.60600,15.74534707
78.60650,37.10895561
78.60700,44.43362139
78.60750,43.51803817
78.60800,44.7388158
78.60850,47.48556547
78.60900,44.7388158
78.60950,39.55051087
78.61000,38.02453883
78.61050,36.49856679
78.61100,26.42715134
78.61150,12.69340299
78.61200,9.031070099
78.61250,15.44015266
78.61300,19.10248555
78.61350,15.74534707
78.61400,15.44015266
78.61450,23.68040167
78.61500,30.69987305
78.61550,27.64792897
78.61600,18.18690233
78.61650,9.641458915
78.61700,0.7908210914
78.61750,-8.36501114
78.61800,-14.16370489
78.61850,-13.55331607
78.61900,-11.72214962
78.61950,-12.02734403
78.62000,-10.50137199
78.62050,-5.007872655
78.62100,-2.566317393
78.62150,-8.975399955
78.62200,-21.18317626
78.62250,-31.55978612
78.62300,-37.96886869
78.62350,-41.63120158
78.62400,-40.10522954
78.62450,-33.39095257
78.62500,-28.50784205
78.62550,-29.42342527
78.62600,-28.81303646
78.62650,-16.60526015
78.62700,3.842765168
78.62750,20.933652
78.62800,27.34273456
78.62850,26.73234575
78.62900,24.9011793
78.62950,23.37520726
78.63000,23.07001285
78.63050,27.03754015
78.63100,35.88817798
78.63150,47.79075988
78.63200,57.25178652
78.63250,54.81023125
78.63300,33.14142831
78.63350,-2.261122986
78.63400,-31.86498053
78.63450,-39.49484073
78.63500,-30.6442029
78.63550,-23.31953712
78.63600,-26.37148119
78.63650,-36.13770224
78.63700,-46.5143121
78.63750,-55.67014433
78.63800,-58.72208841
78.63850,-50.17664499
78.63900,-32.78056376
78.63950,-18.13123219
78.64000,-10.8065664
78.64050,-4.702678247
78.64100,3.537570761
78.64150,8.115486876
78.64200,0.4856266837
78.64250,-15.38448252
78.64300,-29.11823086
78.64350,-34.30653579
78.64400,-32.47536935
78.64450,-29.11823086
78.64500,-29.42342527
78.64550,-32.17017494
78.64600,-30.03381409
78.64650,-17.82603778
78.64700,-3.176706209
78.64750,2.31679313
78.64800,0.7908210914
78.64850,3.232376353
78.64900,11.77781977
78.64950,16.35573588
78.65000,11.47262536
78.65050,4.453153984
78.65100,1.401209907
78.65150,-3.176706209
78.65200,-12.33253844
78.65250,-17.21564896
78.65300,-10.19617759
78.65350,-0.1247621317
78.65400,0.4856266837
78.65450,-5.923455878
78.65500,-11.11176081
78.65550,-11.72214962
78.65600,-10.19617759
78.65650,-3.787095024
78.65700,12.69340299
78.65750,34.66740035
78.65800,51.14789836
78.65850,58.77775855
78.65900,60.608925
78.65950,60.30373059
78.66000,59.08295296
78.66050,60.30373059
78.66100,67.93359079
78.66150,74.95306216
78.66200,71.59592368
78.66250,55.42062007
78.66300,34.36220594
78.66350,16.35573588
78.66400,4.453153984
78.66450,-1.65073417
78.66500,-5.61826147
78.66550,-10.8065664
78.66600,-17.21564896
78.66650,-19.04681541
78.66700,-13.85851048
78.66750,-5.923455878
78.66800,-0.7351509471
78.66850,-0.1247621317
78.66900,-0.4299565394
78.66950,-1.040345355
78.67000,-1.955928578
78.67050,-1.65073417
78.67100,-0.4299565394
78.67150,-0.7351509471
78.67200,-2.566317393
78.67250,-2.566317393
78.67300,-1.65073417
78.67350,-4.39748384
78.67400,-11.41695522
78.67450,-19.04681541
78.67500,-27.28706442
78.67550,-39.18964632
78.67600,-51.09222822
78.67650,-49.56625618
78.67700,-29.42342527
78.67750,-7.144233509
78.67800,-0.1247621317
78.67850,-8.059816732
78.67900,-16.91045456
78.67950,-18.741621
78.68000,-16.91045456
78.68050,-14.7740937
78.68100,-11.72214962
78.68150,-7.449427917
78.68200,-1.345539762
78.68250,8.115486876
78.68300,19.71287437
78.68350,23.37520726
78.68400,12.9985974
78.68450,-4.39748384
78.68500,-16.91045456
78.68550,-22.09875949
78.68600,-23.92992593
78.68650,-22.7091483
78.68700,-14.7740937
78.68750,-2.566317393
78.68800,4.758348392
78.68850,4.453153984
78.68900,1.706404315
78.68950,2.31679313
78.69000,4.758348392
78.69050,7.505098061
78.69100,11.47262536
78.69150,18.18690233
78.69200,26.42715134
78.69250,33.44662272
78.69300,34.05701153
78.69350,22.45962404
78.69400,-1.345539762
78.69450,-26.98187001
78.69500,-39.18964632
78.69550,-34.30653579
78.69600,-21.18317626
78.69650,-7.754622324
78.69700,2.011598722
78.69750,3.842765168
78.69800,-6.839039101
78.69850,-23.92992593
78.69900,-30.33900849
78.69950,-20.57278745
78.70000,-6.228650286
78.70050,1.401209907
78.70100,7.810292469
78.70150,21.54404082
78.70200,37.71934442
78.70250,45.95959343
78.70300,47.18037106
78.70350,50.23231514
78.70400,54.50503685
78.70450,49.62192632
78.70500,32.53103949
78.70550,12.69340299
78.70600,-0.7351509471
78.70650,-9.280594363
78.70700,-15.38448252
78.70750,-18.13123219
78.70800,-18.13123219
78.70850,-19.65720422
78.70900,-23.92992593
78.70950,-23.92992593
78.71000,-15.38448252
78.71050,-6.839039101
78.71100,-9.58578877
78.71150,-23.31953712
78.71200,-36.44289665
78.71250,-40.41042395
78.71300,-36.13770224
78.71350,-29.11823086
78.71400,-21.18317626
78.71450,-10.50137199
78.71500,5.368737207
78.71550,26.12195693
78.71600,45.95959343
78.71650,58.47256415
78.71700,59.99853619
78.71750,52.06348159
78.71800,39.55051087
78.71850,23.68040167
78.71900,4.453153984
78.71950,-13.55331607
78.72000,-22.7091483
78.72050,-19.35200982
78.72100,-12.02734403
78.72150,-14.16370489
78.72200,-28.20264764
78.72250,-41.02081276
78.72300,-37.35847987
78.72350,-17.52084337
78.72400,3.842765168
78.72450,12.9985974
78.72500,8.420681284
78.72550,-1.040345355
78.72600,-7.754622324
78.72650,-10.19617759
78.72700,-12.33253844
78.72750,-19.35200982
78.72800,-32.47536935
78.72850,-46.81950651
78.72900,-55.05975552
78.72950,-53.83897789
78.73000,-46.20911769
78.73050,-35.52731343
78.73100,-23.62473152
78.73150,-11.11176081
78.73200,-0.1247621317
78.73250,6.589514838
78.73300,11.47262536
78.73350,18.49209674
78.73400,30.08948423
78.73450,43.21284376
78.73500,51.75828718
78.73550,51.45309277
78.73600,44.7388158
78.73650,36.49856679
78.73700,29.78428982
78.73750,24.59598489
78.73800,18.79729115
78.73850,11.47262536
78.73900,3.232376353
78.73950,-5.313067063
78.74000,-12.33253844
78.74050,-15.68967692
78.74100,-17.52084337
78.74150,-20.26759304
78.74200,-22.7091483
78.74250,-19.96239863
78.74300,-12.33253844
78.74350,-6.533844693
78.74400,-5.007872655
78.74450,-3.176706209
78.74500,2.621987538
78.74550,9.641458915
78.74600,12.69340299
78.74650,11.77781977
78.74700,11.47262536
78.74750,12.9985974
78.74800,16.9661247
78.74850,22.15442963
78.74900,25.81676252
78.74950,24.59598489
78.75000,22.45962404
78.75050,25.51156812
78.75100,31.61545627
78.75150,31.31026186
78.75200,23.68040167
78.75250,21.23884641
78.75300,27.64792897
78.75350,26.12195693
78.75400,2.621987538
78.75450,-29.11823086
78.75500,-42.24159039
78.75550,-28.81303646
78.75600,-8.36501114
78.75650,0.4856266837
78.75700,0.4856266837
78.75750,1.096015499
78.75800,4.758348392
78.75850,6.589514838
78.75900,5.368737207
78.75950,3.537570761
78.76000,2.31679313
78.76050,1.096015499
78.76100,-0.7351509471
78.76150,-3.787095024
78.76200,-8.059816732
78.76250,-11.41695522
78.76300,-12.63773285
78.76350,-11.72214962
78.76400,-11.11176081
78.76450,-14.7740937
78.76500,-23.01434271
78.76550,-32.47536935
78.76600,-39.49484073
78.76650,-41.32600717
78.76700,-40.41042395
78.76750,-38.88445191
78.76800,-34.91692461
78.76850,-24.54031475
78.76900,-8.670205547
78.76950,7.810292469
78.77000,24.29079048
78.77050,42.60245495
78.77100,60.30373059
78.77150,72.81670131
78.77200,79.83617269
78.77250,83.80369999
78.77300,83.49850558
78.77350,72.81670131
78.77400,53.58945362
78.77450,34.66740035
78.77500,23.07001285
78.77550,15.13495825
78.77600,4.758348392
78.77650,-9.58578877
78.77700,-25.76109238
78.77750,-38.88445191
78.77800,-44.37795125
78.77850,-42.5467848
78.77900,-41.02081276
78.77950,-45.59872888
78.78000,-49.26106177
78.78050,-41.93639599
78.78100,-26.98187001
78.78150,-18.741621
78.78200,-21.48837067
78.78250,-23.92992593
78.78300,-19.35200982
78.78350,-15.07928811
78.78400,-19.35200982
78.78450,-27.28706442
78.78500,-31.86498053
78.78550,-34.30653579
78.78600,-34.91692461
78.78650,-26.98187001
78.78700,-6.839039101
78.78750,16.66093029
78.78800,33.75181712
78.78850,43.82323258
78.78900,47.48556547
78.78950,38.02453883
78.79000,13.30379181
78.79050,-8.975399955
78.79100,-8.36501114
78.79150,10.86223655
78.79200,27.03754015
78.79250,28.8687066
78.79300,25.81676252
78.79350,26.73234575
78.79400,27.03754015
78.79450,22.45962404
78.79500,17.57651352
78.79550,14.52456944
78.79600,7.810292469
78.79650,-4.702678247
78.79700,-15.07928811
78.79750,-15.07928811
78.79800,-10.8065664
78.79850,-10.19617759
78.79900,-12.33253844
78.79950,-12.63773285
78.80000,-14.16370489
78.80050,-19.96239863
78.80100,-26.6766756
78.80150,-26.6766756
78.80200,-19.96239863
78.80250,-13.24812166
78.80300,-9.890983178
78.80350,-9.58578877
78.80400,-11.11176081
78.80450,-12.94292726
78.80500,-12.02734403
78.80550,-9.58578877
78.80600,-10.19617759
78.80650,-13.55331607
78.80700,-10.8065664
78.80750,2.011598722
78.80800,16.66093029
78.80850,20.933652
78.80900,14.21937503
78.80950,6.28432043
78.81000,1.706404315
78.81050,-0.4299565394
78.81100,-2.566317393
78.81150,-2.261122986
78.81200,-0.1247621317
78.81250,-0.1247621317
78.81300,-1.65073417
78.81350,-1.65073417
78.81400,0.7908210914
78.81450,2.621987538
78.81500,2.621987538
78.81550,2.927181945
78.81600,2.621987538
78.81650,-0.4299565394
78.81700,-6.533844693
78.81750,-10.19617759
78.81800,-7.449427917
78.81850,-1.65073417
78.81900,1.096015499
78.81950,-0.1247621317
78.82000,-2.871511801
78.82050,-3.481900616
78.82100,-3.787095024
78.82150,-10.19617759
78.82200,-23.01434271
78.82250,-33.39095257
78.82300,-31.55978612
78.82350,-20.26759304
78.82400,-10.50137199
78.82450,-6.839039101
78.82500,-3.481900616
78.82550,6.589514838
78.82600,20.32326318
78.82650,31.00506745
78.82700,35.27778916
78.82750,33.44662272
78.82800,27.64792897
78.82850,21.84923522
78.82900,19.10248555
78.82950,17.57651352
78.83000,12.69340299
78.83050,4.453153984
78.83100,-3.787095024
78.83150,-15.68967692
78.83200,-34.91692461
78.83250,-55.05975552
78.83300,-61.46883808
78.83350,-51.39742263
78.83400,-38.27406309
78.83450,-33.69614698
78.83500,-32.47536935
78.83550,-24.54031475
78.83600,-10.50137199
78.83650,4.758348392
78.83700,20.933652
78.83750,37.41415002
78.83800,44.43362139
78.83850,35.27778916
78.83900,18.18690233
78.83950,8.725875692
78.84000,11.47262536
78.84050,17.27131911
78.84100,17.27131911
78.84150,12.08301418
78.84200,5.979126022
78.84250,1.401209907
78.84300,-0.7351509471
78.84350,-0.4299565394
78.84400,1.401209907
78.84450,1.706404315
78.84500,0.7908210914
78.84550,1.401209907
78.84600,6.589514838
78.84650,14.82976385
78.84700,23.07001285
78.84750,27.64792897
78.84800,27.95312338
78.84850,23.07001285
78.84900,15.13495825
78.84950,7.810292469
78.85000,5.979126022
78.85050,10.25184773
78.85100,14.82976385
78.85150,12.08301418
78.85200,1.096015499
78.85250,-10.19617759
78.85300,-12.63773285
78.85350,-5.923455878
78.85400,-0.1247621317
78.85450,-3.481900616
78.85500,-12.33253844
78.85550,-17.52084337
78.85600,-17.52084337
78.85650,-20.57278745
78.85700,-31.25459172
78.85750,-43.46236803
78.85800,-45.90392329
78.85850,-37.66367428
78.85900,-26.6766756
78.85950,-22.40395389
78.86000,-25.15070356
78.86050,-27.28706442
78.86100,-18.13123219
78.86150,8.115486876
78.86200,41.68687172
78.86250,60.608925
78.86300,50.84270395
78.86350,21.54404082
78.86400,-2.566317393
78.86450,-8.975399955
78.86500,-3.787095024
78.86550,0.180432276
78.86600,-0.1247621317
78.86650,-1.345539762
78.86700,-1.955928578
78.86750,-4.702678247
78.86800,-7.144233509
78.86850,-4.092289432
78.86900,7.505098061
78.86950,22.15442963
78.87000,32.8362339
78.87050,37.41415002
78.87100,39.55051087
78.87150,40.7712885
78.87200,37.41415002
78.87250,28.8687066
78.87300,20.32326318
78.87350,16.66093029
78.87400,14.52456944
78.87450,8.420681284
78.87500,-0.7351509471
78.87550,-6.839039101
78.87600,-8.059816732
78.87650,-9.890983178
78.87700,-12.94292726
78.87750,-12.02734403
78.87800,-5.61826147
78.87850,0.180432276
78.87900,1.401209907
78.87950,1.096015499
78.88000,2.011598722
78.88050,2.621987538
78.88100,0.4856266837
78.88150,-0.1247621317
78.88200,3.232376353
78.88250,6.589514838
78.88300,4.147959576
78.88350,-0.7351509471
78.88400,-1.955928578
78.88450,1.096015499
78.88500,1.706404315
78.88550,-3.481900616
78.88600,-9.280594363
78.88650,-11.72214962
78.88700,-12.94292726
78.88750,-15.99487133
78.88800,-18.43642659
78.88850,-17.82603778
78.88900,-16.60526015
78.88950,-19.65720422
78.89000,-25.76109238
78.89050,-31.25459172
78.89100,-33.08575816
78.89150,-30.33900849
78.89200,-22.40395389
78.89250,-8.670205547
78.89300,5.368737207
78.89350,11.47262536
78.89400,6.28432043
78.89450,-4.702678247
78.89500,-14.16370489
78.89550,-19.04681541
78.89600,-22.7091483
78.89650,-26.06628679
78.89700,-23.62473152
78.89750,-9.58578877
78.89800,12.69340299
78.89850,33.44662272
78.89900,45.95959343
78.89950,52.06348159
78.90000,60.30373059
78.90050,73.12189572
78.90100,86.24525525
78.90150,90.51797696
78.90200,80.75175591
78.90250,56.6413977
78.90300,23.37520726
78.90350,-8.975399955
78.90400,-30.94939731
78.90450,-37.35847987
78.90500,-30.6442029
78.90550,-18.13123219
78.90600,-6.228650286
78.90650,-0.1247621317
78.90700,-0.1247621317
78.90750,-1.955928578
78.90800,-2.261122986
78.90850,-0.1247621317
78.90900,0.7908210914
78.90950,-2.261122986
78.91000,-8.059816732
78.91050,-12.02734403
78.91100,-13.24812166
78.91150,-14.7740937
78.91200,-17.21564896
78.91250,-18.741621
78.91300,-16.91045456
78.91350,-12.94292726
78.91400,-9.280594363
78.91450,-5.61826147
78.91500,-0.7351509471
78.91550,5.063542799
78.91600,9.641458915
78.91650,13.60898621
78.91700,20.32326318
78.91750,30.39467864
78.91800,39.24531646
78.91850,44.7388158
78.91900,47.18037106
78.91950,45.34920462
78.92000,35.88817798
78.92050,23.68040167
78.92100,19.40767996
78.92150,21.84923522
78.92200,14.82976385
78.92250,-10.19617759
78.92300,-41.63120158
78.92350,-59.02728282
78.92400,-62.99481012
78.92450,-64.52078216
78.92500,-64.82597656
78.92550,-55.36494993
78.92600,-38.5792575
78.92650,-26.06628679
78.92700,-20.57278745
78.92750,-16.30006574
78.92800,-15.99487133
78.92850,-32.47536935
78.92900,-63.30000453
78.92950,-86.49477951
78.93000,-84.66361306
78.93050,-62.99481012
78.93100,-37.35847987
78.93150,-17.52084337
78.93200,-5.007872655
78.93250,0.180432276
78.93300,0.7908210914
78.93350,1.706404315
78.93400,4.453153984
78.93450,6.28432043
78.93500,5.673931615
78.93550,5.063542799
78.93600,6.28432043
78.93650,6.589514838
78.93700,3.842765168
78.93750,-3.481900616
78.93800,-15.38448252
78.93850,-26.37148119
78.93900,-27.28706442
78.93950,-14.46889929
78.94000,2.31679313
78.94050,13.91418062
78.94100,22.15442963
78.94150,32.53103949
78.94200,41.07648291
78.94250,37.71934442
78.94300,25.81676252
78.94350,18.49209674
78.94400,21.23884641
78.94450,26.42715134
78.94500,26.12195693
78.94550,22.45962404
78.94600,17.88170792
78.94650,10.25184773
78.94700,0.7908210914
78.94750,-4.702678247
78.94800,-4.092289432
78.94850,-1.345539762
78.94900,-0.4299565394
78.94950,-1.040345355
78.95000,-1.040345355
78.95050,-0.1247621317
78.95100,1.401209907
78.95150,4.453153984
78.95200,8.420681284
78.95250,11.47262536
78.95300,13.60898621
78.95350,17.27131911
78.95400,22.45962404
78.95450,25.20637371
78.95500,20.933652
78.95550,9.336264507
78.95600,-4.092289432
78.95650,-12.63773285
78.95700,-11.11176081
78.95750,-1.65073417
78.95800,5.979126022
78.95850,6.589514838
78.95900,2.011598722
78.95950,-1.955928578
78.96000,-4.39748384
78.96050,-6.228650286
78.96100,-8.059816732
78.96150,-8.975399955
78.96200,-8.670205547
78.96250,-8.670205547
78.96300,-8.975399955
78.96350,-8.36501114
78.96400,-8.36501114
78.96450,-11.41695522
78.96500,-16.91045456
78.96550,-22.09875949
78.96600,-23.92992593
78.96650,-20.26759304
78.96700,-11.41695522
78.96750,-1.955928578
78.96800,2.31679313
78.96850,2.011598722
78.96900,5.063542799
78.96950,15.44015266
78.97000,28.8687066
78.97050,37.41415002
78.97100,40.7712885
78.97150,44.7388158
78.97200,48.09595429
78.97250,44.12842699
78.97300,30.39467864
78.97350,15.44015266
78.97400,7.199903653
78.97450,5.368737207
78.97500,3.537570761
78.97550,-1.040345355
78.97600,-5.61826147
78.97650,-7.449427917
78.97700,-7.754622324
78.97750,-8.975399955
78.97800,-10.19617759
78.97850,-10.50137199
78.97900,-12.02734403
78.97950,-17.82603778
78.98000,-23.62473152
78.98050,-21.18317626
78.98100,-8.36501114
78.98150,5.673931615
78.98200,12.38820858
78.98250,13.91418062
78.98300,14.82976385
78.98350,13.30379181
78.98400,5.063542799
78.98450,-4.702678247
78.98500,-8.059816732
78.98550,-9.58578877
78.98600,-21.48837067
78.98650,-40.10522954
78.98700,-43.76756243
78.98750,-20.87798186
78.98800,14.21937503
78.98850,37.41415002
78.98900,38.32973324
78.98950,23.98559608
78.99000,5.063542799
78.99050,-10.8065664
78.99100,-18.13123219
78.99150,-17.21564896
78.99200,-13.85851048
78.99250,-13.55331607
78.99300,-15.38448252
78.99350,-15.99487133
78.99400,-14.46889929
78.99450,-9.58578877
78.99500,0.7908210914
78.99550,14.82976385
78.99600,22.76481845
78.99650,18.79729115
78.99700,9.031070099
78.99750,2.927181945
78.99800,2.927181945
78.99850,3.537570761
78.99900,1.401209907
78.99950,-2.261122986
79.00000,-5.61826147
79.00050,-6.228650286
79.00100,-4.39748384
79.00150,-1.345539762
79.00200,0.180432276
79.00250,1.096015499
79.00300,4.147959576
79.00350,9.641458915
79.00400,15.13495825
79.00450,17.27131911
79.00500,14.21937503
79.00550,6.28432043
79.00600,-2.261122986
79.00650,-4.39748384
79.00700,-0.1247621317
79.00750,0.7908210914
79.00800,-8.36501114
79.00850,-20.87798186
79.00900,-23.92992593
79.00950,-19.35200982
79.01000,-20.87798186
79.01050,-30.03381409
79.01100,-34.30653579
79.01150,-26.6766756
79.01200,-17.21564896
79.01250,-14.7740937
79.01300,-12.02734403
79.01350,-1.65073417
79.01400,11.16743095
79.01450,16.35573588
79.01500,15.13495825
79.01550,13.91418062
79.01600,11.47262536
79.01650,2.621987538
79.01700,-8.059816732
79.01750,-10.8065664
79.01800,-3.787095024
79.01850,2.31679313
79.01900,1.706404315
79.01950,-1.65073417
79.02000,-3.176706209
79.02050,-2.566317393
79.02100,-1.955928578
79.02150,-1.345539762
79.02200,0.180432276
79.02250,1.096015499
79.02300,0.180432276
79.02350,-1.345539762
79.02400,-2.566317393
79.02450,-3.481900616
79.02500,-3.787095024
79.02550,-0.4299565394
79.02600,7.505098061
79.02650,17.27131911
79.02700,22.76481845
79.02750,23.98559608
79.02800,23.98559608
79.02850,20.32326318
79.02900,6.894709245
79.02950,-15.38448252
79.03000,-34.00134139
79.03050,-37.35847987
79.03100,-28.81303646
79.03150,-20.57278745
79.03200,-18.741621
79.03250,-17.82603778
79.03300,-11.41695522
79.03350,-0.1247621317
79.03400,15.13495825
79.03450,35.58298357
79.03500,57.55698092
79.03550,72.5115069
79.03600,76.4790342
79.03650,74.95306216
79.03700,70.68034046
79.03750,56.94659211
79.03800,26.12195693
79.03850,-11.41695522
79.03900,-37.66367428
79.03950,-42.24159039
79.04000,-31.86498053
79.04050,-19.35200982
79.04100,-13.24812166
79.04150,-15.07928811
79.04200,-21.79356508
79.04250,-26.6766756
79.04300,-24.54031475
79.04350,-16.91045456
79.04400,-7.449427917
79.04450,5.368737207
79.04500,23.07001285
79.04550,35.27778916
79.04600,25.20637371
79.04650,-7.449427917
79.04700,-39.80003513
79.04750,-46.20911769
79.04800,-28.50784205
79.04850,-11.72214962
79.04900,-12.33253844
79.04950,-23.31953712
79.05000,-27.59225882
79.05050,-20.26759304
79.05100,-10.50137199
79.05150,-4.702678247
79.05200,-0.1247621317
79.05250,6.894709245
79.05300,12.69340299
79.05350,12.69340299
79.05400,8.420681284
79.05450,6.28432043
79.05500,8.725875692
79.05550,10.86223655
79.05600,8.725875692
79.05650,2.927181945
79.05700,-1.65073417
79.05750,-4.702678247
79.05800,-8.059816732
79.05850,-11.41695522
79.05900,-11.11176081
79.05950,-5.923455878
79.06000,0.4856266837
79.06050,4.758348392
79.06100,7.505098061
79.06150,11.77781977
79.06200,16.66093029
79.06250,13.91418062
79.06300,1.096015499
79.06350,-12.33253844
79.06400,-13.24812166
79.06450,-2.261122986
79.06500,4.758348392
79.06550,-3.787095024
79.06600,-23.01434271
79.06650,-34.91692461
79.06700,-30.94939731
79.06750,-16.91045456
79.06800,-5.007872655
79.06850,-0.4299565394
79.06900,1.401209907
79.06950,12.08301418
79.07000,34.05701153
79.07050,56.03100889
79.07100,61.21931382
79.07150,45.95959343
79.07200,24.59598489
79.07250,15.44015266
79.07300,22.45962404
79.07350,35.27778916
79.07400,40.7712885
79.07450,34.97259475
79.07500,22.76481845
79.07550,11.77781977
79.07600,4.758348392
79.07650,-1.955928578
79.07700,-11.72214962
79.07750,-20.87798186
79.07800,-22.40395389
79.07850,-18.741621
79.07900,-17.52084337
79.07950,-20.26759304
79.08000,-20.57278745
79.08050,-13.55331607
79.08100,-4.39748384
79.08150,0.180432276
79.08200,-1.345539762
79.08250,-7.754622324
79.08300,-16.60526015
79.08350,-22.7091483
79.08400,-19.35200982
79.08450,-8.670205547
79.08500,-1.345539762
79.08550,-2.261122986
79.08600,-4.702678247
79.08650,-2.871511801
79.08700,-1.65073417
79.08750,-5.61826147
79.08800,-9.890983178
79.08850,-8.975399955
79.08900,-10.8065664
79.08950,-24.23512034
79.09000,-40.71561836
79.09050,-43.15717362
79.09100,-27.28706442
79.09150,-6.839039101
79.09200,6.28432043
79.09250,13.91418062
79.09300,16.35573588
79.09350,7.505098061
79.09400,-12.94292726
79.09450,-30.94939731
79.09500,-31.25459172
79.09550,-17.52084337
79.09600,-5.007872655
79.09650,-0.4299565394
79.09700,2.011598722
79.09750,8.115486876
79.09800,13.60898621
79.09850,14.21937503
79.09900,12.9985974
79.09950,12.08301418
79.10000,6.894709245
79.10050,-5.007872655
79.10100,-17.52084337
79.10150,-22.40395389
79.10200,-21.48837067
79.10250,-22.40395389
79.10300,-26.06628679
79.10350,-26.98187001
79.10400,-23.92992593
79.10450,-20.26759304
79.10500,-15.68967692
79.10550,-2.871511801
79.10600,17.88170792
79.10650,39.24531646
79.10700,55.11542566
79.10750,66.71281315
79.10800,73.42709012
79.10850,70.06995164
79.10900,58.47256415
79.10950,48.40114869
79.11000,42.29726054
79.11050,31.00506745
79.11100,9.946653322
79.11150,-8.670205547
79.11200,-12.33253844
79.11250,-6.533844693
79.11300,-4.092289432
79.11350,-6.533844693
79.11400,-4.092289432
79.11450,3.537570761
79.11500,7.199903653
79.11550,3.232376353
79.11600,-2.566317393
79.11650,-5.923455878
79.11700,-8.059816732
79.11750,-11.11176081
79.11800,-14.7740937
79.11850,-21.18317626
79.11900,-30.03381409
79.11950,-32.78056376
79.12000,-19.96239863
79.12050,3.537570761
79.12100,22.76481845
79.12150,27.95312338
79.12200,21.23884641
79.12250,9.336264507
79.12300,-4.092289432
79.12350,-16.30006574
79.12400,-21.18317626
79.12450,-18.741621
79.12500,-14.7740937
79.12550,-13.85851048
79.12600,-13.24812166
79.12650,-10.8065664
79.12700,-7.144233509
79.12750,-4.092289432
79.12800,-1.955928578
79.12850,0.4856266837
79.12900,4.147959576
79.12950,9.946653322
79.13000,18.49209674
79.13050,26.42715134
79.13100,30.39467864
79.13150,30.39467864
79.13200,27.34273456
79.13250,21.54404082
79.13300,14.21937503
79.13350,7.810292469
79.13400,4.758348392
79.13450,1.096015499
79.13500,-3.787095024
79.13550,-8.059816732
79.13600,-11.11176081
79.13650,-21.48837067
79.13700,-41.93639599
79.13750,-60.55325486
79.13800,-62.68961571
79.13850,-51.39742263
79.13900,-40.71561836
79.13950,-35.83250783
79.14000,-27.89745323
79.14050,-14.16370489
79.14100,-2.871511801
79.14150,-0.4299565394
79.14200,1.706404315
79.14250,12.69340299
79.14300,29.17390101
79.14350,41.68687172
79.14400,46.26478784
79.14450,45.34920462
79.14500,40.46609409
79.14550,31.92065068
79.14600,22.15442963
79.14650,14.21937503
79.14700,9.336264507
79.14750,6.28432043
79.14800,3.842765168
79.14850,1.706404315
79.14900,-0.7351509471
79.14950,-3.787095024
79.15000,-6.533844693
79.15050,-7.449427917
79.15100,-5.61826147
79.15150,-3.176706209
79.15200,-1.65073417
79.15250,-2.566317393
79.15300,-3.176706209
79.15350,-1.65073417
79.15400,-0.1247621317
79.15450,-0.4299565394
79.15500,-1.040345355
79.15550,2.31679313
79.15600,7.810292469
79.15650,6.28432043
79.15700,-3.787095024
79.15750,-14.46889929
79.15800,-17.82603778
79.15850,-17.21564896
79.15900,-18.741621
79.15950,-22.40395389
79.16000,-24.84550916
79.16050,-26.06628679
79.16100,-26.06628679
79.16150,-18.43642659
79.16200,-3.176706209
79.16250,7.199903653
79.16300,4.758348392
79.16350,-0.4299565394
79.16400,5.979126022
79.16450,18.49209674
79.16500,16.05054148
79.16550,-4.39748384
79.16600,-18.741621
79.16650,-6.839039101
79.16700,21.23884641
79.16750,43.51803817
79.16800,49.62192632
79.16850,45.65439902
79.16900,34.66740035
79.16950,16.66093029
79.17000,-3.176706209
79.17050,-15.99487133
79.17100,-18.43642659
79.17150,-15.38448252
79.17200,-11.41695522
79.17250,-7.449427917
79.17300,-5.61826147
79.17350,-6.839039101
79.17400,-8.059816732
79.17450,-5.007872655
79.17500,-2.566317393
79.17550,-8.36501114
79.17600,-18.13123219
79.17650,-20.26759304
79.17700,-10.8065664
79.17750,0.7908210914
79.17800,6.589514838
79.17850,7.810292469
79.17900,9.031070099
79.17950,10.25184773
79.18000,9.336264507
79.18050,7.199903653
79.18100,5.368737207
79.18150,4.758348392
79.18200,7.810292469
79.18250,17.88170792
79.18300,27.34273456
79.18350,22.76481845
79.18400,-0.1247621317
79.18450,-26.98187001
79.18500,-41.63120158
79.18550,-41.93639599
79.18600,-36.44289665
79.18650,-29.72861968
79.18700,-20.87798186
79.18750,-10.8065664
79.18800,-2.871511801
79.18850,2.927181945
79.18900,10.25184773
79.18950,19.40767996
79.19000,24.59598489
79.19050,21.23884641
79.19100,8.725875692
79.19150,-7.449427917
79.19200,-20.26759304
79.19250,-23.31953712
79.19300,-17.21564896
79.19350,-8.36501114
79.19400,-3.176706209
79.19450,-1.040345355
79.19500,-0.7351509471
79.19550,-2.566317393
79.19600,-5.923455878
79.19650,-6.228650286
79.19700,-1.345539762
79.19750,3.537570761
79.19800,3.232376353
79.19850,-0.7351509471
79.19900,-1.345539762
79.19950,2.621987538
79.20000,4.758348392
79.20050,0.7908210914
79.20100,-4.702678247
79.20150,-4.702678247
79.20200,0.7908210914
79.20250,4.758348392
79.20300,2.31679313
79.20350,-2.871511801
79.20400,-4.39748384
79.20450,-1.955928578
79.20500,-1.345539762
79.20550,-5.313067063
79.20600,-7.754622324
79.20650,-4.702678247
79.20700,-0.1247621317
79.20750,0.4856266837
79.20800,1.096015499
79.20850,9.031070099
79.20900,19.10248555
79.20950,19.40767996
79.21000,9.336264507
79.21050,3.537570761
79.21100,10.25184773
79.21150,17.88170792
79.21200,13.30379181
79.21250,1.401209907
79.21300,-3.176706209
79.21350,2.011598722
79.21400,10.25184773
79.21450,14.21937503
79.21500,11.16743095
79.21550,-3.176706209
79.21600,-25.76109238
79.21650,-40.10522954
79.21700,-31.86498053
79.21750,-10.8065664
79.21800,-1.345539762
79.21850,-10.50137199
79.21900,-22.7091483
79.21950,-23.62473152
79.22000,-16.30006574
79.22050,-10.50137199
79.22100,-7.449427917
79.22150,-5.61826147
79.22200,-5.007872655
79.22250,-2.566317393
79.22300,7.810292469
79.22350,26.73234575
79.22400,41.68687172
79.22450,45.04401021
79.22500,44.12842699
79.22550,47.18037106
79.22600,48.09595429
79.22650,37.10895561
79.22700,19.10248555
79.22750,9.031070099
79.22800,11.16743095
79.22850,14.82976385
79.22900,12.9985974
79.22950,10.25184773
79.23000,11.47262536
79.23050,13.30379181
79.23100,10.86223655
79.23150,6.589514838
79.23200,4.147959576
79.23250,1.096015499
79.23300,-3.787095024
79.23350,-8.36501114
79.23400,-9.58578877
79.23450,-12.02734403
79.23500,-18.741621
79.23550,-24.54031475
79.23600,-23.01434271
79.23650,-15.68967692
79.23700,-9.58578877
79.23750,-5.61826147
79.23800,-0.4299565394
79.23850,2.011598722
79.23900,-4.39748384
79.23950,-15.38448252
79.24000,-17.21564896
79.24050,-5.61826147
79.24100,3.842765168
79.24150,-1.345539762
79.24200,-17.21564896
79.24250,-26.06628679
79.24300,-21.79356508
79.24350,-11.72214962
79.24400,-5.923455878
79.24450,-3.787095024
79.24500,-2.566317393
79.24550,-1.040345355
79.24600,-0.1247621317
79.24650,3.537570761
79.24700,11.16743095
79.24750,21.54404082
79.24800,30.08948423
79.24850,33.75181712
79.24900,32.8362339
79.24950,27.64792897
79.25000,16.35573588
79.25050,-3.787095024
79.25100,-30.03381409
79.25150,-51.70261703
79.25200,-56.58572756
79.25250,-44.07275684
79.25300,-28.81303646
79.25350,-23.92992593
79.25400,-26.37148119
79.25450,-25.15070356
79.25500,-20.26759304
79.25550,-20.26759304
79.25600,-19.65720422
79.25650,1.706404315
79.25700,47.18037106
79.25750,86.85564406
79.25800,89.29719932
79.25850,59.38814737
79.25900,29.47909542
79.25950,16.35573588
79.26000,7.810292469
79.26050,-7.449427917
79.26100,-21.48837067
79.26150,-22.40395389
79.26200,-17.82603778
79.26250,-23.01434271
79.26300,-39.18964632
79.26350,-52.61820026
79.26400,-52.00781144
79.26450,-40.41042395
79.26500,-27.59225882
79.26550,-20.26759304
79.26600,-17.82603778
79.26650,-16.60526015
79.26700,-12.94292726
79.26750,-5.007872655
79.26800,5.979126022
79.26850,18.18690233
79.26900,29.47909542
79.26950,37.10895561
79.27000,40.7712885
79.27050,41.99206613
79.27100,41.68687172
79.27150,39.55051087
79.27200,34.97259475
79.27250,28.25831778
79.27300,20.933652
79.27350,11.47262536
79.27400,-0.1247621317
79.27450,-9.890983178
79.27500,-13.85851048
79.27550,-12.33253844
79.27600,-9.280594363
79.27650,-7.144233509
79.27700,-5.61826147
79.27750,-4.702678247
79.27800,-4.092289432
79.27850,-1.65073417
79.27900,5.063542799
79.27950,15.13495825
79.28000,23.07001285
79.28050,26.12195693
79.28100,24.9011793
79.28150,22.45962404
79.28200,20.01806878
79.28250,16.66093029
79.28300,11.77781977
79.28350,7.199903653
79.28400,5.979126022
79.28450,5.063542799
79.28500,-3.787095024
79.28550,-24.23512034
79.28600,-46.81950651
79.28650,-57.50131078
79.28700,-54.75456111
79.28750,-48.95586736
79.28800,-46.81950651
79.28850,-44.07275684
79.28900,-35.52731343
79.28950,-24.23512034
79.29000,-16.30006574
79.29050,-11.72214962
79.29100,-8.36501114
79.29150,-5.923455878
79.29200,-4.092289432
79.29250,-0.1247621317
79.29300,5.673931615
79.29350,9.031070099
79.29400,8.115486876
79.29450,9.336264507
79.29500,15.74534707
79.29550,21.84923522
79.29600,21.84923522
79.29650,18.79729115
79.29700,18.49209674
79.29750,20.62845759
79.29800,21.54404082
79.29850,21.54404082
79.29900,21.54404082
79.29950,17.27131911
79.30000,3.842765168
79.30050,-12.02734403
79.30100,-21.18317626
79.30150,-20.87798186
79.30200,-18.741621
79.30250,-19.96239863
79.30300,-22.40395389
79.30350,-23.31953712
79.30400,-20.87798186
79.30450,-12.02734403
79.30500,3.842765168
79.30550,21.23884641
79.30600,31.31026186
79.30650,34.97259475
79.30700,39.24531646
79.30750,43.82323258
79.30800,39.55051087
79.30850,23.98559608
79.30900,6.28432043
79.30950,-2.566317393
79.31000,-2.871511801
79.31050,-1.345539762
79.31100,-1.955928578
79.31150,-1.65073417
79.31200,-1.040345355
79.31250,-1.955928578
79.31300,-5.313067063
79.31350,-8.975399955
79.31400,-12.63773285
79.31450,-18.43642659
79.31500,-25.45589797
79.31550,-30.03381409
79.31600,-29.72861968
79.31650,-28.50784205
79.31700,-29.11823086
79.31750,-27.28706442
79.31800,-19.04681541
79.31850,-8.670205547
79.31900,-0.1247621317
79.31950,11.77781977
79.32000,37.10895561
79.32050,68.23878519
79.32100,83.49850558
79.32150,72.20631249
79.32200,46.26478784
79.32250,23.37520726
79.32300,7.199903653
79.32350,-8.059816732
79.32400,-21.48837067
79.32450,-26.37148119
79.32500,-24.54031475
79.32550,-24.54031475
79.32600,-27.59225882
79.32650,-25.15070356
79.32700,-15.38448252
79.32750,-6.228650286
79.32800,-2.261122986
79.32850,-0.7351509471
79.32900,0.7908210914
79.32950,-0.1247621317
79.33000,-5.007872655
79.33050,-6.839039101
79.33100,-0.7351509471
79.33150,8.725875692
79.33200,12.38820858
79.33250,8.115486876
79.33300,2.31679313
79.33350,0.7908210914
79.33400,2.31679313
79.33450,2.927181945
79.33500,0.7908210914
79.33550,-1.65073417
79.33600,-3.176706209
79.33650,-3.176706209
79.33700,-3.176706209
79.33750,-2.871511801
79.33800,-2.261122986
79.33850,0.4856266837
79.33900,7.505098061
79.33950,18.18690233
79.34000,27.64792897
79.34050,31.00506745
79.34100,27.64792897
79.34150,22.15442963
79.34200,16.35573588
79.34250,5.673931615
79.34300,-9.58578877
79.34350,-20.26759304
79.34400,-18.741621
79.34450,-12.94292726
79.34500,-19.35200982
79.34550,-40.71561836
79.34600,-63.91039334
79.34650,-74.2870032
79.34700,-71.54025353
79.34750,-61.77403249
79.34800,-48.65067296
79.34850,-33.69614698
79.34900,-18.741621
79.34950,-5.007872655
79.35000,6.28432043
79.35050,12.38820858
79.35100,10.25184773
79.35150,4.758348392
79.35200,3.537570761
79.35250,5.979126022
79.35300,2.31679313
79.35350,-9.280594363
79.35400,-20.57278745
79.35450,-24.84550916
79.35500,-27.89745323
79.35550,-35.52731343
79.35600,-42.85197921
79.35650,-41.63120158
79.35700,-30.94939731
79.35750,-14.16370489
79.35800,6.28432043
79.35850,29.47909542
79.35900,50.53750955
79.35950,66.10242434
79.36000,75.25825657
79.36050,75.56345098
79.36100,62.44009145
79.36150,41.07648291
79.36200,24.29079048
79.36250,19.10248555
79.36300,21.23884641
79.36350,23.68040167
79.36400,28.25831778
79.36450,34.97259475
79.36500,36.49856679
79.36550,27.03754015
79.36600,12.08301418
79.36650,-1.345539762
79.36700,-15.07928811
79.36750,-29.11823086
79.36800,-34.30653579
79.36850,-23.62473152
79.36900,-5.313067063
79.36950,2.31679313
79.37000,-4.39748384
79.37050,-15.68967692
79.37100,-22.40395389
79.37150,-21.18317626
79.37200,-9.58578877
79.37250,10.55704214
79.37300,27.34273456
79.37350,23.98559608
79.37400,1.401209907
79.37450,-18.43642659
79.37500,-17.52084337
79.37550,-1.345539762
79.37600,15.13495825
79.37650,27.34273456
79.37700,38.63492765
79.37750,45.95959343
79.37800,40.7712885
79.37850,24.9011793
79.37900,10.25184773
79.37950,5.063542799
79.38000,4.453153984
79.38050,-0.7351509471
79.38100,-11.72214962
79.38150,-21.18317626
79.38200,-23.01434271
79.38250,-18.13123219
79.38300,-9.890983178
79.38350,-2.566317393
79.38400,1.096015499
79.38450,0.7908210914
79.38500,-0.7351509471
79.38550,-2.261122986
79.38600,-2.871511801
79.38650,-0.7351509471
79.38700,3.842765168
79.38750,7.505098061
79.38800,4.758348392
79.38850,-1.955928578
79.38900,-5.007872655
79.38950,0.180432276
79.39000,8.725875692
79.39050,11.77781977
79.39100,7.505098061
79.39150,2.011598722
79.39200,-0.1247621317
79.39250,-0.1247621317
79.39300,0.4856266837
79.39350,1.096015499
79.39400,0.180432276
79.39450,-2.566317393
79.39500,-6.839039101
79.39550,-9.890983178
79.39600,-12.63773285
79.39650,-16.30006574
79.39700,-18.43642659
79.39750,-15.38448252
79.39800,-9.890983178
79.39850,-10.8065664
79.39900,-21.48837067
79.39950,-30.33900849
79.40000,-25.76109238
79.40050,-9.58578877
79.40100,2.927181945
79.40150,4.453153984
79.40200,-0.1247621317
79.40250,-0.7351509471
79.40300,4.147959576
79.40350,11.77781977
79.40400,19.10248555
79.40450,23.37520726
79.40500,21.84923522
79.40550,15.44015266
79.40600,10.55704214
79.40650,11.77781977
79.40700,17.27131911
79.40750,21.84923522
79.40800,24.29079048
79.40850,25.20637371
79.40900,22.76481845
79.40950,12.9985974
79.41000,-2.566317393
79.41050,-19.35200982
79.41100,-31.86498053
79.41150,-36.74809106
79.41200,-32.47536935
79.41250,-20.87798186
79.41300,-9.280594363
79.41350,-2.871511801
79.41400,1.401209907
79.41450,9.946653322
79.41500,20.32326318
79.41550,24.29079048
79.41600,18.79729115
79.41650,11.47262536
79.41700,7.199903653
79.41750,1.706404315
79.41800,-10.8065664
79.41850,-26.37148119
79.41900,-34.00134139
79.41950,-30.6442029
79.42000,-22.40395389
79.42050,-15.07928811
79.42100,-10.50137199
79.42150,-8.975399955
79.42200,-11.41695522
79.42250,-14.7740937
79.42300,-13.55331607
79.42350,-7.754622324
79.42400,-5.313067063
79.42450,-12.02734403
79.42500,-24.23512034
79.42550,-32.47536935
79.42600,-30.6442029
79.42650,-19.35200982
79.42700,-2.261122986
79.42750,15.74534707
79.42800,29.47909542
79.42850,34.66740035
79.42900,30.69987305
79.42950,23.07001285
79.43000,21.23884641
79.43050,28.8687066
79.43100,37.71934442
79.43150,32.22584508
79.43200,8.420681284
79.43250,-16.91045456
79.43300,-28.50784205
79.43350,-29.11823086
79.43400,-33.08575816
79.43450,-41.63120158
79.43500,-42.5467848
79.43550,-31.25459172
79.43600,-19.65720422
79.43650,-19.35200982
79.43700,-25.15070356
79.43750,-26.6766756
79.43800,-21.79356508
79.43850,-16.30006574
79.43900,-10.8065664
79.43950,-3.787095024
79.44000,3.232376353
79.44050,7.199903653
79.44100,7.505098061
79.44150,7.199903653
79.44200,8.725875692
79.44250,11.77781977
79.44300,16.35573588
79.44350,19.10248555
79.44400,14.21937503
79.44450,0.7908210914
79.44500,-12.63773285
79.44550,-19.35200982
79.44600,-19.65720422
79.44650,-19.04681541
79.44700,-18.13123219
79.44750,-14.16370489
79.44800,-7.144233509
79.44850,-1.65073417
79.44900,-0.1247621317
79.44950,0.4856266837
79.45000,3.232376353
79.45050,9.641458915
79.45100,18.49209674
79.45150,26.12195693
79.45200,26.12195693
79.45250,16.9661247
79.45300,7.199903653
79.45350,8.725875692
79.45400,22.45962404
79.45450,34.97259475
79.45500,36.8037612
79.45550,30.69987305
79.45600,24.59598489
79.45650,20.32326318
79.45700,16.05054148
79.45750,14.52456944
79.45800,18.79729115
79.45850,23.07001285
79.45900,16.35573588
79.45950,-0.7351509471
79.46000,-15.99487133
79.46050,-17.82603778
79.46100,-8.670205547
79.46150,-0.1247621317
79.46200,2.927181945
79.46250,2.011598722
79.46300,1.401209907
79.46350,1.706404315
79.46400,2.31679313
79.46450,2.621987538
79.46500,2.011598722
79.46550,3.537570761
79.46600,9.031070099
79.46650,17.27131911
79.46700,21.54404082
79.46750,18.49209674
79.46800,11.16743095
79.46850,5.673931615
79.46900,2.927181945
79.46950,-0.1247621317
79.47000,-4.702678247
79.47050,-7.754622324
79.47100,-6.228650286
79.47150,-3.481900616
79.47200,-3.176706209
79.47250,-5.007872655
79.47300,-5.313067063
79.47350,-1.040345355
79.47400,6.589514838
79.47450,15.44015266
79.47500,22.15442963
79.47550,24.59598489
79.47600,22.76481845
79.47650,18.49209674
79.47700,11.77781977
79.47750,-2.261122986
79.47800,-29.42342527
79.47850,-63.60519893
79.47900,-88.32594596
79.47950,-94.1246397
79.48000,-88.02075155
79.48050,-81.61166899
79.48100,-74.59219761
79.48150,-60.24806045
79.48200,-39.18964632
79.48250,-18.43642659
79.48300,0.7908210914
79.48350,25.81676252
79.48400,54.19984244
79.48450,72.5115069
79.48500,73.73228453
79.48550,67.93359079
79.48600,68.5439796
79.48650,76.78422861
79.48700,84.10889439
79.48750,82.88811676
79.48800,71.59592368
79.48850,51.14789836
79.48900,26.73234575
79.48950,8.115486876
79.49000,1.096015499
79.49050,1.706404315
79.49100,2.011598722
79.49150,-1.345539762
79.49200,-4.092289432
79.49250,-1.955928578
79.49300,2.621987538
79.49350,5.368737207
79.49400,2.621987538
79.49450,-4.39748384
79.49500,-14.46889929
79.49550,-27.28706442
79.49600,-41.32600717
79.49650,-52.00781144
79.49700,-52.92339466
79.49750,-41.93639599
79.49800,-24.23512034
79.49850,-4.39748384
79.49900,15.13495825
79.49950,29.47909542
79.50000,30.69987305
79.50050,17.88170792
79.50100,4.758348392
79.50150,2.621987538
79.50200,6.589514838
79.50250,3.537570761
79.50300,-8.670205547
79.50350,-19.96239863
79.50400,-24.54031475
79.50450,-28.81303646
79.50500,-41.32600717
79.50550,-55.97533874
79.50600,-58.11169959
79.50650,-40.10522954
79.50700,-9.280594363
79.50750,15.74534707
79.50800,21.54404082
79.50850,9.946653322
79.50900,-4.702678247
79.50950,-13.24812166
79.51000,-19.04681541
79.51050,-30.03381409
79.51100,-42.5467848
79.51150,-44.07275684
79.51200,-30.94939731
79.51250,-13.24812166
79.51300,-1.65073417
79.51350,2.31679313
79.51400,3.537570761
79.51450,3.842765168
79.51500,2.927181945
79.51550,1.706404315
79.51600,2.31679313
79.51650,4.758348392
79.51700,6.894709245
79.51750,7.505098061
79.51800,7.810292469
79.51850,7.199903653
79.51900,3.842765168
79.51950,-1.345539762
79.52000,-3.481900616
79.52050,0.180432276
79.52100,4.453153984
79.52150,2.621987538
79.52200,-3.176706209
79.52250,-6.228650286
79.52300,-4.702678247
79.52350,-4.39748384
79.52400,-9.280594363
79.52450,-18.13123219
79.52500,-27.89745323
79.52550,-35.83250783
79.52600,-35.52731343
79.52650,-22.7091483
79.52700,-3.787095024
79.52750,9.336264507
79.52800,15.44015266
79.52850,25.51156812
79.52900,43.21284376
79.52950,55.72581448
79.53000,52.36867599
79.53050,41.38167732
79.53100,38.94012205
79.53150,45.04401021
79.53200,48.09595429
79.53250,41.68687172
79.53300,31.92065068
79.53350,24.59598489
79.53400,18.49209674
79.53450,12.08301418
79.53500,5.368737207
79.53550,-3.176706209
79.53600,-16.60526015
79.53650,-33.39095257
79.53700,-45.29353447
79.53750,-45.29353447
79.53800,-32.17017494
79.53850,-13.55331607
79.53900,0.180432276
79.53950,5.979126022
79.54000,6.894709245
79.54050,6.589514838
79.54100,1.706404315
79.54150,-10.19617759
79.54200,-22.40395389
79.54250,-28.20264764
79.54300,-30.94939731
79.54350,-38.88445191
79.54400,-48.04028414
79.54450,-44.37795125
79.54500,-25.76109238
79.54550,-5.61826147
79.54600,6.589514838
79.54650,16.35573588
79.54700,27.95312338
79.54750,34.36220594
79.54800,31.61545627
79.54850,25.81676252
79.54900,21.23884641
79.54950,12.08301418
79.55000,-2.871511801
79.55050,-13.24812166
79.55100,-10.8065664
79.55150,-6.533844693
79.55200,-12.94292726
79.55250,-22.09875949
79.55300,-16.60526015
79.55350,2.011598722
79.55400,14.82976385
79.55450,12.69340299
79.55500,5.673931615
79.55550,4.453153984
79.55600,6.28432043
79.55650,5.673931615
79.55700,5.673931615
79.55750,9.031070099
79.55800,11.47262536
79.55850,9.031070099
79.55900,6.894709245
79.55950,12.38820858
79.56000,22.76481845
79.56050,29.78428982
79.56100,28.56351219
79.56150,20.32326318
79.56200,8.725875692
79.56250,-2.566317393
79.56300,-8.670205547
79.56350,-7.754622324
79.56400,-2.871511801
79.56450,-0.4299565394
79.56500,-1.955928578
79.56550,-3.787095024
79.56600,-4.39748384
79.56650,-4.092289432
79.56700,-3.787095024
79.56750,-3.176706209
79.56800,-1.345539762
79.56850,2.011598722
79.56900,6.894709245
79.56950,11.16743095
79.57000,11.47262536
79.57050,6.894709245
79.57100,1.706404315
79.57150,0.7908210914
79.57200,1.706404315
79.57250,-0.1247621317
79.57300,-5.007872655
79.57350,-5.61826147
79.57400,1.401209907
79.57450,11.47262536
79.57500,16.9661247
79.57550,17.88170792
79.57600,18.79729115
79.57650,20.62845759
79.57700,19.71287437
79.57750,15.13495825
79.57800,12.9985974
79.57850,18.18690233
79.57900,23.68040167
79.57950,16.05054148
79.58000,-8.975399955
79.58050,-38.5792575
79.58100,-54.75456111
79.58150,-50.78703381
79.58200,-33.69614698
79.58250,-12.63773285
79.58300,4.758348392
79.58350,11.16743095
79.58400,-0.1247621317
79.58450,-23.31953712
79.58500,-45.29353447
79.58550,-55.36494993
79.58600,-53.53378348
79.58650,-45.59872888
79.58700,-35.52731343
79.58750,-28.50784205
79.58800,-28.20264764
79.58850,-28.81303646
79.58900,-18.43642659
79.58950,4.758348392
79.59000,27.03754015
79.59050,34.36220594
79.59100,31.31026186
79.59150,32.22584508
79.59200,39.55051087
79.59250,42.29726054
79.59300,35.58298357
79.59350,25.81676252
79.59400,19.71287437
79.59450,16.9661247
79.59500,15.44015266
79.59550,17.88170792
79.59600,23.37520726
79.59650,26.73234575
79.59700,24.9011793
79.59750,21.84923522
79.59800,19.10248555
79.59850,13.91418062
79.59900,3.232376353
79.59950,-8.975399955
79.60000,-19.65720422
79.60050,-28.20264764
79.60100,-33.39095257
79.60150,-31.55978612
79.60200,-23.31953712
79.60250,-15.38448252
79.60300,-9.890983178
79.60350,1.096015499
79.60400,23.37520726
79.60450,48.09595429
79.60500,62.44009145
79.60550,66.10242434
79.60600,65.49203552
79.60650,59.99853619
79.60700,44.12842699
79.60750,24.29079048
79.60800,13.60898621
79.60850,12.69340299
79.60900,6.894709245
79.60950,-14.16370489
79.61000,-46.5143121
79.61050,-80.08569695
79.61100,-109.9947489
79.61150,-131.3583574
79.61200,-134.7154959
79.61250,-114.8778594
79.61300,-82.52725221
79.61350,-52.00781144
79.61400,-29.11823086
79.61450,-12.63773285
79.61500,-3.787095024
79.61550,-4.702678247
79.61600,-8.36501114
79.61650,-4.39748384
79.61700,9.641458915
79.61750,25.81676252
79.61800,34.97259475
79.61850,33.75181712
79.61900,24.59598489
79.61950,13.60898621
79.62000,6.894709245
79.62050,5.979126022
79.62100,6.894709245
79.62150,8.115486876
79.62200,12.69340299
79.62250,22.45962404
79.62300,30.39467864
79.62350,30.08948423
79.62400,24.29079048
79.62450,17.88170792
79.62500,9.031070099
79.62550,-3.481900616
79.62600,-13.55331607
79.62650,-12.02734403
79.62700,-2.871511801
79.62750,2.621987538
79.62800,5.368737207
79.62850,13.30379181
79.62900,27.34273456
79.62950,35.88817798
79.63000,34.66740035
79.63050,31.31026186
79.63100,31.61545627
79.63150,31.00506745
79.63200,24.9011793
79.63250,16.66093029
79.63300,10.86223655
79.63350,6.894709245
79.63400,2.621987538
79.63450,-4.702678247
79.63500,-21.18317626
79.63550,-46.20911769
79.63600,-68.18311505
79.63650,-70.62467031
79.63700,-55.97533874
79.63750,-42.85197921
79.63800,-43.15717362
79.63850,-48.65067296
79.63900,-43.46236803
79.63950,-28.20264764
79.64000,-13.24812166
79.64050,-4.702678247
79.64100,-0.4299565394
79.64150,2.31679313
79.64200,4.758348392
79.64250,6.28432043
79.64300,8.420681284
79.64350,9.946653322
79.64400,9.336264507
79.64450,7.810292469
79.64500,7.810292469
79.64550,9.946653322
79.64600,13.30379181
79.64650,16.66093029
79.64700,20.01806878
79.64750,23.68040167
79.64800,25.51156812
79.64850,24.29079048
79.64900,21.54404082
79.64950,19.10248555
79.65000,15.44015266
79.65050,6.894709245
79.65100,-5.923455878
79.65150,-17.21564896
79.65200,-20.87798186
79.65250,-19.65720422
79.65300,-18.43642659
79.65350,-19.65720422
79.65400,-20.26759304
79.65450,-16.30006574
79.65500,-6.533844693
79.65550,8.420681284
79.65600,24.9011793
79.65650,33.75181712
79.65700,32.8362339
79.65750,28.25831778
79.65800,28.25831778
79.65850,31.00506745
79.65900,26.42715134
79.65950,11.47262536
79.66000,-7.144233509
79.66050,-20.87798186
79.66100,-25.15070356
79.66150,-20.87798186
79.66200,-9.280594363
79.66250,6.589514838
79.66300,21.84923522
79.66350,32.8362339
79.66400,38.94012205
79.66450,42.29726054
79.66500,41.99206613
79.66550,35.58298357
79.66600,24.9011793
79.66650,18.18690233
79.66700,21.54404082
79.66750,32.8362339
79.66800,41.07648291
79.66850,38.02453883
79.66900,26.12195693
79.66950,12.9985974
79.67000,4.453153984
79.67050,0.4856266837
79.67100,-0.4299565394
79.67150,-2.566317393
79.67200,-8.670205547
79.67250,-20.26759304
79.67300,-37.66367428
79.67350,-58.72208841
79.67400,-78.55972491
79.67450,-88.02075155
79.67500,-80.39089136
79.67550,-58.72208841
79.67600,-36.13770224
79.67650,-22.40395389
79.67700,-18.13123219
79.67750,-18.741621
79.67800,-20.57278745
79.67850,-21.48837067
79.67900,-18.741621
79.67950,-14.7740937
79.68000,-13.85851048
79.68050,-13.55331607
79.68100,-5.007872655
79.68150,15.74534707
79.68200,39.55051087
79.68250,52.97906481
79.68300,51.45309277
79.68350,42.29726054
79.68400,31.61545627
79.68450,21.84923522
79.68500,12.38820858
79.68550,5.368737207
79.68600,1.401209907
79.68650,-0.1247621317
79.68700,-1.345539762
79.68750,-2.871511801
79.68800,-5.313067063
79.68850,-8.059816732
79.68900,-10.19617759
79.68950,-11.41695522
79.69000,-10.50137199
79.69050,-6.839039101
79.69100,-1.65073417
79.69150,1.706404315
79.69200,0.180432276
79.69250,-5.313067063
79.69300,-8.975399955
79.69350,-5.61826147
79.69400,1.401209907
79.69450,7.199903653
79.69500,8.115486876
79.69550,5.673931615
79.69600,1.706404315
79.69650,-2.566317393
79.69700,-6.228650286
79.69750,-8.059816732
79.69800,-9.58578877
79.69850,-13.55331607
79.69900,-19.96239863
79.69950,-23.31953712
79.70000,-18.741621
79.70050,-8.975399955
79.70100,0.180432276
79.70150,7.199903653
79.70200,12.08301418
79.70250,14.21937503
79.70300,11.47262536
79.70350,5.673931615
79.70400,0.180432276
79.70450,-4.702678247
79.70500,-9.58578877
79.70550,-10.50137199
79.70600,-3.481900616
79.70650,8.420681284
79.70700,18.79729115
79.70750,24.9011793
79.70800,30.39467864
79.70850,34.66740035
79.70900,33.44662272
79.70950,26.12195693
79.71000,16.35573588
79.71050,4.453153984
79.71100,-11.11176081
79.71150,-26.6766756
79.71200,-36.13770224
79.71250,-43.46236803
