"type","name","time_units","begin_time","frequency","count","units"
"signal","Ultium EMG-EXT.DIG. RT","s",483.96000,2000,22000,"uV"

"time","value"
483.96000,-14.28663677
483.96050,-13.67624795
483.96100,-10.62430387
483.96150,-16.42299762
483.96200,-25.88402426
483.96250,-28.93596834
483.96300,-25.27363544
483.96350,-21.91649696
483.96400,-20.08533051
483.96450,-15.5074144
483.96500,-9.403526243
483.96550,-6.351582166
483.96600,-8.182748612
483.96650,-10.31910947
483.96700,-10.01391506
483.96750,-8.48794302
483.96800,-7.572359797
483.96850,-6.961970981
483.96900,-6.656776574
483.96950,-5.435998943
483.97000,-3.604832497
483.97050,-1.163277235
483.97100,0.6678892111
483.97150,1.888666842
483.97200,3.41463888
483.97250,5.856194142
483.97300,7.992554996
483.97350,8.297749404
483.97400,6.466582957
483.97450,4.635416511
483.97500,5.245805327
483.97550,6.16138855
483.97600,4.940610919
483.97650,2.499055657
483.97700,0.6678892111
483.97750,-0.247694012
483.97800,-4.52041572
483.97850,-11.5398871
483.97900,-13.98144236
483.97950,-7.572359797
483.98000,1.888666842
483.98050,4.330222103
483.98100,0.05750039565
483.98150,-3.299638089
483.98200,-2.078860458
483.98250,-1.468471643
483.98300,-3.604832497
483.98350,-2.994443681
483.98400,3.109444473
483.98450,10.73930467
483.98500,12.57047111
483.98550,10.12891585
483.98600,8.297749404
483.98650,7.687360588
483.98700,3.719833288
483.98750,-2.078860458
483.98800,-6.046387758
483.98850,-3.910026904
483.98900,0.9730836188
483.98950,3.41463888
483.99000,2.19386125
483.99050,-0.247694012
483.99100,-1.773666051
483.99150,-1.773666051
483.99200,-0.5528884197
483.99250,2.804250065
483.99300,8.602943811
483.99350,13.79124874
483.99400,15.01202637
483.99450,12.87566552
483.99500,10.73930467
483.99550,9.518527034
483.99600,6.466582957
483.99650,0.05750039565
483.99700,-6.351582166
483.99750,-10.31910947
483.99800,-12.45547032
483.99850,-13.98144236
483.99900,-14.28663677
483.99950,-12.15027591
484.00000,-8.793137428
484.00050,-5.130804535
484.00100,-2.078860458
484.00150,0.05750039565
484.00200,1.278278026
484.00250,1.583472434
484.00300,2.804250065
484.00350,4.330222103
484.00400,4.635416511
484.00450,3.41463888
484.00500,2.499055657
484.00550,2.804250065
484.00600,2.804250065
484.00650,1.278278026
484.00700,0.3626948034
484.00750,1.583472434
484.00800,2.499055657
484.00850,2.19386125
484.00900,1.888666842
484.00950,2.804250065
484.01000,3.41463888
484.01050,2.499055657
484.01100,2.19386125
484.01150,3.719833288
484.01200,5.245805327
484.01250,5.550999734
484.01300,4.025027696
484.01350,3.109444473
484.01400,2.804250065
484.01450,3.109444473
484.01500,3.719833288
484.01550,3.719833288
484.01600,2.499055657
484.01650,0.6678892111
484.01700,0.05750039565
484.01750,-0.5528884197
484.01800,-2.384054866
484.01850,-5.435998943
484.01900,-6.351582166
484.01950,-4.52041572
484.02000,-2.078860458
484.02050,-2.078860458
484.02100,-3.604832497
484.02150,-4.215221312
484.02200,-2.994443681
484.02250,-0.8580828275
484.02300,0.05750039565
484.02350,0.05750039565
484.02400,-0.247694012
484.02450,0.05750039565
484.02500,1.583472434
484.02550,3.719833288
484.02600,4.025027696
484.02650,1.888666842
484.02700,0.05750039565
484.02750,0.05750039565
484.02800,1.583472434
484.02850,2.499055657
484.02900,1.583472434
484.02950,0.05750039565
484.03000,0.6678892111
484.03050,5.245805327
484.03100,12.57047111
484.03150,18.67435927
484.03200,20.81072012
484.03250,19.8951369
484.03300,16.232804
484.03350,10.43411026
484.03400,4.330222103
484.03450,0.3626948034
484.03500,-2.689249274
484.03550,-7.572359797
484.03600,-13.67624795
484.03650,-17.03338644
484.03700,-16.72819203
484.03750,-15.8126088
484.03800,-16.42299762
484.03850,-13.98144236
484.03900,-6.656776574
484.03950,2.499055657
484.04000,8.602943811
484.04050,10.73930467
484.04100,11.65488789
484.04150,10.43411026
484.04200,6.16138855
484.04250,0.6678892111
484.04300,-1.773666051
484.04350,-2.078860458
484.04400,-3.604832497
484.04450,-6.961970981
484.04500,-10.01391506
484.04550,-11.23469269
484.04600,-11.8450815
484.04650,-14.59183117
484.04700,-19.16974729
484.04750,-21.30610814
484.04800,-19.16974729
484.04850,-16.11780321
484.04900,-17.33858084
484.04950,-20.08533051
484.05000,-13.67624795
484.05050,7.38216618
484.05100,35.7652461
484.05150,53.46652174
484.05200,50.10938326
484.05250,32.71330202
484.05300,14.40163756
484.05350,3.109444473
484.05400,-3.299638089
484.05450,-9.403526243
484.05500,-16.42299762
484.05550,-24.66324663
484.05600,-37.17621734
484.05650,-53.35152095
484.05700,-63.72813081
484.05750,-56.70865944
484.05800,-32.59830123
484.05850,-4.825610128
484.05900,12.57047111
484.05950,19.28474808
484.06000,21.72630334
484.06050,21.42110893
484.06100,16.84319282
484.06150,11.9600823
484.06200,10.43411026
484.06250,11.65488789
484.06300,13.48605433
484.06350,21.42110893
484.06400,40.95355103
484.06450,60.48599312
484.06500,60.79118753
484.06550,40.34316221
484.06600,19.58994249
484.06650,14.09644315
484.06700,16.84319282
484.06750,12.57047111
484.06800,1.278278026
484.06850,-7.572359797
484.06900,-10.62430387
484.06950,-10.31910947
484.07000,-8.182748612
484.07050,-4.215221312
484.07100,-1.163277235
484.07150,-2.384054866
484.07200,-4.52041572
484.07250,-3.604832497
484.07300,-1.773666051
484.07350,-2.078860458
484.07400,-3.604832497
484.07450,-4.215221312
484.07500,-6.961970981
484.07550,-13.67624795
484.07600,-19.4749417
484.07650,-17.94896966
484.07700,-11.5398871
484.07750,-6.961970981
484.07800,-3.299638089
484.07850,3.719833288
484.07900,13.18085993
484.07950,17.45358163
484.08000,15.01202637
484.08050,11.04449907
484.08100,7.687360588
484.08150,1.278278026
484.08200,-8.182748612
484.08250,-16.72819203
484.08300,-20.08533051
484.08350,-20.69571933
484.08400,-19.16974729
484.08450,-13.37105354
484.08500,-4.215221312
484.08550,0.9730836188
484.08600,0.6678892111
484.08650,0.05750039565
484.08700,3.41463888
484.08750,6.466582957
484.08800,3.109444473
484.08850,-3.910026904
484.08900,-9.098331835
484.08950,-11.23469269
484.09000,-14.89702558
484.09050,-19.4749417
484.09100,-19.7801361
484.09150,-14.28663677
484.09200,-8.182748612
484.09250,-4.825610128
484.09300,-4.825610128
484.09350,-5.435998943
484.09400,-6.961970981
484.09450,-8.48794302
484.09500,-10.01391506
484.09550,-10.62430387
484.09600,-10.31910947
484.09650,-8.793137428
484.09700,-5.435998943
484.09750,-2.078860458
484.09800,0.05750039565
484.09850,1.278278026
484.09900,2.19386125
484.09950,1.583472434
484.10000,0.3626948034
484.10050,0.6678892111
484.10100,3.109444473
484.10150,5.550999734
484.10200,4.635416511
484.10250,0.9730836188
484.10300,-3.299638089
484.10350,-6.046387758
484.10400,-5.130804535
484.10450,-1.468471643
484.10500,2.499055657
484.10550,3.719833288
484.10600,2.804250065
484.10650,4.025027696
484.10700,7.076971773
484.10750,8.297749404
484.10800,5.856194142
484.10850,3.109444473
484.10900,2.19386125
484.10950,1.278278026
484.11000,0.05750039565
484.11050,2.19386125
484.11100,7.076971773
484.11150,10.43411026
484.11200,11.65488789
484.11250,16.232804
484.11300,25.38863623
484.11350,30.57694117
484.11400,27.21980268
484.11450,22.03149775
484.11500,19.58994249
484.11550,14.09644315
484.11600,-0.5528884197
484.11650,-18.55935847
484.11700,-27.10480189
484.11750,-26.18921867
484.11800,-23.442469
484.11850,-19.4749417
484.11900,-9.403526243
484.11950,2.804250065
484.12000,8.602943811
484.12050,6.16138855
484.12100,3.41463888
484.12150,5.856194142
484.12200,8.908138219
484.12250,10.43411026
484.12300,11.9600823
484.12350,13.48605433
484.12400,12.57047111
484.12450,10.12891585
484.12500,8.602943811
484.12550,6.466582957
484.12600,0.05750039565
484.12650,-7.877554205
484.12700,-10.31910947
484.12750,-8.182748612
484.12800,-9.098331835
484.12850,-14.89702558
484.12900,-18.86455288
484.12950,-16.11780321
484.13000,-9.708720651
484.13050,-5.435998943
484.13100,-2.689249274
484.13150,0.3626948034
484.13200,2.19386125
484.13250,1.888666842
484.13300,1.278278026
484.13350,2.499055657
484.13400,3.41463888
484.13450,2.19386125
484.13500,1.278278026
484.13550,2.19386125
484.13600,3.719833288
484.13650,3.719833288
484.13700,2.804250065
484.13750,2.804250065
484.13800,2.499055657
484.13850,0.3626948034
484.13900,-2.078860458
484.13950,-2.689249274
484.14000,-1.163277235
484.14050,0.6678892111
484.14100,2.499055657
484.14150,4.330222103
484.14200,5.856194142
484.14250,4.940610919
484.14300,2.804250065
484.14350,2.499055657
484.14400,4.940610919
484.14450,6.466582957
484.14500,5.245805327
484.14550,3.719833288
484.14600,4.940610919
484.14650,8.297749404
484.14700,10.43411026
484.14750,9.213332627
484.14800,7.076971773
484.14850,4.940610919
484.14900,2.804250065
484.14950,-0.8580828275
484.15000,-4.215221312
484.15050,-6.351582166
484.15100,-7.267165389
484.15150,-7.572359797
484.15200,-7.267165389
484.15250,-6.961970981
484.15300,-6.046387758
484.15350,-4.52041572
484.15400,-1.468471643
484.15450,1.278278026
484.15500,3.719833288
484.15550,5.550999734
484.15600,7.992554996
484.15650,8.297749404
484.15700,5.245805327
484.15750,1.583472434
484.15800,2.804250065
484.15850,8.602943811
484.15900,11.9600823
484.15950,8.602943811
484.16000,2.804250065
484.16050,1.278278026
484.16100,3.41463888
484.16150,2.804250065
484.16200,-3.299638089
484.16250,-13.37105354
484.16300,-21.30610814
484.16350,-24.05285781
484.16400,-23.13727459
484.16450,-22.22169137
484.16500,-21.00091374
484.16550,-14.89702558
484.16600,1.583472434
484.16650,22.64188657
484.16700,33.62888524
484.16750,25.99902505
484.16800,7.992554996
484.16850,-5.130804535
484.16900,-7.267165389
484.16950,-1.468471643
484.17000,4.330222103
484.17050,7.076971773
484.17100,6.771777365
484.17150,3.719833288
484.17200,1.888666842
484.17250,2.499055657
484.17300,3.109444473
484.17350,-0.247694012
484.17400,-7.267165389
484.17450,-13.67624795
484.17500,-16.11780321
484.17550,-15.20221999
484.17600,-13.06585914
484.17650,-9.708720651
484.17700,-6.961970981
484.17750,-5.741193351
484.17800,-6.351582166
484.17850,-6.046387758
484.17900,-4.825610128
484.17950,-4.825610128
484.18000,-5.741193351
484.18050,-3.604832497
484.18100,2.804250065
484.18150,9.823721442
484.18200,14.40163756
484.18250,19.28474808
484.18300,26.91460827
484.18350,32.40810761
484.18400,29.05096913
484.18450,19.58994249
484.18500,10.43411026
484.18550,1.278278026
484.18600,-13.37105354
484.18650,-34.12427327
484.18700,-51.52035451
484.18750,-56.70865944
484.18800,-48.77360484
484.18850,-31.3775236
484.18900,-12.15027591
484.18950,-1.468471643
484.19000,-4.52041572
484.19050,-12.45547032
484.19100,-9.708720651
484.19150,7.687360588
484.19200,26.91460827
484.19250,34.54446847
484.19300,32.1029132
484.19350,28.1353859
484.19400,22.33669216
484.19450,10.12891585
484.19500,-7.877554205
484.19550,-22.22169137
484.19600,-24.66324663
484.19650,-17.33858084
484.19700,-8.182748612
484.19750,-2.384054866
484.19800,4.025027696
484.19850,18.67435927
484.19900,40.34316221
484.19950,55.90807701
484.20000,53.16132734
484.20050,35.46005169
484.20100,17.75877604
484.20150,8.602943811
484.20200,2.19386125
484.20250,-8.793137428
484.20300,-21.61130255
484.20350,-27.71519071
484.20400,-24.66324663
484.20450,-17.64377525
484.20500,-11.8450815
484.20550,-7.572359797
484.20600,-2.994443681
484.20650,1.583472434
484.20700,5.550999734
484.20750,7.38216618
484.20800,8.602943811
484.20850,11.04449907
484.20900,14.40163756
484.20950,16.232804
484.21000,14.70683197
484.21050,10.43411026
484.21100,5.245805327
484.21150,-0.247694012
484.21200,-8.182748612
484.21250,-17.03338644
484.21300,-23.13727459
484.21350,-24.35805222
484.21400,-21.00091374
484.21450,-16.42299762
484.21500,-12.45547032
484.21550,-10.01391506
484.21600,-8.793137428
484.21650,-7.877554205
484.21700,-6.046387758
484.21750,-3.604832497
484.21800,-2.689249274
484.21850,-2.689249274
484.21900,-2.994443681
484.21950,-2.994443681
484.22000,-4.215221312
484.22050,-6.351582166
484.22100,-7.572359797
484.22150,-4.52041572
484.22200,0.05750039565
484.22250,1.888666842
484.22300,-1.773666051
484.22350,-7.267165389
484.22400,-10.01391506
484.22450,-8.182748612
484.22500,-3.604832497
484.22550,1.888666842
484.22600,7.38216618
484.22650,9.213332627
484.22700,5.245805327
484.22750,-2.384054866
484.22800,-9.708720651
484.22850,-12.15027591
484.22900,-10.01391506
484.22950,-3.910026904
484.23000,2.804250065
484.23050,8.297749404
484.23100,8.602943811
484.23150,4.940610919
484.23200,1.278278026
484.23250,0.05750039565
484.23300,1.583472434
484.23350,7.38216618
484.23400,15.62241519
484.23450,21.72630334
484.23500,20.81072012
484.23550,14.09644315
484.23600,6.466582957
484.23650,1.278278026
484.23700,-1.773666051
484.23750,-2.384054866
484.23800,1.278278026
484.23850,4.330222103
484.23900,0.05750039565
484.23950,-11.23469269
484.24000,-17.33858084
484.24050,-12.45547032
484.24100,-3.910026904
484.24150,-2.078860458
484.24200,-6.046387758
484.24250,-7.877554205
484.24300,-6.046387758
484.24350,-4.825610128
484.24400,-5.741193351
484.24450,-5.435998943
484.24500,-2.689249274
484.24550,-0.247694012
484.24600,-0.247694012
484.24650,0.05750039565
484.24700,1.583472434
484.24750,3.719833288
484.24800,4.635416511
484.24850,3.719833288
484.24900,2.804250065
484.24950,3.109444473
484.25000,6.16138855
484.25050,10.73930467
484.25100,14.70683197
484.25150,16.84319282
484.25200,17.14838723
484.25250,17.14838723
484.25300,15.01202637
484.25350,11.34969348
484.25400,8.297749404
484.25450,7.687360588
484.25500,7.687360588
484.25550,5.856194142
484.25600,4.025027696
484.25650,3.719833288
484.25700,5.245805327
484.25750,6.466582957
484.25800,7.076971773
484.25850,7.687360588
484.25900,8.297749404
484.25950,7.38216618
484.26000,5.550999734
484.26050,4.940610919
484.26100,7.38216618
484.26150,11.04449907
484.26200,13.48605433
484.26250,11.9600823
484.26300,5.245805327
484.26350,-3.604832497
484.26400,-10.01391506
484.26450,-10.62430387
484.26500,-9.403526243
484.26550,-13.37105354
484.26600,-26.18921867
484.26650,-41.44893905
484.26700,-45.72166076
484.26750,-30.15674597
484.26800,-0.8580828275
484.26850,23.8626642
484.26900,29.66135794
484.26950,18.67435927
484.27000,5.856194142
484.27050,2.499055657
484.27100,5.550999734
484.27150,7.687360588
484.27200,5.550999734
484.27250,2.19386125
484.27300,-0.247694012
484.27350,-3.299638089
484.27400,-7.877554205
484.27450,-12.45547032
484.27500,-14.89702558
484.27550,-13.06585914
484.27600,-8.793137428
484.27650,-4.825610128
484.27700,-2.994443681
484.27750,-2.384054866
484.27800,0.05750039565
484.27850,4.025027696
484.27900,7.992554996
484.27950,11.34969348
484.28000,14.09644315
484.28050,16.53799841
484.28100,17.45358163
484.28150,16.84319282
484.28200,12.87566552
484.28250,4.940610919
484.28300,-4.52041572
484.28350,-12.15027591
484.28400,-15.5074144
484.28450,-16.72819203
484.28500,-19.16974729
484.28550,-22.52688577
484.28600,-24.05285781
484.28650,-21.61130255
484.28700,-15.20221999
484.28750,-6.656776574
484.28800,0.05750039565
484.28850,0.9730836188
484.28900,-2.689249274
484.28950,-8.48794302
484.29000,-13.67624795
484.29050,-17.33858084
484.29100,-17.33858084
484.29150,-13.06585914
484.29200,-9.098331835
484.29250,-9.708720651
484.29300,-9.098331835
484.29350,4.330222103
484.29400,29.96655235
484.29450,50.71977207
484.29500,54.68729937
484.29550,48.27821681
484.29600,41.86913425
484.29650,32.71330202
484.29700,15.31722078
484.29750,-2.994443681
484.29800,-11.8450815
484.29850,-12.45547032
484.29900,-15.8126088
484.29950,-22.83208018
484.30000,-24.66324663
484.30050,-17.33858084
484.30100,-9.098331835
484.30150,-6.351582166
484.30200,-5.741193351
484.30250,-3.299638089
484.30300,-1.163277235
484.30350,-2.078860458
484.30400,-4.52041572
484.30450,-3.910026904
484.30500,-1.163277235
484.30550,0.05750039565
484.30600,-1.468471643
484.30650,-4.825610128
484.30700,-8.793137428
484.30750,-10.92949828
484.30800,-10.31910947
484.30850,-8.793137428
484.30900,-9.098331835
484.30950,-11.5398871
484.31000,-13.06585914
484.31050,-11.8450815
484.31100,-11.23469269
484.31150,-14.28663677
484.31200,-17.33858084
484.31250,-13.37105354
484.31300,-2.078860458
484.31350,9.518527034
484.31400,14.40163756
484.31450,10.73930467
484.31500,1.888666842
484.31550,-5.435998943
484.31600,-7.267165389
484.31650,-5.741193351
484.31700,-5.435998943
484.31750,-5.435998943
484.31800,2.499055657
484.31850,22.94708097
484.31900,42.47952307
484.31950,43.7003007
484.32000,27.8301915
484.32050,12.87566552
484.32100,11.65488789
484.32150,16.84319282
484.32200,15.9276096
484.32250,9.213332627
484.32300,5.245805327
484.32350,5.856194142
484.32400,5.856194142
484.32450,3.719833288
484.32500,1.888666842
484.32550,1.888666842
484.32600,0.9730836188
484.32650,0.05750039565
484.32700,0.9730836188
484.32750,1.888666842
484.32800,0.05750039565
484.32850,-5.741193351
484.32900,-10.01391506
484.32950,-8.793137428
484.33000,-3.604832497
484.33050,1.583472434
484.33100,5.245805327
484.33150,5.550999734
484.33200,3.41463888
484.33250,0.3626948034
484.33300,-2.078860458
484.33350,-3.299638089
484.33400,-2.994443681
484.33450,-1.468471643
484.33500,0.05750039565
484.33550,0.3626948034
484.33600,-0.5528884197
484.33650,-0.8580828275
484.33700,1.583472434
484.33750,6.466582957
484.33800,8.297749404
484.33850,6.466582957
484.33900,4.940610919
484.33950,7.38216618
484.34000,10.73930467
484.34050,10.12891585
484.34100,5.550999734
484.34150,1.888666842
484.34200,2.804250065
484.34250,2.804250065
484.34300,-2.384054866
484.34350,-11.23469269
484.34400,-15.5074144
484.34450,-13.37105354
484.34500,-11.23469269
484.34550,-11.5398871
484.34600,-11.5398871
484.34650,-7.572359797
484.34700,-4.215221312
484.34750,-6.351582166
484.34800,-10.31910947
484.34850,-8.793137428
484.34900,-0.8580828275
484.34950,5.550999734
484.35000,6.16138855
484.35050,3.41463888
484.35100,1.278278026
484.35150,-0.247694012
484.35200,-4.215221312
484.35250,-8.182748612
484.35300,-8.48794302
484.35350,-5.130804535
484.35400,-1.468471643
484.35450,0.05750039565
484.35500,-1.468471643
484.35550,-6.961970981
484.35600,-15.8126088
484.35650,-21.91649696
484.35700,-18.55935847
484.35750,-8.793137428
484.35800,-3.910026904
484.35850,-10.92949828
484.35900,-22.83208018
484.35950,-26.79960748
484.36000,-18.55935847
484.36050,-6.046387758
484.36100,0.6678892111
484.36150,0.6678892111
484.36200,-0.8580828275
484.36250,-1.468471643
484.36300,-1.468471643
484.36350,-2.384054866
484.36400,-2.384054866
484.36450,0.6678892111
484.36500,6.771777365
484.36550,10.73930467
484.36600,10.12891585
484.36650,6.466582957
484.36700,4.635416511
484.36750,5.550999734
484.36800,6.16138855
484.36850,4.940610919
484.36900,4.330222103
484.36950,6.466582957
484.37000,9.213332627
484.37050,9.518527034
484.37100,8.908138219
484.37150,10.12891585
484.37200,11.9600823
484.37250,10.73930467
484.37300,5.856194142
484.37350,1.278278026
484.37400,0.05750039565
484.37450,1.888666842
484.37500,4.330222103
484.37550,4.635416511
484.37600,1.888666842
484.37650,-1.163277235
484.37700,0.3626948034
484.37750,7.992554996
484.37800,15.62241519
484.37850,16.232804
484.37900,9.518527034
484.37950,2.499055657
484.38000,-0.247694012
484.38050,-1.468471643
484.38100,-2.689249274
484.38150,-1.468471643
484.38200,2.804250065
484.38250,5.550999734
484.38300,2.499055657
484.38350,-3.910026904
484.38400,-6.961970981
484.38450,-4.825610128
484.38500,-1.163277235
484.38550,0.05750039565
484.38600,-2.689249274
484.38650,-7.267165389
484.38700,-10.01391506
484.38750,-7.877554205
484.38800,-4.215221312
484.38850,-4.825610128
484.38900,-8.48794302
484.38950,-4.52041572
484.39000,11.34969348
484.39050,29.96655235
484.39100,34.84966287
484.39150,25.08344183
484.39200,13.79124874
484.39250,10.43411026
484.39300,11.65488789
484.39350,11.34969348
484.39400,10.12891585
484.39450,9.823721442
484.39500,10.43411026
484.39550,9.823721442
484.39600,9.823721442
484.39650,11.34969348
484.39700,11.34969348
484.39750,7.992554996
484.39800,4.940610919
484.39850,5.550999734
484.39900,7.076971773
484.39950,4.940610919
484.40000,0.05750039565
484.40050,-3.910026904
484.40100,-6.046387758
484.40150,-11.23469269
484.40200,-21.91649696
484.40250,-32.59830123
484.40300,-34.73466208
484.40350,-27.71519071
484.40400,-18.55935847
484.40450,-14.89702558
484.40500,-15.20221999
484.40550,-15.20221999
484.40600,-13.37105354
484.40650,-12.45547032
484.40700,-12.76066473
484.40750,-8.48794302
484.40800,0.6678892111
484.40850,10.73930467
484.40900,15.62241519
484.40950,15.62241519
484.41000,14.09644315
484.41050,12.2652767
484.41100,9.518527034
484.41150,7.38216618
484.41200,7.076971773
484.41250,5.550999734
484.41300,0.05750039565
484.41350,-7.267165389
484.41400,-10.92949828
484.41450,-9.098331835
484.41500,-6.046387758
484.41550,-6.351582166
484.41600,-13.67624795
484.41650,-26.79960748
484.41700,-39.00738379
484.41750,-41.75413346
484.41800,-35.03985649
484.41850,-27.71519071
484.41900,-25.88402426
484.41950,-22.83208018
484.42000,-7.877554205
484.42050,14.70683197
484.42100,31.18732998
484.42150,34.23927406
484.42200,31.7977188
484.42250,31.18732998
484.42300,29.96655235
484.42350,22.64188657
484.42400,12.57047111
484.42450,7.076971773
484.42500,6.16138855
484.42550,4.330222103
484.42600,0.3626948034
484.42650,-1.773666051
484.42700,-0.5528884197
484.42750,0.9730836188
484.42800,1.278278026
484.42850,0.9730836188
484.42900,1.583472434
484.42950,3.41463888
484.43000,3.719833288
484.43050,1.583472434
484.43100,-2.384054866
484.43150,-5.741193351
484.43200,-6.351582166
484.43250,-5.435998943
484.43300,-4.52041572
484.43350,-4.52041572
484.43400,-3.910026904
484.43450,-2.994443681
484.43500,-3.604832497
484.43550,-5.741193351
484.43600,-6.046387758
484.43650,-1.163277235
484.43700,7.992554996
484.43750,18.06397045
484.43800,22.94708097
484.43850,20.81072012
484.43900,13.18085993
484.43950,3.109444473
484.44000,-6.656776574
484.44050,-15.8126088
484.44100,-21.00091374
484.44150,-19.7801361
484.44200,-15.5074144
484.44250,-13.06585914
484.44300,-10.01391506
484.44350,1.888666842
484.44400,23.55746979
484.44450,39.7327734
484.44500,36.98602373
484.44550,21.11591453
484.44600,8.908138219
484.44650,7.992554996
484.44700,11.04449907
484.44750,10.73930467
484.44800,8.602943811
484.44850,7.687360588
484.44900,6.466582957
484.44950,2.804250065
484.45000,-1.163277235
484.45050,-2.078860458
484.45100,-0.5528884197
484.45150,0.05750039565
484.45200,-3.604832497
484.45250,-11.23469269
484.45300,-21.00091374
484.45350,-27.10480189
484.45400,-24.35805222
484.45450,-14.59183117
484.45500,-4.52041572
484.45550,0.3626948034
484.45600,1.888666842
484.45650,2.804250065
484.45700,4.330222103
484.45750,5.245805327
484.45800,5.550999734
484.45850,5.856194142
484.45900,5.550999734
484.45950,3.719833288
484.46000,0.9730836188
484.46050,-1.773666051
484.46100,-4.52041572
484.46150,-7.267165389
484.46200,-7.877554205
484.46250,-6.961970981
484.46300,-6.351582166
484.46350,-9.098331835
484.46400,-13.37105354
484.46450,-15.20221999
484.46500,-11.23469269
484.46550,-4.52041572
484.46600,-0.247694012
484.46650,-1.773666051
484.46700,-6.351582166
484.46750,-9.708720651
484.46800,-9.403526243
484.46850,-6.961970981
484.46900,-4.825610128
484.46950,-3.604832497
484.47000,-2.689249274
484.47050,-2.994443681
484.47100,-3.604832497
484.47150,-2.994443681
484.47200,-0.247694012
484.47250,3.719833288
484.47300,6.466582957
484.47350,7.687360588
484.47400,7.687360588
484.47450,6.771777365
484.47500,4.635416511
484.47550,2.804250065
484.47600,2.19386125
484.47650,2.804250065
484.47700,1.888666842
484.47750,-0.5528884197
484.47800,-3.299638089
484.47850,-3.910026904
484.47900,-2.384054866
484.47950,-0.247694012
484.48000,1.583472434
484.48050,3.41463888
484.48100,4.940610919
484.48150,5.856194142
484.48200,4.940610919
484.48250,2.499055657
484.48300,-0.5528884197
484.48350,-3.604832497
484.48400,-6.046387758
484.48450,-10.31910947
484.48500,-15.8126088
484.48550,-19.16974729
484.48600,-16.72819203
484.48650,-10.01391506
484.48700,-3.299638089
484.48750,-0.247694012
484.48800,0.05750039565
484.48850,1.278278026
484.48900,4.025027696
484.48950,7.992554996
484.49000,11.9600823
484.49050,15.31722078
484.49100,17.14838723
484.49150,18.36916486
484.49200,20.50552571
484.49250,22.33669216
484.49300,21.42110893
484.49350,16.232804
484.49400,8.908138219
484.49450,2.804250065
484.49500,-1.773666051
484.49550,-10.01391506
484.49600,-21.00091374
484.49650,-28.02038511
484.49700,-25.27363544
484.49750,-16.72819203
484.49800,-11.23469269
484.49850,-10.31910947
484.49900,-6.351582166
484.49950,3.109444473
484.50000,11.34969348
484.50050,9.518527034
484.50100,0.6678892111
484.50150,-8.182748612
484.50200,-14.59183117
484.50250,-15.8126088
484.50300,-7.877554205
484.50350,10.12891585
484.50400,27.21980268
484.50450,29.05096913
484.50500,17.45358163
484.50550,7.687360588
484.50600,8.908138219
484.50650,16.232804
484.50700,19.58994249
484.50750,17.14838723
484.50800,12.57047111
484.50850,8.297749404
484.50900,6.466582957
484.50950,9.518527034
484.51000,16.53799841
484.51050,20.50552571
484.51100,18.06397045
484.51150,12.2652767
484.51200,7.38216618
484.51250,2.499055657
484.51300,-4.215221312
484.51350,-11.8450815
484.51400,-15.8126088
484.51450,-14.89702558
484.51500,-11.8450815
484.51550,-7.877554205
484.51600,-2.994443681
484.51650,1.278278026
484.51700,3.41463888
484.51750,1.583472434
484.51800,-5.435998943
484.51850,-16.42299762
484.51900,-24.35805222
484.51950,-23.13727459
484.52000,-14.28663677
484.52050,-8.182748612
484.52100,-11.23469269
484.52150,-16.72819203
484.52200,-13.67624795
484.52250,-3.604832497
484.52300,1.888666842
484.52350,-0.8580828275
484.52400,-4.52041572
484.52450,-2.384054866
484.52500,1.888666842
484.52550,2.19386125
484.52600,-1.163277235
484.52650,-2.994443681
484.52700,-2.384054866
484.52750,-2.384054866
484.52800,-2.994443681
484.52850,0.05750039565
484.52900,5.550999734
484.52950,9.823721442
484.53000,11.04449907
484.53050,11.9600823
484.53100,14.40163756
484.53150,15.9276096
484.53200,16.232804
484.53250,19.58994249
484.53300,25.38863623
484.53350,24.47305301
484.53400,9.213332627
484.53450,-10.31910947
484.53500,-17.03338644
484.53550,-6.351582166
484.53600,6.16138855
484.53650,6.771777365
484.53700,-1.773666051
484.53750,-6.351582166
484.53800,-2.384054866
484.53850,2.499055657
484.53900,2.499055657
484.53950,-0.247694012
484.54000,-2.994443681
484.54050,-6.351582166
484.54100,-9.403526243
484.54150,-9.403526243
484.54200,-6.351582166
484.54250,-4.825610128
484.54300,-7.572359797
484.54350,-10.01391506
484.54400,-7.877554205
484.54450,-4.825610128
484.54500,-6.656776574
484.54550,-10.92949828
484.54600,-9.098331835
484.54650,0.3626948034
484.54700,11.34969348
484.54750,15.9276096
484.54800,13.79124874
484.54850,9.823721442
484.54900,7.38216618
484.54950,6.16138855
484.55000,4.940610919
484.55050,1.888666842
484.55100,-2.689249274
484.55150,-7.877554205
484.55200,-10.92949828
484.55250,-9.708720651
484.55300,-4.825610128
484.55350,0.3626948034
484.55400,3.41463888
484.55450,0.6678892111
484.55500,-7.267165389
484.55550,-19.16974729
484.55600,-29.24116274
484.55650,-32.29310682
484.55700,-26.49441307
484.55750,-15.8126088
484.55800,-6.046387758
484.55850,0.6678892111
484.55900,12.2652767
484.55950,32.40810761
484.56000,51.9405497
484.56050,57.12885464
484.56100,42.78471747
484.56150,20.81072012
484.56200,4.025027696
484.56250,-3.910026904
484.56300,-8.48794302
484.56350,-11.5398871
484.56400,-11.8450815
484.56450,-10.62430387
484.56500,-10.62430387
484.56550,-10.92949828
484.56600,-9.403526243
484.56650,-6.046387758
484.56700,-2.994443681
484.56750,-1.468471643
484.56800,0.05750039565
484.56850,1.583472434
484.56900,1.888666842
484.56950,0.6678892111
484.57000,-0.5528884197
484.57050,-0.5528884197
484.57100,-0.247694012
484.57150,-0.247694012
484.57200,0.6678892111
484.57250,2.804250065
484.57300,4.940610919
484.57350,4.940610919
484.57400,3.109444473
484.57450,0.9730836188
484.57500,-0.8580828275
484.57550,-2.078860458
484.57600,-2.689249274
484.57650,-2.078860458
484.57700,-1.163277235
484.57750,-1.163277235
484.57800,-2.078860458
484.57850,-2.689249274
484.57900,-2.689249274
484.57950,-2.384054866
484.58000,-2.384054866
484.58050,-2.689249274
484.58100,-2.384054866
484.58150,-1.163277235
484.58200,0.3626948034
484.58250,0.9730836188
484.58300,0.05750039565
484.58350,-2.384054866
484.58400,-3.604832497
484.58450,-2.994443681
484.58500,-1.163277235
484.58550,-0.8580828275
484.58600,-2.384054866
484.58650,-4.52041572
484.58700,-5.435998943
484.58750,-5.435998943
484.58800,-5.435998943
484.58850,-5.741193351
484.58900,-5.435998943
484.58950,-3.910026904
484.59000,-1.163277235
484.59050,0.9730836188
484.59100,1.888666842
484.59150,0.9730836188
484.59200,-0.5528884197
484.59250,-0.8580828275
484.59300,0.3626948034
484.59350,1.583472434
484.59400,1.278278026
484.59450,-0.8580828275
484.59500,-4.52041572
484.59550,-8.48794302
484.59600,-10.31910947
484.59650,-8.793137428
484.59700,-6.046387758
484.59750,-3.910026904
484.59800,-2.994443681
484.59850,-0.8580828275
484.59900,2.19386125
484.59950,4.940610919
484.60000,4.940610919
484.60050,4.025027696
484.60100,4.330222103
484.60150,6.16138855
484.60200,8.602943811
484.60250,10.73930467
484.60300,12.57047111
484.60350,13.48605433
484.60400,11.65488789
484.60450,6.771777365
484.60500,0.05750039565
484.60550,-6.046387758
484.60600,-6.656776574
484.60650,-2.689249274
484.60700,0.05750039565
484.60750,-1.773666051
484.60800,-5.435998943
484.60850,-5.130804535
484.60900,-0.8580828275
484.60950,2.19386125
484.61000,1.888666842
484.61050,0.3626948034
484.61100,0.05750039565
484.61150,0.6678892111
484.61200,1.583472434
484.61250,3.41463888
484.61300,6.771777365
484.61350,9.213332627
484.61400,7.38216618
484.61450,1.583472434
484.61500,-2.689249274
484.61550,-3.910026904
484.61600,-2.689249274
484.61650,-2.689249274
484.61700,-4.215221312
484.61750,-4.825610128
484.61800,-2.689249274
484.61850,-0.5528884197
484.61900,-1.773666051
484.61950,-6.046387758
484.62000,-10.01391506
484.62050,-11.23469269
484.62100,-9.403526243
484.62150,-6.046387758
484.62200,-3.910026904
484.62250,-4.825610128
484.62300,-5.130804535
484.62350,3.41463888
484.62400,22.33669216
484.62450,39.7327734
484.62500,41.25874544
484.62550,26.91460827
484.62600,10.12891585
484.62650,2.19386125
484.62700,2.19386125
484.62750,2.804250065
484.62800,0.05750039565
484.62850,-2.689249274
484.62900,-1.773666051
484.62950,3.109444473
484.63000,10.12891585
484.63050,15.9276096
484.63100,21.72630334
484.63150,29.35616353
484.63200,36.0704405
484.63250,34.84966287
484.63300,24.47305301
484.63350,12.87566552
484.63400,5.856194142
484.63450,0.05750039565
484.63500,-9.403526243
484.63550,-20.39052492
484.63600,-26.79960748
484.63650,-29.24116274
484.63700,-33.20869004
484.63750,-39.3125782
484.63800,-42.66971668
484.63850,-40.83855024
484.63900,-35.95543971
484.63950,-30.46194037
484.64000,-26.18921867
484.64050,-23.442469
484.64100,-21.91649696
484.64150,-16.11780321
484.64200,-3.604832497
484.64250,9.213332627
484.64300,14.40163756
484.64350,13.18085993
484.64400,12.57047111
484.64450,14.09644315
484.64500,12.87566552
484.64550,5.856194142
484.64600,-1.163277235
484.64650,-4.825610128
484.64700,-7.267165389
484.64750,-11.23469269
484.64800,-13.37105354
484.64850,-9.403526243
484.64900,-0.247694012
484.64950,9.213332627
484.65000,15.9276096
484.65050,18.67435927
484.65100,16.84319282
484.65150,12.2652767
484.65200,7.38216618
484.65250,5.245805327
484.65300,5.245805327
484.65350,5.245805327
484.65400,2.804250065
484.65450,-2.689249274
484.65500,-8.793137428
484.65550,-11.5398871
484.65600,-9.403526243
484.65650,-6.046387758
484.65700,-5.741193351
484.65750,-9.098331835
484.65800,-14.28663677
484.65850,-18.55935847
484.65900,-18.55935847
484.65950,-11.5398871
484.66000,-2.078860458
484.66050,2.499055657
484.66100,2.804250065
484.66150,8.297749404
484.66200,23.55746979
484.66250,36.98602373
484.66300,33.62888524
484.66350,17.14838723
484.66400,5.856194142
484.66450,8.908138219
484.66500,17.45358163
484.66550,19.28474808
484.66600,14.70683197
484.66650,11.34969348
484.66700,11.04449907
484.66750,10.73930467
484.66800,7.687360588
484.66850,2.804250065
484.66900,-3.299638089
484.66950,-9.403526243
484.67000,-13.06585914
484.67050,-14.28663677
484.67100,-15.5074144
484.67150,-17.33858084
484.67200,-16.72819203
484.67250,-12.45547032
484.67300,-7.267165389
484.67350,-3.910026904
484.67400,-2.689249274
484.67450,-1.468471643
484.67500,0.05750039565
484.67550,0.05750039565
484.67600,0.05750039565
484.67650,1.888666842
484.67700,4.635416511
484.67750,4.330222103
484.67800,0.6678892111
484.67850,-2.384054866
484.67900,-2.384054866
484.67950,0.05750039565
484.68000,-1.163277235
484.68050,-8.48794302
484.68100,-18.25416407
484.68150,-23.13727459
484.68200,-17.94896966
484.68250,-7.267165389
484.68300,0.9730836188
484.68350,3.41463888
484.68400,2.19386125
484.68450,2.804250065
484.68500,6.16138855
484.68550,9.518527034
484.68600,10.12891585
484.68650,7.992554996
484.68700,6.466582957
484.68750,6.771777365
484.68800,7.687360588
484.68850,6.771777365
484.68900,4.330222103
484.68950,1.888666842
484.69000,0.05750039565
484.69050,-2.689249274
484.69100,-5.741193351
484.69150,-6.961970981
484.69200,-6.046387758
484.69250,-3.299638089
484.69300,-1.163277235
484.69350,0.05750039565
484.69400,0.9730836188
484.69450,2.19386125
484.69500,2.804250065
484.69550,1.583472434
484.69600,-0.5528884197
484.69650,-2.384054866
484.69700,-3.299638089
484.69750,-2.994443681
484.69800,-3.604832497
484.69850,-4.52041572
484.69900,-4.825610128
484.69950,-2.994443681
484.70000,-0.8580828275
484.70050,0.3626948034
484.70100,0.9730836188
484.70150,1.583472434
484.70200,2.19386125
484.70250,1.278278026
484.70300,-0.247694012
484.70350,-0.8580828275
484.70400,0.6678892111
484.70450,3.41463888
484.70500,4.635416511
484.70550,4.025027696
484.70600,2.804250065
484.70650,2.804250065
484.70700,3.109444473
484.70750,2.499055657
484.70800,0.3626948034
484.70850,-1.468471643
484.70900,-2.078860458
484.70950,0.05750039565
484.71000,3.41463888
484.71050,5.550999734
484.71100,4.330222103
484.71150,1.888666842
484.71200,0.9730836188
484.71250,2.499055657
484.71300,3.719833288
484.71350,3.719833288
484.71400,4.330222103
484.71450,4.940610919
484.71500,3.41463888
484.71550,-1.468471643
484.71600,-6.656776574
484.71650,-7.877554205
484.71700,-3.604832497
484.71750,0.3626948034
484.71800,1.278278026
484.71850,-1.163277235
484.71900,-4.825610128
484.71950,-7.267165389
484.72000,-8.182748612
484.72050,-6.656776574
484.72100,-2.994443681
484.72150,1.583472434
484.72200,4.025027696
484.72250,1.888666842
484.72300,-1.773666051
484.72350,-3.604832497
484.72400,-3.604832497
484.72450,-3.604832497
484.72500,-2.994443681
484.72550,0.05750039565
484.72600,5.550999734
484.72650,8.908138219
484.72700,8.297749404
484.72750,7.992554996
484.72800,10.43411026
484.72850,11.34969348
484.72900,9.823721442
484.72950,10.12891585
484.73000,15.01202637
484.73050,15.62241519
484.73100,4.025027696
484.73150,-13.67624795
484.73200,-22.83208018
484.73250,-17.64377525
484.73300,-7.572359797
484.73350,-2.384054866
484.73400,-1.468471643
484.73450,-0.8580828275
484.73500,0.3626948034
484.73550,0.9730836188
484.73600,1.278278026
484.73650,0.6678892111
484.73700,-1.163277235
484.73750,-4.52041572
484.73800,-4.825610128
484.73850,-1.163277235
484.73900,1.888666842
484.73950,1.583472434
484.74000,0.05750039565
484.74050,-0.247694012
484.74100,-0.247694012
484.74150,-2.078860458
484.74200,-3.299638089
484.74250,-1.163277235
484.74300,2.19386125
484.74350,2.804250065
484.74400,0.05750039565
484.74450,-1.773666051
484.74500,0.6678892111
484.74550,6.16138855
484.74600,9.823721442
484.74650,7.992554996
484.74700,1.888666842
484.74750,-2.994443681
484.74800,-2.384054866
484.74850,2.499055657
484.74900,4.940610919
484.74950,2.19386125
484.75000,2.19386125
484.75050,13.18085993
484.75100,29.96655235
484.75150,36.37563491
484.75200,25.99902505
484.75250,10.73930467
484.75300,5.550999734
484.75350,8.908138219
484.75400,8.602943811
484.75450,0.6678892111
484.75500,-6.961970981
484.75550,-7.877554205
484.75600,-4.825610128
484.75650,-2.689249274
484.75700,-2.994443681
484.75750,-3.910026904
484.75800,-5.435998943
484.75850,-6.351582166
484.75900,-4.52041572
484.75950,-0.8580828275
484.76000,1.278278026
484.76050,0.05750039565
484.76100,-2.994443681
484.76150,-8.48794302
484.76200,-16.42299762
484.76250,-25.57882985
484.76300,-32.59830123
484.76350,-36.56582853
484.76400,-37.78660616
484.76450,-33.20869004
484.76500,-17.03338644
484.76550,7.687360588
484.76600,27.52499709
484.76650,33.32369084
484.76700,28.1353859
484.76750,22.03149775
484.76800,17.14838723
484.76850,8.908138219
484.76900,-2.994443681
484.76950,-14.28663677
484.77000,-17.64377525
484.77050,-10.62430387
484.77100,3.109444473
484.77150,18.06397045
484.77200,26.60941387
484.77250,26.30421946
484.77300,20.81072012
484.77350,14.70683197
484.77400,9.518527034
484.77450,4.025027696
484.77500,-1.773666051
484.77550,-8.182748612
484.77600,-12.76066473
484.77650,-15.8126088
484.77700,-16.11780321
484.77750,-14.28663677
484.77800,-11.23469269
484.77850,-7.572359797
484.77900,-4.215221312
484.77950,-0.8580828275
484.78000,0.6678892111
484.78050,-1.468471643
484.78100,-7.877554205
484.78150,-13.37105354
484.78200,-11.8450815
484.78250,-5.741193351
484.78300,-2.384054866
484.78350,-4.215221312
484.78400,0.3626948034
484.78450,19.28474808
484.78500,40.34316221
484.78550,40.64835662
484.78600,17.14838723
484.78650,-7.877554205
484.78700,-14.28663677
484.78750,-6.961970981
484.78800,-2.078860458
484.78850,-4.52041572
484.78900,-5.435998943
484.78950,-1.163277235
484.79000,1.583472434
484.79050,0.05750039565
484.79100,-0.8580828275
484.79150,0.05750039565
484.79200,-0.5528884197
484.79250,-5.741193351
484.79300,-10.92949828
484.79350,-11.5398871
484.79400,-8.793137428
484.79450,-7.572359797
484.79500,-8.793137428
484.79550,-8.48794302
484.79600,-5.130804535
484.79650,-1.468471643
484.79700,-1.163277235
484.79750,-4.52041572
484.79800,-7.267165389
484.79850,-6.046387758
484.79900,-0.247694012
484.79950,7.38216618
484.80000,13.18085993
484.80050,13.18085993
484.80100,7.076971773
484.80150,-0.8580828275
484.80200,-6.046387758
484.80250,-7.572359797
484.80300,-7.877554205
484.80350,-7.877554205
484.80400,-6.046387758
484.80450,-3.604832497
484.80500,-4.52041572
484.80550,-9.708720651
484.80600,-13.98144236
484.80650,-12.76066473
484.80700,-8.182748612
484.80750,-3.604832497
484.80800,0.3626948034
484.80850,6.16138855
484.80900,12.2652767
484.80950,15.62241519
484.81000,14.70683197
484.81050,11.04449907
484.81100,5.856194142
484.81150,0.6678892111
484.81200,-2.078860458
484.81250,-2.994443681
484.81300,-4.215221312
484.81350,-5.130804535
484.81400,-3.299638089
484.81450,0.9730836188
484.81500,2.499055657
484.81550,-0.247694012
484.81600,-4.52041572
484.81650,-6.046387758
484.81700,-5.435998943
484.81750,-3.910026904
484.81800,-0.5528884197
484.81850,2.804250065
484.81900,3.109444473
484.81950,0.05750039565
484.82000,-2.689249274
484.82050,-0.8580828275
484.82100,1.278278026
484.82150,0.3626948034
484.82200,-2.689249274
484.82250,-4.52041572
484.82300,-4.215221312
484.82350,-3.910026904
484.82400,-3.604832497
484.82450,-2.384054866
484.82500,-0.8580828275
484.82550,-1.163277235
484.82600,-1.773666051
484.82650,-1.163277235
484.82700,-0.247694012
484.82750,-1.163277235
484.82800,-3.299638089
484.82850,-4.52041572
484.82900,-4.215221312
484.82950,-2.689249274
484.83000,0.05750039565
484.83050,3.41463888
484.83100,5.856194142
484.83150,5.245805327
484.83200,3.41463888
484.83250,4.330222103
484.83300,6.771777365
484.83350,8.297749404
484.83400,7.687360588
484.83450,7.687360588
484.83500,8.602943811
484.83550,7.38216618
484.83600,4.025027696
484.83650,1.888666842
484.83700,1.278278026
484.83750,0.05750039565
484.83800,-2.689249274
484.83850,-3.910026904
484.83900,-2.384054866
484.83950,-0.8580828275
484.84000,-1.468471643
484.84050,-0.8580828275
484.84100,1.888666842
484.84150,4.940610919
484.84200,4.635416511
484.84250,4.635416511
484.84300,6.771777365
484.84350,7.38216618
484.84400,2.499055657
484.84450,-3.910026904
484.84500,-4.825610128
484.84550,-0.247694012
484.84600,1.278278026
484.84650,-1.773666051
484.84700,-4.215221312
484.84750,-1.773666051
484.84800,1.583472434
484.84850,1.278278026
484.84900,-0.8580828275
484.84950,-0.247694012
484.85000,2.499055657
484.85050,5.550999734
484.85100,7.076971773
484.85150,7.38216618
484.85200,7.38216618
484.85250,6.466582957
484.85300,5.856194142
484.85350,5.550999734
484.85400,3.719833288
484.85450,-0.247694012
484.85500,-5.435998943
484.85550,-10.31910947
484.85600,-16.11780321
484.85650,-20.69571933
484.85700,-18.55935847
484.85750,-9.708720651
484.85800,-2.994443681
484.85850,-5.130804535
484.85900,-8.182748612
484.85950,0.6678892111
484.86000,21.11591453
484.86050,34.54446847
484.86100,28.74577472
484.86150,11.34969348
484.86200,-0.247694012
484.86250,-0.5528884197
484.86300,3.41463888
484.86350,5.550999734
484.86400,4.635416511
484.86450,2.804250065
484.86500,1.583472434
484.86550,2.19386125
484.86600,3.719833288
484.86650,4.635416511
484.86700,4.330222103
484.86750,4.940610919
484.86800,7.076971773
484.86850,8.297749404
484.86900,6.466582957
484.86950,2.499055657
484.87000,-1.773666051
484.87050,-6.656776574
484.87100,-11.5398871
484.87150,-13.37105354
484.87200,-10.62430387
484.87250,-5.741193351
484.87300,-1.468471643
484.87350,1.888666842
484.87400,4.940610919
484.87450,5.550999734
484.87500,3.719833288
484.87550,3.109444473
484.87600,4.330222103
484.87650,4.940610919
484.87700,3.109444473
484.87750,1.583472434
484.87800,2.499055657
484.87850,2.499055657
484.87900,-0.5528884197
484.87950,-4.215221312
484.88000,-4.52041572
484.88050,-1.773666051
484.88100,-0.247694012
484.88150,-0.5528884197
484.88200,-2.689249274
484.88250,-7.267165389
484.88300,-13.37105354
484.88350,-18.25416407
484.88400,-19.4749417
484.88450,-18.86455288
484.88500,-19.16974729
484.88550,-20.69571933
484.88600,-21.61130255
484.88650,-20.39052492
484.88700,-13.98144236
484.88750,-2.078860458
484.88800,7.687360588
484.88850,8.297749404
484.88900,1.278278026
484.88950,-3.604832497
484.89000,-4.215221312
484.89050,-6.656776574
484.89100,-11.8450815
484.89150,-10.31910947
484.89200,3.41463888
484.89250,20.50552571
484.89300,26.91460827
484.89350,23.55746979
484.89400,18.97955367
484.89450,16.53799841
484.89500,12.2652767
484.89550,7.076971773
484.89600,4.940610919
484.89650,6.16138855
484.89700,6.771777365
484.89750,5.245805327
484.89800,4.635416511
484.89850,4.025027696
484.89900,0.3626948034
484.89950,-3.910026904
484.90000,-3.910026904
484.90050,0.05750039565
484.90100,0.05750039565
484.90150,-6.046387758
484.90200,-13.67624795
484.90250,-15.8126088
484.90300,-14.59183117
484.90350,-13.67624795
484.90400,-13.06585914
484.90450,-8.182748612
484.90500,2.19386125
484.90550,15.31722078
484.90600,24.77824742
484.90650,25.99902505
484.90700,18.97955367
484.90750,8.908138219
484.90800,0.9730836188
484.90850,-2.078860458
484.90900,-2.994443681
484.90950,-2.689249274
484.91000,-1.773666051
484.91050,-1.468471643
484.91100,-3.299638089
484.91150,-6.961970981
484.91200,-12.45547032
484.91250,-18.86455288
484.91300,-23.13727459
484.91350,-21.30610814
484.91400,-15.8126088
484.91450,-12.76066473
484.91500,-12.15027591
484.91550,-2.689249274
484.91600,20.50552571
484.91650,43.7003007
484.91700,45.53146714
484.91750,25.69383064
484.91800,5.550999734
484.91850,0.05750039565
484.91900,2.499055657
484.91950,2.804250065
484.92000,1.278278026
484.92050,5.245805327
484.92100,11.65488789
484.92150,13.18085993
484.92200,9.518527034
484.92250,6.771777365
484.92300,7.076971773
484.92350,7.076971773
484.92400,9.213332627
484.92450,17.14838723
484.92500,25.99902505
484.92550,24.77824742
484.92600,10.12891585
484.92650,-6.961970981
484.92700,-16.11780321
484.92750,-16.11780321
484.92800,-11.8450815
484.92850,-7.572359797
484.92900,-6.046387758
484.92950,-8.793137428
484.93000,-13.67624795
484.93050,-16.11780321
484.93100,-16.42299762
484.93150,-16.11780321
484.93200,-16.11780321
484.93250,-13.67624795
484.93300,-9.098331835
484.93350,-6.961970981
484.93400,-8.182748612
484.93450,-9.403526243
484.93500,-8.48794302
484.93550,-6.961970981
484.93600,-6.046387758
484.93650,-4.215221312
484.93700,-1.773666051
484.93750,-1.163277235
484.93800,-1.773666051
484.93850,-0.247694012
484.93900,3.41463888
484.93950,4.635416511
484.94000,0.3626948034
484.94050,-3.299638089
484.94100,-2.689249274
484.94150,0.05750039565
484.94200,0.3626948034
484.94250,-0.247694012
484.94300,0.3626948034
484.94350,3.41463888
484.94400,4.635416511
484.94450,2.499055657
484.94500,0.05750039565
484.94550,-0.8580828275
484.94600,0.05750039565
484.94650,1.583472434
484.94700,2.804250065
484.94750,2.804250065
484.94800,2.19386125
484.94850,2.804250065
484.94900,4.025027696
484.94950,4.635416511
484.95000,5.550999734
484.95050,8.602943811
484.95100,13.79124874
484.95150,17.14838723
484.95200,15.62241519
484.95250,11.34969348
484.95300,6.771777365
484.95350,1.278278026
484.95400,-5.130804535
484.95450,-8.793137428
484.95500,-6.351582166
484.95550,-0.5528884197
484.95600,0.6678892111
484.95650,-5.741193351
484.95700,-15.20221999
484.95750,-20.08533051
484.95800,-17.94896966
484.95850,-11.23469269
484.95900,-4.825610128
484.95950,-1.468471643
484.96000,-0.247694012
484.96050,0.6678892111
484.96100,2.19386125
484.96150,2.499055657
484.96200,0.9730836188
484.96250,0.05750039565
484.96300,1.278278026
484.96350,3.719833288
484.96400,3.109444473
484.96450,-0.8580828275
484.96500,-3.604832497
484.96550,-1.163277235
484.96600,4.025027696
484.96650,7.076971773
484.96700,5.245805327
484.96750,2.499055657
484.96800,1.583472434
484.96850,2.19386125
484.96900,1.583472434
484.96950,0.05750039565
484.97000,-1.468471643
484.97050,-2.994443681
484.97100,-3.299638089
484.97150,-2.384054866
484.97200,-0.8580828275
484.97250,-0.8580828275
484.97300,-2.078860458
484.97350,-2.994443681
484.97400,-1.773666051
484.97450,0.6678892111
484.97500,4.025027696
484.97550,7.38216618
484.97600,8.908138219
484.97650,6.466582957
484.97700,2.19386125
484.97750,0.9730836188
484.97800,4.940610919
484.97850,9.518527034
484.97900,9.823721442
484.97950,5.550999734
484.98000,0.6678892111
484.98050,-3.604832497
484.98100,-6.656776574
484.98150,-6.351582166
484.98200,-2.078860458
484.98250,1.278278026
484.98300,1.583472434
484.98350,0.6678892111
484.98400,3.109444473
484.98450,5.856194142
484.98500,4.330222103
484.98550,-0.5528884197
484.98600,-4.215221312
484.98650,-4.52041572
484.98700,-3.910026904
484.98750,-3.910026904
484.98800,-3.604832497
484.98850,-3.604832497
484.98900,-6.656776574
484.98950,-11.5398871
484.99000,-13.67624795
484.99050,-10.31910947
484.99100,-5.130804535
484.99150,-2.078860458
484.99200,-2.689249274
484.99250,-4.825610128
484.99300,-5.741193351
484.99350,-5.130804535
484.99400,-5.435998943
484.99450,-9.403526243
484.99500,-12.15027591
484.99550,-4.825610128
484.99600,13.48605433
484.99650,30.88213557
484.99700,31.18732998
484.99750,15.01202637
484.99800,-2.689249274
484.99850,-10.31910947
484.99900,-8.182748612
484.99950,-3.910026904
485.00000,-1.773666051
485.00050,-1.468471643
485.00100,-2.078860458
485.00150,-2.384054866
485.00200,-2.078860458
485.00250,-1.773666051
485.00300,-2.078860458
485.00350,-2.384054866
485.00400,-1.468471643
485.00450,0.05750039565
485.00500,0.6678892111
485.00550,0.6678892111
485.00600,1.888666842
485.00650,3.41463888
485.00700,2.499055657
485.00750,-0.5528884197
485.00800,-2.078860458
485.00850,0.6678892111
485.00900,5.245805327
485.00950,6.16138855
485.01000,3.109444473
485.01050,1.278278026
485.01100,4.025027696
485.01150,10.12891585
485.01200,16.232804
485.01250,20.2003313
485.01300,21.11591453
485.01350,20.2003313
485.01400,17.45358163
485.01450,14.09644315
485.01500,9.518527034
485.01550,4.025027696
485.01600,-1.773666051
485.01650,-8.48794302
485.01700,-14.59183117
485.01750,-18.86455288
485.01800,-19.4749417
485.01850,-16.72819203
485.01900,-13.06585914
485.01950,-11.5398871
485.02000,-12.15027591
485.02050,-12.76066473
485.02100,-13.98144236
485.02150,-16.72819203
485.02200,-19.4749417
485.02250,-18.86455288
485.02300,-16.11780321
485.02350,-13.37105354
485.02400,-9.098331835
485.02450,1.583472434
485.02500,17.75877604
485.02550,29.35616353
485.02600,30.57694117
485.02650,25.38863623
485.02700,21.42110893
485.02750,18.97955367
485.02800,13.79124874
485.02850,6.16138855
485.02900,0.6678892111
485.02950,-0.8580828275
485.03000,-1.163277235
485.03050,-1.468471643
485.03100,-0.8580828275
485.03150,0.05750039565
485.03200,0.3626948034
485.03250,0.05750039565
485.03300,-0.5528884197
485.03350,-1.163277235
485.03400,-1.163277235
485.03450,-0.5528884197
485.03500,0.3626948034
485.03550,-0.247694012
485.03600,-3.910026904
485.03650,-6.656776574
485.03700,-6.046387758
485.03750,-4.215221312
485.03800,-4.215221312
485.03850,-4.825610128
485.03900,-3.299638089
485.03950,0.05750039565
485.04000,2.19386125
485.04050,4.025027696
485.04100,8.908138219
485.04150,15.31722078
485.04200,18.06397045
485.04250,13.48605433
485.04300,6.771777365
485.04350,3.719833288
485.04400,5.245805327
485.04450,5.245805327
485.04500,0.05750039565
485.04550,-6.046387758
485.04600,-8.182748612
485.04650,-5.130804535
485.04700,-0.5528884197
485.04750,2.804250065
485.04800,5.245805327
485.04850,7.38216618
485.04900,9.213332627
485.04950,9.823721442
485.05000,5.550999734
485.05050,-6.046387758
485.05100,-21.00091374
485.05150,-29.24116274
485.05200,-25.57882985
485.05250,-17.94896966
485.05300,-16.42299762
485.05350,-19.7801361
485.05400,-18.55935847
485.05450,-10.01391506
485.05500,-1.468471643
485.05550,-0.5528884197
485.05600,-7.572359797
485.05650,-17.64377525
485.05700,-25.57882985
485.05750,-27.4099963
485.05800,-23.442469
485.05850,-19.16974729
485.05900,-16.72819203
485.05950,-6.656776574
485.06000,17.45358163
485.06050,46.44705037
485.06100,57.73924345
485.06150,44.92107833
485.06200,25.38863623
485.06250,17.14838723
485.06300,17.14838723
485.06350,12.2652767
485.06400,1.888666842
485.06450,-2.384054866
485.06500,2.499055657
485.06550,9.518527034
485.06600,11.04449907
485.06650,7.992554996
485.06700,4.940610919
485.06750,3.41463888
485.06800,3.719833288
485.06850,4.940610919
485.06900,3.719833288
485.06950,-2.689249274
485.07000,-12.45547032
485.07050,-16.11780321
485.07100,-10.62430387
485.07150,-4.825610128
485.07200,-6.961970981
485.07250,-13.98144236
485.07300,-15.20221999
485.07350,-9.098331835
485.07400,-3.299638089
485.07450,-2.078860458
485.07500,-1.163277235
485.07550,2.499055657
485.07600,6.771777365
485.07650,6.771777365
485.07700,4.635416511
485.07750,4.330222103
485.07800,5.550999734
485.07850,5.245805327
485.07900,2.804250065
485.07950,0.05750039565
485.08000,-2.078860458
485.08050,-3.604832497
485.08100,-3.910026904
485.08150,-2.689249274
485.08200,-1.163277235
485.08250,-1.163277235
485.08300,-2.689249274
485.08350,-3.604832497
485.08400,-2.994443681
485.08450,-1.468471643
485.08500,1.278278026
485.08550,4.635416511
485.08600,7.076971773
485.08650,7.687360588
485.08700,6.16138855
485.08750,3.41463888
485.08800,0.05750039565
485.08850,-1.773666051
485.08900,-0.8580828275
485.08950,-0.8580828275
485.09000,-6.046387758
485.09050,-15.20221999
485.09100,-21.00091374
485.09150,-17.33858084
485.09200,-6.351582166
485.09250,3.109444473
485.09300,6.466582957
485.09350,4.025027696
485.09400,0.05750039565
485.09450,-2.689249274
485.09500,-2.384054866
485.09550,0.3626948034
485.09600,3.719833288
485.09650,5.856194142
485.09700,6.771777365
485.09750,7.38216618
485.09800,8.297749404
485.09850,7.992554996
485.09900,6.16138855
485.09950,4.025027696
485.10000,1.888666842
485.10050,1.278278026
485.10100,1.888666842
485.10150,1.278278026
485.10200,-0.8580828275
485.10250,-2.384054866
485.10300,-0.247694012
485.10350,3.719833288
485.10400,5.856194142
485.10450,4.025027696
485.10500,3.109444473
485.10550,7.687360588
485.10600,15.31722078
485.10650,19.8951369
485.10700,18.36916486
485.10750,13.79124874
485.10800,8.602943811
485.10850,4.330222103
485.10900,2.804250065
485.10950,5.550999734
485.11000,8.908138219
485.11050,4.330222103
485.11100,-9.403526243
485.11150,-24.05285781
485.11200,-27.10480189
485.11250,-18.55935847
485.11300,-7.877554205
485.11350,-2.689249274
485.11400,-2.689249274
485.11450,-5.741193351
485.11500,-11.5398871
485.11550,-18.55935847
485.11600,-19.4749417
485.11650,-12.15027591
485.11700,-2.689249274
485.11750,2.804250065
485.11800,9.213332627
485.11850,24.1678586
485.11900,43.39510629
485.11950,52.55093852
485.12000,42.78471747
485.12050,23.25227538
485.12100,8.297749404
485.12150,1.888666842
485.12200,-2.994443681
485.12250,-12.15027591
485.12300,-21.91649696
485.12350,-28.02038511
485.12400,-29.24116274
485.12450,-26.79960748
485.12500,-21.00091374
485.12550,-13.06585914
485.12600,-6.961970981
485.12650,-6.656776574
485.12700,-9.708720651
485.12750,-10.31910947
485.12800,-6.961970981
485.12850,-3.604832497
485.12900,-5.130804535
485.12950,-9.403526243
485.13000,-11.8450815
485.13050,-11.23469269
485.13100,-10.62430387
485.13150,-10.01391506
485.13200,-7.572359797
485.13250,-3.299638089
485.13300,-0.247694012
485.13350,-0.247694012
485.13400,-0.5528884197
485.13450,0.9730836188
485.13500,2.804250065
485.13550,1.583472434
485.13600,-0.8580828275
485.13650,-1.163277235
485.13700,0.6678892111
485.13750,2.804250065
485.13800,2.499055657
485.13850,0.6678892111
485.13900,0.05750039565
485.13950,-0.5528884197
485.14000,-0.8580828275
485.14050,-0.5528884197
485.14100,0.05750039565
485.14150,0.05750039565
485.14200,-1.468471643
485.14250,-4.215221312
485.14300,-4.52041572
485.14350,-2.078860458
485.14400,1.278278026
485.14450,2.804250065
485.14500,1.888666842
485.14550,0.05750039565
485.14600,-0.5528884197
485.14650,-0.247694012
485.14700,0.05750039565
485.14750,-0.5528884197
485.14800,-2.384054866
485.14850,-3.604832497
485.14900,-3.299638089
485.14950,-1.468471643
485.15000,-0.247694012
485.15050,-1.773666051
485.15100,-3.299638089
485.15150,-0.247694012
485.15200,8.297749404
485.15250,18.97955367
485.15300,25.99902505
485.15350,29.35616353
485.15400,31.18732998
485.15450,31.7977188
485.15500,29.05096913
485.15550,23.8626642
485.15600,18.36916486
485.15650,10.73930467
485.15700,-0.5528884197
485.15750,-14.89702558
485.15800,-28.93596834
485.15850,-39.3125782
485.15900,-43.89049431
485.15950,-42.36452227
485.16000,-38.09180057
485.16050,-36.56582853
485.16100,-35.95543971
485.16150,-28.93596834
485.16200,-12.45547032
485.16250,5.856194142
485.16300,16.53799841
485.16350,20.81072012
485.16400,27.21980268
485.16450,36.37563491
485.16500,41.86913425
485.16550,38.81719017
485.16600,30.88213557
485.16650,22.94708097
485.16700,15.01202637
485.16750,6.466582957
485.16800,-1.163277235
485.16850,-5.435998943
485.16900,-6.046387758
485.16950,-6.046387758
485.17000,-7.572359797
485.17050,-8.182748612
485.17100,-2.994443681
485.17150,8.297749404
485.17200,19.8951369
485.17250,25.38863623
485.17300,25.38863623
485.17350,23.55746979
485.17400,20.2003313
485.17450,14.09644315
485.17500,9.213332627
485.17550,7.992554996
485.17600,3.41463888
485.17650,-13.98144236
485.17700,-38.09180057
485.17750,-51.2151601
485.17800,-49.38399365
485.17850,-45.72166076
485.17900,-48.77360484
485.17950,-49.68918806
485.18000,-40.83855024
485.18050,-28.32557952
485.18100,-18.55935847
485.18150,-3.604832497
485.18200,22.33669216
485.18250,44.31068951
485.18300,42.17432866
485.18350,21.11591453
485.18400,4.940610919
485.18450,5.550999734
485.18500,11.04449907
485.18550,9.823721442
485.18600,4.025027696
485.18650,1.278278026
485.18700,1.583472434
485.18750,1.583472434
485.18800,2.499055657
485.18850,5.856194142
485.18900,8.908138219
485.18950,9.213332627
485.19000,7.38216618
485.19050,3.719833288
485.19100,-1.468471643
485.19150,-6.656776574
485.19200,-7.877554205
485.19250,-4.52041572
485.19300,-1.468471643
485.19350,-0.8580828275
485.19400,-0.8580828275
485.19450,0.3626948034
485.19500,1.888666842
485.19550,2.19386125
485.19600,1.888666842
485.19650,1.888666842
485.19700,1.583472434
485.19750,0.3626948034
485.19800,0.05750039565
485.19850,1.278278026
485.19900,3.719833288
485.19950,4.635416511
485.20000,3.41463888
485.20050,1.888666842
485.20100,2.19386125
485.20150,4.025027696
485.20200,6.16138855
485.20250,7.38216618
485.20300,6.771777365
485.20350,4.330222103
485.20400,2.19386125
485.20450,0.3626948034
485.20500,-0.247694012
485.20550,-0.8580828275
485.20600,-1.773666051
485.20650,-2.994443681
485.20700,-2.994443681
485.20750,-0.8580828275
485.20800,0.6678892111
485.20850,-2.384054866
485.20900,-10.31910947
485.20950,-15.5074144
485.21000,-10.92949828
485.21050,0.6678892111
485.21100,10.73930467
485.21150,14.09644315
485.21200,13.48605433
485.21250,12.87566552
485.21300,13.18085993
485.21350,11.34969348
485.21400,7.38216618
485.21450,3.109444473
485.21500,0.9730836188
485.21550,1.278278026
485.21600,2.19386125
485.21650,3.109444473
485.21700,3.41463888
485.21750,2.499055657
485.21800,0.05750039565
485.21850,-2.384054866
485.21900,-2.689249274
485.21950,-0.247694012
485.22000,2.19386125
485.22050,4.025027696
485.22100,5.550999734
485.22150,7.076971773
485.22200,7.687360588
485.22250,5.245805327
485.22300,0.05750039565
485.22350,-4.52041572
485.22400,-6.656776574
485.22450,-5.435998943
485.22500,-2.384054866
485.22550,1.278278026
485.22600,5.245805327
485.22650,7.992554996
485.22700,8.602943811
485.22750,7.687360588
485.22800,5.856194142
485.22850,3.41463888
485.22900,0.3626948034
485.22950,-2.078860458
485.23000,-2.078860458
485.23050,-0.5528884197
485.23100,0.6678892111
485.23150,0.3626948034
485.23200,0.05750039565
485.23250,0.05750039565
485.23300,0.9730836188
485.23350,1.583472434
485.23400,2.804250065
485.23450,5.245805327
485.23500,7.992554996
485.23550,8.297749404
485.23600,5.550999734
485.23650,2.499055657
485.23700,1.278278026
485.23750,1.888666842
485.23800,0.9730836188
485.23850,-3.604832497
485.23900,-12.15027591
485.23950,-20.08533051
485.24000,-22.83208018
485.24050,-19.7801361
485.24100,-14.59183117
485.24150,-12.76066473
485.24200,-17.03338644
485.24250,-24.66324663
485.24300,-28.32557952
485.24350,-24.35805222
485.24400,-17.94896966
485.24450,-16.72819203
485.24500,-19.16974729
485.24550,-14.59183117
485.24600,2.499055657
485.24650,22.94708097
485.24700,29.96655235
485.24750,21.11591453
485.24800,8.602943811
485.24850,4.330222103
485.24900,7.992554996
485.24950,11.65488789
485.25000,10.12891585
485.25050,4.330222103
485.25100,-0.8580828275
485.25150,-2.994443681
485.25200,-0.8580828275
485.25250,1.888666842
485.25300,1.278278026
485.25350,-2.994443681
485.25400,-8.182748612
485.25450,-11.5398871
485.25500,-13.37105354
485.25550,-13.67624795
485.25600,-11.5398871
485.25650,-7.572359797
485.25700,-4.215221312
485.25750,-2.994443681
485.25800,-2.994443681
485.25850,-1.773666051
485.25900,-0.247694012
485.25950,0.3626948034
485.26000,0.6678892111
485.26050,0.9730836188
485.26100,0.05750039565
485.26150,-2.078860458
485.26200,-3.910026904
485.26250,-3.910026904
485.26300,-2.994443681
485.26350,-2.994443681
485.26400,-3.299638089
485.26450,-3.299638089
485.26500,-3.299638089
485.26550,-3.604832497
485.26600,-3.604832497
485.26650,-3.299638089
485.26700,-3.604832497
485.26750,-3.910026904
485.26800,-2.994443681
485.26850,-1.163277235
485.26900,-0.8580828275
485.26950,-3.604832497
485.27000,-6.046387758
485.27050,-4.52041572
485.27100,-0.247694012
485.27150,2.499055657
485.27200,4.330222103
485.27250,7.076971773
485.27300,12.57047111
485.27350,17.75877604
485.27400,19.58994249
485.27450,18.36916486
485.27500,16.53799841
485.27550,15.31722078
485.27600,14.09644315
485.27650,13.18085993
485.27700,12.2652767
485.27750,10.73930467
485.27800,8.602943811
485.27850,7.687360588
485.27900,9.518527034
485.27950,11.04449907
485.28000,8.908138219
485.28050,2.499055657
485.28100,-5.130804535
485.28150,-11.8450815
485.28200,-15.8126088
485.28250,-14.89702558
485.28300,-8.793137428
485.28350,-2.078860458
485.28400,0.05750039565
485.28450,-2.994443681
485.28500,-7.877554205
485.28550,-10.31910947
485.28600,-9.708720651
485.28650,-9.098331835
485.28700,-9.403526243
485.28750,-9.403526243
485.28800,-7.267165389
485.28850,-3.604832497
485.28900,-2.994443681
485.28950,-7.877554205
485.29000,-14.59183117
485.29050,-15.5074144
485.29100,-12.15027591
485.29150,-12.45547032
485.29200,-19.16974729
485.29250,-24.35805222
485.29300,-23.74766341
485.29350,-24.05285781
485.29400,-30.15674597
485.29450,-31.3775236
485.29500,-14.59183117
485.29550,14.09644315
485.29600,36.0704405
485.29650,43.7003007
485.29700,45.22627274
485.29750,47.05743918
485.29800,44.31068951
485.29850,32.71330202
485.29900,19.28474808
485.29950,11.34969348
485.30000,7.076971773
485.30050,2.19386125
485.30100,0.05750039565
485.30150,4.940610919
485.30200,12.2652767
485.30250,15.62241519
485.30300,14.09644315
485.30350,11.9600823
485.30400,9.213332627
485.30450,4.940610919
485.30500,0.3626948034
485.30550,-0.247694012
485.30600,1.888666842
485.30650,3.109444473
485.30700,2.499055657
485.30750,1.583472434
485.30800,1.583472434
485.30850,2.19386125
485.30900,2.19386125
485.30950,2.499055657
485.31000,2.804250065
485.31050,2.804250065
485.31100,2.804250065
485.31150,2.804250065
485.31200,2.19386125
485.31250,0.05750039565
485.31300,-4.52041572
485.31350,-9.708720651
485.31400,-12.76066473
485.31450,-12.76066473
485.31500,-10.62430387
485.31550,-8.793137428
485.31600,-10.31910947
485.31650,-12.45547032
485.31700,-11.23469269
485.31750,-6.656776574
485.31800,-2.994443681
485.31850,-2.384054866
485.31900,-1.468471643
485.31950,4.330222103
485.32000,15.31722078
485.32050,23.8626642
485.32100,26.60941387
485.32150,25.69383064
485.32200,24.77824742
485.32250,22.03149775
485.32300,14.70683197
485.32350,4.635416511
485.32400,-1.773666051
485.32450,-5.741193351
485.32500,-13.37105354
485.32550,-26.79960748
485.32600,-40.83855024
485.32650,-47.85802161
485.32700,-47.2476328
485.32750,-42.97491109
485.32800,-37.48141175
485.32850,-30.46194037
485.32900,-22.22169137
485.32950,-13.98144236
485.33000,-6.046387758
485.33050,0.05750039565
485.33100,2.19386125
485.33150,0.05750039565
485.33200,-3.604832497
485.33250,-2.078860458
485.33300,4.025027696
485.33350,8.602943811
485.33400,4.635416511
485.33450,-6.656776574
485.33500,-18.25416407
485.33550,-22.83208018
485.33600,-20.39052492
485.33650,-16.11780321
485.33700,-11.5398871
485.33750,-1.773666051
485.33800,16.53799841
485.33850,37.59641254
485.33900,47.667828
485.33950,40.0379678
485.34000,23.25227538
485.34050,15.31722078
485.34100,23.55746979
485.34150,36.0704405
485.34200,33.32369084
485.34250,10.73930467
485.34300,-14.89702558
485.34350,-24.35805222
485.34400,-17.33858084
485.34450,-7.877554205
485.34500,-6.046387758
485.34550,-6.656776574
485.34600,-1.773666051
485.34650,3.719833288
485.34700,3.109444473
485.34750,-5.435998943
485.34800,-15.20221999
485.34850,-18.55935847
485.34900,-14.28663677
485.34950,-4.52041572
485.35000,5.245805327
485.35050,9.823721442
485.35100,9.518527034
485.35150,10.43411026
485.35200,15.9276096
485.35250,20.2003313
485.35300,18.06397045
485.35350,11.65488789
485.35400,7.38216618
485.35450,4.635416511
485.35500,0.9730836188
485.35550,-2.689249274
485.35600,-2.078860458
485.35650,1.888666842
485.35700,4.635416511
485.35750,3.719833288
485.35800,2.19386125
485.35850,1.583472434
485.35900,0.05750039565
485.35950,-1.773666051
485.36000,-2.689249274
485.36050,-1.773666051
485.36100,-1.773666051
485.36150,-2.994443681
485.36200,-3.604832497
485.36250,-2.689249274
485.36300,-2.994443681
485.36350,-4.825610128
485.36400,-4.215221312
485.36450,0.05750039565
485.36500,5.550999734
485.36550,9.823721442
485.36600,12.57047111
485.36650,14.40163756
485.36700,13.79124874
485.36750,9.213332627
485.36800,4.025027696
485.36850,1.888666842
485.36900,2.499055657
485.36950,1.888666842
485.37000,-0.5528884197
485.37050,-4.215221312
485.37100,-7.877554205
485.37150,-11.8450815
485.37200,-15.20221999
485.37250,-14.28663677
485.37300,-8.793137428
485.37350,-1.468471643
485.37400,2.499055657
485.37450,1.278278026
485.37500,-2.689249274
485.37550,-7.572359797
485.37600,-10.01391506
485.37650,-9.098331835
485.37700,-6.656776574
485.37750,-4.52041572
485.37800,-2.384054866
485.37850,0.05750039565
485.37900,1.888666842
485.37950,0.6678892111
485.38000,-2.689249274
485.38050,-5.741193351
485.38100,-5.435998943
485.38150,-2.689249274
485.38200,0.6678892111
485.38250,3.109444473
485.38300,4.025027696
485.38350,3.41463888
485.38400,1.888666842
485.38450,0.05750039565
485.38500,-2.689249274
485.38550,-7.267165389
485.38600,-9.708720651
485.38650,-7.572359797
485.38700,-3.910026904
485.38750,-2.384054866
485.38800,0.05750039565
485.38850,11.9600823
485.38900,30.57694117
485.38950,41.25874544
485.39000,33.32369084
485.39050,15.9276096
485.39100,5.856194142
485.39150,5.856194142
485.39200,7.076971773
485.39250,3.109444473
485.39300,-2.078860458
485.39350,-4.825610128
485.39400,-6.351582166
485.39450,-8.48794302
485.39500,-9.098331835
485.39550,-6.351582166
485.39600,-3.604832497
485.39650,-2.994443681
485.39700,-3.299638089
485.39750,-1.773666051
485.39800,-0.247694012
485.39850,-1.468471643
485.39900,-4.52041572
485.39950,-5.741193351
485.40000,-4.215221312
485.40050,-1.468471643
485.40100,0.3626948034
485.40150,1.278278026
485.40200,0.05750039565
485.40250,-0.5528884197
485.40300,-0.247694012
485.40350,1.888666842
485.40400,4.025027696
485.40450,4.940610919
485.40500,6.16138855
485.40550,7.992554996
485.40600,9.518527034
485.40650,8.602943811
485.40700,5.550999734
485.40750,2.804250065
485.40800,0.6678892111
485.40850,-0.8580828275
485.40900,-1.163277235
485.40950,0.9730836188
485.41000,5.245805327
485.41050,8.602943811
485.41100,11.04449907
485.41150,13.48605433
485.41200,15.31722078
485.41250,15.9276096
485.41300,15.01202637
485.41350,13.18085993
485.41400,11.04449907
485.41450,7.992554996
485.41500,3.719833288
485.41550,-1.773666051
485.41600,-10.62430387
485.41650,-19.4749417
485.41700,-23.442469
485.41750,-21.30610814
485.41800,-17.64377525
485.41850,-17.33858084
485.41900,-18.55935847
485.41950,-18.86455288
485.42000,-20.08533051
485.42050,-23.442469
485.42100,-25.27363544
485.42150,-22.22169137
485.42200,-18.86455288
485.42250,-19.4749417
485.42300,-17.64377525
485.42350,-3.299638089
485.42400,18.97955367
485.42450,34.23927406
485.42500,34.84966287
485.42550,29.05096913
485.42600,25.38863623
485.42650,22.03149775
485.42700,15.31722078
485.42750,7.687360588
485.42800,3.719833288
485.42850,1.278278026
485.42900,-1.468471643
485.42950,-2.689249274
485.43000,-1.163277235
485.43050,-1.468471643
485.43100,-5.741193351
485.43150,-8.182748612
485.43200,-3.604832497
485.43250,3.109444473
485.43300,4.940610919
485.43350,2.804250065
485.43400,2.499055657
485.43450,4.330222103
485.43500,4.025027696
485.43550,1.278278026
485.43600,-1.163277235
485.43650,-6.046387758
485.43700,-13.37105354
485.43750,-16.11780321
485.43800,-6.656776574
485.43850,8.602943811
485.43900,17.14838723
485.43950,13.79124874
485.44000,4.940610919
485.44050,-1.773666051
485.44100,-7.267165389
485.44150,-12.15027591
485.44200,-14.59183117
485.44250,-14.89702558
485.44300,-16.42299762
485.44350,-19.16974729
485.44400,-18.55935847
485.44450,-11.5398871
485.44500,-1.468471643
485.44550,5.550999734
485.44600,7.38216618
485.44650,4.940610919
485.44700,3.109444473
485.44750,6.466582957
485.44800,13.48605433
485.44850,14.40163756
485.44900,5.550999734
485.44950,-4.825610128
485.45000,-8.182748612
485.45050,-6.351582166
485.45100,-6.656776574
485.45150,-7.877554205
485.45200,-3.299638089
485.45250,3.41463888
485.45300,1.888666842
485.45350,-8.793137428
485.45400,-17.94896966
485.45450,-18.25416407
485.45500,-15.5074144
485.45550,-16.11780321
485.45600,-16.42299762
485.45650,-11.8450815
485.45700,-6.961970981
485.45750,-7.267165389
485.45800,-10.01391506
485.45850,-9.708720651
485.45900,-7.267165389
485.45950,-8.48794302
485.46000,-15.20221999
485.46050,-22.52688577
485.46100,-24.96844104
485.46150,-19.7801361
485.46200,-11.23469269
485.46250,-6.656776574
485.46300,-6.046387758
485.46350,0.05750039565
485.46400,19.28474808
485.46450,41.25874544
485.46500,46.14185596
485.46550,29.66135794
485.46600,10.12891585
485.46650,5.245805327
485.46700,11.04449907
485.46750,13.79124874
485.46800,10.43411026
485.46850,9.213332627
485.46900,12.57047111
485.46950,15.01202637
485.47000,12.2652767
485.47050,7.687360588
485.47100,4.635416511
485.47150,1.583472434
485.47200,-1.468471643
485.47250,-3.604832497
485.47300,-2.689249274
485.47350,-0.5528884197
485.47400,0.05750039565
485.47450,-0.5528884197
485.47500,-0.8580828275
485.47550,-0.247694012
485.47600,0.9730836188
485.47650,2.499055657
485.47700,2.499055657
485.47750,0.05750039565
485.47800,-1.468471643
485.47850,-0.5528884197
485.47900,1.583472434
485.47950,2.19386125
485.48000,0.9730836188
485.48050,0.6678892111
485.48100,3.109444473
485.48150,6.466582957
485.48200,6.466582957
485.48250,4.330222103
485.48300,2.19386125
485.48350,2.19386125
485.48400,2.804250065
485.48450,2.19386125
485.48500,0.6678892111
485.48550,0.05750039565
485.48600,-0.247694012
485.48650,0.05750039565
485.48700,1.278278026
485.48750,4.330222103
485.48800,8.297749404
485.48850,10.73930467
485.48900,9.823721442
485.48950,6.466582957
485.49000,3.719833288
485.49050,2.499055657
485.49100,1.888666842
485.49150,0.05750039565
485.49200,-3.604832497
485.49250,-5.130804535
485.49300,-2.994443681
485.49350,0.9730836188
485.49400,3.41463888
485.49450,0.6678892111
485.49500,-4.52041572
485.49550,-7.572359797
485.49600,-6.656776574
485.49650,-5.435998943
485.49700,-7.877554205
485.49750,-13.37105354
485.49800,-17.03338644
485.49850,-14.28663677
485.49900,-6.046387758
485.49950,2.19386125
485.50000,7.076971773
485.50050,7.992554996
485.50100,7.992554996
485.50150,9.213332627
485.50200,10.12891585
485.50250,7.38216618
485.50300,2.19386125
485.50350,-0.5528884197
485.50400,1.278278026
485.50450,6.16138855
485.50500,7.38216618
485.50550,2.804250065
485.50600,-3.910026904
485.50650,-9.403526243
485.50700,-11.5398871
485.50750,-11.23469269
485.50800,-8.182748612
485.50850,-3.299638089
485.50900,0.9730836188
485.50950,2.804250065
485.51000,2.19386125
485.51050,0.3626948034
485.51100,-1.773666051
485.51150,-4.215221312
485.51200,-6.046387758
485.51250,-6.961970981
485.51300,-6.656776574
485.51350,-6.656776574
485.51400,-6.656776574
485.51450,-6.046387758
485.51500,-4.825610128
485.51550,-4.215221312
485.51600,-4.215221312
485.51650,-3.299638089
485.51700,-0.8580828275
485.51750,1.888666842
485.51800,4.025027696
485.51850,5.245805327
485.51900,5.856194142
485.51950,6.16138855
485.52000,7.076971773
485.52050,8.602943811
485.52100,8.908138219
485.52150,6.16138855
485.52200,0.05750039565
485.52250,-8.182748612
485.52300,-14.59183117
485.52350,-14.59183117
485.52400,-8.793137428
485.52450,-2.384054866
485.52500,0.6678892111
485.52550,5.550999734
485.52600,19.28474808
485.52650,37.59641254
485.52700,47.05743918
485.52750,38.20680136
485.52800,18.67435927
485.52850,4.940610919
485.52900,3.41463888
485.52950,7.38216618
485.53000,7.38216618
485.53050,3.109444473
485.53100,1.583472434
485.53150,5.245805327
485.53200,7.992554996
485.53250,3.719833288
485.53300,-4.825610128
485.53350,-9.098331835
485.53400,-7.877554205
485.53450,-11.23469269
485.53500,-24.05285781
485.53550,-39.3125782
485.53600,-44.50088313
485.53650,-39.61777261
485.53700,-33.20869004
485.53750,-27.71519071
485.53800,-20.39052492
485.53850,-12.76066473
485.53900,-10.62430387
485.53950,-15.8126088
485.54000,-23.74766341
485.54050,-28.63077393
485.54100,-26.79960748
485.54150,-13.67624795
485.54200,9.823721442
485.54250,33.32369084
485.54300,42.47952307
485.54350,36.68082932
485.54400,28.74577472
485.54450,28.1353859
485.54500,30.57694117
485.54550,28.44058031
485.54600,19.8951369
485.54650,9.823721442
485.54700,3.41463888
485.54750,3.41463888
485.54800,7.076971773
485.54850,9.823721442
485.54900,7.687360588
485.54950,2.19386125
485.55000,-1.773666051
485.55050,-3.604832497
485.55100,-5.130804535
485.55150,-6.656776574
485.55200,-7.267165389
485.55250,-7.877554205
485.55300,-10.62430387
485.55350,-14.28663677
485.55400,-16.11780321
485.55450,-17.94896966
485.55500,-21.91649696
485.55550,-24.05285781
485.55600,-17.94896966
485.55650,-1.773666051
485.55700,16.53799841
485.55750,29.66135794
485.55800,35.7652461
485.55850,37.59641254
485.55900,36.37563491
485.55950,32.40810761
485.56000,28.44058031
485.56050,27.52499709
485.56100,28.44058031
485.56150,24.47305301
485.56200,12.2652767
485.56250,-2.078860458
485.56300,-9.708720651
485.56350,-8.793137428
485.56400,-7.267165389
485.56450,-11.5398871
485.56500,-17.94896966
485.56550,-19.4749417
485.56600,-16.72819203
485.56650,-16.42299762
485.56700,-20.39052492
485.56750,-21.91649696
485.56800,-17.64377525
485.56850,-10.31910947
485.56900,-5.435998943
485.56950,-3.604832497
485.57000,-2.994443681
485.57050,-2.994443681
485.57100,-5.130804535
485.57150,-8.48794302
485.57200,-10.31910947
485.57250,-9.098331835
485.57300,-6.351582166
485.57350,-4.825610128
485.57400,-5.130804535
485.57450,-4.825610128
485.57500,-2.994443681
485.57550,0.6678892111
485.57600,4.025027696
485.57650,5.856194142
485.57700,6.466582957
485.57750,5.856194142
485.57800,4.330222103
485.57850,0.9730836188
485.57900,-6.351582166
485.57950,-16.72819203
485.58000,-23.13727459
485.58050,-20.69571933
485.58100,-12.45547032
485.58150,-8.793137428
485.58200,-9.403526243
485.58250,-2.689249274
485.58300,17.14838723
485.58350,36.68082932
485.58400,36.68082932
485.58450,20.2003313
485.58500,9.213332627
485.58550,14.09644315
485.58600,22.03149775
485.58650,19.58994249
485.58700,9.518527034
485.58750,3.41463888
485.58800,3.109444473
485.58850,1.888666842
485.58900,-0.5528884197
485.58950,-1.163277235
485.59000,0.05750039565
485.59050,-0.5528884197
485.59100,-2.078860458
485.59150,-1.163277235
485.59200,0.6678892111
485.59250,0.6678892111
485.59300,-0.247694012
485.59350,0.3626948034
485.59400,1.583472434
485.59450,0.05750039565
485.59500,-3.299638089
485.59550,-4.215221312
485.59600,-2.689249274
485.59650,-1.468471643
485.59700,-1.468471643
485.59750,-0.247694012
485.59800,2.19386125
485.59850,2.19386125
485.59900,-1.163277235
485.59950,-4.825610128
485.60000,-5.130804535
485.60050,-5.130804535
485.60100,-6.961970981
485.60150,-8.48794302
485.60200,-6.351582166
485.60250,-2.384054866
485.60300,-0.247694012
485.60350,-0.8580828275
485.60400,-1.468471643
485.60450,0.05750039565
485.60500,2.499055657
485.60550,4.635416511
485.60600,4.635416511
485.60650,3.109444473
485.60700,0.6678892111
485.60750,-1.468471643
485.60800,-2.078860458
485.60850,-1.163277235
485.60900,0.3626948034
485.60950,1.583472434
485.61000,2.19386125
485.61050,2.804250065
485.61100,3.109444473
485.61150,1.888666842
485.61200,-0.8580828275
485.61250,-3.910026904
485.61300,-4.215221312
485.61350,-1.468471643
485.61400,1.888666842
485.61450,4.025027696
485.61500,4.635416511
485.61550,4.940610919
485.61600,4.940610919
485.61650,3.109444473
485.61700,0.3626948034
485.61750,-0.5528884197
485.61800,0.05750039565
485.61850,1.583472434
485.61900,1.278278026
485.61950,0.9730836188
485.62000,3.109444473
485.62050,6.16138855
485.62100,5.245805327
485.62150,0.05750039565
485.62200,-4.52041572
485.62250,-6.046387758
485.62300,-5.130804535
485.62350,-3.910026904
485.62400,-2.078860458
485.62450,0.6678892111
485.62500,4.025027696
485.62550,5.245805327
485.62600,4.635416511
485.62650,4.025027696
485.62700,4.025027696
485.62750,3.719833288
485.62800,1.888666842
485.62850,-1.773666051
485.62900,-7.877554205
485.62950,-14.59183117
485.63000,-18.86455288
485.63050,-17.64377525
485.63100,-11.5398871
485.63150,-4.52041572
485.63200,-0.8580828275
485.63250,-1.773666051
485.63300,-3.604832497
485.63350,-2.994443681
485.63400,-1.163277235
485.63450,-3.299638089
485.63500,-11.23469269
485.63550,-19.4749417
485.63600,-19.7801361
485.63650,-10.01391506
485.63700,2.19386125
485.63750,8.908138219
485.63800,8.297749404
485.63850,4.940610919
485.63900,2.19386125
485.63950,0.05750039565
485.64000,-2.078860458
485.64050,-1.468471643
485.64100,1.278278026
485.64150,1.888666842
485.64200,-2.994443681
485.64250,-11.23469269
485.64300,-16.11780321
485.64350,-15.5074144
485.64400,-14.28663677
485.64450,-14.89702558
485.64500,-13.06585914
485.64550,-2.384054866
485.64600,15.9276096
485.64650,32.1029132
485.64700,36.98602373
485.64750,29.66135794
485.64800,18.36916486
485.64850,11.34969348
485.64900,9.823721442
485.64950,8.908138219
485.65000,5.245805327
485.65050,0.6678892111
485.65100,-0.5528884197
485.65150,3.41463888
485.65200,10.43411026
485.65250,16.232804
485.65300,18.36916486
485.65350,16.84319282
485.65400,13.79124874
485.65450,9.823721442
485.65500,4.940610919
485.65550,-0.8580828275
485.65600,-6.656776574
485.65650,-10.62430387
485.65700,-13.37105354
485.65750,-17.03338644
485.65800,-22.83208018
485.65850,-27.71519071
485.65900,-27.71519071
485.65950,-22.22169137
485.66000,-15.20221999
485.66050,-12.76066473
485.66100,-15.20221999
485.66150,-17.64377525
485.66200,-15.20221999
485.66250,-11.5398871
485.66300,-11.8450815
485.66350,-15.20221999
485.66400,-13.98144236
485.66450,-6.961970981
485.66500,-0.8580828275
485.66550,-1.773666051
485.66600,-6.961970981
485.66650,-12.45547032
485.66700,-18.25416407
485.66750,-22.52688577
485.66800,-17.33858084
485.66850,2.19386125
485.66900,28.1353859
485.66950,45.22627274
485.67000,48.88860563
485.67050,44.31068951
485.67100,38.20680136
485.67150,31.7977188
485.67200,24.47305301
485.67250,17.14838723
485.67300,9.518527034
485.67350,0.6678892111
485.67400,-5.741193351
485.67450,-7.877554205
485.67500,-6.656776574
485.67550,-6.046387758
485.67600,-5.741193351
485.67650,-2.078860458
485.67700,4.330222103
485.67750,8.908138219
485.67800,6.771777365
485.67850,2.499055657
485.67900,2.499055657
485.67950,7.076971773
485.68000,10.12891585
485.68050,7.992554996
485.68100,3.719833288
485.68150,2.499055657
485.68200,4.330222103
485.68250,4.330222103
485.68300,2.19386125
485.68350,0.6678892111
485.68400,-0.8580828275
485.68450,-9.403526243
485.68500,-24.35805222
485.68550,-32.90349564
485.68600,-25.27363544
485.68650,-7.572359797
485.68700,5.245805327
485.68750,9.823721442
485.68800,15.31722078
485.68850,28.44058031
485.68900,43.08991188
485.68950,49.49899444
485.69000,44.31068951
485.69050,29.05096913
485.69100,9.213332627
485.69150,-7.572359797
485.69200,-14.28663677
485.69250,-10.01391506
485.69300,-1.468471643
485.69350,4.330222103
485.69400,3.719833288
485.69450,-4.825610128
485.69500,-19.4749417
485.69550,-30.76713478
485.69600,-33.81907886
485.69650,-34.12427327
485.69700,-40.83855024
485.69750,-49.99438247
485.69800,-49.68918806
485.69850,-38.39699497
485.69900,-27.71519071
485.69950,-21.61130255
485.70000,-9.098331835
485.70050,16.232804
485.70100,39.7327734
485.70150,41.86913425
485.70200,25.08344183
485.70250,11.34969348
485.70300,11.65488789
485.70350,14.70683197
485.70400,9.213332627
485.70450,-1.468471643
485.70500,-6.656776574
485.70550,-4.825610128
485.70600,-1.773666051
485.70650,-0.247694012
485.70700,1.888666842
485.70750,5.245805327
485.70800,5.856194142
485.70850,2.19386125
485.70900,-2.078860458
485.70950,-4.215221312
485.71000,-4.215221312
485.71050,-3.299638089
485.71100,-2.384054866
485.71150,-2.994443681
485.71200,-4.825610128
485.71250,-7.267165389
485.71300,-8.182748612
485.71350,-6.351582166
485.71400,-3.299638089
485.71450,-0.8580828275
485.71500,0.05750039565
485.71550,0.3626948034
485.71600,0.9730836188
485.71650,2.804250065
485.71700,3.719833288
485.71750,1.888666842
485.71800,-1.468471643
485.71850,-3.604832497
485.71900,-2.384054866
485.71950,-0.247694012
485.72000,0.05750039565
485.72050,-1.163277235
485.72100,-1.468471643
485.72150,-1.163277235
485.72200,-1.163277235
485.72250,-0.8580828275
485.72300,0.05750039565
485.72350,1.583472434
485.72400,3.719833288
485.72450,4.025027696
485.72500,3.109444473
485.72550,1.583472434
485.72600,0.9730836188
485.72650,1.278278026
485.72700,1.583472434
485.72750,1.583472434
485.72800,2.19386125
485.72850,3.41463888
485.72900,4.635416511
485.72950,5.550999734
485.73000,5.856194142
485.73050,5.856194142
485.73100,4.635416511
485.73150,2.499055657
485.73200,2.804250065
485.73250,5.856194142
485.73300,8.908138219
485.73350,7.992554996
485.73400,4.330222103
485.73450,1.583472434
485.73500,1.278278026
485.73550,0.3626948034
485.73600,-1.468471643
485.73650,-2.689249274
485.73700,-0.247694012
485.73750,2.804250065
485.73800,3.109444473
485.73850,0.9730836188
485.73900,-1.773666051
485.73950,-2.994443681
485.74000,-3.910026904
485.74050,-5.435998943
485.74100,-6.961970981
485.74150,-7.267165389
485.74200,-5.435998943
485.74250,-1.468471643
485.74300,1.888666842
485.74350,4.025027696
485.74400,4.635416511
485.74450,4.940610919
485.74500,5.856194142
485.74550,6.771777365
485.74600,7.076971773
485.74650,6.466582957
485.74700,4.635416511
485.74750,1.888666842
485.74800,-0.247694012
485.74850,-0.247694012
485.74900,0.9730836188
485.74950,0.6678892111
485.75000,-1.163277235
485.75050,-3.299638089
485.75100,-2.994443681
485.75150,-0.5528884197
485.75200,0.6678892111
485.75250,0.6678892111
485.75300,0.3626948034
485.75350,0.6678892111
485.75400,1.583472434
485.75450,1.888666842
485.75500,0.3626948034
485.75550,-2.078860458
485.75600,-4.825610128
485.75650,-6.046387758
485.75700,-4.52041572
485.75750,-2.384054866
485.75800,-2.384054866
485.75850,-4.215221312
485.75900,-5.741193351
485.75950,-5.130804535
485.76000,-2.994443681
485.76050,-1.468471643
485.76100,-0.8580828275
485.76150,0.05750039565
485.76200,1.583472434
485.76250,3.719833288
485.76300,5.245805327
485.76350,6.771777365
485.76400,7.687360588
485.76450,7.992554996
485.76500,7.992554996
485.76550,7.076971773
485.76600,3.719833288
485.76650,-1.773666051
485.76700,-7.572359797
485.76750,-13.06585914
485.76800,-18.55935847
485.76850,-23.13727459
485.76900,-21.61130255
485.76950,-9.708720651
485.77000,10.73930467
485.77050,30.57694117
485.77100,39.12238458
485.77150,33.62888524
485.77200,21.11591453
485.77250,11.65488789
485.77300,10.43411026
485.77350,13.48605433
485.77400,14.40163756
485.77450,10.43411026
485.77500,4.330222103
485.77550,-2.078860458
485.77600,-8.793137428
485.77650,-14.28663677
485.77700,-15.5074144
485.77750,-12.45547032
485.77800,-9.708720651
485.77850,-8.182748612
485.77900,-6.351582166
485.77950,-3.299638089
485.78000,-1.468471643
485.78050,-2.078860458
485.78100,-1.163277235
485.78150,3.719833288
485.78200,10.43411026
485.78250,13.48605433
485.78300,13.48605433
485.78350,15.31722078
485.78400,17.14838723
485.78450,11.65488789
485.78500,-2.078860458
485.78550,-16.42299762
485.78600,-20.69571933
485.78650,-14.59183117
485.78700,-6.961970981
485.78750,-6.046387758
485.78800,-10.31910947
485.78850,-13.98144236
485.78900,-13.06585914
485.78950,-9.098331835
485.79000,-5.130804535
485.79050,-2.994443681
485.79100,-2.689249274
485.79150,-3.604832497
485.79200,-5.435998943
485.79250,-8.793137428
485.79300,-14.59183117
485.79350,-21.00091374
485.79400,-24.66324663
485.79450,-24.35805222
485.79500,-23.13727459
485.79550,-26.49441307
485.79600,-32.29310682
485.79650,-32.59830123
485.79700,-22.22169137
485.79750,-3.910026904
485.79800,14.40163756
485.79850,29.05096913
485.79900,39.12238458
485.79950,44.0054951
485.80000,42.17432866
485.80050,34.23927406
485.80100,24.1678586
485.80150,15.01202637
485.80200,8.908138219
485.80250,7.076971773
485.80300,9.823721442
485.80350,12.87566552
485.80400,11.9600823
485.80450,7.076971773
485.80500,2.499055657
485.80550,0.6678892111
485.80600,0.05750039565
485.80650,-0.5528884197
485.80700,-0.5528884197
485.80750,0.05750039565
485.80800,-0.247694012
485.80850,-2.689249274
485.80900,-3.910026904
485.80950,-3.299638089
485.81000,-3.604832497
485.81050,-6.351582166
485.81100,-8.48794302
485.81150,-6.656776574
485.81200,-1.773666051
485.81250,1.583472434
485.81300,2.19386125
485.81350,1.278278026
485.81400,-0.5528884197
485.81450,-3.604832497
485.81500,-5.741193351
485.81550,-3.604832497
485.81600,1.583472434
485.81650,6.16138855
485.81700,6.466582957
485.81750,4.330222103
485.81800,1.888666842
485.81850,0.05750039565
485.81900,-3.299638089
485.81950,-6.961970981
485.82000,-8.182748612
485.82050,-6.351582166
485.82100,-4.825610128
485.82150,-4.52041572
485.82200,-4.52041572
485.82250,-2.384054866
485.82300,-0.247694012
485.82350,-0.247694012
485.82400,0.9730836188
485.82450,7.687360588
485.82500,18.67435927
485.82550,27.21980268
485.82600,30.88213557
485.82650,30.57694117
485.82700,25.69383064
485.82750,14.09644315
485.82800,-1.773666051
485.82850,-13.98144236
485.82900,-17.03338644
485.82950,-15.5074144
485.83000,-16.11780321
485.83050,-18.25416407
485.83100,-17.03338644
485.83150,-12.15027591
485.83200,-8.793137428
485.83250,-8.48794302
485.83300,-8.793137428
485.83350,-7.877554205
485.83400,-6.351582166
485.83450,-4.825610128
485.83500,-2.689249274
485.83550,-0.5528884197
485.83600,-0.5528884197
485.83650,-2.689249274
485.83700,-3.910026904
485.83750,-1.773666051
485.83800,0.3626948034
485.83850,0.05750039565
485.83900,-1.773666051
485.83950,-3.299638089
485.84000,-2.994443681
485.84050,-2.078860458
485.84100,-1.163277235
485.84150,-0.5528884197
485.84200,-3.910026904
485.84250,-12.76066473
485.84300,-20.39052492
485.84350,-17.64377525
485.84400,-5.130804535
485.84450,4.025027696
485.84500,4.330222103
485.84550,9.213332627
485.84600,31.7977188
485.84650,61.70677075
485.84700,71.4729918
485.84750,51.6353553
485.84800,21.42110893
485.84850,4.025027696
485.84900,0.6678892111
485.84950,-0.5528884197
485.85000,-5.435998943
485.85050,-9.708720651
485.85100,-13.98144236
485.85150,-21.61130255
485.85200,-31.3775236
485.85250,-35.3450509
485.85300,-31.68271801
485.85350,-24.35805222
485.85400,-18.25416407
485.85450,-13.06585914
485.85500,-8.793137428
485.85550,-8.182748612
485.85600,-10.62430387
485.85650,-11.5398871
485.85700,-8.182748612
485.85750,-2.689249274
485.85800,0.3626948034
485.85850,0.05750039565
485.85900,-3.604832497
485.85950,-10.31910947
485.86000,-15.20221999
485.86050,-14.59183117
485.86100,-8.48794302
485.86150,-2.384054866
485.86200,0.05750039565
485.86250,0.3626948034
485.86300,2.19386125
485.86350,4.330222103
485.86400,3.719833288
485.86450,0.05750039565
485.86500,-2.994443681
485.86550,-3.910026904
485.86600,-2.994443681
485.86650,-1.773666051
485.86700,-1.468471643
485.86750,-1.468471643
485.86800,-1.468471643
485.86850,-0.5528884197
485.86900,2.499055657
485.86950,7.076971773
485.87000,10.43411026
485.87050,10.73930467
485.87100,8.297749404
485.87150,4.940610919
485.87200,1.888666842
485.87250,0.05750039565
485.87300,0.05750039565
485.87350,0.3626948034
485.87400,0.6678892111
485.87450,0.3626948034
485.87500,0.05750039565
485.87550,0.05750039565
485.87600,-0.8580828275
485.87650,-2.384054866
485.87700,-2.994443681
485.87750,-0.8580828275
485.87800,0.6678892111
485.87850,0.05750039565
485.87900,-2.994443681
485.87950,-5.741193351
485.88000,-6.656776574
485.88050,-5.435998943
485.88100,-3.299638089
485.88150,-0.5528884197
485.88200,1.888666842
485.88250,3.719833288
485.88300,4.330222103
485.88350,4.940610919
485.88400,5.856194142
485.88450,7.076971773
485.88500,7.38216618
485.88550,5.856194142
485.88600,4.330222103
485.88650,4.025027696
485.88700,4.330222103
485.88750,4.635416511
485.88800,4.330222103
485.88850,3.41463888
485.88900,3.109444473
485.88950,3.719833288
485.89000,4.635416511
485.89050,4.940610919
485.89100,5.245805327
485.89150,5.550999734
485.89200,4.635416511
485.89250,0.05750039565
485.89300,-6.656776574
485.89350,-11.23469269
485.89400,-10.01391506
485.89450,-7.877554205
485.89500,-9.098331835
485.89550,-8.793137428
485.89600,2.19386125
485.89650,24.47305301
485.89700,42.17432866
485.89750,42.17432866
485.89800,29.05096913
485.89850,18.06397045
485.89900,17.14838723
485.89950,21.11591453
485.90000,20.81072012
485.90050,14.09644315
485.90100,4.635416511
485.90150,-4.825610128
485.90200,-11.5398871
485.90250,-12.45547032
485.90300,-7.877554205
485.90350,-1.773666051
485.90400,0.6678892111
485.90450,0.05750039565
485.90500,-1.773666051
485.90550,-1.773666051
485.90600,0.05750039565
485.90650,4.025027696
485.90700,8.602943811
485.90750,12.2652767
485.90800,12.87566552
485.90850,10.12891585
485.90900,6.771777365
485.90950,4.635416511
485.91000,3.719833288
485.91050,2.19386125
485.91100,-1.468471643
485.91150,-6.961970981
485.91200,-12.76066473
485.91250,-16.72819203
485.91300,-17.94896966
485.91350,-17.94896966
485.91400,-17.33858084
485.91450,-15.5074144
485.91500,-11.23469269
485.91550,-6.046387758
485.91600,-2.078860458
485.91650,0.3626948034
485.91700,3.719833288
485.91750,7.076971773
485.91800,6.466582957
485.91850,1.278278026
485.91900,-3.604832497
485.91950,-5.130804535
485.92000,-4.52041572
485.92050,-4.52041572
485.92100,-5.435998943
485.92150,-5.130804535
485.92200,-3.299638089
485.92250,-2.078860458
485.92300,-2.384054866
485.92350,-2.078860458
485.92400,0.9730836188
485.92450,6.466582957
485.92500,11.34969348
485.92550,12.2652767
485.92600,8.908138219
485.92650,4.940610919
485.92700,3.719833288
485.92750,3.41463888
485.92800,0.6678892111
485.92850,-4.215221312
485.92900,-7.267165389
485.92950,-4.825610128
485.93000,-0.247694012
485.93050,1.278278026
485.93100,0.9730836188
485.93150,0.3626948034
485.93200,-0.8580828275
485.93250,-5.130804535
485.93300,-9.098331835
485.93350,-8.793137428
485.93400,-3.604832497
485.93450,0.9730836188
485.93500,0.3626948034
485.93550,-5.130804535
485.93600,-12.45547032
485.93650,-16.11780321
485.93700,-13.37105354
485.93750,-7.877554205
485.93800,-6.656776574
485.93850,-10.62430387
485.93900,-13.67624795
485.93950,-8.793137428
485.94000,1.583472434
485.94050,10.12891585
485.94100,11.34969348
485.94150,8.297749404
485.94200,5.550999734
485.94250,5.856194142
485.94300,8.297749404
485.94350,7.687360588
485.94400,1.888666842
485.94450,-5.435998943
485.94500,-7.877554205
485.94550,-3.910026904
485.94600,0.3626948034
485.94650,1.278278026
485.94700,0.6678892111
485.94750,0.6678892111
485.94800,0.3626948034
485.94850,-2.689249274
485.94900,-8.48794302
485.94950,-13.37105354
485.95000,-16.42299762
485.95050,-17.03338644
485.95100,-15.20221999
485.95150,-14.28663677
485.95200,-17.33858084
485.95250,-19.4749417
485.95300,-11.5398871
485.95350,5.856194142
485.95400,21.72630334
485.95450,27.8301915
485.95500,28.44058031
485.95550,28.74577472
485.95600,24.77824742
485.95650,13.48605433
485.95700,2.499055657
485.95750,0.05750039565
485.95800,1.888666842
485.95850,1.278278026
485.95900,2.19386125
485.95950,10.73930467
485.96000,22.33669216
485.96050,25.99902505
485.96100,22.33669216
485.96150,19.28474808
485.96200,18.06397045
485.96250,14.09644315
485.96300,9.823721442
485.96350,12.87566552
485.96400,18.06397045
485.96450,11.9600823
485.96500,-6.961970981
485.96550,-22.83208018
485.96600,-22.52688577
485.96650,-13.98144236
485.96700,-9.708720651
485.96750,-10.01391506
485.96800,-8.182748612
485.96850,-6.046387758
485.96900,-11.23469269
485.96950,-21.61130255
485.97000,-27.10480189
485.97050,-21.91649696
485.97100,-10.01391506
485.97150,2.19386125
485.97200,12.57047111
485.97250,18.36916486
485.97300,18.67435927
485.97350,14.40163756
485.97400,10.43411026
485.97450,7.992554996
485.97500,5.245805327
485.97550,1.278278026
485.97600,-2.994443681
485.97650,-6.046387758
485.97700,-7.267165389
485.97750,-6.656776574
485.97800,-3.604832497
485.97850,0.05750039565
485.97900,1.888666842
485.97950,0.6678892111
485.98000,-1.773666051
485.98050,-3.604832497
485.98100,-4.215221312
485.98150,-3.299638089
485.98200,-2.994443681
485.98250,-3.604832497
485.98300,-5.130804535
485.98350,-4.825610128
485.98400,-2.689249274
485.98450,-1.468471643
485.98500,-2.689249274
485.98550,-4.215221312
485.98600,-2.994443681
485.98650,-0.8580828275
485.98700,-1.468471643
485.98750,-4.52041572
485.98800,-6.046387758
485.98850,-3.299638089
485.98900,0.05750039565
485.98950,-0.247694012
485.99000,-5.741193351
485.99050,-11.8450815
485.99100,-14.28663677
485.99150,-12.15027591
485.99200,-7.572359797
485.99250,-3.299638089
485.99300,-1.468471643
485.99350,-1.163277235
485.99400,-2.384054866
485.99450,-5.435998943
485.99500,-9.708720651
485.99550,-13.06585914
485.99600,-12.76066473
485.99650,-8.793137428
485.99700,-3.604832497
485.99750,0.05750039565
485.99800,1.583472434
485.99850,1.278278026
485.99900,0.3626948034
485.99950,0.6678892111
486.00000,1.583472434
486.00050,1.583472434
486.00100,1.888666842
486.00150,4.025027696
486.00200,6.771777365
486.00250,6.771777365
486.00300,2.804250065
486.00350,-2.078860458
486.00400,-6.656776574
486.00450,-10.62430387
486.00500,-12.45547032
486.00550,-10.31910947
486.00600,-7.572359797
486.00650,-9.403526243
486.00700,-10.92949828
486.00750,-0.8580828275
486.00800,21.42110893
486.00850,39.12238458
486.00900,35.7652461
486.00950,18.67435927
486.01000,6.466582957
486.01050,6.771777365
486.01100,9.823721442
486.01150,7.38216618
486.01200,1.583472434
486.01250,-2.689249274
486.01300,-4.825610128
486.01350,-4.52041572
486.01400,-1.163277235
486.01450,3.719833288
486.01500,7.38216618
486.01550,9.518527034
486.01600,11.34969348
486.01650,12.57047111
486.01700,11.04449907
486.01750,7.992554996
486.01800,7.076971773
486.01850,8.602943811
486.01900,10.73930467
486.01950,12.57047111
486.02000,14.40163756
486.02050,14.09644315
486.02100,8.297749404
486.02150,-0.247694012
486.02200,-4.52041572
486.02250,-1.773666051
486.02300,1.278278026
486.02350,-3.604832497
486.02400,-17.64377525
486.02450,-32.29310682
486.02500,-40.22816142
486.02550,-42.05932787
486.02600,-43.2801055
486.02650,-43.89049431
486.02700,-35.95543971
486.02750,-14.28663677
486.02800,11.34969348
486.02850,25.38863623
486.02900,21.42110893
486.02950,8.602943811
486.03000,0.6678892111
486.03050,1.583472434
486.03100,6.466582957
486.03150,8.908138219
486.03200,6.771777365
486.03250,1.888666842
486.03300,-3.299638089
486.03350,-5.741193351
486.03400,-5.130804535
486.03450,-3.604832497
486.03500,-1.773666051
486.03550,-0.247694012
486.03600,0.9730836188
486.03650,1.278278026
486.03700,0.9730836188
486.03750,2.499055657
486.03800,7.076971773
486.03850,13.18085993
486.03900,17.14838723
486.03950,17.45358163
486.04000,15.31722078
486.04050,12.57047111
486.04100,11.65488789
486.04150,10.73930467
486.04200,7.687360588
486.04250,1.888666842
486.04300,-2.994443681
486.04350,-5.435998943
486.04400,-6.656776574
486.04450,-8.182748612
486.04500,-7.267165389
486.04550,-2.384054866
486.04600,1.278278026
486.04650,-0.5528884197
486.04700,-6.656776574
486.04750,-8.793137428
486.04800,-6.351582166
486.04850,-4.215221312
486.04900,-3.604832497
486.04950,-1.163277235
486.05000,4.025027696
486.05050,6.466582957
486.05100,0.6678892111
486.05150,-8.793137428
486.05200,-14.28663677
486.05250,-13.98144236
486.05300,-11.23469269
486.05350,-9.098331835
486.05400,-6.656776574
486.05450,-3.604832497
486.05500,-0.8580828275
486.05550,0.05750039565
486.05600,0.3626948034
486.05650,2.804250065
486.05700,7.076971773
486.05750,11.04449907
486.05800,10.73930467
486.05850,6.771777365
486.05900,3.41463888
486.05950,5.245805327
486.06000,10.43411026
486.06050,12.2652767
486.06100,8.602943811
486.06150,3.109444473
486.06200,0.9730836188
486.06250,1.888666842
486.06300,2.804250065
486.06350,1.583472434
486.06400,0.05750039565
486.06450,0.05750039565
486.06500,0.05750039565
486.06550,-0.8580828275
486.06600,-1.773666051
486.06650,-1.163277235
486.06700,-0.8580828275
486.06750,-0.5528884197
486.06800,0.05750039565
486.06850,2.804250065
486.06900,3.41463888
486.06950,0.6678892111
486.07000,-2.078860458
486.07050,-0.5528884197
486.07100,4.330222103
486.07150,6.466582957
486.07200,2.804250065
486.07250,-1.773666051
486.07300,-2.384054866
486.07350,0.05750039565
486.07400,0.05750039565
486.07450,-2.384054866
486.07500,-4.52041572
486.07550,-3.299638089
486.07600,0.05750039565
486.07650,2.19386125
486.07700,3.109444473
486.07750,3.41463888
486.07800,3.719833288
486.07850,3.719833288
486.07900,2.804250065
486.07950,0.9730836188
486.08000,-0.8580828275
486.08050,-0.5528884197
486.08100,1.888666842
486.08150,4.635416511
486.08200,4.025027696
486.08250,0.9730836188
486.08300,-1.163277235
486.08350,-0.8580828275
486.08400,1.278278026
486.08450,5.245805327
486.08500,8.602943811
486.08550,9.823721442
486.08600,9.213332627
486.08650,8.297749404
486.08700,8.602943811
486.08750,8.602943811
486.08800,6.771777365
486.08850,4.025027696
486.08900,2.804250065
486.08950,2.499055657
486.09000,2.19386125
486.09050,1.583472434
486.09100,1.278278026
486.09150,0.05750039565
486.09200,-2.078860458
486.09250,-2.994443681
486.09300,-2.078860458
486.09350,-1.468471643
486.09400,-2.384054866
486.09450,-2.994443681
486.09500,-1.773666051
486.09550,-0.5528884197
486.09600,-2.078860458
486.09650,-3.299638089
486.09700,-2.384054866
486.09750,-2.384054866
486.09800,-7.572359797
486.09850,-14.89702558
486.09900,-17.64377525
486.09950,-17.03338644
486.10000,-18.25416407
486.10050,-20.69571933
486.10100,-19.7801361
486.10150,-17.64377525
486.10200,-17.64377525
486.10250,-15.20221999
486.10300,-0.8580828275
486.10350,22.64188657
486.10400,39.42757899
486.10450,40.64835662
486.10500,35.15485728
486.10550,33.62888524
486.10600,33.32369084
486.10650,26.60941387
486.10700,17.14838723
486.10750,12.57047111
486.10800,11.9600823
486.10850,9.213332627
486.10900,4.635416511
486.10950,3.719833288
486.11000,4.940610919
486.11050,4.025027696
486.11100,1.583472434
486.11150,2.804250065
486.11200,4.025027696
486.11250,-2.689249274
486.11300,-16.11780321
486.11350,-23.13727459
486.11400,-17.94896966
486.11450,-8.793137428
486.11500,-6.046387758
486.11550,-9.708720651
486.11600,-14.59183117
486.11650,-20.39052492
486.11700,-27.10480189
486.11750,-29.24116274
486.11800,-21.91649696
486.11850,-7.877554205
486.11900,3.719833288
486.11950,7.687360588
486.12000,5.550999734
486.12050,2.19386125
486.12100,0.05750039565
486.12150,0.6678892111
486.12200,3.41463888
486.12250,5.550999734
486.12300,5.550999734
486.12350,2.804250065
486.12400,0.05750039565
486.12450,-2.078860458
486.12500,-5.435998943
486.12550,-8.48794302
486.12600,-8.793137428
486.12650,-5.435998943
486.12700,-3.299638089
486.12750,-5.741193351
486.12800,-9.098331835
486.12850,-7.572359797
486.12900,-0.5528884197
486.12950,4.635416511
486.13000,4.330222103
486.13050,0.9730836188
486.13100,-1.163277235
486.13150,-2.994443681
486.13200,-5.741193351
486.13250,-6.961970981
486.13300,-2.689249274
486.13350,3.719833288
486.13400,6.771777365
486.13450,4.025027696
486.13500,0.6678892111
486.13550,0.9730836188
486.13600,4.330222103
486.13650,6.16138855
486.13700,5.856194142
486.13750,4.635416511
486.13800,3.109444473
486.13850,0.9730836188
486.13900,-0.247694012
486.13950,-1.468471643
486.14000,-3.299638089
486.14050,-7.267165389
486.14100,-11.5398871
486.14150,-13.37105354
486.14200,-12.76066473
486.14250,-12.76066473
486.14300,-13.06585914
486.14350,-12.45547032
486.14400,-10.92949828
486.14450,-8.793137428
486.14500,-6.351582166
486.14550,-2.994443681
486.14600,0.05750039565
486.14650,1.583472434
486.14700,0.3626948034
486.14750,-0.8580828275
486.14800,-1.163277235
486.14850,0.05750039565
486.14900,1.583472434
486.14950,4.330222103
486.15000,5.245805327
486.15050,2.804250065
486.15100,0.6678892111
486.15150,3.719833288
486.15200,9.213332627
486.15250,10.43411026
486.15300,5.550999734
486.15350,0.05750039565
486.15400,-0.8580828275
486.15450,0.05750039565
486.15500,0.05750039565
486.15550,0.05750039565
486.15600,1.583472434
486.15650,3.109444473
486.15700,3.719833288
486.15750,6.771777365
486.15800,11.9600823
486.15850,11.65488789
486.15900,-0.5528884197
486.15950,-19.4749417
486.16000,-31.07232919
486.16050,-28.02038511
486.16100,-16.11780321
486.16150,-5.435998943
486.16200,-0.8580828275
486.16250,1.583472434
486.16300,9.518527034
486.16350,23.8626642
486.16400,36.0704405
486.16450,31.7977188
486.16500,7.38216618
486.16550,-23.74766341
486.16600,-42.66971668
486.16650,-41.44893905
486.16700,-30.15674597
486.16750,-21.91649696
486.16800,-16.42299762
486.16850,-2.078860458
486.16900,21.72630334
486.16950,40.34316221
486.17000,38.51199577
486.17050,21.72630334
486.17100,11.04449907
486.17150,17.45358163
486.17200,31.18732998
486.17250,37.59641254
486.17300,35.46005169
486.17350,31.7977188
486.17400,28.74577472
486.17450,23.8626642
486.17500,16.232804
486.17550,8.602943811
486.17600,-0.5528884197
486.17650,-13.67624795
486.17700,-27.4099963
486.17750,-34.12427327
486.17800,-32.29310682
486.17850,-27.4099963
486.17900,-23.442469
486.17950,-19.7801361
486.18000,-14.28663677
486.18050,-8.48794302
486.18100,-5.741193351
486.18150,-7.572359797
486.18200,-12.15027591
486.18250,-15.5074144
486.18300,-13.37105354
486.18350,-5.741193351
486.18400,2.804250065
486.18450,10.43411026
486.18500,16.53799841
486.18550,20.50552571
486.18600,21.11591453
486.18650,18.36916486
486.18700,15.9276096
486.18750,13.79124874
486.18800,7.687360588
486.18850,-3.299638089
486.18900,-13.06585914
486.18950,-15.8126088
486.19000,-15.5074144
486.19050,-18.55935847
486.19100,-22.83208018
486.19150,-21.61130255
486.19200,-14.59183117
486.19250,-8.182748612
486.19300,-6.961970981
486.19350,-7.267165389
486.19400,-6.351582166
486.19450,-4.825610128
486.19500,-5.130804535
486.19550,-5.741193351
486.19600,-4.215221312
486.19650,-1.773666051
486.19700,-0.5528884197
486.19750,-0.5528884197
486.19800,0.05750039565
486.19850,2.19386125
486.19900,5.245805327
486.19950,6.466582957
486.20000,5.245805327
486.20050,4.025027696
486.20100,4.025027696
486.20150,4.025027696
486.20200,2.499055657
486.20250,0.05750039565
486.20300,-0.8580828275
486.20350,-0.8580828275
486.20400,-0.247694012
486.20450,1.583472434
486.20500,5.550999734
486.20550,9.213332627
486.20600,7.992554996
486.20650,2.19386125
486.20700,-2.994443681
486.20750,-4.825610128
486.20800,-4.825610128
486.20850,-5.741193351
486.20900,-7.877554205
486.20950,-11.8450815
486.21000,-15.20221999
486.21050,-12.15027591
486.21100,3.109444473
486.21150,25.99902505
486.21200,42.78471747
486.21250,45.53146714
486.21300,40.64835662
486.21350,35.46005169
486.21400,30.57694117
486.21450,23.8626642
486.21500,16.232804
486.21550,11.34969348
486.21600,7.687360588
486.21650,2.499055657
486.21700,-2.078860458
486.21750,-2.078860458
486.21800,0.6678892111
486.21850,1.583472434
486.21900,-0.247694012
486.21950,-2.689249274
486.22000,-2.994443681
486.22050,-2.384054866
486.22100,-2.078860458
486.22150,-1.773666051
486.22200,-0.247694012
486.22250,1.278278026
486.22300,1.278278026
486.22350,-2.689249274
486.22400,-10.92949828
486.22450,-17.64377525
486.22500,-16.42299762
486.22550,-6.656776574
486.22600,3.719833288
486.22650,7.38216618
486.22700,3.109444473
486.22750,-2.078860458
486.22800,-4.825610128
486.22850,-4.215221312
486.22900,-2.689249274
486.22950,-0.5528884197
486.23000,0.3626948034
486.23050,0.6678892111
486.23100,0.6678892111
486.23150,1.278278026
486.23200,0.6678892111
486.23250,-0.8580828275
486.23300,-3.299638089
486.23350,-2.994443681
486.23400,-0.8580828275
486.23450,0.05750039565
486.23500,0.3626948034
486.23550,1.278278026
486.23600,3.41463888
486.23650,4.635416511
486.23700,2.19386125
486.23750,-2.994443681
486.23800,-6.961970981
486.23850,-7.572359797
486.23900,-5.741193351
486.23950,-4.52041572
486.24000,-4.215221312
486.24050,-2.689249274
486.24100,0.05750039565
486.24150,2.19386125
486.24200,2.19386125
486.24250,1.583472434
486.24300,1.278278026
486.24350,0.6678892111
486.24400,-0.8580828275
486.24450,-1.773666051
486.24500,-0.247694012
486.24550,2.499055657
486.24600,3.719833288
486.24650,1.888666842
486.24700,-0.5528884197
486.24750,-1.773666051
486.24800,-2.689249274
486.24850,-4.215221312
486.24900,-5.741193351
486.24950,-6.351582166
486.25000,-6.351582166
486.25050,-6.351582166
486.25100,-6.046387758
486.25150,-5.435998943
486.25200,-4.52041572
486.25250,-3.910026904
486.25300,-3.299638089
486.25350,-1.163277235
486.25400,1.888666842
486.25450,4.940610919
486.25500,6.16138855
486.25550,4.940610919
486.25600,2.19386125
486.25650,0.3626948034
486.25700,0.3626948034
486.25750,1.278278026
486.25800,2.19386125
486.25850,2.804250065
486.25900,3.109444473
486.25950,1.888666842
486.26000,-0.8580828275
486.26050,-4.215221312
486.26100,-6.961970981
486.26150,-8.793137428
486.26200,-9.403526243
486.26250,-8.793137428
486.26300,-6.046387758
486.26350,-3.604832497
486.26400,-2.078860458
486.26450,-0.247694012
486.26500,2.19386125
486.26550,4.940610919
486.26600,5.245805327
486.26650,2.19386125
486.26700,-1.773666051
486.26750,-4.215221312
486.26800,-3.299638089
486.26850,0.05750039565
486.26900,1.888666842
486.26950,1.278278026
486.27000,1.888666842
486.27050,6.771777365
486.27100,13.18085993
486.27150,15.62241519
486.27200,12.57047111
486.27250,7.38216618
486.27300,3.41463888
486.27350,-0.247694012
486.27400,-5.435998943
486.27450,-11.5398871
486.27500,-18.55935847
486.27550,-25.57882985
486.27600,-29.24116274
486.27650,-25.27363544
486.27700,-17.94896966
486.27750,-13.98144236
486.27800,-13.06585914
486.27850,-3.910026904
486.27900,18.36916486
486.27950,43.08991188
486.28000,54.07691056
486.28050,47.667828
486.28100,34.23927406
486.28150,22.03149775
486.28200,13.48605433
486.28250,8.602943811
486.28300,6.16138855
486.28350,4.025027696
486.28400,0.9730836188
486.28450,-1.468471643
486.28500,-2.078860458
486.28550,-0.5528884197
486.28600,0.9730836188
486.28650,2.19386125
486.28700,3.41463888
486.28750,3.41463888
486.28800,2.804250065
486.28850,2.19386125
486.28900,0.9730836188
486.28950,-4.215221312
486.29000,-11.5398871
486.29050,-14.28663677
486.29100,-9.403526243
486.29150,-3.604832497
486.29200,-1.773666051
486.29250,-2.384054866
486.29300,-1.468471643
486.29350,-2.689249274
486.29400,-8.182748612
486.29450,-12.45547032
486.29500,-9.098331835
486.29550,-3.604832497
486.29600,-6.351582166
486.29650,-15.20221999
486.29700,-19.7801361
486.29750,-17.33858084
486.29800,-17.03338644
486.29850,-22.22169137
486.29900,-24.66324663
486.29950,-18.86455288
486.30000,-12.15027591
486.30050,-13.67624795
486.30100,-19.16974729
486.30150,-16.11780321
486.30200,-2.689249274
486.30250,9.823721442
486.30300,12.57047111
486.30350,7.076971773
486.30400,3.41463888
486.30450,9.518527034
486.30500,21.42110893
486.30550,28.74577472
486.30600,25.08344183
486.30650,15.62241519
486.30700,9.213332627
486.30750,8.297749404
486.30800,6.771777365
486.30850,3.41463888
486.30900,3.719833288
486.30950,11.04449907
486.31000,18.06397045
486.31050,17.14838723
486.31100,11.04449907
486.31150,7.687360588
486.31200,6.771777365
486.31250,2.19386125
486.31300,-5.130804535
486.31350,-9.403526243
486.31400,-8.793137428
486.31450,-12.15027591
486.31500,-22.52688577
486.31550,-32.29310682
486.31600,-32.29310682
486.31650,-24.35805222
486.31700,-17.33858084
486.31750,-13.98144236
486.31800,-11.8450815
486.31850,-8.48794302
486.31900,-5.435998943
486.31950,-3.604832497
486.32000,-1.773666051
486.32050,0.05750039565
486.32100,0.6678892111
486.32150,-0.5528884197
486.32200,-2.384054866
486.32250,-3.299638089
486.32300,-2.994443681
486.32350,-1.468471643
486.32400,0.05750039565
486.32450,0.9730836188
486.32500,0.05750039565
486.32550,-2.078860458
486.32600,-3.299638089
486.32650,-3.604832497
486.32700,-3.299638089
486.32750,-2.994443681
486.32800,-1.773666051
486.32850,-1.163277235
486.32900,-0.8580828275
486.32950,-0.5528884197
486.33000,0.05750039565
486.33050,-0.5528884197
486.33100,-2.994443681
486.33150,-3.299638089
486.33200,1.583472434
486.33250,8.297749404
486.33300,11.04449907
486.33350,9.518527034
486.33400,7.687360588
486.33450,7.38216618
486.33500,7.38216618
486.33550,7.076971773
486.33600,8.908138219
486.33650,11.34969348
486.33700,11.65488789
486.33750,8.908138219
486.33800,6.466582957
486.33850,5.856194142
486.33900,5.856194142
486.33950,5.245805327
486.34000,5.245805327
486.34050,5.550999734
486.34100,4.940610919
486.34150,4.025027696
486.34200,4.330222103
486.34250,5.245805327
486.34300,4.330222103
486.34350,3.109444473
486.34400,4.940610919
486.34450,8.297749404
486.34500,8.297749404
486.34550,5.245805327
486.34600,3.719833288
486.34650,5.550999734
486.34700,6.771777365
486.34750,2.804250065
486.34800,-1.468471643
486.34850,-1.773666051
486.34900,0.05750039565
486.34950,-0.5528884197
486.35000,-2.384054866
486.35050,-0.247694012
486.35100,5.856194142
486.35150,9.823721442
486.35200,7.076971773
486.35250,1.583472434
486.35300,-0.8580828275
486.35350,0.05750039565
486.35400,1.888666842
486.35450,3.719833288
486.35500,6.771777365
486.35550,10.73930467
486.35600,12.57047111
486.35650,11.04449907
486.35700,7.076971773
486.35750,3.109444473
486.35800,-1.773666051
486.35850,-10.31910947
486.35900,-19.16974729
486.35950,-21.61130255
486.36000,-13.67624795
486.36050,-1.773666051
486.36100,5.550999734
486.36150,6.466582957
486.36200,4.635416511
486.36250,1.888666842
486.36300,-0.8580828275
486.36350,-3.299638089
486.36400,-3.299638089
486.36450,-1.468471643
486.36500,-0.247694012
486.36550,0.6678892111
486.36600,3.41463888
486.36650,7.076971773
486.36700,7.076971773
486.36750,2.804250065
486.36800,-0.5528884197
486.36850,0.05750039565
486.36900,1.888666842
486.36950,1.278278026
486.37000,-1.468471643
486.37050,-3.910026904
486.37100,-4.215221312
486.37150,-2.689249274
486.37200,-0.247694012
486.37250,1.583472434
486.37300,1.278278026
486.37350,-0.8580828275
486.37400,-3.299638089
486.37450,-3.299638089
486.37500,-2.689249274
486.37550,-2.689249274
486.37600,-2.384054866
486.37650,-1.163277235
486.37700,-0.5528884197
486.37750,-2.078860458
486.37800,-4.825610128
486.37850,-6.351582166
486.37900,-5.130804535
486.37950,-2.994443681
486.38000,-1.468471643
486.38050,-1.163277235
486.38100,-1.773666051
486.38150,-2.384054866
486.38200,-1.773666051
486.38250,-1.163277235
486.38300,-0.247694012
486.38350,0.3626948034
486.38400,1.888666842
486.38450,3.719833288
486.38500,4.330222103
486.38550,3.41463888
486.38600,1.888666842
486.38650,0.3626948034
486.38700,-0.8580828275
486.38750,-3.604832497
486.38800,-6.046387758
486.38850,-6.046387758
486.38900,-2.994443681
486.38950,1.888666842
486.39000,6.466582957
486.39050,8.297749404
486.39100,7.38216618
486.39150,6.16138855
486.39200,4.940610919
486.39250,2.804250065
486.39300,-1.163277235
486.39350,-7.877554205
486.39400,-15.20221999
486.39450,-20.39052492
486.39500,-21.30610814
486.39550,-18.86455288
486.39600,-17.03338644
486.39650,-15.20221999
486.39700,-7.877554205
486.39750,9.213332627
486.39800,30.57694117
486.39850,42.78471747
486.39900,38.20680136
486.39950,20.81072012
486.40000,0.9730836188
486.40050,-12.45547032
486.40100,-16.42299762
486.40150,-11.8450815
486.40200,-5.130804535
486.40250,-2.078860458
486.40300,-1.468471643
486.40350,1.888666842
486.40400,8.908138219
486.40450,11.65488789
486.40500,6.16138855
486.40550,-0.247694012
486.40600,0.05750039565
486.40650,7.076971773
486.40700,11.9600823
486.40750,9.213332627
486.40800,1.278278026
486.40850,-6.046387758
486.40900,-10.31910947
486.40950,-10.31910947
486.41000,-7.267165389
486.41050,-5.435998943
486.41100,-7.877554205
486.41150,-11.8450815
486.41200,-11.5398871
486.41250,-7.572359797
486.41300,-6.961970981
486.41350,-13.67624795
486.41400,-21.00091374
486.41450,-21.91649696
486.41500,-18.55935847
486.41550,-17.33858084
486.41600,-17.33858084
486.41650,-14.28663677
486.41700,-10.62430387
486.41750,-11.5398871
486.41800,-14.89702558
486.41850,-12.76066473
486.41900,-7.572359797
486.41950,-5.741193351
486.42000,-4.825610128
486.42050,5.245805327
486.42100,23.8626642
486.42150,36.37563491
486.42200,34.23927406
486.42250,26.60941387
486.42300,25.08344183
486.42350,26.30421946
486.42400,22.64188657
486.42450,15.62241519
486.42500,11.34969348
486.42550,10.12891585
486.42600,8.297749404
486.42650,7.38216618
486.42700,9.518527034
486.42750,11.34969348
486.42800,9.213332627
486.42850,5.550999734
486.42900,5.856194142
486.42950,7.687360588
486.43000,6.16138855
486.43050,2.19386125
486.43100,0.6678892111
486.43150,0.05750039565
486.43200,-3.299638089
486.43250,-9.708720651
486.43300,-16.72819203
486.43350,-22.52688577
486.43400,-26.18921867
486.43450,-24.35805222
486.43500,-17.94896966
486.43550,-15.20221999
486.43600,-17.64377525
486.43650,-13.37105354
486.43700,5.856194142
486.43750,28.1353859
486.43800,32.40810761
486.43850,17.75877604
486.43900,4.940610919
486.43950,6.466582957
486.44000,14.70683197
486.44050,16.232804
486.44100,10.73930467
486.44150,5.856194142
486.44200,3.109444473
486.44250,-0.5528884197
486.44300,-5.130804535
486.44350,-6.351582166
486.44400,-5.130804535
486.44450,-5.130804535
486.44500,-6.351582166
486.44550,-6.046387758
486.44600,-3.604832497
486.44650,-2.078860458
486.44700,-2.078860458
486.44750,-1.468471643
486.44800,0.05750039565
486.44850,0.05750039565
486.44900,-1.773666051
486.44950,-2.689249274
486.45000,-0.5528884197
486.45050,2.499055657
486.45100,3.109444473
486.45150,0.05750039565
486.45200,-2.078860458
486.45250,-2.689249274
486.45300,-2.994443681
486.45350,-5.130804535
486.45400,-8.182748612
486.45450,-9.403526243
486.45500,-8.48794302
486.45550,-6.046387758
486.45600,-4.215221312
486.45650,-3.910026904
486.45700,-4.52041572
486.45750,-4.52041572
486.45800,-3.604832497
486.45850,-2.384054866
486.45900,-2.078860458
486.45950,-2.078860458
486.46000,-2.078860458
486.46050,-2.384054866
486.46100,-3.299638089
486.46150,-3.299638089
486.46200,-2.078860458
486.46250,-1.773666051
486.46300,-3.604832497
486.46350,-5.435998943
486.46400,-3.604832497
486.46450,2.499055657
486.46500,8.602943811
486.46550,11.04449907
486.46600,11.04449907
486.46650,11.34969348
486.46700,11.65488789
486.46750,10.12891585
486.46800,6.16138855
486.46850,-0.5528884197
486.46900,-8.48794302
486.46950,-14.28663677
486.47000,-15.20221999
486.47050,-11.8450815
486.47100,-7.877554205
486.47150,-5.741193351
486.47200,-5.435998943
486.47250,-4.825610128
486.47300,-2.384054866
486.47350,1.583472434
486.47400,6.466582957
486.47450,10.12891585
486.47500,9.213332627
486.47550,4.025027696
486.47600,-1.773666051
486.47650,-4.52041572
486.47700,-4.52041572
486.47750,-4.215221312
486.47800,-4.825610128
486.47850,-3.910026904
486.47900,-0.5528884197
486.47950,1.888666842
486.48000,1.278278026
486.48050,-1.468471643
486.48100,-2.689249274
486.48150,-1.773666051
486.48200,-1.773666051
486.48250,-2.994443681
486.48300,-1.773666051
486.48350,3.109444473
486.48400,7.687360588
486.48450,5.550999734
486.48500,-0.5528884197
486.48550,-5.435998943
486.48600,-5.435998943
486.48650,-3.604832497
486.48700,-1.468471643
486.48750,0.6678892111
486.48800,3.41463888
486.48850,5.550999734
486.48900,7.687360588
486.48950,12.2652767
486.49000,17.14838723
486.49050,17.14838723
486.49100,11.04449907
486.49150,4.330222103
486.49200,3.109444473
486.49250,5.856194142
486.49300,7.38216618
486.49350,5.245805327
486.49400,2.804250065
486.49450,3.109444473
486.49500,5.550999734
486.49550,5.245805327
486.49600,-0.247694012
486.49650,-7.877554205
486.49700,-10.31910947
486.49750,-5.741193351
486.49800,1.888666842
486.49850,6.771777365
486.49900,6.466582957
486.49950,3.719833288
486.50000,1.583472434
486.50050,0.05750039565
486.50100,-0.247694012
486.50150,0.05750039565
486.50200,0.9730836188
486.50250,0.9730836188
486.50300,0.9730836188
486.50350,3.41463888
486.50400,7.992554996
486.50450,10.73930467
486.50500,10.73930467
486.50550,9.518527034
486.50600,8.908138219
486.50650,6.466582957
486.50700,0.05750039565
486.50750,-7.267165389
486.50800,-10.92949828
486.50850,-9.403526243
486.50900,-6.351582166
486.50950,-4.52041572
486.51000,-4.52041572
486.51050,-6.046387758
486.51100,-7.877554205
486.51150,-6.046387758
486.51200,2.804250065
486.51250,15.9276096
486.51300,22.03149775
486.51350,14.70683197
486.51400,0.05750039565
486.51450,-9.708720651
486.51500,-9.403526243
486.51550,-5.130804535
486.51600,-4.215221312
486.51650,-2.384054866
486.51700,6.771777365
486.51750,22.03149775
486.51800,30.27174676
486.51850,22.03149775
486.51900,3.109444473
486.51950,-9.708720651
486.52000,-8.793137428
486.52050,0.05750039565
486.52100,2.499055657
486.52150,-4.825610128
486.52200,-16.72819203
486.52250,-24.05285781
486.52300,-24.05285781
486.52350,-17.33858084
486.52400,-6.656776574
486.52450,-0.247694012
486.52500,-8.48794302
486.52550,-29.54635715
486.52600,-47.2476328
486.52650,-47.85802161
486.52700,-35.3450509
486.52750,-23.442469
486.52800,-15.20221999
486.52850,-6.046387758
486.52900,-0.8580828275
486.52950,-10.92949828
486.53000,-30.46194037
486.53050,-37.17621734
486.53100,-21.00091374
486.53150,0.3626948034
486.53200,7.992554996
486.53250,5.856194142
486.53300,9.518527034
486.53350,19.58994249
486.53400,22.64188657
486.53450,12.2652767
486.53500,-0.8580828275
486.53550,-5.741193351
486.53600,1.278278026
486.53650,17.75877604
486.53700,37.59641254
486.53750,51.33016089
486.53800,50.10938326
486.53850,36.0704405
486.53900,19.58994249
486.53950,9.213332627
486.54000,3.719833288
486.54050,-0.247694012
486.54100,-4.215221312
486.54150,-6.656776574
486.54200,-6.961970981
486.54250,-6.961970981
486.54300,-6.351582166
486.54350,-5.435998943
486.54400,-3.910026904
486.54450,-2.384054866
486.54500,0.3626948034
486.54550,4.635416511
486.54600,8.908138219
486.54650,9.518527034
486.54700,5.550999734
486.54750,0.3626948034
486.54800,-1.773666051
486.54850,-1.468471643
486.54900,-0.8580828275
486.54950,-1.163277235
486.55000,-0.8580828275
486.55050,1.278278026
486.55100,4.330222103
486.55150,5.550999734
486.55200,3.41463888
486.55250,0.6678892111
486.55300,-0.8580828275
486.55350,-0.8580828275
486.55400,-0.247694012
486.55450,-0.8580828275
486.55500,-2.689249274
486.55550,-3.604832497
486.55600,-0.247694012
486.55650,4.940610919
486.55700,8.297749404
486.55750,5.550999734
486.55800,-4.825610128
486.55850,-18.25416407
486.55900,-25.88402426
486.55950,-22.22169137
486.56000,-13.37105354
486.56050,-10.01391506
486.56100,-12.76066473
486.56150,-6.351582166
486.56200,17.14838723
486.56250,42.47952307
486.56300,46.44705037
486.56350,28.44058031
486.56400,11.04449907
486.56450,10.43411026
486.56500,17.75877604
486.56550,16.53799841
486.56600,6.771777365
486.56650,0.3626948034
486.56700,1.278278026
486.56750,4.025027696
486.56800,3.719833288
486.56850,2.19386125
486.56900,1.888666842
486.56950,1.583472434
486.57000,0.3626948034
486.57050,-0.5528884197
486.57100,-0.5528884197
486.57150,0.05750039565
486.57200,0.05750039565
486.57250,0.05750039565
486.57300,0.05750039565
486.57350,-0.5528884197
486.57400,-1.773666051
486.57450,-2.689249274
486.57500,-3.604832497
486.57550,-4.825610128
486.57600,-5.130804535
486.57650,-3.299638089
486.57700,-0.8580828275
486.57750,0.3626948034
486.57800,-0.247694012
486.57850,-3.299638089
486.57900,-6.351582166
486.57950,-6.961970981
486.58000,-5.435998943
486.58050,-4.215221312
486.58100,-4.215221312
486.58150,-4.52041572
486.58200,-2.994443681
486.58250,-0.247694012
486.58300,0.6678892111
486.58350,0.3626948034
486.58400,0.6678892111
486.58450,1.888666842
486.58500,2.19386125
486.58550,0.05750039565
486.58600,-2.384054866
486.58650,-4.215221312
486.58700,-5.741193351
486.58750,-7.267165389
486.58800,-7.877554205
486.58850,-6.046387758
486.58900,-3.910026904
486.58950,-3.604832497
486.59000,-3.910026904
486.59050,-3.604832497
486.59100,-2.994443681
486.59150,-2.994443681
486.59200,-3.299638089
486.59250,-1.773666051
486.59300,0.3626948034
486.59350,1.888666842
486.59400,1.888666842
486.59450,1.583472434
486.59500,1.888666842
486.59550,2.804250065
486.59600,3.41463888
486.59650,3.41463888
486.59700,2.804250065
486.59750,1.278278026
486.59800,-0.5528884197
486.59850,-2.384054866
486.59900,-3.604832497
486.59950,-4.215221312
486.60000,-3.299638089
486.60050,-1.468471643
486.60100,0.05750039565
486.60150,-0.247694012
486.60200,-1.773666051
486.60250,-2.078860458
486.60300,-0.5528884197
486.60350,-0.247694012
486.60400,-2.689249274
486.60450,-5.741193351
486.60500,-5.741193351
486.60550,-2.384054866
486.60600,0.9730836188
486.60650,2.804250065
486.60700,3.109444473
486.60750,2.19386125
486.60800,0.05750039565
486.60850,-1.468471643
486.60900,-1.163277235
486.60950,0.9730836188
486.61000,3.719833288
486.61050,4.330222103
486.61100,2.804250065
486.61150,0.05750039565
486.61200,-2.689249274
486.61250,-4.52041572
486.61300,-4.215221312
486.61350,-2.384054866
486.61400,-1.773666051
486.61450,-2.689249274
486.61500,-3.910026904
486.61550,-4.825610128
486.61600,-6.351582166
486.61650,-7.572359797
486.61700,-6.351582166
486.61750,-3.910026904
486.61800,-3.910026904
