"type","name","time_units","begin_time","frequency","count","units"
"signal","Ultium EMG-BRACHIORAD. RT","s",527.96000,2000,22080,"uV"

"time","value"
527.96000,7.909888645
527.96050,10.35144391
527.96100,11.57222154
527.96150,11.57222154
527.96200,10.0462495
527.96250,8.215083052
527.96300,6.078722198
527.96350,5.163138975
527.96400,4.857944568
527.96450,3.637166937
527.96500,1.195611675
527.96550,-0.3303603634
527.96600,-0.3303603634
527.96650,0.8904172674
527.96700,1.806000491
527.96750,2.111194898
527.96800,1.195611675
527.96850,-0.9407491788
527.96900,-3.687498848
527.96950,-5.518665294
527.97000,-6.12905411
527.97050,-6.12905411
527.97100,-7.044637333
527.97150,-8.265414964
527.97200,-8.875803779
527.97250,-8.570609371
527.97300,-7.960220556
527.97350,-7.34983174
527.97400,-6.434248517
527.97450,-3.687498848
527.97500,-0.02516595566
527.97550,2.111194898
527.97600,2.416389306
527.97650,1.806000491
527.97700,1.806000491
527.97750,2.721583714
527.97800,3.331972529
527.97850,3.942361344
527.97900,4.55275016
527.97950,3.637166937
527.98000,1.500806083
527.98050,0.5852228597
527.98100,2.721583714
527.98150,6.994305421
527.98200,10.65663831
527.98250,13.40338798
527.98300,16.45533206
527.98350,17.9813041
527.98400,15.84494324
527.98450,10.65663831
527.98500,6.078722198
527.98550,3.637166937
527.98600,1.195611675
527.98650,-2.466721217
527.98700,-4.908276479
527.98750,-4.297887663
527.98800,-2.16152681
527.98850,-2.466721217
527.98900,-6.12905411
527.98950,-12.23294226
527.99000,-15.59008075
527.99050,-14.36930312
527.99100,-9.791387002
527.99150,-7.960220556
527.99200,-11.92774786
527.99250,-18.94721923
527.99300,-23.21994094
527.99350,-23.21994094
527.99400,-21.08358009
527.99450,-18.03163601
527.99500,-12.23294226
527.99550,-1.245943586
527.99600,12.18261035
527.99650,23.16960903
527.99700,26.52674751
527.99750,22.86441462
527.99800,17.37091528
527.99850,14.92936002
527.99900,15.53974884
527.99950,16.15013765
528.00000,14.62416561
528.00050,13.09819358
528.00100,14.92936002
528.00150,18.89688732
528.00200,19.81247054
528.00250,16.15013765
528.00300,10.0462495
528.00350,4.247555752
528.00400,-0.3303603634
528.00450,-3.687498848
528.00500,-2.466721217
528.00550,2.416389306
528.00600,8.52027746
528.00650,10.35144391
528.00700,7.604694237
528.00750,4.247555752
528.00800,1.195611675
528.00850,-3.687498848
528.00900,-13.14852549
528.00950,-25.05110739
528.01000,-33.5965508
528.01050,-35.12252284
528.01100,-30.54460673
528.01150,-25.05110739
528.01200,-22.30435772
528.01250,-21.38877449
528.01300,-18.94721923
528.01350,-14.97969193
528.01400,-11.62255345
528.01450,-9.180998187
528.01500,-6.739442925
528.01550,-3.38230444
528.01600,-0.6355547711
528.01650,0.280028452
528.01700,4.55275016
528.01750,14.62416561
528.01800,27.13713633
528.01850,34.15660771
528.01900,34.15660771
528.01950,31.40985804
528.02000,29.57869159
528.02050,26.83194192
528.02100,20.11766495
528.02150,11.57222154
528.02200,5.468333383
528.02250,4.247555752
528.02300,5.163138975
528.02350,6.078722198
528.02400,6.383916606
528.02450,6.383916606
528.02500,5.163138975
528.02550,3.331972529
528.02600,1.500806083
528.02650,1.195611675
528.02700,1.195611675
528.02750,-0.3303603634
528.02800,-3.992693256
528.02850,-7.34983174
528.02900,-9.486192594
528.02950,-11.31735904
528.03000,-13.14852549
528.03050,-14.06410871
528.03100,-13.45371989
528.03150,-12.84333108
528.03200,-14.06410871
528.03250,-16.81085838
528.03300,-18.64202483
528.03350,-17.7264416
528.03400,-15.59008075
528.03450,-13.45371989
528.03500,-11.62255345
528.03550,-9.791387002
528.03600,-7.960220556
528.03650,-7.044637333
528.03700,-6.434248517
528.03750,-5.823859702
528.03800,-4.908276479
528.03850,-3.077110033
528.03900,-0.02516595566
528.03950,3.637166937
528.04000,7.909888645
528.04050,10.96183272
528.04100,12.18261035
528.04150,12.79299917
528.04200,15.23455443
528.04250,20.11766495
528.04300,26.22155311
528.04350,29.57869159
528.04400,28.96830278
528.04450,27.13713633
528.04500,25.00077548
528.04550,20.72805377
528.04600,13.40338798
528.04650,7.299499829
528.04700,5.773527791
528.04750,7.299499829
528.04800,8.215083052
528.04850,6.383916606
528.04900,1.806000491
528.04950,-5.518665294
528.05000,-16.50566397
528.05050,-25.05110739
528.05100,-26.27188502
528.05150,-23.52513535
528.05200,-24.44071857
528.05250,-31.46018995
528.05300,-38.47966133
528.05350,-38.47966133
528.05400,-32.37577317
528.05450,-24.13552416
528.05500,-16.20046956
528.05550,-8.875803779
528.05600,-5.823859702
528.05650,-8.875803779
528.05700,-14.97969193
528.05750,-18.64202483
528.05800,-17.42124719
528.05850,-14.67449753
528.05900,-12.23294226
528.05950,-7.960220556
528.06000,-0.6355547711
528.06050,7.299499829
528.06100,13.09819358
528.06150,15.23455443
528.06200,15.23455443
528.06250,14.31897121
528.06300,11.87741594
528.06350,9.435860683
528.06400,8.215083052
528.06450,8.215083052
528.06500,7.604694237
528.06550,6.078722198
528.06600,5.163138975
528.06650,6.689111014
528.06700,8.52027746
528.06750,9.130666275
528.06800,7.909888645
528.06850,5.468333383
528.06900,2.416389306
528.06950,-0.3303603634
528.07000,-2.16152681
528.07050,-1.856332402
528.07100,-3.077110033
528.07150,-7.655026148
528.07200,-13.45371989
528.07250,-15.89527516
528.07300,-14.06410871
528.07350,-11.92774786
528.07400,-11.01216463
528.07450,-9.180998187
528.07500,-4.908276479
528.07550,-0.02516595566
528.07600,2.721583714
528.07650,4.55275016
528.07700,5.773527791
528.07750,6.078722198
528.07800,4.857944568
528.07850,4.247555752
528.07900,4.55275016
528.07950,6.078722198
528.08000,7.909888645
528.08050,10.96183272
528.08100,14.31897121
528.08150,14.92936002
528.08200,11.57222154
528.08250,7.909888645
528.08300,6.994305421
528.08350,7.909888645
528.08400,7.909888645
528.08450,7.299499829
528.08500,9.130666275
528.08550,11.87741594
528.08600,13.09819358
528.08650,11.87741594
528.08700,11.26702713
528.08750,13.09819358
528.08800,15.23455443
528.08850,14.92936002
528.08900,11.87741594
528.08950,7.299499829
528.09000,2.721583714
528.09050,-0.3303603634
528.09100,-2.771915625
528.09150,-3.992693256
528.09200,-5.518665294
528.09250,-8.875803779
528.09300,-14.06410871
528.09350,-19.25241364
528.09400,-20.77838568
528.09450,-17.42124719
528.09500,-11.01216463
528.09550,-5.213470887
528.09600,-2.771915625
528.09650,-3.38230444
528.09700,-4.297887663
528.09750,-4.297887663
528.09800,-3.992693256
528.09850,-3.687498848
528.09900,-3.077110033
528.09950,-0.9407491788
528.10000,4.247555752
528.10050,13.40338798
528.10100,23.77999785
528.10150,31.71505245
528.10200,32.93583008
528.10250,28.05271955
528.10300,21.64363699
528.10350,18.59169291
528.10400,19.20208173
528.10450,21.33844258
528.10500,23.16960903
528.10550,24.08519225
528.10600,22.86441462
528.10650,17.9813041
528.10700,11.26702713
528.10750,7.299499829
528.10800,6.994305421
528.10850,5.163138975
528.10900,-3.38230444
528.10950,-16.81085838
528.11000,-27.18746824
528.11050,-30.84980113
528.11100,-30.54460673
528.11150,-32.37577317
528.11200,-37.2588837
528.11250,-41.5316054
528.11300,-40.31082777
528.11350,-32.68096758
528.11400,-24.13552416
528.11450,-20.77838568
528.11500,-22.30435772
528.11550,-23.52513535
528.11600,-21.08358009
528.11650,-16.20046956
528.11700,-12.23294226
528.11750,-8.570609371
528.11800,-3.077110033
528.11850,4.247555752
528.11900,9.435860683
528.11950,10.65663831
528.12000,10.35144391
528.12050,11.87741594
528.12100,14.31897121
528.12150,16.45533206
528.12200,18.89688732
528.12250,21.9488314
528.12300,24.39038666
528.12350,23.47480344
528.12400,18.59169291
528.12450,11.26702713
528.12500,2.111194898
528.12550,-8.265414964
528.12600,-17.11605279
528.12650,-19.86280246
528.12700,-16.81085838
528.12750,-13.45371989
528.12800,-14.36930312
528.12850,-16.50566397
528.12900,-14.36930312
528.12950,-8.265414964
528.13000,-2.771915625
528.13050,-0.6355547711
528.13100,-0.02516595566
528.13150,1.195611675
528.13200,3.026778121
528.13250,3.942361344
528.13300,3.637166937
528.13350,3.026778121
528.13400,0.8904172674
528.13450,-2.771915625
528.13500,-7.34983174
528.13550,-11.31735904
528.13600,-13.7589143
528.13650,-14.67449753
528.13700,-13.14852549
528.13750,-9.180998187
528.13800,-3.992693256
528.13850,1.195611675
528.13900,5.163138975
528.13950,6.383916606
528.14000,5.163138975
528.14050,4.857944568
528.14100,7.604694237
528.14150,11.57222154
528.14200,12.48780476
528.14250,9.130666275
528.14300,3.942361344
528.14350,0.5852228597
528.14400,-0.02516595566
528.14450,2.416389306
528.14500,6.383916606
528.14550,8.825471868
528.14600,8.52027746
528.14650,8.215083052
528.14700,9.741055091
528.14750,11.57222154
528.14800,9.741055091
528.14850,4.247555752
528.14900,-0.3303603634
528.14950,-3.077110033
528.15000,-5.213470887
528.15050,-7.34983174
528.15100,-5.518665294
528.15150,0.280028452
528.15200,5.163138975
528.15250,3.942361344
528.15300,-0.3303603634
528.15350,-2.16152681
528.15400,-0.6355547711
528.15450,-0.02516595566
528.15500,-1.245943586
528.15550,-2.16152681
528.15600,-2.16152681
528.15650,-2.771915625
528.15700,-3.077110033
528.15750,-0.3303603634
528.15800,4.55275016
528.15850,7.909888645
528.15900,8.215083052
528.15950,7.604694237
528.16000,9.130666275
528.16050,9.741055091
528.16100,6.689111014
528.16150,2.111194898
528.16200,-0.3303603634
528.16250,-0.6355547711
528.16300,-0.6355547711
528.16350,-0.3303603634
528.16400,1.195611675
528.16450,3.026778121
528.16500,3.026778121
528.16550,1.195611675
528.16600,-0.9407491788
528.16650,-3.687498848
528.16700,-8.570609371
528.16750,-14.97969193
528.16800,-18.64202483
528.16850,-17.7264416
528.16900,-14.36930312
528.16950,-11.01216463
528.17000,-8.875803779
528.17050,-7.960220556
528.17100,-7.044637333
528.17150,-6.12905411
528.17200,-5.213470887
528.17250,-5.213470887
528.17300,-7.044637333
528.17350,-9.486192594
528.17400,-9.791387002
528.17450,-7.34983174
528.17500,-4.908276479
528.17550,-4.603082071
528.17600,-5.518665294
528.17650,-4.908276479
528.17700,-2.16152681
528.17750,-0.6355547711
528.17800,-1.551137994
528.17850,-3.38230444
528.17900,-3.38230444
528.17950,-0.6355547711
528.18000,3.331972529
528.18050,6.383916606
528.18100,7.299499829
528.18150,5.163138975
528.18200,1.806000491
528.18250,-1.856332402
528.18300,-6.434248517
528.18350,-11.01216463
528.18400,-14.06410871
528.18450,-12.23294226
528.18500,-4.603082071
528.18550,5.163138975
528.18600,11.87741594
528.18650,11.87741594
528.18700,7.604694237
528.18750,3.942361344
528.18800,2.721583714
528.18850,2.721583714
528.18900,2.416389306
528.18950,0.8904172674
528.19000,0.280028452
528.19050,1.500806083
528.19100,4.247555752
528.19150,6.994305421
528.19200,9.741055091
528.19250,11.87741594
528.19300,13.70858239
528.19350,14.92936002
528.19400,15.23455443
528.19450,15.84494324
528.19500,16.76052647
528.19550,17.9813041
528.19600,18.59169291
528.19650,18.89688732
528.19700,19.81247054
528.19750,21.33844258
528.19800,21.33844258
528.19850,17.67610969
528.19900,11.26702713
528.19950,6.689111014
528.20000,7.604694237
528.20050,10.96183272
528.20100,11.87741594
528.20150,8.215083052
528.20200,3.637166937
528.20250,1.500806083
528.20300,2.111194898
528.20350,2.721583714
528.20400,3.026778121
528.20450,3.637166937
528.20500,3.331972529
528.20550,0.280028452
528.20600,-3.992693256
528.20650,-7.044637333
528.20700,-7.655026148
528.20750,-7.655026148
528.20800,-7.960220556
528.20850,-7.044637333
528.20900,-5.518665294
528.20950,-6.434248517
528.21000,-10.40177582
528.21050,-14.67449753
528.21100,-16.50566397
528.21150,-17.11605279
528.21200,-18.33683042
528.21250,-21.08358009
528.21300,-24.44071857
528.21350,-27.49266265
528.21400,-28.71344028
528.21450,-27.18746824
528.21500,-22.30435772
528.21550,-15.59008075
528.21600,-10.09658141
528.21650,-7.34983174
528.21700,-6.12905411
528.21750,-3.992693256
528.21800,-0.02516595566
528.21850,3.942361344
528.21900,6.078722198
528.21950,5.773527791
528.22000,4.857944568
528.22050,4.857944568
528.22100,4.247555752
528.22150,3.026778121
528.22200,4.247555752
528.22250,10.0462495
528.22300,18.28649851
528.22350,23.47480344
528.22400,22.55922021
528.22450,17.67610969
528.22500,13.40338798
528.22550,13.09819358
528.22600,16.76052647
528.22650,21.03324818
528.22700,20.11766495
528.22750,10.96183272
528.22800,-1.856332402
528.22850,-9.486192594
528.22900,-7.655026148
528.22950,-2.16152681
528.23000,-2.16152681
528.23050,-9.180998187
528.23100,-15.89527516
528.23150,-15.89527516
528.23200,-10.09658141
528.23250,-4.297887663
528.23300,-1.856332402
528.23350,-2.16152681
528.23400,-3.992693256
528.23450,-7.044637333
528.23500,-9.180998187
528.23550,-8.570609371
528.23600,-6.12905411
528.23650,-3.687498848
528.23700,-1.245943586
528.23750,3.026778121
528.23800,7.909888645
528.23850,6.078722198
528.23900,-3.38230444
528.23950,-13.14852549
528.24000,-14.36930312
528.24050,-7.960220556
528.24100,-2.16152681
528.24150,-1.245943586
528.24200,-2.16152681
528.24250,-2.466721217
528.24300,-2.466721217
528.24350,-5.213470887
528.24400,-10.40177582
528.24450,-12.53813667
528.24500,-7.960220556
528.24550,0.8904172674
528.24600,6.689111014
528.24650,3.942361344
528.24700,-2.16152681
528.24750,-5.213470887
528.24800,-3.38230444
528.24850,-1.551137994
528.24900,-1.245943586
528.24950,0.5852228597
528.25000,4.857944568
528.25050,6.994305421
528.25100,6.383916606
528.25150,7.299499829
528.25200,10.96183272
528.25250,13.09819358
528.25300,11.26702713
528.25350,10.65663831
528.25400,14.31897121
528.25450,17.06572088
528.25500,14.31897121
528.25550,8.52027746
528.25600,3.331972529
528.25650,-1.245943586
528.25700,-5.823859702
528.25750,-6.12905411
528.25800,-0.02516595566
528.25850,8.215083052
528.25900,12.48780476
528.25950,13.09819358
528.26000,15.23455443
528.26050,18.28649851
528.26100,17.67610969
528.26150,14.0137768
528.26200,10.65663831
528.26250,9.130666275
528.26300,7.909888645
528.26350,6.383916606
528.26400,6.689111014
528.26450,8.215083052
528.26500,7.299499829
528.26550,2.111194898
528.26600,-3.38230444
528.26650,-7.044637333
528.26700,-8.570609371
528.26750,-8.265414964
528.26800,-7.655026148
528.26850,-7.044637333
528.26900,-7.34983174
528.26950,-8.265414964
528.27000,-8.570609371
528.27050,-9.486192594
528.27100,-12.23294226
528.27150,-15.89527516
528.27200,-18.94721923
528.27250,-21.08358009
528.27300,-22.30435772
528.27350,-21.08358009
528.27400,-16.50566397
528.27450,-9.791387002
528.27500,-3.077110033
528.27550,1.500806083
528.27600,4.55275016
528.27650,6.689111014
528.27700,6.994305421
528.27750,4.857944568
528.27800,1.500806083
528.27850,-0.6355547711
528.27900,-0.9407491788
528.27950,-0.02516595566
528.28000,0.5852228597
528.28050,0.5852228597
528.28100,-0.02516595566
528.28150,-0.9407491788
528.28200,-2.16152681
528.28250,-4.908276479
528.28300,-7.044637333
528.28350,-6.739442925
528.28400,-3.687498848
528.28450,-0.3303603634
528.28500,0.5852228597
528.28550,0.5852228597
528.28600,0.5852228597
528.28650,-0.02516595566
528.28700,-2.466721217
528.28750,-4.908276479
528.28800,-3.687498848
528.28850,-0.02516595566
528.28900,1.195611675
528.28950,-2.16152681
528.29000,-7.655026148
528.29050,-11.01216463
528.29100,-12.23294226
528.29150,-13.14852549
528.29200,-15.59008075
528.29250,-18.64202483
528.29300,-21.6939689
528.29350,-24.44071857
528.29400,-25.6614962
528.29450,-23.21994094
528.29500,-18.94721923
528.29550,-15.59008075
528.29600,-13.7589143
528.29650,-12.23294226
528.29700,-8.570609371
528.29750,-2.771915625
528.29800,3.942361344
528.29850,11.87741594
528.29900,19.20208173
528.29950,23.77999785
528.30000,24.69558107
528.30050,24.39038666
528.30100,24.69558107
528.30150,27.44233074
528.30200,32.02024685
528.30250,34.76699652
528.30300,33.54621889
528.30350,28.35791396
528.30400,24.69558107
528.30450,25.30596988
528.30500,27.13713633
528.30550,26.22155311
528.30600,23.47480344
528.30650,22.25402581
528.30700,20.72805377
528.30750,15.23455443
528.30800,7.604694237
528.30850,5.773527791
528.30900,12.18261035
528.30950,18.59169291
528.31000,17.06572088
528.31050,8.215083052
528.31100,-2.16152681
528.31150,-12.84333108
528.31200,-25.35630179
528.31250,-37.86927251
528.31300,-46.10952152
528.31350,-47.63549356
528.31400,-44.27835507
528.31450,-38.47966133
528.31500,-34.81732843
528.31550,-37.5640781
528.31600,-45.80432711
528.31650,-50.68743763
528.31700,-44.58354948
528.31750,-32.07057876
528.31800,-24.74591298
528.31850,-25.96669061
528.31900,-29.01863469
528.31950,-29.01863469
528.32000,-29.93421791
528.32050,-30.84980113
528.32100,-19.86280246
528.32150,12.79299917
528.32200,56.13060506
528.32250,85.73446261
528.32300,88.48121228
528.32350,73.83188071
528.32400,57.35138269
528.32450,44.22802316
528.32500,32.93583008
528.32550,23.47480344
528.32600,18.28649851
528.32650,16.76052647
528.32700,15.23455443
528.32750,12.79299917
528.32800,10.0462495
528.32850,7.604694237
528.32900,2.721583714
528.32950,-3.992693256
528.33000,-9.180998187
528.33050,-11.31735904
528.33100,-12.23294226
528.33150,-14.67449753
528.33200,-17.7264416
528.33250,-18.64202483
528.33300,-15.28488634
528.33350,-9.486192594
528.33400,-4.908276479
528.33450,-3.992693256
528.33500,-5.518665294
528.33550,-6.739442925
528.33600,-5.823859702
528.33650,-3.077110033
528.33700,-0.3303603634
528.33750,1.195611675
528.33800,3.331972529
528.33850,6.994305421
528.33900,10.96183272
528.33950,14.0137768
528.34000,15.84494324
528.34050,17.37091528
528.34100,18.89688732
528.34150,20.72805377
528.34200,21.9488314
528.34250,22.86441462
528.34300,21.33844258
528.34350,17.9813041
528.34400,13.40338798
528.34450,8.215083052
528.34500,2.416389306
528.34550,-2.771915625
528.34600,-6.434248517
528.34650,-8.265414964
528.34700,-8.875803779
528.34750,-9.486192594
528.34800,-9.791387002
528.34850,-10.09658141
528.34900,-11.62255345
528.34950,-14.06410871
528.35000,-15.89527516
528.35050,-17.11605279
528.35100,-18.94721923
528.35150,-22.30435772
528.35200,-24.13552416
528.35250,-19.86280246
528.35300,-10.70697023
528.35350,-1.856332402
528.35400,0.8904172674
528.35450,-1.245943586
528.35500,-5.518665294
528.35550,-8.875803779
528.35600,-10.40177582
528.35650,-11.01216463
528.35700,-10.40177582
528.35750,-8.570609371
528.35800,-6.434248517
528.35850,-3.992693256
528.35900,-0.9407491788
528.35950,1.806000491
528.36000,4.55275016
528.36050,5.468333383
528.36100,4.55275016
528.36150,3.942361344
528.36200,4.55275016
528.36250,5.468333383
528.36300,5.468333383
528.36350,6.689111014
528.36400,10.65663831
528.36450,16.15013765
528.36500,19.20208173
528.36550,19.50727614
528.36600,21.03324818
528.36650,24.08519225
528.36700,23.77999785
528.36750,17.67610969
528.36800,8.215083052
528.36850,-1.245943586
528.36900,-13.7589143
528.36950,-29.3238291
528.37000,-40.92121659
528.37050,-40.92121659
528.37100,-30.54460673
528.37150,-20.16799686
528.37200,-16.50566397
528.37250,-18.33683042
528.37300,-21.38877449
528.37350,-24.13552416
528.37400,-25.05110739
528.37450,-21.38877449
528.37500,-14.06410871
528.37550,-5.518665294
528.37600,1.500806083
528.37650,7.909888645
528.37700,13.09819358
528.37750,14.92936002
528.37800,14.62416561
528.37850,14.92936002
528.37900,17.06572088
528.37950,18.89688732
528.38000,19.50727614
528.38050,19.81247054
528.38100,19.50727614
528.38150,15.53974884
528.38200,6.383916606
528.38250,-4.603082071
528.38300,-11.62255345
528.38350,-11.62255345
528.38400,-7.044637333
528.38450,-3.992693256
528.38500,-5.213470887
528.38550,-9.791387002
528.38600,-14.97969193
528.38650,-19.25241364
528.38700,-20.47319127
528.38750,-11.01216463
528.38800,14.62416561
528.38850,46.05918961
528.38900,60.40332677
528.38950,44.53321757
528.39000,11.57222154
528.39050,-13.45371989
528.39100,-22.60955213
528.39150,-24.74591298
528.39200,-27.18746824
528.39250,-27.79785706
528.39300,-26.57707943
528.39350,-29.6290235
528.39400,-39.09005014
528.39450,-46.10952152
528.39500,-40.92121659
528.39550,-24.74591298
528.39600,-2.771915625
528.39650,21.03324818
528.39700,39.95530145
528.39750,40.26049586
528.39800,17.37091528
528.39850,-11.31735904
528.39900,-19.55760805
528.39950,2.721583714
528.40000,41.17607908
528.40050,69.86435341
528.40100,75.66304715
528.40150,62.53968762
528.40200,46.36438401
528.40250,38.12413501
528.40300,35.98777415
528.40350,30.18908041
528.40400,20.72805377
528.40450,17.9813041
528.40500,26.52674751
528.40550,33.8514133
528.40600,27.13713633
528.40650,9.435860683
528.40700,-5.518665294
528.40750,-13.14852549
528.40800,-18.33683042
528.40850,-24.44071857
528.40900,-28.40824587
528.40950,-27.79785706
528.41000,-27.79785706
528.41050,-35.12252284
528.41100,-54.04457612
528.41150,-79.98610077
528.41200,-101.9600981
528.41250,-113.5574856
528.41300,-122.102929
528.41350,-136.7522606
528.41400,-148.3496481
528.41450,-134.6158998
528.41500,-94.33023794
528.41550,-50.38224323
528.41600,-11.31735904
528.41650,50.94230013
528.41700,155.623982
528.41750,260.6108582
528.41800,294.7926319
528.41850,240.4680273
528.41900,150.7408714
528.41950,85.4292682
528.42000,53.99424421
528.42050,32.93583008
528.42100,11.87741594
528.42150,-0.02516595566
528.42200,-2.466721217
528.42250,-4.603082071
528.42300,-9.791387002
528.42350,-11.01216463
528.42400,-2.466721217
528.42450,9.435860683
528.42500,16.45533206
528.42550,16.45533206
528.42600,11.57222154
528.42650,4.247555752
528.42700,-3.992693256
528.42750,-12.23294226
528.42800,-17.7264416
528.42850,-20.77838568
528.42900,-22.60955213
528.42950,-24.74591298
528.43000,-26.57707943
528.43050,-27.79785706
528.43100,-30.84980113
528.43150,-37.2588837
528.43200,-43.05757744
528.43250,-43.97316066
528.43300,-41.5316054
528.43350,-40.92121659
528.43400,-42.44718863
528.43450,-38.47966133
528.43500,-25.35630179
528.43550,-8.875803779
528.43600,3.026778121
528.43650,9.130666275
528.43700,10.0462495
528.43750,6.078722198
528.43800,-1.245943586
528.43850,-6.434248517
528.43900,-3.687498848
528.43950,3.637166937
528.44000,8.52027746
528.44050,8.215083052
528.44100,5.468333383
528.44150,3.637166937
528.44200,3.026778121
528.44250,3.637166937
528.44300,5.468333383
528.44350,7.604694237
528.44400,6.994305421
528.44450,4.55275016
528.44500,1.195611675
528.44550,-2.466721217
528.44600,-8.875803779
528.44650,-16.50566397
528.44700,-21.08358009
528.44750,-20.16799686
528.44800,-17.11605279
528.44850,-17.7264416
528.44900,-21.6939689
528.44950,-25.35630179
528.45000,-26.88227383
528.45050,-28.10305146
528.45100,-30.54460673
528.45150,-31.46018995
528.45200,-26.88227383
528.45250,-19.86280246
528.45300,-15.89527516
528.45350,-16.20046956
528.45400,-15.28488634
528.45450,-10.70697023
528.45500,-5.823859702
528.45550,-6.12905411
528.45600,-11.01216463
528.45650,-14.97969193
528.45700,-14.67449753
528.45750,-11.92774786
528.45800,-10.09658141
528.45850,-9.486192594
528.45900,-7.655026148
528.45950,-5.213470887
528.46000,-3.687498848
528.46050,-3.687498848
528.46100,-1.245943586
528.46150,5.773527791
528.46200,15.53974884
528.46250,22.25402581
528.46300,25.00077548
528.46350,27.74752515
528.46400,32.32544126
528.46450,33.8514133
528.46500,30.49427481
528.46550,25.61116429
528.46600,24.39038666
528.46650,24.69558107
528.46700,22.55922021
528.46750,18.59169291
528.46800,16.15013765
528.46850,15.23455443
528.46900,10.35144391
528.46950,1.195611675
528.47000,-5.213470887
528.47050,-5.213470887
528.47100,-0.6355547711
528.47150,2.111194898
528.47200,2.111194898
528.47250,-0.02516595566
528.47300,-0.3303603634
528.47350,2.111194898
528.47400,7.909888645
528.47450,13.09819358
528.47500,13.09819358
528.47550,10.35144391
528.47600,10.96183272
528.47650,16.15013765
528.47700,21.33844258
528.47750,21.64363699
528.47800,18.28649851
528.47850,14.92936002
528.47900,12.18261035
528.47950,8.825471868
528.48000,6.994305421
528.48050,7.909888645
528.48100,8.52027746
528.48150,5.163138975
528.48200,0.280028452
528.48250,-0.3303603634
528.48300,3.331972529
528.48350,6.078722198
528.48400,1.500806083
528.48450,-6.739442925
528.48500,-12.84333108
528.48550,-12.53813667
528.48600,-8.875803779
528.48650,-6.739442925
528.48700,-7.044637333
528.48750,-9.180998187
528.48800,-11.62255345
528.48850,-14.36930312
528.48900,-16.50566397
528.48950,-16.81085838
528.49000,-14.97969193
528.49050,-12.53813667
528.49100,-12.53813667
528.49150,-14.06410871
528.49200,-14.06410871
528.49250,-10.40177582
528.49300,-3.992693256
528.49350,2.111194898
528.49400,7.909888645
528.49450,13.70858239
528.49500,17.06572088
528.49550,16.76052647
528.49600,15.84494324
528.49650,20.42285936
528.49700,30.49427481
528.49750,39.34491264
528.49800,39.34491264
528.49850,30.18908041
528.49900,16.76052647
528.49950,5.468333383
528.50000,-0.02516595566
528.50050,-1.245943586
528.50100,-1.245943586
528.50150,-0.9407491788
528.50200,1.195611675
528.50250,6.994305421
528.50300,12.48780476
528.50350,12.79299917
528.50400,6.383916606
528.50450,-2.466721217
528.50500,-8.265414964
528.50550,-6.12905411
528.50600,3.026778121
528.50650,11.26702713
528.50700,8.825471868
528.50750,-0.6355547711
528.50800,-6.739442925
528.50850,-5.213470887
528.50900,-6.739442925
528.50950,-17.7264416
528.51000,-29.3238291
528.51050,-31.76538436
528.51100,-29.01863469
528.51150,-29.93421791
528.51200,-32.68096758
528.51250,-31.76538436
528.51300,-29.93421791
528.51350,-30.23941232
528.51400,-20.77838568
528.51450,8.825471868
528.51500,44.53321757
528.51550,56.74099388
528.51600,39.65010705
528.51650,18.28649851
528.51700,12.79299917
528.51750,14.92936002
528.51800,8.825471868
528.51850,-3.077110033
528.51900,-8.570609371
528.51950,-6.739442925
528.52000,-5.518665294
528.52050,-7.655026148
528.52100,-9.180998187
528.52150,-10.09658141
528.52200,-12.84333108
528.52250,-11.92774786
528.52300,0.5852228597
528.52350,21.9488314
528.52400,35.37738534
528.52450,30.18908041
528.52500,14.31897121
528.52550,2.111194898
528.52600,-0.6355547711
528.52650,-0.3303603634
528.52700,-0.9407491788
528.52750,-0.02516595566
528.52800,5.773527791
528.52850,10.0462495
528.52900,5.468333383
528.52950,-6.434248517
528.53000,-15.59008075
528.53050,-15.28488634
528.53100,-10.09658141
528.53150,-6.739442925
528.53200,-6.739442925
528.53250,-6.739442925
528.53300,-8.570609371
528.53350,-12.84333108
528.53400,-17.11605279
528.53450,-16.81085838
528.53500,-15.28488634
528.53550,-18.03163601
528.53600,-24.44071857
528.53650,-27.49266265
528.53700,-24.74591298
528.53750,-18.33683042
528.53800,-10.09658141
528.53850,1.806000491
528.53900,14.0137768
528.53950,19.50727614
528.54000,17.37091528
528.54050,14.62416561
528.54100,13.70858239
528.54150,10.96183272
528.54200,3.942361344
528.54250,-0.3303603634
528.54300,1.806000491
528.54350,6.994305421
528.54400,6.994305421
528.54450,-0.3303603634
528.54500,-13.7589143
528.54550,-31.15499554
528.54600,-47.33029915
528.54650,-52.82379849
528.54700,-44.88874389
528.54750,-33.90174521
528.54800,-29.6290235
528.54850,-29.01863469
528.54900,-23.21994094
528.54950,-13.14852549
528.55000,-4.297887663
528.55050,6.994305421
528.55100,27.74752515
528.55150,49.7215225
528.55200,55.21502184
528.55250,38.12413501
528.55300,13.70858239
528.55350,-1.245943586
528.55400,-7.34983174
528.55450,-12.23294226
528.55500,-17.7264416
528.55550,-17.42124719
528.55600,-11.31735904
528.55650,-8.265414964
528.55700,-12.53813667
528.55750,-17.42124719
528.55800,-15.89527516
528.55850,-9.486192594
528.55900,-6.12905411
528.55950,-7.960220556
528.56000,-10.40177582
528.56050,-10.70697023
528.56100,-11.01216463
528.56150,-10.70697023
528.56200,-7.34983174
528.56250,-1.856332402
528.56300,-0.3303603634
528.56350,-0.02516595566
528.56400,14.92936002
528.56450,49.41632809
528.56500,82.68251853
528.56550,88.17601787
528.56600,64.98124288
528.56650,38.73452382
528.56700,28.05271955
528.56750,27.44233074
528.56800,24.69558107
528.56850,19.50727614
528.56900,16.45533206
528.56950,12.48780476
528.57000,4.247555752
528.57050,-3.38230444
528.57100,-6.12905411
528.57150,-7.34983174
528.57200,-13.45371989
528.57250,-21.99916331
528.57300,-26.27188502
528.57350,-26.57707943
528.57400,-28.10305146
528.57450,-30.23941232
528.57500,-28.71344028
528.57550,-24.13552416
528.57600,-22.91474653
528.57650,-24.13552416
528.57700,-20.47319127
528.57750,-9.486192594
528.57800,1.500806083
528.57850,4.857944568
528.57900,0.280028452
528.57950,-7.960220556
528.58000,-16.20046956
528.58050,-22.60955213
528.58100,-25.6614962
528.58150,-25.96669061
528.58200,-25.96669061
528.58250,-25.05110739
528.58300,-16.81085838
528.58350,3.637166937
528.58400,30.18908041
528.58450,47.89035605
528.58500,49.7215225
528.58550,42.70205112
528.58600,39.03971823
528.58650,39.95530145
528.58700,35.98777415
528.58750,22.25402581
528.58800,7.299499829
528.58850,2.416389306
528.58900,6.689111014
528.58950,10.35144391
528.59000,6.383916606
528.59050,-0.02516595566
528.59100,-3.38230444
528.59150,-5.823859702
528.59200,-9.791387002
528.59250,-14.36930312
528.59300,-14.36930312
528.59350,-10.70697023
528.59400,-7.655026148
528.59450,-4.908276479
528.59500,1.806000491
528.59550,14.92936002
528.59600,27.44233074
528.59650,30.49427481
528.59700,22.86441462
528.59750,11.87741594
528.59800,5.468333383
528.59850,6.994305421
528.59900,13.09819358
528.59950,16.45533206
528.60000,13.09819358
528.60050,4.857944568
528.60100,-2.466721217
528.60150,-5.518665294
528.60200,-4.297887663
528.60250,-1.245943586
528.60300,-0.02516595566
528.60350,-0.3303603634
528.60400,-2.16152681
528.60450,-3.992693256
528.60500,-5.823859702
528.60550,-9.486192594
528.60600,-13.45371989
528.60650,-14.67449753
528.60700,-11.62255345
528.60750,-6.739442925
528.60800,-3.687498848
528.60850,-2.771915625
528.60900,-3.077110033
528.60950,-4.603082071
528.61000,-7.34983174
528.61050,-8.875803779
528.61100,-7.655026148
528.61150,-5.823859702
528.61200,-7.044637333
528.61250,-11.01216463
528.61300,-14.97969193
528.61350,-17.11605279
528.61400,-17.7264416
528.61450,-16.81085838
528.61500,-14.06410871
528.61550,-11.62255345
528.61600,-12.23294226
528.61650,-15.59008075
528.61700,-16.81085838
528.61750,-13.45371989
528.61800,-7.655026148
528.61850,-4.603082071
528.61900,-4.908276479
528.61950,-6.12905411
528.62000,-5.823859702
528.62050,-4.603082071
528.62100,-3.38230444
528.62150,-2.466721217
528.62200,-0.3303603634
528.62250,1.195611675
528.62300,-1.551137994
528.62350,-14.06410871
528.62400,-32.07057876
528.62450,-44.27835507
528.62500,-43.66796626
528.62550,-34.20693962
528.62600,-23.83032976
528.62650,-15.89527516
528.62700,-9.791387002
528.62750,-3.992693256
528.62800,8.825471868
528.62850,41.17607908
528.62900,92.75393399
528.62950,141.5850392
528.63000,155.3187876
528.63050,124.4941524
528.63100,71.69551985
528.63150,28.66310837
528.63200,6.994305421
528.63250,-4.908276479
528.63300,-18.33683042
528.63350,-28.10305146
528.63400,-22.30435772
528.63450,-0.3303603634
528.63500,24.39038666
528.63550,38.12413501
528.63600,37.8189406
528.63650,30.79946922
528.63700,24.69558107
528.63750,20.42285936
528.63800,15.23455443
528.63850,7.604694237
528.63900,-1.856332402
528.63950,-9.486192594
528.64000,-10.40177582
528.64050,-4.297887663
528.64100,2.111194898
528.64150,2.721583714
528.64200,-3.992693256
528.64250,-13.45371989
528.64300,-19.55760805
528.64350,-21.99916331
528.64400,-23.52513535
528.64450,-26.57707943
528.64500,-30.23941232
528.64550,-31.15499554
528.64600,-27.49266265
528.64650,-20.16799686
528.64700,-14.67449753
528.64750,-14.67449753
528.64800,-19.55760805
528.64850,-25.05110739
528.64900,-27.18746824
528.64950,-25.05110739
528.65000,-21.6939689
528.65050,-21.6939689
528.65100,-24.13552416
528.65150,-23.52513535
528.65200,-15.89527516
528.65250,-4.908276479
528.65300,4.247555752
528.65350,11.57222154
528.65400,20.42285936
528.65450,27.74752515
528.65500,27.13713633
528.65550,17.06572088
528.65600,5.468333383
528.65650,-0.02516595566
528.65700,-0.3303603634
528.65750,0.8904172674
528.65800,2.721583714
528.65850,3.331972529
528.65900,0.280028452
528.65950,-4.297887663
528.66000,-5.823859702
528.66050,-2.771915625
528.66100,-2.16152681
528.66150,-9.486192594
528.66200,-20.47319127
528.66250,-26.57707943
528.66300,-27.49266265
528.66350,-29.01863469
528.66400,-32.37577317
528.66450,-33.5965508
528.66500,-29.3238291
528.66550,-21.99916331
528.66600,-15.28488634
528.66650,-11.92774786
528.66700,-10.70697023
528.66750,-10.09658141
528.66800,-10.09658141
528.66850,-11.92774786
528.66900,-15.89527516
528.66950,-19.55760805
528.67000,-19.55760805
528.67050,-16.81085838
528.67100,-13.45371989
528.67150,-7.655026148
528.67200,1.806000491
528.67250,9.130666275
528.67300,6.383916606
528.67350,-3.38230444
528.67400,-7.960220556
528.67450,-0.6355547711
528.67500,10.65663831
528.67550,18.59169291
528.67600,21.9488314
528.67650,22.25402581
528.67700,19.20208173
528.67750,14.31897121
528.67800,14.62416561
528.67850,17.9813041
528.67900,15.53974884
528.67950,5.468333383
528.68000,-2.16152681
528.68050,-3.077110033
528.68100,-4.908276479
528.68150,-13.14852549
528.68200,-18.03163601
528.68250,-13.7589143
528.68300,-7.655026148
528.68350,-3.992693256
528.68400,8.825471868
528.68450,41.48127349
528.68500,75.05265834
528.68550,82.07212972
528.68600,62.53968762
528.68650,41.17607908
528.68700,32.63063567
528.68750,27.44233074
528.68800,17.67610969
528.68850,10.65663831
528.68900,12.48780476
528.68950,15.84494324
528.69000,13.09819358
528.69050,6.994305421
528.69100,3.942361344
528.69150,2.111194898
528.69200,-0.3303603634
528.69250,-2.16152681
528.69300,-1.856332402
528.69350,-4.297887663
528.69400,-12.84333108
528.69450,-21.08358009
528.69500,-21.99916331
528.69550,-16.81085838
528.69600,-12.84333108
528.69650,-11.01216463
528.69700,-7.960220556
528.69750,-2.466721217
528.69800,2.111194898
528.69850,5.468333383
528.69900,10.35144391
528.69950,17.37091528
528.70000,21.03324818
528.70050,17.9813041
528.70100,11.87741594
528.70150,8.52027746
528.70200,8.52027746
528.70250,8.52027746
528.70300,8.52027746
528.70350,10.35144391
528.70400,11.26702713
528.70450,7.299499829
528.70500,-0.6355547711
528.70550,-5.823859702
528.70600,-4.908276479
528.70650,-0.6355547711
528.70700,3.026778121
528.70750,6.994305421
528.70800,9.741055091
528.70850,6.994305421
528.70900,-1.245943586
528.70950,-8.570609371
528.71000,-10.70697023
528.71050,-11.31735904
528.71100,-14.06410871
528.71150,-16.20046956
528.71200,-16.20046956
528.71250,-17.11605279
528.71300,-20.77838568
528.71350,-22.60955213
528.71400,-20.16799686
528.71450,-18.03163601
528.71500,-19.86280246
528.71550,-20.77838568
528.71600,-16.81085838
528.71650,-13.14852549
528.71700,-16.20046956
528.71750,-24.13552416
528.71800,-33.2913564
528.71850,-45.80432711
528.71900,-60.75885309
528.71950,-68.69390769
528.72000,-68.69390769
528.72050,-71.13546295
528.72100,-74.18740703
528.72150,-52.82379849
528.72200,7.909888645
528.72250,81.15654649
528.72300,124.188958
528.72350,129.9876517
528.72400,124.7993468
528.72450,122.9681803
528.72500,110.1500152
528.72550,78.10460242
528.72600,44.22802316
528.72650,26.83194192
528.72700,22.25402581
528.72750,17.37091528
528.72800,10.65663831
528.72850,6.994305421
528.72900,3.331972529
528.72950,-3.38230444
528.73000,-10.70697023
528.73050,-12.53813667
528.73100,-12.53813667
528.73150,-14.67449753
528.73200,-14.97969193
528.73250,-9.180998187
528.73300,-1.856332402
528.73350,-1.856332402
528.73400,-10.09658141
528.73450,-18.03163601
528.73500,-20.16799686
528.73550,-16.81085838
528.73600,-12.23294226
528.73650,-7.655026148
528.73700,-4.908276479
528.73750,-5.213470887
528.73800,-9.486192594
528.73850,-13.45371989
528.73900,-12.84333108
528.73950,-6.12905411
528.74000,2.721583714
528.74050,10.96183272
528.74100,15.23455443
528.74150,15.23455443
528.74200,10.0462495
528.74250,1.195611675
528.74300,-7.34983174
528.74350,-13.45371989
528.74400,-18.03163601
528.74450,-23.21994094
528.74500,-28.40824587
528.74550,-30.84980113
528.74600,-30.23941232
528.74650,-28.71344028
528.74700,-26.57707943
528.74750,-22.91474653
528.74800,-18.33683042
528.74850,-16.50566397
528.74900,-19.86280246
528.74950,-26.27188502
528.75000,-31.76538436
528.75050,-32.68096758
528.75100,-29.3238291
528.75150,-24.74591298
528.75200,-22.91474653
528.75250,-24.74591298
528.75300,-24.74591298
528.75350,-17.11605279
528.75400,-3.992693256
528.75450,4.247555752
528.75500,1.195611675
528.75550,-8.570609371
528.75600,-14.06410871
528.75650,-11.01216463
528.75700,-3.38230444
528.75750,0.8904172674
528.75800,2.111194898
528.75850,3.026778121
528.75900,5.468333383
528.75950,9.130666275
528.76000,14.0137768
528.76050,21.03324818
528.76100,30.79946922
528.76150,42.09166231
528.76200,52.77346658
528.76250,58.87735473
528.76300,56.74099388
528.76350,45.7539952
528.76400,32.63063567
528.76450,24.39038666
528.76500,18.89688732
528.76550,7.604694237
528.76600,-10.09658141
528.76650,-24.44071857
528.76700,-27.49266265
528.76750,-22.91474653
528.76800,-19.55760805
528.76850,-17.42124719
528.76900,-10.70697023
528.76950,-1.856332402
528.77000,-0.9407491788
528.77050,-14.06410871
528.77100,-36.95368929
528.77150,-59.23288105
528.77200,-71.13546295
528.77250,-68.08351887
528.77300,-53.1289929
528.77350,-36.03810606
528.77400,-28.10305146
528.77450,-32.07057876
528.77500,-37.86927251
528.77550,-30.23941232
528.77600,1.500806083
528.77650,52.77346658
528.77700,98.55262773
528.77750,112.5915705
528.77800,92.14354517
528.77850,61.6241044
528.77900,46.97477283
528.77950,49.41632809
528.78000,52.46827217
528.78050,47.89035605
528.78100,41.48127349
528.78150,38.12413501
528.78200,36.59816297
528.78250,37.20855178
528.78300,43.31243994
528.78350,52.77346658
528.78400,55.82541065
528.78450,44.83841198
528.78500,21.64363699
528.78550,-4.603082071
528.78600,-25.05110739
528.78650,-32.98616199
528.78700,-29.93421791
528.78750,-27.79785706
528.78800,-38.78485573
528.78850,-56.18093697
528.78900,-62.28482513
528.78950,-48.85627119
528.79000,-29.6290235
528.79050,-23.21994094
528.79100,-36.64849488
528.79150,-63.20040835
528.79200,-88.53154419
528.79250,-98.60295964
528.79300,-89.44712741
528.79350,-73.2718238
528.79400,-61.67443631
528.79450,-47.63549356
528.79500,-13.45371989
528.79550,32.93583008
528.79600,58.57216032
528.79650,45.44880079
528.79700,18.89688732
528.79750,14.92936002
528.79800,35.07219093
528.79850,50.33191132
528.79900,43.31243994
528.79950,27.74752515
528.80000,20.72805377
528.80050,22.86441462
528.80100,25.61116429
528.80150,26.52674751
528.80200,26.52674751
528.80250,22.25402581
528.80300,12.48780476
528.80350,3.026778121
528.80400,0.8904172674
528.80450,4.857944568
528.80500,8.825471868
528.80550,11.87741594
528.80600,14.62416561
528.80650,14.92936002
528.80700,9.741055091
528.80750,1.806000491
528.80800,-2.771915625
528.80850,-4.908276479
528.80900,-10.09658141
528.80950,-18.03163601
528.81000,-23.21994094
528.81050,-23.52513535
528.81100,-23.52513535
528.81150,-26.57707943
528.81200,-30.54460673
528.81250,-32.68096758
528.81300,-32.37577317
528.81350,-29.3238291
528.81400,-24.44071857
528.81450,-21.08358009
528.81500,-21.38877449
528.81550,-19.55760805
528.81600,-6.434248517
528.81650,13.70858239
528.81700,25.30596988
528.81750,19.20208173
528.81800,4.857944568
528.81850,-2.771915625
528.81900,0.280028452
528.81950,10.35144391
528.82000,20.11766495
528.82050,20.42285936
528.82100,3.331972529
528.82150,-24.13552416
528.82200,-43.97316066
528.82250,-44.58354948
528.82300,-35.12252284
528.82350,-32.68096758
528.82400,-40.92121659
528.82450,-51.90821526
528.82500,-57.4017146
528.82550,-43.36277185
528.82600,9.435860683
528.82650,107.0980711
528.82700,214.8316971
528.82750,274.3446066
528.82800,254.5069701
528.82850,178.2083681
528.82900,96.72146129
528.82950,44.22802316
528.83000,19.81247054
528.83050,6.689111014
528.83100,-4.908276479
528.83150,-12.53813667
528.83200,-12.53813667
528.83250,-10.70697023
528.83300,-16.20046956
528.83350,-29.6290235
528.83400,-40.31082777
528.83450,-40.92121659
528.83500,-33.90174521
528.83550,-27.79785706
528.83600,-24.74591298
528.83650,-22.91474653
528.83700,-20.77838568
528.83750,-19.86280246
528.83800,-19.55760805
528.83850,-19.25241364
528.83900,-18.33683042
528.83950,-16.81085838
528.84000,-14.67449753
528.84050,-12.53813667
528.84100,-10.40177582
528.84150,-7.655026148
528.84200,-2.771915625
528.84250,2.721583714
528.84300,5.773527791
528.84350,3.331972529
528.84400,-2.466721217
528.84450,-8.875803779
528.84500,-11.31735904
528.84550,-7.960220556
528.84600,-1.551137994
528.84650,1.806000491
528.84700,-0.02516595566
528.84750,-4.908276479
528.84800,-9.791387002
528.84850,-14.06410871
528.84900,-17.11605279
528.84950,-15.59008075
528.85000,-11.01216463
528.85050,-10.70697023
528.85100,-17.11605279
528.85150,-19.86280246
528.85200,-11.31735904
528.85250,-1.245943586
528.85300,-2.771915625
528.85350,-12.84333108
528.85400,-19.86280246
528.85450,-25.96669061
528.85500,-43.36277185
528.85550,-68.9991021
528.85600,-83.03804485
528.85650,-74.49260143
528.85700,-54.65496493
528.85750,-39.70043896
528.85800,-33.2913564
528.85850,-29.01863469
528.85900,-18.03163601
528.85950,8.825471868
528.86000,54.60463302
528.86050,101.9097662
528.86100,124.7993468
528.86150,113.8123481
528.86200,85.12407379
528.86250,58.26696592
528.86300,39.95530145
528.86350,26.83194192
528.86400,15.53974884
528.86450,-0.3303603634
528.86500,-27.49266265
528.86550,-59.84326987
528.86600,-79.37571196
528.86650,-75.40818466
528.86700,-58.01210342
528.86750,-45.80432711
528.86800,-46.71991033
528.86850,-52.82379849
528.86900,-46.41471593
528.86950,-14.36930312
528.87000,38.42932941
528.87050,86.34485142
528.87100,102.8253494
528.87150,86.03965702
528.87200,55.52021625
528.87250,29.57869159
528.87300,10.96183272
528.87350,-2.466721217
528.87400,-10.40177582
528.87450,-12.84333108
528.87500,-14.36930312
528.87550,-17.11605279
528.87600,-16.81085838
528.87650,-9.791387002
528.87700,1.195611675
528.87750,8.825471868
528.87800,10.35144391
528.87850,8.215083052
528.87900,6.689111014
528.87950,5.773527791
528.88000,4.247555752
528.88050,0.280028452
528.88100,-3.077110033
528.88150,-3.38230444
528.88200,-0.9407491788
528.88250,-0.3303603634
528.88300,-2.771915625
528.88350,-3.38230444
528.88400,1.195611675
528.88450,6.994305421
528.88500,10.35144391
528.88550,13.70858239
528.88600,19.81247054
528.88650,23.77999785
528.88700,17.9813041
528.88750,3.637166937
528.88800,-8.570609371
528.88850,-14.97969193
528.88900,-20.77838568
528.88950,-32.68096758
528.89000,-45.4991327
528.89050,-48.85627119
528.89100,-39.39524455
528.89150,-25.35630179
528.89200,-18.33683042
528.89250,-21.99916331
528.89300,-31.76538436
528.89350,-41.226411
528.89400,-45.4991327
528.89450,-43.36277185
528.89500,-35.73291166
528.89550,-25.6614962
528.89600,-17.42124719
528.89650,-11.92774786
528.89700,-8.570609371
528.89750,-5.518665294
528.89800,-0.6355547711
528.89850,7.604694237
528.89900,17.37091528
528.89950,22.55922021
528.90000,19.81247054
528.90050,14.31897121
528.90100,12.79299917
528.90150,14.31897121
528.90200,12.48780476
528.90250,8.215083052
528.90300,11.57222154
528.90350,28.96830278
528.90400,49.11113368
528.90450,55.82541065
528.90500,44.53321757
528.90550,24.08519225
528.90600,5.773527791
528.90650,-4.908276479
528.90700,-8.265414964
528.90750,-5.518665294
528.90800,-1.551137994
528.90850,-1.856332402
528.90900,-5.823859702
528.90950,-8.265414964
528.91000,-5.213470887
528.91050,-0.6355547711
528.91100,-0.6355547711
528.91150,-5.213470887
528.91200,-8.265414964
528.91250,-7.044637333
528.91300,-3.992693256
528.91350,-3.38230444
528.91400,-5.213470887
528.91450,-7.34983174
528.91500,-10.09658141
528.91550,-13.7589143
528.91600,-15.59008075
528.91650,-11.92774786
528.91700,-3.992693256
528.91750,2.721583714
528.91800,4.857944568
528.91850,3.026778121
528.91900,1.806000491
528.91950,2.111194898
528.92000,2.721583714
528.92050,2.416389306
528.92100,3.331972529
528.92150,6.078722198
528.92200,9.130666275
528.92250,10.96183272
528.92300,11.57222154
528.92350,13.40338798
528.92400,17.06572088
528.92450,21.03324818
528.92500,24.69558107
528.92550,30.18908041
528.92600,39.34491264
528.92650,48.19555046
528.92700,47.89035605
528.92750,36.29296856
528.92800,23.47480344
528.92850,18.59169291
528.92900,16.15013765
528.92950,5.163138975
528.93000,-12.23294226
528.93050,-23.83032976
528.93100,-23.83032976
528.93150,-22.91474653
528.93200,-30.54460673
528.93250,-41.83679981
528.93300,-48.55107678
528.93350,-51.29782645
528.93400,-53.1289929
528.93450,-48.85627119
528.93500,-36.64849488
528.93550,-25.35630179
528.93600,-25.05110739
528.93650,-31.46018995
528.93700,-34.81732843
528.93750,-33.2913564
528.93800,-28.71344028
528.93850,-19.86280246
528.93900,-7.960220556
528.93950,-2.466721217
528.94000,-4.297887663
528.94050,5.163138975
528.94100,42.39685671
528.94150,86.65004583
528.94200,100.0785998
528.94250,75.66304715
528.94300,45.14360638
528.94350,34.15660771
528.94400,38.73452382
528.94450,45.44880079
528.94500,53.38385539
528.94550,64.67604848
528.94600,70.77993663
528.94650,64.06565966
528.94700,49.41632809
528.94750,35.37738534
528.94800,22.25402581
528.94850,8.825471868
528.94900,-1.551137994
528.94950,-6.739442925
528.95000,-10.09658141
528.95050,-11.31735904
528.95100,-7.044637333
528.95150,-3.077110033
528.95200,-14.97969193
528.95250,-43.97316066
528.95300,-68.38871328
528.95350,-66.86274124
528.95400,-46.41471593
528.95450,-28.71344028
528.95500,-23.21994094
528.95550,-22.60955213
528.95600,-18.94721923
528.95650,-14.06410871
528.95700,-11.92774786
528.95750,-13.7589143
528.95800,-19.86280246
528.95850,-28.10305146
528.95900,-33.2913564
528.95950,-31.15499554
528.96000,-23.21994094
528.96050,-14.67449753
528.96100,-7.34983174
528.96150,0.280028452
528.96200,11.26702713
528.96250,21.64363699
528.96300,25.9163587
528.96350,22.86441462
528.96400,17.37091528
528.96450,16.45533206
528.96500,21.64363699
528.96550,25.61116429
528.96600,21.64363699
528.96650,11.57222154
528.96700,3.026778121
528.96750,-0.6355547711
528.96800,-3.992693256
528.96850,-8.875803779
528.96900,-14.97969193
528.96950,-19.55760805
528.97000,-22.30435772
528.97050,-23.21994094
528.97100,-22.30435772
528.97150,-21.38877449
528.97200,-22.60955213
528.97250,-23.52513535
528.97300,-21.08358009
528.97350,-15.59008075
528.97400,-11.31735904
528.97450,-8.570609371
528.97500,-3.38230444
528.97550,5.773527791
528.97600,13.40338798
528.97650,14.92936002
528.97700,11.26702713
528.97750,7.299499829
528.97800,4.55275016
528.97850,1.806000491
528.97900,-0.02516595566
528.97950,2.111194898
528.98000,8.215083052
528.98050,14.62416561
528.98100,19.20208173
528.98150,21.64363699
528.98200,22.86441462
528.98250,22.86441462
528.98300,19.20208173
528.98350,12.48780476
528.98400,4.857944568
528.98450,-0.3303603634
528.98500,-4.297887663
528.98550,-8.875803779
528.98600,-11.62255345
528.98650,-7.34983174
528.98700,4.857944568
528.98750,17.9813041
528.98800,23.47480344
528.98850,21.64363699
528.98900,18.28649851
528.98950,15.23455443
528.99000,7.909888645
528.99050,-4.297887663
528.99100,-14.36930312
528.99150,-13.7589143
528.99200,-5.213470887
528.99250,0.8904172674
528.99300,0.280028452
528.99350,-3.992693256
528.99400,-9.486192594
528.99450,-15.59008075
528.99500,-21.38877449
528.99550,-23.21994094
528.99600,-20.16799686
528.99650,-15.28488634
528.99700,-11.01216463
528.99750,-3.992693256
528.99800,8.215083052
528.99850,22.86441462
528.99900,32.32544126
528.99950,34.46180211
529.00000,32.32544126
529.00050,28.96830278
529.00100,25.30596988
529.00150,21.9488314
529.00200,21.33844258
529.00250,22.86441462
529.00300,23.47480344
529.00350,20.72805377
529.00400,15.84494324
529.00450,10.0462495
529.00500,3.637166937
529.00550,-3.687498848
529.00600,-9.791387002
529.00650,-12.53813667
529.00700,-11.31735904
529.00750,-7.34983174
529.00800,-1.245943586
529.00850,3.942361344
529.00900,6.689111014
529.00950,4.247555752
529.01000,-2.16152681
529.01050,-10.70697023
529.01100,-19.86280246
529.01150,-28.71344028
529.01200,-36.03810606
529.01250,-40.31082777
529.01300,-40.31082777
529.01350,-36.95368929
529.01400,-32.68096758
529.01450,-27.79785706
529.01500,-20.16799686
529.01550,-8.875803779
529.01600,1.500806083
529.01650,6.078722198
529.01700,5.163138975
529.01750,3.942361344
529.01800,5.773527791
529.01850,8.215083052
529.01900,10.0462495
529.01950,11.87741594
529.02000,13.70858239
529.02050,12.79299917
529.02100,10.0462495
529.02150,8.825471868
529.02200,10.96183272
529.02250,12.48780476
529.02300,12.79299917
529.02350,13.70858239
529.02400,15.84494324
529.02450,14.92936002
529.02500,11.87741594
529.02550,13.40338798
529.02600,18.89688732
529.02650,16.45533206
529.02700,-1.245943586
529.02750,-26.27188502
529.02800,-44.58354948
529.02850,-53.1289929
529.02900,-54.96015934
529.02950,-50.38224323
529.03000,-41.5316054
529.03050,-35.12252284
529.03100,-32.37577317
529.03150,-18.03163601
529.03200,18.89688732
529.03250,61.92929881
529.03300,79.32538005
529.03350,62.23449322
529.03400,32.63063567
529.03450,12.79299917
529.03500,3.331972529
529.03550,-5.823859702
529.03600,-16.20046956
529.03650,-21.99916331
529.03700,-21.38877449
529.03750,-15.89527516
529.03800,-5.823859702
529.03850,6.689111014
529.03900,16.45533206
529.03950,17.37091528
529.04000,11.87741594
529.04050,6.078722198
529.04100,2.721583714
529.04150,0.8904172674
529.04200,-0.02516595566
529.04250,-1.245943586
529.04300,-5.823859702
529.04350,-15.28488634
529.04400,-26.88227383
529.04450,-32.98616199
529.04500,-29.01863469
529.04550,-16.50566397
529.04600,-3.077110033
529.04650,4.55275016
529.04700,6.383916606
529.04750,6.383916606
529.04800,9.435860683
529.04850,16.15013765
529.04900,23.47480344
529.04950,26.83194192
529.05000,22.55922021
529.05050,11.57222154
529.05100,0.8904172674
529.05150,-4.603082071
529.05200,-7.960220556
529.05250,-15.28488634
529.05300,-26.57707943
529.05350,-35.42771725
529.05400,-39.39524455
529.05450,-42.44718863
529.05500,-47.02510474
529.05550,-47.33029915
529.05600,-40.00563336
529.05650,-32.98616199
529.05700,-39.09005014
529.05750,-59.23288105
529.05800,-79.07051755
529.05850,-84.56401689
529.05900,-77.84973992
529.05950,-71.74585177
529.06000,-71.44065736
529.06050,-62.59001953
529.06100,-25.6614962
529.06150,38.42932941
529.06200,102.520155
529.06250,136.7019287
529.06300,136.3967343
529.06350,117.7798754
529.06400,95.50068365
529.06450,71.08513104
529.06500,44.83841198
529.06550,23.77999785
529.06600,13.40338798
529.06650,10.0462495
529.06700,7.299499829
529.06750,4.247555752
529.06800,3.942361344
529.06850,4.55275016
529.06900,2.721583714
529.06950,-0.3303603634
529.07000,-0.02516595566
529.07050,6.078722198
529.07100,13.70858239
529.07150,18.28649851
529.07200,17.37091528
529.07250,13.09819358
529.07300,6.994305421
529.07350,2.111194898
529.07400,-0.3303603634
529.07450,-1.856332402
529.07500,-3.687498848
529.07550,-4.297887663
529.07600,-1.856332402
529.07650,0.5852228597
529.07700,-0.9407491788
529.07750,-7.655026148
529.07800,-13.14852549
529.07850,-12.53813667
529.07900,-7.655026148
529.07950,-3.38230444
529.08000,-2.466721217
529.08050,-5.213470887
529.08100,-10.70697023
529.08150,-15.89527516
529.08200,-15.59008075
529.08250,-9.791387002
529.08300,-7.960220556
529.08350,-18.33683042
529.08400,-39.70043896
529.08450,-62.28482513
529.08500,-78.46012873
529.08550,-84.25882248
529.08600,-74.18740703
529.08650,-46.71991033
529.08700,-14.67449753
529.08750,4.247555752
529.08800,8.825471868
529.08850,21.64363699
529.08900,61.31890999
529.08950,115.3383202
529.09000,147.6889274
529.09050,135.1759567
529.09100,88.17601787
529.09150,35.98777415
529.09200,0.8904172674
529.09250,-13.14852549
529.09300,-13.7589143
529.09350,-7.34983174
529.09400,-0.3303603634
529.09450,1.500806083
529.09500,-0.6355547711
529.09550,-3.687498848
529.09600,-3.687498848
529.09650,-0.02516595566
529.09700,5.163138975
529.09750,12.48780476
529.09800,20.11766495
529.09850,23.16960903
529.09900,19.20208173
529.09950,11.26702713
529.10000,6.689111014
529.10050,7.909888645
529.10100,11.87741594
529.10150,13.40338798
529.10200,9.435860683
529.10250,-0.02516595566
529.10300,-12.53813667
529.10350,-23.52513535
529.10400,-29.3238291
529.10450,-30.23941232
529.10500,-25.05110739
529.10550,-9.180998187
529.10600,15.84494324
529.10650,39.34491264
529.10700,46.05918961
529.10750,32.32544126
529.10800,10.0462495
529.10850,-5.518665294
529.10900,-10.40177582
529.10950,-9.486192594
529.11000,-10.40177582
529.11050,-14.06410871
529.11100,-15.89527516
529.11150,-14.67449753
529.11200,-15.28488634
529.11250,-21.99916331
529.11300,-29.3238291
529.11350,-28.40824587
529.11400,-20.47319127
529.11450,-15.59008075
529.11500,-19.55760805
529.11550,-25.05110739
529.11600,-25.35630179
529.11650,-22.60955213
529.11700,-23.21994094
529.11750,-24.44071857
529.11800,-19.25241364
529.11850,-7.655026148
529.11900,0.8904172674
529.11950,-1.245943586
529.12000,-12.84333108
529.12050,-23.21994094
529.12100,-21.08358009
529.12150,-3.077110033
529.12200,21.9488314
529.12250,41.48127349
529.12300,49.11113368
529.12350,49.11113368
529.12400,47.27996724
529.12450,44.53321757
529.12500,38.42932941
529.12550,30.18908041
529.12600,21.64363699
529.12650,13.40338798
529.12700,5.468333383
529.12750,-1.551137994
529.12800,-6.434248517
529.12850,-10.09658141
529.12900,-13.14852549
529.12950,-13.14852549
529.13000,-8.265414964
529.13050,-1.551137994
529.13100,1.195611675
529.13150,-3.077110033
529.13200,-11.01216463
529.13250,-15.89527516
529.13300,-15.59008075
529.13350,-14.06410871
529.13400,-15.28488634
529.13450,-18.64202483
529.13500,-18.94721923
529.13550,-13.7589143
529.13600,-7.044637333
529.13650,-3.077110033
529.13700,-2.16152681
529.13750,-3.077110033
529.13800,-4.297887663
529.13850,-6.12905411
529.13900,-6.739442925
529.13950,-4.908276479
529.14000,-2.466721217
529.14050,-2.16152681
529.14100,-2.771915625
529.14150,1.500806083
529.14200,14.92936002
529.14250,29.57869159
529.14300,29.883886
529.14350,11.26702713
529.14400,-11.31735904
529.14450,-21.38877449
529.14500,-18.33683042
529.14550,-16.50566397
529.14600,-23.83032976
529.14650,-33.2913564
529.14700,-37.2588837
529.14750,-39.39524455
529.14800,-42.75238303
529.14850,-43.97316066
529.14900,-40.31082777
529.14950,-35.42771725
529.15000,-27.79785706
529.15050,-6.739442925
529.15100,28.35791396
529.15150,57.04618828
529.15200,55.82541065
529.15250,29.57869159
529.15300,4.857944568
529.15350,-1.245943586
529.15400,4.247555752
529.15450,7.909888645
529.15500,3.026778121
529.15550,-5.518665294
529.15600,-9.791387002
529.15650,-4.297887663
529.15700,7.299499829
529.15750,17.06572088
529.15800,21.9488314
529.15850,27.13713633
529.15900,33.8514133
529.15950,33.24102448
529.16000,20.42285936
529.16050,6.383916606
529.16100,4.55275016
529.16150,13.70858239
529.16200,23.77999785
529.16250,31.71505245
529.16300,37.20855178
529.16350,34.15660771
529.16400,18.89688732
529.16450,2.111194898
529.16500,-0.3303603634
529.16550,8.215083052
529.16600,14.0137768
529.16650,11.87741594
529.16700,9.130666275
529.16750,4.55275016
529.16800,-13.14852549
529.16850,-43.05757744
529.16900,-64.11599157
529.16950,-64.72638039
529.17000,-55.87574257
529.17050,-51.90821526
529.17100,-49.1614656
529.17150,-40.61602218
529.17200,-33.5965508
529.17250,-37.2588837
529.17300,-47.33029915
529.17350,-53.1289929
529.17400,-54.65496493
529.17450,-53.1289929
529.17500,-36.64849488
529.17550,-0.02516595566
529.17600,34.76699652
529.17650,35.98777415
529.17700,8.52027746
529.17750,-9.180998187
529.17800,4.857944568
529.17850,34.46180211
529.17900,53.38385539
529.17950,59.18254914
529.18000,61.01371558
529.18050,58.57216032
529.18100,47.27996724
529.18150,34.46180211
529.18200,31.71505245
529.18250,35.68257975
529.18300,33.8514133
529.18350,24.39038666
529.18400,17.06572088
529.18450,17.06572088
529.18500,19.81247054
529.18550,21.9488314
529.18600,24.08519225
529.18650,25.30596988
529.18700,21.03324818
529.18750,11.57222154
529.18800,3.026778121
529.18850,-0.6355547711
529.18900,-2.466721217
529.18950,-4.603082071
529.19000,-4.908276479
529.19050,-2.466721217
529.19100,-0.02516595566
529.19150,-0.6355547711
529.19200,-1.856332402
529.19250,-0.02516595566
529.19300,0.5852228597
529.19350,-5.518665294
529.19400,-21.6939689
529.19450,-42.14199422
529.19500,-60.45365868
529.19550,-71.44065736
529.19600,-71.74585177
529.19650,-63.20040835
529.19700,-52.51860408
529.19750,-43.97316066
529.19800,-29.93421791
529.19850,0.8904172674
529.19900,44.22802316
529.19950,80.54615768
529.20000,95.80587806
529.20050,93.05912839
529.20100,77.79940801
529.20150,51.55268895
529.20200,21.33844258
529.20250,7.299499829
529.20300,21.33844258
529.20350,47.58516165
529.20400,58.87735473
529.20450,47.58516165
529.20500,29.27349718
529.20550,18.28649851
529.20600,14.0137768
529.20650,10.35144391
529.20700,7.299499829
529.20750,5.163138975
529.20800,1.195611675
529.20850,-3.38230444
529.20900,-5.213470887
529.20950,-2.771915625
529.21000,-0.02516595566
529.21050,0.5852228597
529.21100,-0.6355547711
529.21150,-4.908276479
529.21200,-12.23294226
529.21250,-18.33683042
529.21300,-18.33683042
529.21350,-13.45371989
529.21400,-11.31735904
529.21450,-13.14852549
529.21500,-14.67449753
529.21550,-14.36930312
529.21600,-18.03163601
529.21650,-28.10305146
529.21700,-37.2588837
529.21750,-36.34330047
529.21800,-25.96669061
529.21850,-15.89527516
529.21900,-12.53813667
529.21950,-12.53813667
529.22000,-10.40177582
529.22050,-5.213470887
529.22100,-0.02516595566
529.22150,3.637166937
529.22200,3.942361344
529.22250,0.5852228597
529.22300,-3.992693256
529.22350,-7.34983174
529.22400,-7.044637333
529.22450,-3.687498848
529.22500,-0.02516595566
529.22550,2.111194898
529.22600,3.026778121
529.22650,0.8904172674
529.22700,-1.551137994
529.22750,-0.02516595566
529.22800,7.299499829
529.22850,10.96183272
529.22900,0.280028452
529.22950,-22.30435772
529.23000,-43.05757744
529.23050,-53.4341873
529.23100,-55.26535375
529.23150,-50.07704882
529.23200,-36.03810606
529.23250,-19.86280246
529.23300,-14.36930312
529.23350,-18.03163601
529.23400,-8.875803779
529.23450,26.22155311
529.23500,65.89682611
529.23550,75.96824156
529.23600,53.07866098
529.23650,23.77999785
529.23700,9.130666275
529.23750,4.247555752
529.23800,-0.02516595566
529.23850,-1.551137994
529.23900,2.416389306
529.23950,4.857944568
529.24000,-0.02516595566
529.24050,-7.655026148
529.24100,-10.40177582
529.24150,-10.09658141
529.24200,-11.62255345
529.24250,-14.67449753
529.24300,-17.11605279
529.24350,-20.47319127
529.24400,-22.91474653
529.24450,-15.59008075
529.24500,0.8904172674
529.24550,12.79299917
529.24600,6.078722198
529.24650,-11.62255345
529.24700,-22.30435772
529.24750,-19.86280246
529.24800,-15.28488634
529.24850,-17.42124719
529.24900,-22.91474653
529.24950,-25.6614962
529.25000,-25.6614962
529.25050,-25.05110739
529.25100,-21.08358009
529.25150,-11.01216463
529.25200,1.806000491
529.25250,10.65663831
529.25300,11.26702713
529.25350,4.857944568
529.25400,-2.771915625
529.25450,-8.570609371
529.25500,-10.70697023
529.25550,-11.01216463
529.25600,-12.23294226
529.25650,-13.7589143
529.25700,-13.14852549
529.25750,-10.09658141
529.25800,-5.518665294
529.25850,-0.3303603634
529.25900,5.773527791
529.25950,13.40338798
529.26000,23.47480344
529.26050,39.34491264
529.26100,62.23449322
529.26150,85.12407379
529.26200,97.3318501
529.26250,92.75393399
529.26300,72.30590867
529.26350,40.56569027
529.26400,5.468333383
529.26450,-24.44071857
529.26500,-43.05757744
529.26550,-49.46666
529.26600,-50.07704882
529.26650,-49.1614656
529.26700,-45.80432711
529.26750,-37.86927251
529.26800,-27.49266265
529.26850,-18.64202483
529.26900,-12.53813667
529.26950,-7.044637333
529.27000,-1.245943586
529.27050,2.111194898
529.27100,1.195611675
529.27150,-4.297887663
529.27200,-12.53813667
529.27250,-20.47319127
529.27300,-25.6614962
529.27350,-26.88227383
529.27400,-24.74591298
529.27450,-20.47319127
529.27500,-16.50566397
529.27550,-15.59008075
529.27600,-17.7264416
529.27650,-20.16799686
529.27700,-19.86280246
529.27750,-17.11605279
529.27800,-13.7589143
529.27850,-9.180998187
529.27900,-3.077110033
529.27950,4.55275016
529.28000,12.18261035
529.28050,17.9813041
529.28100,22.25402581
529.28150,24.08519225
529.28200,21.9488314
529.28250,16.45533206
529.28300,11.26702713
529.28350,9.130666275
529.28400,9.741055091
529.28450,12.48780476
529.28500,19.50727614
529.28550,30.18908041
529.28600,38.12413501
529.28650,38.12413501
529.28700,32.32544126
529.28750,26.83194192
529.28800,22.86441462
529.28850,18.28649851
529.28900,14.62416561
529.28950,14.0137768
529.29000,13.09819358
529.29050,8.52027746
529.29100,3.637166937
529.29150,4.247555752
529.29200,5.773527791
529.29250,-3.077110033
529.29300,-24.13552416
529.29350,-42.44718863
529.29400,-47.02510474
529.29450,-41.226411
529.29500,-34.81732843
529.29550,-30.54460673
529.29600,-25.6614962
529.29650,-15.59008075
529.29700,4.247555752
529.29750,37.20855178
529.29800,73.83188071
529.29850,93.05912839
529.29900,84.20849057
529.29950,60.70852118
529.30000,43.00724553
529.30050,35.07219093
529.30100,27.44233074
529.30150,15.23455443
529.30200,4.247555752
529.30250,-0.6355547711
529.30300,-1.245943586
529.30350,-0.02516595566
529.30400,2.111194898
529.30450,4.55275016
529.30500,3.331972529
529.30550,-2.771915625
529.30600,-10.70697023
529.30650,-15.89527516
529.30700,-16.81085838
529.30750,-13.7589143
529.30800,-8.265414964
529.30850,-2.771915625
529.30900,0.8904172674
529.30950,4.857944568
529.31000,8.215083052
529.31050,7.299499829
529.31100,-0.02516595566
529.31150,-6.739442925
529.31200,-6.12905411
529.31250,-0.3303603634
529.31300,-0.02516595566
529.31350,-7.34983174
529.31400,-13.7589143
529.31450,-11.01216463
529.31500,-6.434248517
529.31550,-10.09658141
529.31600,-20.47319127
529.31650,-26.88227383
529.31700,-25.96669061
529.31750,-24.44071857
529.31800,-24.44071857
529.31850,-18.94721923
529.31900,-4.297887663
529.31950,12.18261035
529.32000,21.03324818
529.32050,20.11766495
529.32100,15.23455443
529.32150,8.825471868
529.32200,0.8904172674
529.32250,-5.213470887
529.32300,-5.823859702
529.32350,-2.771915625
529.32400,-1.245943586
529.32450,-1.245943586
529.32500,1.806000491
529.32550,6.078722198
529.32600,3.026778121
529.32650,-4.908276479
529.32700,-6.12905411
529.32750,3.942361344
529.32800,13.70858239
529.32850,10.65663831
529.32900,0.280028452
529.32950,-3.992693256
529.33000,-1.856332402
529.33050,-2.771915625
529.33100,-7.960220556
529.33150,-7.960220556
529.33200,0.8904172674
529.33250,9.741055091
529.33300,7.909888645
529.33350,-3.38230444
529.33400,-15.89527516
529.33450,-23.21994094
529.33500,-23.83032976
529.33550,-19.55760805
529.33600,-14.97969193
529.33650,-14.06410871
529.33700,-14.97969193
529.33750,-10.40177582
529.33800,1.806000491
529.33850,13.70858239
529.33900,14.92936002
529.33950,6.689111014
529.34000,-0.6355547711
529.34050,-0.02516595566
529.34100,6.994305421
529.34150,13.70858239
529.34200,15.23455443
529.34250,10.35144391
529.34300,1.806000491
529.34350,-6.434248517
529.34400,-10.70697023
529.34450,-10.09658141
529.34500,-8.265414964
529.34550,-7.960220556
529.34600,-7.655026148
529.34650,-2.771915625
529.34700,8.215083052
529.34750,19.81247054
529.34800,25.30596988
529.34850,23.77999785
529.34900,19.81247054
529.34950,17.67610969
529.35000,16.76052647
529.35050,14.92936002
529.35100,11.87741594
529.35150,8.825471868
529.35200,7.604694237
529.35250,7.604694237
529.35300,4.55275016
529.35350,-4.908276479
529.35400,-19.86280246
529.35450,-32.68096758
529.35500,-35.73291166
529.35550,-29.6290235
529.35600,-20.77838568
529.35650,-15.89527516
529.35700,-15.28488634
529.35750,-15.89527516
529.35800,-15.28488634
529.35850,-15.28488634
529.35900,-16.50566397
529.35950,-17.11605279
529.36000,-15.59008075
529.36050,-14.06410871
529.36100,-14.97969193
529.36150,-17.7264416
529.36200,-17.42124719
529.36250,-12.53813667
529.36300,-9.180998187
529.36350,-11.62255345
529.36400,-15.59008075
529.36450,-13.45371989
529.36500,-3.992693256
529.36550,6.383916606
529.36600,11.57222154
529.36650,10.0462495
529.36700,6.689111014
529.36750,8.215083052
529.36800,16.76052647
529.36850,27.13713633
529.36900,30.49427481
529.36950,27.44233074
529.37000,26.22155311
529.37050,28.96830278
529.37100,28.05271955
529.37150,17.67610969
529.37200,3.637166937
529.37250,-6.434248517
529.37300,-14.97969193
529.37350,-25.35630179
529.37400,-33.90174521
529.37450,-38.17446692
529.37500,-44.58354948
529.37550,-54.34977053
529.37600,-48.24588237
529.37650,-11.01216463
529.37700,39.65010705
529.37750,65.5916317
529.37800,53.99424421
529.37850,30.79946922
529.37900,22.86441462
529.37950,27.74752515
529.38000,28.66310837
529.38050,21.33844258
529.38100,13.70858239
529.38150,8.215083052
529.38200,1.806000491
529.38250,-5.823859702
529.38300,-11.62255345
529.38350,-14.97969193
529.38400,-16.20046956
529.38450,-14.97969193
529.38500,-10.40177582
529.38550,-5.823859702
529.38600,-3.687498848
529.38650,-2.16152681
529.38700,0.280028452
529.38750,2.721583714
529.38800,2.111194898
529.38850,0.280028452
529.38900,-0.02516595566
529.38950,-0.6355547711
529.39000,-2.771915625
529.39050,-4.908276479
529.39100,-5.213470887
529.39150,-5.213470887
529.39200,-6.12905411
529.39250,-7.655026148
529.39300,-7.044637333
529.39350,-4.603082071
529.39400,-2.466721217
529.39450,-1.551137994
529.39500,-2.16152681
529.39550,-3.687498848
529.39600,-5.518665294
529.39650,-6.12905411
529.39700,-5.823859702
529.39750,-4.908276479
529.39800,-3.38230444
529.39850,-0.9407491788
529.39900,2.111194898
529.39950,5.163138975
529.40000,6.383916606
529.40050,5.163138975
529.40100,2.721583714
529.40150,0.8904172674
529.40200,1.806000491
529.40250,4.247555752
529.40300,4.55275016
529.40350,1.806000491
529.40400,2.111194898
529.40450,10.35144391
529.40500,22.25402581
529.40550,28.96830278
529.40600,26.52674751
529.40650,21.64363699
529.40700,19.50727614
529.40750,18.89688732
529.40800,16.15013765
529.40850,12.18261035
529.40900,8.52027746
529.40950,3.637166937
529.41000,-2.466721217
529.41050,-7.34983174
529.41100,-6.12905411
529.41150,-3.077110033
529.41200,-4.603082071
529.41250,-11.01216463
529.41300,-16.20046956
529.41350,-14.67449753
529.41400,-10.40177582
529.41450,-8.875803779
529.41500,-11.01216463
529.41550,-12.53813667
529.41600,-9.486192594
529.41650,-3.992693256
529.41700,-0.3303603634
529.41750,0.5852228597
529.41800,1.806000491
529.41850,4.857944568
529.41900,6.994305421
529.41950,6.078722198
529.42000,3.331972529
529.42050,2.111194898
529.42100,2.416389306
529.42150,1.500806083
529.42200,-2.16152681
529.42250,-4.908276479
529.42300,-4.297887663
529.42350,-2.466721217
529.42400,-3.077110033
529.42450,-4.297887663
529.42500,-0.3303603634
529.42550,10.0462495
529.42600,21.64363699
529.42650,26.52674751
529.42700,23.16960903
529.42750,16.45533206
529.42800,11.26702713
529.42850,7.909888645
529.42900,3.942361344
529.42950,-0.02516595566
529.43000,-3.38230444
529.43050,-8.265414964
529.43100,-19.55760805
529.43150,-33.2913564
529.43200,-37.2588837
529.43250,-25.96669061
529.43300,-12.53813667
529.43350,-11.92774786
529.43400,-22.30435772
529.43450,-27.49266265
529.43500,-20.77838568
529.43550,-12.84333108
529.43600,-12.84333108
529.43650,-15.59008075
529.43700,-11.62255345
529.43750,-2.16152681
529.43800,5.468333383
529.43850,9.130666275
529.43900,9.435860683
529.43950,3.942361344
529.44000,-4.297887663
529.44050,-2.771915625
529.44100,21.03324818
529.44150,58.87735473
529.44200,86.95524024
529.44250,87.87082346
529.44300,67.42279815
529.44350,41.7864679
529.44400,21.64363699
529.44450,9.130666275
529.44500,1.806000491
529.44550,-2.771915625
529.44600,-7.34983174
529.44650,-10.40177582
529.44700,-8.570609371
529.44750,-0.9407491788
529.44800,8.215083052
529.44850,15.53974884
529.44900,19.20208173
529.44950,18.28649851
529.45000,11.57222154
529.45050,-0.02516595566
529.45100,-14.36930312
529.45150,-27.79785706
529.45200,-37.2588837
529.45250,-40.92121659
529.45300,-40.61602218
529.45350,-40.00563336
529.45400,-41.226411
529.45450,-44.58354948
529.45500,-48.24588237
529.45550,-51.60302086
529.45600,-51.29782645
529.45650,-42.44718863
529.45700,-23.83032976
529.45750,-1.856332402
529.45800,14.31897121
529.45850,24.39038666
529.45900,33.8514133
529.45950,43.61763435
529.46000,47.89035605
529.46050,42.09166231
529.46100,29.27349718
529.46150,16.76052647
529.46200,8.52027746
529.46250,3.637166937
529.46300,2.111194898
529.46350,3.637166937
529.46400,8.52027746
529.46450,15.53974884
529.46500,22.25402581
529.46550,25.9163587
529.46600,25.61116429
529.46650,21.9488314
529.46700,17.67610969
529.46750,14.31897121
529.46800,10.96183272
529.46850,4.857944568
529.46900,-4.603082071
529.46950,-16.20046956
529.47000,-24.44071857
529.47050,-26.57707943
529.47100,-25.05110739
529.47150,-25.35630179
529.47200,-27.79785706
529.47250,-27.18746824
529.47300,-22.30435772
529.47350,-18.33683042
529.47400,-20.47319127
529.47450,-25.35630179
529.47500,-27.18746824
529.47550,-25.05110739
529.47600,-24.13552416
529.47650,-25.35630179
529.47700,-23.83032976
529.47750,-16.20046956
529.47800,-7.34983174
529.47850,-3.38230444
529.47900,-5.213470887
529.47950,-8.265414964
529.48000,-7.960220556
529.48050,-5.518665294
529.48100,-4.297887663
529.48150,-6.434248517
529.48200,-9.791387002
529.48250,-11.62255345
529.48300,-12.23294226
529.48350,-11.62255345
529.48400,-8.570609371
529.48450,-1.551137994
529.48500,6.689111014
529.48550,14.0137768
529.48600,18.89688732
529.48650,21.03324818
529.48700,19.81247054
529.48750,15.23455443
529.48800,10.35144391
529.48850,9.130666275
529.48900,13.40338798
529.48950,20.42285936
529.49000,24.39038666
529.49050,20.42285936
529.49100,8.52027746
529.49150,-4.297887663
529.49200,-12.53813667
529.49250,-15.89527516
529.49300,-18.03163601
529.49350,-21.6939689
529.49400,-27.18746824
529.49450,-34.81732843
529.49500,-41.5316054
529.49550,-41.5316054
529.49600,-32.68096758
529.49650,-23.83032976
529.49700,-25.96669061
529.49750,-38.17446692
529.49800,-48.85627119
529.49850,-50.07704882
529.49900,-42.75238303
529.49950,-29.3238291
529.50000,-14.36930312
529.50050,-6.739442925
529.50100,-8.570609371
529.50150,-3.992693256
529.50200,27.44233074
529.50250,78.10460242
529.50300,115.0331257
529.50350,120.5266251
529.50400,108.9292376
529.50450,100.6889886
529.50500,93.3643228
529.50550,77.18901919
529.50600,56.43579947
529.50650,43.00724553
529.50700,35.98777415
529.50750,25.00077548
529.50800,9.130666275
529.50850,-1.551137994
529.50900,-3.077110033
529.50950,1.195611675
529.51000,8.52027746
529.51050,14.31897121
529.51100,12.18261035
529.51150,-0.9407491788
529.51200,-17.7264416
529.51250,-26.88227383
529.51300,-28.40824587
529.51350,-28.71344028
529.51400,-29.93421791
529.51450,-28.10305146
529.51500,-23.21994094
529.51550,-19.86280246
529.51600,-18.94721923
529.51650,-17.11605279
529.51700,-13.14852549
529.51750,-8.570609371
529.51800,-4.603082071
529.51850,-0.6355547711
529.51900,2.111194898
529.51950,1.500806083
529.52000,-1.856332402
529.52050,-3.992693256
529.52100,-3.077110033
529.52150,-1.551137994
529.52200,-1.551137994
529.52250,-1.856332402
529.52300,0.280028452
529.52350,4.55275016
529.52400,7.604694237
529.52450,8.215083052
529.52500,7.604694237
529.52550,6.689111014
529.52600,6.078722198
529.52650,5.163138975
529.52700,4.857944568
529.52750,4.55275016
529.52800,2.416389306
529.52850,-1.856332402
529.52900,-7.34983174
529.52950,-11.01216463
529.53000,-12.84333108
529.53050,-14.06410871
529.53100,-14.67449753
529.53150,-14.67449753
529.53200,-14.67449753
529.53250,-14.06410871
529.53300,-14.06410871
529.53350,-15.89527516
529.53400,-18.64202483
529.53450,-18.03163601
529.53500,-12.53813667
529.53550,-5.823859702
529.53600,-2.16152681
529.53650,-0.02516595566
529.53700,3.026778121
529.53750,5.773527791
529.53800,4.55275016
529.53850,3.026778121
529.53900,6.689111014
529.53950,10.96183272
529.54000,8.215083052
529.54050,0.8904172674
529.54100,0.5852228597
529.54150,6.994305421
529.54200,7.299499829
529.54250,-4.297887663
529.54300,-20.77838568
529.54350,-31.76538436
529.54400,-36.03810606
529.54450,-34.20693962
529.54500,-27.18746824
529.54550,-19.86280246
529.54600,-16.50566397
529.54650,-6.434248517
529.54700,26.83194192
529.54750,73.5266863
529.54800,97.63704451
529.54850,81.76693531
529.54900,50.33191132
529.54950,34.15660771
529.55000,31.10466363
529.55050,22.25402581
529.55100,7.299499829
529.55150,2.111194898
529.55200,5.468333383
529.55250,2.721583714
529.55300,-10.40177582
529.55350,-21.08358009
529.55400,-22.91474653
529.55450,-23.83032976
529.55500,-27.79785706
529.55550,-26.27188502
529.55600,-15.89527516
529.55650,-5.518665294
529.55700,-2.771915625
529.55750,-2.771915625
529.55800,1.806000491
529.55850,10.35144391
529.55900,15.84494324
529.55950,15.53974884
529.56000,13.40338798
529.56050,11.57222154
529.56100,11.26702713
529.56150,10.96183272
529.56200,8.52027746
529.56250,3.942361344
529.56300,-0.02516595566
529.56350,-0.3303603634
529.56400,0.8904172674
529.56450,1.806000491
529.56500,2.721583714
529.56550,5.163138975
529.56600,7.604694237
529.56650,6.689111014
529.56700,1.806000491
529.56750,-3.992693256
529.56800,-7.044637333
529.56850,-6.434248517
529.56900,-2.466721217
529.56950,2.111194898
529.57000,3.331972529
529.57050,-2.16152681
529.57100,-12.53813667
529.57150,-21.38877449
529.57200,-25.35630179
529.57250,-25.6614962
529.57300,-24.13552416
529.57350,-19.55760805
529.57400,-12.53813667
529.57450,-9.180998187
529.57500,-13.14852549
529.57550,-18.03163601
529.57600,-11.62255345
529.57650,4.55275016
529.57700,14.92936002
529.57750,6.689111014
529.57800,-12.84333108
529.57850,-25.05110739
529.57900,-21.99916331
529.57950,-14.06410871
529.58000,-11.62255345
529.58050,-13.7589143
529.58100,-12.23294226
529.58150,-6.12905411
529.58200,-1.551137994
529.58250,-2.771915625
529.58300,-9.791387002
529.58350,-20.77838568
529.58400,-30.84980113
529.58450,-32.37577317
529.58500,-20.77838568
529.58550,-2.466721217
529.58600,11.87741594
529.58650,16.15013765
529.58700,13.70858239
529.58750,11.87741594
529.58800,12.79299917
529.58850,14.92936002
529.58900,13.40338798
529.58950,6.689111014
529.59000,-1.856332402
529.59050,-4.908276479
529.59100,1.500806083
529.59150,11.87741594
529.59200,16.15013765
529.59250,11.57222154
529.59300,4.857944568
529.59350,-0.02516595566
529.59400,-5.518665294
529.59450,-13.14852549
529.59500,-17.11605279
529.59550,-11.92774786
529.59600,-2.16152681
529.59650,2.416389306
529.59700,1.195611675
529.59750,-0.02516595566
529.59800,3.637166937
529.59850,7.299499829
529.59900,5.468333383
529.59950,1.195611675
529.60000,0.5852228597
529.60050,3.942361344
529.60100,6.994305421
529.60150,6.689111014
529.60200,3.026778121
529.60250,-1.551137994
529.60300,-3.687498848
529.60350,0.8904172674
529.60400,12.79299917
529.60450,25.00077548
529.60500,29.57869159
529.60550,25.9163587
529.60600,21.03324818
529.60650,17.37091528
529.60700,11.26702713
529.60750,-0.02516595566
529.60800,-13.14852549
529.60850,-22.60955213
529.60900,-23.52513535
529.60950,-17.42124719
529.61000,-11.62255345
529.61050,-14.97969193
529.61100,-24.13552416
529.61150,-19.86280246
529.61200,11.87741594
529.61250,58.57216032
529.61300,85.4292682
529.61350,77.18901919
529.61400,52.77346658
529.61450,38.42932941
529.61500,34.76699652
529.61550,27.74752515
529.61600,16.76052647
529.61650,15.23455443
529.61700,26.83194192
529.61750,38.12413501
529.61800,37.51374619
529.61850,28.96830278
529.61900,21.64363699
529.61950,15.53974884
529.62000,6.078722198
529.62050,-5.823859702
529.62100,-15.59008075
529.62150,-20.16799686
529.62200,-20.47319127
529.62250,-19.55760805
529.62300,-17.7264416
529.62350,-13.7589143
529.62400,-5.823859702
529.62450,3.026778121
529.62500,8.52027746
529.62550,6.689111014
529.62600,0.5852228597
529.62650,-5.213470887
529.62700,-11.31735904
529.62750,-19.86280246
529.62800,-29.6290235
529.62850,-35.12252284
529.62900,-36.03810606
529.62950,-34.81732843
529.63000,-32.07057876
529.63050,-26.27188502
529.63100,-18.64202483
529.63150,-14.67449753
529.63200,-15.89527516
529.63250,-18.94721923
529.63300,-20.16799686
529.63350,-20.77838568
529.63400,-22.30435772
529.63450,-21.99916331
529.63500,-18.03163601
529.63550,-13.14852549
529.63600,-11.01216463
529.63650,-11.62255345
529.63700,-11.92774786
529.63750,-10.40177582
529.63800,-8.570609371
529.63850,-7.044637333
529.63900,-5.213470887
529.63950,-3.38230444
529.64000,-2.16152681
529.64050,-1.245943586
529.64100,0.280028452
529.64150,1.806000491
529.64200,0.8904172674
529.64250,-0.9407491788
529.64300,-0.9407491788
529.64350,1.500806083
529.64400,3.942361344
529.64450,3.026778121
529.64500,1.500806083
529.64550,1.806000491
529.64600,2.721583714
529.64650,2.111194898
529.64700,-0.02516595566
529.64750,-2.466721217
529.64800,-5.518665294
529.64850,-8.875803779
529.64900,-10.40177582
529.64950,-8.875803779
529.65000,-8.265414964
529.65050,-11.92774786
529.65100,-16.81085838
529.65150,-17.11605279
529.65200,-11.31735904
529.65250,-5.213470887
529.65300,-1.856332402
529.65350,-0.02516595566
529.65400,1.806000491
529.65450,1.195611675
529.65500,-3.38230444
529.65550,-8.570609371
529.65600,-8.265414964
529.65650,-1.856332402
529.65700,4.857944568
529.65750,6.689111014
529.65800,3.637166937
529.65850,-0.02516595566
529.65900,-0.6355547711
529.65950,1.500806083
529.66000,6.994305421
529.66050,11.26702713
529.66100,11.26702713
529.66150,8.215083052
529.66200,8.52027746
529.66250,17.37091528
529.66300,30.18908041
529.66350,35.68257975
529.66400,29.57869159
529.66450,19.81247054
529.66500,15.84494324
529.66550,17.37091528
529.66600,17.9813041
529.66650,13.09819358
529.66700,6.078722198
529.66750,3.026778121
529.66800,6.078722198
529.66850,13.40338798
529.66900,19.20208173
529.66950,18.28649851
529.67000,10.0462495
529.67050,0.5852228597
529.67100,-3.992693256
529.67150,-3.992693256
529.67200,-2.16152681
529.67250,-1.245943586
529.67300,-3.077110033
529.67350,-9.180998187
529.67400,-16.81085838
529.67450,-18.64202483
529.67500,-10.70697023
529.67550,0.5852228597
529.67600,6.994305421
529.67650,6.994305421
529.67700,3.026778121
529.67750,-3.38230444
529.67800,-13.45371989
529.67850,-22.60955213
529.67900,-24.74591298
529.67950,-21.08358009
529.68000,-18.64202483
529.68050,-17.7264416
529.68100,-14.06410871
529.68150,-5.823859702
529.68200,1.195611675
529.68250,3.942361344
529.68300,4.857944568
529.68350,7.299499829
529.68400,9.435860683
529.68450,8.215083052
529.68500,5.773527791
529.68550,5.163138975
529.68600,6.689111014
529.68650,9.130666275
529.68700,10.0462495
529.68750,8.215083052
529.68800,3.637166937
529.68850,-1.245943586
529.68900,-4.297887663
529.68950,-5.518665294
529.69000,-6.739442925
529.69050,-8.875803779
529.69100,-11.92774786
529.69150,-16.50566397
529.69200,-21.38877449
529.69250,-22.91474653
529.69300,-21.6939689
529.69350,-23.52513535
529.69400,-29.3238291
529.69450,-30.23941232
529.69500,-21.99916331
529.69550,-15.89527516
529.69600,-23.21994094
529.69650,-37.2588837
529.69700,-43.36277185
529.69750,-41.5316054
529.69800,-41.226411
529.69850,-42.44718863
529.69900,-34.51213403
529.69950,-19.25241364
529.70000,-5.213470887
529.70050,13.40338798
529.70100,50.63710572
529.70150,94.27990602
529.70200,110.4552096
529.70250,88.48121228
529.70300,61.6241044
529.70350,63.15007644
529.70400,84.51368498
529.70450,95.19548925
529.70500,84.51368498
529.70550,66.50721492
529.70600,51.24749454
529.70650,37.51374619
529.70700,25.30596988
529.70750,18.28649851
529.70800,14.62416561
529.70850,7.299499829
529.70900,-4.908276479
529.70950,-19.55760805
529.71000,-35.12252284
529.71050,-50.99263204
529.71100,-59.84326987
529.71150,-56.79132579
529.71200,-48.24588237
529.71250,-45.4991327
529.71300,-49.46666
529.71350,-51.90821526
529.71400,-49.77185441
529.71450,-46.10952152
529.71500,-41.83679981
529.71550,-32.98616199
529.71600,-19.55760805
529.71650,-7.044637333
529.71700,0.280028452
529.71750,5.468333383
529.71800,9.741055091
529.71850,11.26702713
529.71900,8.825471868
529.71950,4.857944568
529.72000,0.8904172674
529.72050,-1.856332402
529.72100,-4.603082071
529.72150,-5.213470887
529.72200,-1.551137994
529.72250,3.942361344
529.72300,8.52027746
529.72350,7.909888645
529.72400,3.026778121
529.72450,-2.16152681
529.72500,-4.297887663
529.72550,-0.9407491788
529.72600,5.468333383
529.72650,12.79299917
529.72700,17.67610969
529.72750,18.89688732
529.72800,17.9813041
529.72850,17.67610969
529.72900,18.89688732
529.72950,18.89688732
529.73000,16.15013765
529.73050,12.48780476
529.73100,10.65663831
529.73150,9.741055091
529.73200,7.299499829
529.73250,2.111194898
529.73300,-3.992693256
529.73350,-10.40177582
529.73400,-14.67449753
529.73450,-15.59008075
529.73500,-13.7589143
529.73550,-11.01216463
529.73600,-9.486192594
529.73650,-8.875803779
529.73700,-6.739442925
529.73750,-3.687498848
529.73800,-0.6355547711
529.73850,1.500806083
529.73900,3.637166937
529.73950,5.468333383
529.74000,6.689111014
529.74050,7.299499829
529.74100,8.215083052
529.74150,9.130666275
529.74200,9.130666275
529.74250,9.130666275
529.74300,10.0462495
529.74350,10.96183272
529.74400,10.96183272
529.74450,8.825471868
529.74500,6.078722198
529.74550,3.331972529
529.74600,1.195611675
529.74650,0.280028452
529.74700,0.8904172674
529.74750,1.806000491
529.74800,2.416389306
529.74850,2.721583714
529.74900,2.721583714
529.74950,1.806000491
529.75000,-0.02516595566
529.75050,-1.856332402
529.75100,-4.297887663
529.75150,-7.34983174
529.75200,-11.01216463
529.75250,-13.14852549
529.75300,-12.23294226
529.75350,-8.875803779
529.75400,-4.603082071
529.75450,0.8904172674
529.75500,8.215083052
529.75550,13.70858239
529.75600,14.0137768
529.75650,11.57222154
529.75700,10.96183272
529.75750,12.18261035
529.75800,11.57222154
529.75850,7.604694237
529.75900,2.721583714
529.75950,0.280028452
529.76000,0.5852228597
529.76050,3.026778121
529.76100,7.604694237
529.76150,12.79299917
529.76200,16.76052647
529.76250,18.28649851
529.76300,17.9813041
529.76350,15.53974884
529.76400,11.87741594
529.76450,10.0462495
529.76500,11.57222154
529.76550,13.70858239
529.76600,10.65663831
529.76650,3.331972529
529.76700,-1.856332402
529.76750,-2.771915625
529.76800,-3.077110033
529.76850,-5.213470887
529.76900,-7.044637333
529.76950,-6.434248517
529.77000,-6.434248517
529.77050,-11.62255345
529.77100,-23.52513535
529.77150,-36.34330047
529.77200,-43.36277185
529.77250,-40.00563336
529.77300,-28.40824587
529.77350,-16.20046956
529.77400,-9.180998187
529.77450,-8.265414964
529.77500,-12.53813667
529.77550,-21.08358009
529.77600,-30.84980113
529.77650,-33.2913564
529.77700,-21.99916331
529.77750,-1.856332402
529.77800,12.79299917
529.77850,13.70858239
529.77900,5.163138975
529.77950,-0.3303603634
529.78000,2.721583714
529.78050,11.57222154
529.78100,15.84494324
529.78150,8.215083052
529.78200,-9.180998187
529.78250,-25.6614962
529.78300,-29.3238291
529.78350,-17.7264416
529.78400,-0.02516595566
529.78450,14.0137768
529.78500,20.72805377
529.78550,19.81247054
529.78600,14.31897121
529.78650,9.435860683
529.78700,10.65663831
529.78750,19.81247054
529.78800,31.10466363
529.78850,38.12413501
529.78900,37.20855178
529.78950,28.96830278
529.79000,16.15013765
529.79050,4.247555752
529.79100,-0.6355547711
529.79150,1.500806083
529.79200,3.026778121
529.79250,-1.856332402
529.79300,-10.09658141
529.79350,-12.53813667
529.79400,-6.739442925
529.79450,-0.02516595566
529.79500,2.111194898
529.79550,0.5852228597
529.79600,-0.3303603634
529.79650,-2.16152681
529.79700,-5.823859702
529.79750,-9.791387002
529.79800,-11.62255345
529.79850,-12.53813667
529.79900,-14.06410871
529.79950,-14.67449753
529.80000,-12.84333108
529.80050,-8.875803779
529.80100,-6.434248517
529.80150,-5.213470887
529.80200,-4.908276479
529.80250,-5.823859702
529.80300,-8.875803779
529.80350,-11.01216463
529.80400,-9.180998187
529.80450,-4.297887663
529.80500,-2.16152681
529.80550,-3.992693256
529.80600,-7.044637333
529.80650,-8.265414964
529.80700,-9.180998187
529.80750,-11.01216463
529.80800,-11.92774786
529.80850,-10.70697023
529.80900,-9.791387002
529.80950,-11.31735904
529.81000,-12.53813667
529.81050,-9.791387002
529.81100,-4.297887663
529.81150,-1.245943586
529.81200,-2.16152681
529.81250,-5.518665294
529.81300,-7.960220556
529.81350,-9.791387002
529.81400,-11.31735904
529.81450,-11.62255345
529.81500,-11.01216463
529.81550,-10.09658141
529.81600,-9.180998187
529.81650,-7.960220556
529.81700,-5.823859702
529.81750,-2.771915625
529.81800,-0.02516595566
529.81850,2.721583714
529.81900,5.163138975
529.81950,5.468333383
529.82000,4.247555752
529.82050,3.026778121
529.82100,3.331972529
529.82150,4.857944568
529.82200,6.078722198
529.82250,6.383916606
529.82300,6.994305421
529.82350,8.215083052
529.82400,10.96183272
529.82450,14.92936002
529.82500,17.9813041
529.82550,17.9813041
529.82600,14.31897121
529.82650,9.741055091
529.82700,8.215083052
529.82750,9.741055091
529.82800,12.48780476
529.82850,15.84494324
529.82900,21.64363699
529.82950,28.05271955
529.83000,30.49427481
529.83050,28.05271955
529.83100,24.69558107
529.83150,20.11766495
529.83200,8.52027746
529.83250,-13.7589143
529.83300,-39.09005014
529.83350,-54.34977053
529.83400,-54.65496493
529.83450,-43.66796626
529.83500,-28.10305146
529.83550,-16.20046956
529.83600,-13.7589143
529.83650,-13.14852549
529.83700,3.942361344
529.83750,46.97477283
529.83800,94.27990602
529.83850,113.2019593
529.83900,95.19548925
529.83950,63.45527085
529.84000,39.65010705
529.84050,25.30596988
529.84100,10.65663831
529.84150,-6.739442925
529.84200,-23.52513535
529.84250,-36.34330047
529.84300,-40.92121659
529.84350,-33.5965508
529.84400,-19.55760805
529.84450,-13.45371989
529.84500,-20.47319127
529.84550,-29.3238291
529.84600,-28.71344028
529.84650,-21.38877449
529.84700,-16.50566397
529.84750,-16.20046956
529.84800,-18.03163601
529.84850,-20.47319127
529.84900,-22.91474653
529.84950,-21.38877449
529.85000,-14.36930312
529.85050,-6.12905411
529.85100,-0.02516595566
529.85150,6.078722198
529.85200,14.0137768
529.85250,17.37091528
529.85300,11.87741594
529.85350,1.500806083
529.85400,-6.739442925
529.85450,-11.92774786
529.85500,-13.7589143
529.85550,-9.486192594
529.85600,-0.6355547711
529.85650,3.026778121
529.85700,-2.16152681
529.85750,-11.31735904
529.85800,-14.67449753
529.85850,-12.23294226
529.85900,-11.31735904
529.85950,-14.06410871
529.86000,-18.03163601
529.86050,-21.08358009
529.86100,-20.47319127
529.86150,-14.67449753
529.86200,-4.297887663
529.86250,3.942361344
529.86300,7.604694237
529.86350,9.130666275
529.86400,11.57222154
529.86450,13.09819358
529.86500,10.35144391
529.86550,6.689111014
529.86600,7.604694237
529.86650,12.18261035
529.86700,17.06572088
529.86750,19.81247054
529.86800,21.9488314
529.86850,23.16960903
529.86900,21.33844258
529.86950,16.76052647
529.87000,10.0462495
529.87050,2.111194898
529.87100,-5.823859702
529.87150,-11.62255345
529.87200,-13.14852549
529.87250,-11.92774786
529.87300,-9.791387002
529.87350,-7.34983174
529.87400,-4.603082071
529.87450,-3.687498848
529.87500,-4.908276479
529.87550,-5.213470887
529.87600,-2.771915625
529.87650,-0.9407491788
529.87700,-1.856332402
529.87750,-3.077110033
529.87800,-0.02516595566
529.87850,4.55275016
529.87900,6.994305421
529.87950,6.689111014
529.88000,6.994305421
529.88050,8.52027746
529.88100,7.909888645
529.88150,5.163138975
529.88200,3.942361344
529.88250,6.994305421
529.88300,14.0137768
529.88350,21.64363699
529.88400,25.30596988
529.88450,21.33844258
529.88500,11.26702713
529.88550,3.637166937
529.88600,4.55275016
529.88650,7.299499829
529.88700,3.331972529
529.88750,-3.992693256
529.88800,-4.908276479
529.88850,-0.02516595566
529.88900,-1.551137994
529.88950,-12.53813667
529.89000,-21.08358009
529.89050,-18.33683042
529.89100,-14.67449753
529.89150,-23.52513535
529.89200,-40.92121659
529.89250,-52.51860408
529.89300,-50.99263204
529.89350,-35.42771725
529.89400,-1.245943586
529.89450,47.58516165
529.89500,88.78640669
529.89550,95.19548925
529.89600,69.559159
529.89650,41.7864679
529.89700,33.8514133
529.89750,36.29296856
529.89800,31.10466363
529.89850,15.23455443
529.89900,-0.9407491788
529.89950,-11.92774786
529.90000,-19.25241364
529.90050,-24.13552416
529.90100,-25.6614962
529.90150,-25.05110739
529.90200,-25.96669061
529.90250,-28.10305146
529.90300,-27.49266265
529.90350,-21.08358009
529.90400,-8.875803779
529.90450,6.994305421
529.90500,21.9488314
529.90550,28.35791396
529.90600,23.77999785
529.90650,12.79299917
529.90700,2.416389306
529.90750,-3.992693256
529.90800,-8.570609371
529.90850,-11.62255345
529.90900,-14.36930312
529.90950,-18.64202483
529.91000,-24.74591298
529.91050,-28.40824587
529.91100,-25.96669061
529.91150,-19.86280246
529.91200,-17.7264416
529.91250,-23.21994094
529.91300,-28.71344028
529.91350,-25.35630179
529.91400,-12.53813667
529.91450,0.8904172674
529.91500,7.604694237
529.91550,5.773527791
529.91600,-0.02516595566
529.91650,-3.38230444
529.91700,-0.02516595566
529.91750,11.26702713
529.91800,25.00077548
529.91850,32.02024685
529.91900,27.13713633
529.91950,12.79299917
529.92000,-4.603082071
529.92050,-18.64202483
529.92100,-24.44071857
529.92150,-21.38877449
529.92200,-13.45371989
529.92250,-8.265414964
529.92300,-7.960220556
529.92350,-8.570609371
529.92400,-5.823859702
529.92450,-1.551137994
529.92500,-0.02516595566
529.92550,0.8904172674
529.92600,3.331972529
529.92650,7.909888645
529.92700,10.96183272
529.92750,10.35144391
529.92800,8.215083052
529.92850,6.078722198
529.92900,3.942361344
529.92950,1.500806083
529.93000,-0.02516595566
529.93050,-2.16152681
529.93100,-5.213470887
529.93150,-7.34983174
529.93200,-5.213470887
529.93250,-0.9407491788
529.93300,0.5852228597
529.93350,-1.245943586
529.93400,-4.297887663
529.93450,-4.908276479
529.93500,-3.38230444
529.93550,-1.551137994
529.93600,0.280028452
529.93650,3.637166937
529.93700,6.689111014
529.93750,8.215083052
529.93800,10.65663831
529.93850,14.31897121
529.93900,17.37091528
529.93950,17.37091528
529.94000,14.92936002
529.94050,13.09819358
529.94100,11.57222154
529.94150,8.52027746
529.94200,3.331972529
529.94250,-1.245943586
529.94300,-3.077110033
529.94350,-1.245943586
529.94400,2.111194898
529.94450,6.078722198
529.94500,8.52027746
529.94550,8.825471868
529.94600,8.215083052
529.94650,7.604694237
529.94700,6.689111014
529.94750,5.163138975
529.94800,3.026778121
529.94850,0.5852228597
529.94900,-3.077110033
529.94950,-6.12905411
529.95000,-5.823859702
529.95050,-3.687498848
529.95100,-2.16152681
529.95150,-2.771915625
529.95200,-3.38230444
529.95250,-5.823859702
529.95300,-12.84333108
529.95350,-19.86280246
529.95400,-15.28488634
529.95450,0.5852228597
529.95500,13.70858239
529.95550,8.825471868
529.95600,-10.09658141
529.95650,-28.40824587
529.95700,-36.34330047
529.95750,-33.5965508
529.95800,-23.52513535
529.95850,-13.7589143
529.95900,-12.23294226
529.95950,-14.67449753
529.96000,-2.771915625
529.96050,30.49427481
529.96100,67.42279815
529.96150,81.76693531
529.96200,72.00071426
529.96250,57.04618828
529.96300,47.27996724
529.96350,39.03971823
529.96400,32.63063567
529.96450,35.07219093
529.96500,41.48127349
529.96550,36.29296856
529.96600,13.70858239
529.96650,-11.62255345
529.96700,-26.27188502
529.96750,-30.54460673
529.96800,-32.68096758
529.96850,-34.81732843
529.96900,-33.5965508
529.96950,-29.93421791
529.97000,-23.52513535
529.97050,-12.84333108
529.97100,1.195611675
529.97150,11.57222154
529.97200,12.48780476
529.97250,6.383916606
529.97300,0.280028452
529.97350,-3.077110033
529.97400,-6.434248517
529.97450,-10.40177582
529.97500,-14.06410871
529.97550,-16.20046956
529.97600,-17.11605279
529.97650,-19.25241364
529.97700,-22.60955213
529.97750,-25.96669061
529.97800,-25.6614962
529.97850,-22.91474653
529.97900,-22.30435772
529.97950,-25.96669061
529.98000,-30.54460673
529.98050,-32.98616199
529.98100,-34.51213403
529.98150,-34.81732843
529.98200,-31.15499554
529.98250,-21.38877449
529.98300,-11.31735904
529.98350,-7.044637333
529.98400,-7.044637333
529.98450,-4.908276479
529.98500,0.8904172674
529.98550,5.163138975
529.98600,3.942361344
529.98650,0.280028452
529.98700,0.280028452
529.98750,4.857944568
529.98800,10.65663831
529.98850,13.70858239
529.98900,12.79299917
529.98950,12.48780476
529.99000,17.67610969
529.99050,28.35791396
529.99100,35.68257975
529.99150,33.24102448
529.99200,22.86441462
529.99250,13.09819358
529.99300,8.215083052
529.99350,6.383916606
529.99400,4.247555752
529.99450,3.026778121
529.99500,4.247555752
529.99550,6.383916606
529.99600,7.604694237
529.99650,8.825471868
529.99700,10.96183272
529.99750,9.130666275
529.99800,-0.02516595566
529.99850,-12.23294226
529.99900,-18.94721923
529.99950,-16.50566397
530.00000,-11.62255345
530.00050,-12.23294226
530.00100,-16.50566397
530.00150,-18.03163601
530.00200,-14.97969193
530.00250,-10.40177582
530.00300,-6.434248517
530.00350,-1.856332402
530.00400,0.8904172674
530.00450,-0.6355547711
530.00500,-6.12905411
530.00550,-9.486192594
530.00600,-7.655026148
530.00650,-2.771915625
530.00700,0.5852228597
530.00750,3.637166937
530.00800,6.689111014
530.00850,8.215083052
530.00900,7.604694237
530.00950,6.383916606
530.01000,5.163138975
530.01050,2.416389306
530.01100,-1.551137994
530.01150,-3.687498848
530.01200,-4.297887663
530.01250,-8.570609371
530.01300,-17.7264416
530.01350,-23.83032976
530.01400,-19.86280246
530.01450,-10.70697023
530.01500,-4.603082071
530.01550,-4.603082071
530.01600,-6.434248517
530.01650,-7.655026148
530.01700,-8.570609371
530.01750,-7.34983174
530.01800,-2.466721217
530.01850,3.331972529
530.01900,6.994305421
530.01950,8.825471868
530.02000,11.26702713
530.02050,13.40338798
530.02100,12.48780476
530.02150,10.35144391
530.02200,12.48780476
530.02250,17.9813041
530.02300,22.25402581
530.02350,22.55922021
530.02400,20.42285936
530.02450,14.0137768
530.02500,1.195611675
530.02550,-13.45371989
530.02600,-21.38877449
530.02650,-20.47319127
530.02700,-17.11605279
530.02750,-15.28488634
530.02800,-11.62255345
530.02850,-3.992693256
530.02900,7.604694237
530.02950,24.08519225
530.03000,45.14360638
530.03050,64.06565966
530.03100,69.25396459
530.03150,59.48774355
530.03200,45.7539952
530.03250,35.98777415
530.03300,28.05271955
530.03350,18.59169291
530.03400,9.435860683
530.03450,-0.3303603634
530.03500,-18.94721923
530.03550,-46.41471593
530.03600,-67.77832447
530.03650,-67.77832447
530.03700,-47.63549356
530.03750,-24.13552416
530.03800,-11.92774786
530.03850,-12.84333108
530.03900,-18.03163601
530.03950,-12.84333108
530.04000,12.18261035
530.04050,49.11113368
530.04100,73.22149189
530.04150,68.64357578
530.04200,44.83841198
530.04250,22.86441462
530.04300,12.48780476
530.04350,7.909888645
530.04400,3.026778121
530.04450,0.5852228597
530.04500,0.8904172674
530.04550,0.280028452
530.04600,-2.771915625
530.04650,-5.213470887
530.04700,-4.603082071
530.04750,-4.297887663
530.04800,-4.908276479
530.04850,-3.077110033
530.04900,2.721583714
530.04950,7.909888645
530.05000,6.383916606
530.05050,-0.6355547711
530.05100,-6.739442925
530.05150,-9.180998187
530.05200,-11.31735904
530.05250,-15.28488634
530.05300,-20.16799686
530.05350,-23.21994094
530.05400,-24.13552416
530.05450,-24.44071857
530.05500,-23.21994094
530.05550,-18.03163601
530.05600,-10.40177582
530.05650,-1.856332402
530.05700,5.773527791
530.05750,12.18261035
530.05800,15.53974884
530.05850,14.0137768
530.05900,10.96183272
530.05950,9.435860683
530.06000,9.435860683
530.06050,6.689111014
530.06100,-0.3303603634
530.06150,-9.486192594
530.06200,-17.11605279
530.06250,-20.16799686
530.06300,-17.42124719
530.06350,-8.875803779
530.06400,2.416389306
530.06450,10.0462495
530.06500,10.0462495
530.06550,3.942361344
530.06600,-3.687498848
530.06650,-9.486192594
530.06700,-10.70697023
530.06750,-7.34983174
530.06800,-3.687498848
530.06850,-3.687498848
530.06900,-8.570609371
530.06950,-14.97969193
530.07000,-20.16799686
530.07050,-22.30435772
530.07100,-21.6939689
530.07150,-20.47319127
530.07200,-22.91474653
530.07250,-29.01863469
530.07300,-34.20693962
530.07350,-33.90174521
530.07400,-28.10305146
530.07450,-19.55760805
530.07500,-9.791387002
530.07550,-0.02516595566
530.07600,7.299499829
530.07650,12.18261035
530.07700,18.59169291
530.07750,28.05271955
530.07800,35.68257975
530.07850,34.46180211
530.07900,24.08519225
530.07950,10.65663831
530.08000,-0.02516595566
530.08050,-3.992693256
530.08100,-1.551137994
530.08150,2.111194898
530.08200,1.195611675
530.08250,-2.771915625
530.08300,-3.992693256
530.08350,-2.466721217
530.08400,-8.265414964
530.08450,-22.91474653
530.08500,-35.73291166
530.08550,-36.95368929
530.08600,-32.07057876
530.08650,-29.6290235
530.08700,-29.3238291
530.08750,-27.79785706
530.08800,-26.27188502
530.08850,-19.86280246
530.08900,6.994305421
530.08950,56.74099388
530.09000,100.0785998
530.09050,101.9097662
530.09100,63.76046525
530.09150,21.03324818
530.09200,-1.245943586
530.09250,-7.655026148
530.09300,-10.70697023
530.09350,-11.31735904
530.09400,-7.960220556
530.09450,-6.434248517
530.09500,-9.180998187
530.09550,-9.486192594
530.09600,-3.38230444
530.09650,2.721583714
530.09700,2.111194898
530.09750,-1.245943586
530.09800,-0.02516595566
530.09850,7.299499829
530.09900,14.62416561
530.09950,19.20208173
530.10000,22.25402581
530.10050,23.16960903
530.10100,21.64363699
530.10150,18.28649851
530.10200,14.62416561
530.10250,10.35144391
530.10300,6.689111014
530.10350,6.994305421
530.10400,10.96183272
530.10450,14.62416561
530.10500,16.15013765
530.10550,17.06572088
530.10600,19.20208173
530.10650,19.20208173
530.10700,14.92936002
530.10750,8.215083052
530.10800,2.416389306
530.10850,-2.771915625
530.10900,-9.180998187
530.10950,-14.36930312
530.11000,-15.89527516
530.11050,-14.67449753
530.11100,-11.92774786
530.11150,-8.875803779
530.11200,-6.739442925
530.11250,-7.960220556
530.11300,-11.31735904
530.11350,-13.45371989
530.11400,-11.92774786
530.11450,-11.62255345
530.11500,-17.42124719
530.11550,-26.57707943
530.11600,-30.84980113
530.11650,-27.49266265
530.11700,-21.6939689
530.11750,-19.55760805
530.11800,-20.47319127
530.11850,-20.16799686
530.11900,-18.33683042
530.11950,-16.20046956
530.12000,-13.14852549
530.12050,-5.823859702
530.12100,4.857944568
530.12150,14.31897121
530.12200,19.50727614
530.12250,23.16960903
530.12300,27.74752515
530.12350,30.49427481
530.12400,28.96830278
530.12450,25.61116429
530.12500,24.69558107
530.12550,24.39038666
530.12600,20.11766495
530.12650,12.18261035
530.12700,3.637166937
530.12750,-3.992693256
530.12800,-12.23294226
530.12850,-18.94721923
530.12900,-19.25241364
530.12950,-14.67449753
530.13000,-12.23294226
530.13050,-13.45371989
530.13100,-11.92774786
530.13150,-3.992693256
530.13200,4.247555752
530.13250,3.942361344
530.13300,-6.434248517
530.13350,-19.86280246
530.13400,-28.10305146
530.13450,-29.6290235
530.13500,-28.40824587
530.13550,-26.88227383
530.13600,-23.21994094
530.13650,-12.84333108
530.13700,4.247555752
530.13750,20.42285936
530.13800,25.61116429
530.13850,19.81247054
530.13900,11.87741594
530.13950,8.52027746
530.14000,9.741055091
530.14050,10.65663831
530.14100,9.435860683
530.14150,7.909888645
530.14200,8.215083052
530.14250,9.741055091
530.14300,10.65663831
530.14350,9.435860683
530.14400,6.383916606
530.14450,3.026778121
530.14500,1.806000491
530.14550,3.331972529
530.14600,6.689111014
530.14650,9.741055091
530.14700,10.0462495
530.14750,6.689111014
530.14800,0.5852228597
530.14850,-4.297887663
530.14900,-6.12905411
530.14950,-4.603082071
530.15000,-2.466721217
530.15050,-0.9407491788
530.15100,-0.9407491788
530.15150,-2.466721217
530.15200,-3.38230444
530.15250,-3.992693256
530.15300,-4.908276479
530.15350,-7.34983174
530.15400,-9.486192594
530.15450,-9.486192594
530.15500,-7.960220556
530.15550,-7.044637333
530.15600,-6.12905411
530.15650,-4.603082071
530.15700,-3.687498848
530.15750,-3.687498848
530.15800,-2.16152681
530.15850,2.721583714
530.15900,7.909888645
530.15950,9.435860683
530.16000,8.215083052
530.16050,8.215083052
530.16100,6.994305421
530.16150,2.721583714
530.16200,-0.6355547711
530.16250,0.5852228597
530.16300,0.8904172674
530.16350,-7.34983174
530.16400,-19.86280246
530.16450,-24.13552416
530.16500,-18.64202483
530.16550,-15.28488634
530.16600,-18.33683042
530.16650,-20.77838568
530.16700,-19.86280246
530.16750,-20.47319127
530.16800,-18.94721923
530.16850,-0.3303603634
530.16900,35.37738534
530.16950,64.67604848
530.17000,63.45527085
530.17050,39.03971823
530.17100,16.15013765
530.17150,5.468333383
530.17200,-1.551137994
530.17250,-10.70697023
530.17300,-15.28488634
530.17350,-10.40177582
530.17400,-1.856332402
530.17450,4.55275016
530.17500,9.435860683
530.17550,11.26702713
530.17600,6.994305421
530.17650,-2.16152681
530.17700,-9.791387002
530.17750,-10.40177582
530.17800,-7.34983174
530.17850,-6.12905411
530.17900,-7.960220556
530.17950,-9.486192594
530.18000,-10.09658141
530.18050,-10.70697023
530.18100,-12.84333108
530.18150,-14.97969193
530.18200,-15.59008075
530.18250,-15.28488634
530.18300,-14.06410871
530.18350,-13.14852549
530.18400,-11.92774786
530.18450,-9.180998187
530.18500,-4.603082071
530.18550,1.195611675
530.18600,9.741055091
530.18650,21.9488314
530.18700,35.68257975
530.18750,46.05918961
530.18800,49.11113368
530.18850,43.61763435
530.18900,32.63063567
530.18950,20.42285936
530.19000,10.96183272
530.19050,6.078722198
530.19100,5.163138975
530.19150,4.247555752
530.19200,1.500806083
530.19250,-0.9407491788
530.19300,-2.771915625
530.19350,-4.603082071
530.19400,-8.875803779
530.19450,-14.36930312
530.19500,-17.42124719
530.19550,-17.7264416
530.19600,-16.81085838
530.19650,-15.28488634
530.19700,-11.62255345
530.19750,-7.044637333
530.19800,-4.603082071
530.19850,-6.12905411
530.19900,-7.34983174
530.19950,-5.518665294
530.20000,-1.551137994
530.20050,-0.02516595566
530.20100,-1.856332402
530.20150,-2.466721217
530.20200,0.8904172674
530.20250,7.909888645
530.20300,14.92936002
530.20350,20.42285936
530.20400,23.77999785
530.20450,25.30596988
530.20500,25.9163587
530.20550,27.44233074
530.20600,28.66310837
530.20650,26.52674751
530.20700,19.81247054
530.20750,11.87741594
530.20800,6.689111014
530.20850,3.637166937
530.20900,0.8904172674
530.20950,-1.245943586
530.21000,-0.02516595566
530.21050,3.942361344
530.21100,5.773527791
530.21150,1.195611675
530.21200,-7.960220556
530.21250,-18.94721923
530.21300,-28.40824587
530.21350,-34.51213403
530.21400,-35.73291166
530.21450,-32.98616199
530.21500,-30.23941232
530.21550,-30.23941232
530.21600,-31.15499554
530.21650,-29.6290235
530.21700,-26.27188502
530.21750,-22.60955213
530.21800,-19.55760805
530.21850,-16.20046956
530.21900,-11.31735904
530.21950,-5.823859702
530.22000,-0.6355547711
530.22050,2.721583714
530.22100,5.773527791
530.22150,10.96183272
530.22200,19.50727614
530.22250,25.9163587
530.22300,24.08519225
530.22350,15.23455443
530.22400,5.773527791
530.22450,-1.551137994
530.22500,-10.40177582
530.22550,-20.47319127
530.22600,-27.79785706
530.22650,-29.93421791
530.22700,-31.76538436
530.22750,-36.34330047
530.22800,-39.39524455
530.22850,-36.64849488
530.22900,-28.71344028
530.22950,-16.81085838
530.23000,1.806000491
530.23050,26.22155311
530.23100,41.7864679
530.23150,36.90335738
530.23200,17.67610969
530.23250,0.8904172674
530.23300,-6.739442925
530.23350,-12.84333108
530.23400,-21.08358009
530.23450,-26.27188502
530.23500,-24.13552416
530.23550,-18.33683042
530.23600,-13.14852549
530.23650,-5.518665294
530.23700,4.55275016
530.23750,13.40338798
530.23800,19.50727614
530.23850,29.883886
530.23900,46.05918961
530.23950,57.04618828
530.24000,53.38385539
530.24050,40.87088468
530.24100,32.32544126
530.24150,29.57869159
530.24200,27.13713633
530.24250,21.64363699
530.24300,14.62416561
530.24350,6.078722198
530.24400,-3.687498848
530.24450,-11.92774786
530.24500,-12.53813667
530.24550,-7.655026148
530.24600,-2.466721217
530.24650,-0.6355547711
530.24700,-2.771915625
530.24750,-8.265414964
530.24800,-11.01216463
530.24850,0.280028452
530.24900,28.96830278
530.24950,58.87735473
530.25000,69.559159
530.25050,58.87735473
530.25100,42.09166231
530.25150,30.18908041
530.25200,19.50727614
530.25250,4.55275016
530.25300,-10.09658141
530.25350,-18.64202483
530.25400,-18.94721923
530.25450,-12.53813667
530.25500,-1.551137994
530.25550,6.994305421
530.25600,6.383916606
530.25650,-2.771915625
530.25700,-11.92774786
530.25750,-16.20046956
530.25800,-21.6939689
530.25850,-33.2913564
530.25900,-43.05757744
530.25950,-42.14199422
530.26000,-32.98616199
530.26050,-25.6614962
530.26100,-22.60955213
530.26150,-19.25241364
530.26200,-14.97969193
530.26250,-9.791387002
530.26300,2.721583714
530.26350,29.883886
530.26400,60.40332677
530.26450,69.559159
530.26500,47.27996724
530.26550,11.57222154
530.26600,-11.92774786
530.26650,-17.11605279
530.26700,-14.06410871
530.26750,-10.40177582
530.26800,-4.908276479
530.26850,0.8904172674
530.26900,1.806000491
530.26950,-2.771915625
530.27000,-7.960220556
530.27050,-8.570609371
530.27100,-7.34983174
530.27150,-7.34983174
530.27200,-6.739442925
530.27250,-3.38230444
530.27300,-0.02516595566
530.27350,-0.6355547711
530.27400,-5.518665294
530.27450,-12.53813667
530.27500,-19.86280246
530.27550,-24.74591298
530.27600,-23.52513535
530.27650,-14.36930312
530.27700,-3.38230444
530.27750,0.5852228597
530.27800,-2.466721217
530.27850,-7.655026148
530.27900,-9.486192594
530.27950,-9.180998187
530.28000,-8.875803779
530.28050,-8.265414964
530.28100,-6.739442925
530.28150,-5.823859702
530.28200,-5.518665294
530.28250,-3.687498848
530.28300,-0.02516595566
530.28350,3.026778121
530.28400,2.721583714
530.28450,2.111194898
530.28500,6.383916606
530.28550,13.40338798
530.28600,15.84494324
530.28650,12.48780476
530.28700,8.215083052
530.28750,6.383916606
530.28800,4.857944568
530.28850,1.500806083
530.28900,-0.02516595566
530.28950,1.195611675
530.29000,2.416389306
530.29050,-1.245943586
530.29100,-8.265414964
530.29150,-11.31735904
530.29200,-9.791387002
530.29250,-8.265414964
530.29300,-13.14852549
530.29350,-23.52513535
530.29400,-33.2913564
530.29450,-35.12252284
530.29500,-28.40824587
530.29550,-19.86280246
530.29600,-15.28488634
530.29650,-13.45371989
530.29700,-7.960220556
530.29750,2.416389306
530.29800,12.79299917
530.29850,19.50727614
530.29900,24.39038666
530.29950,27.74752515
530.30000,26.22155311
530.30050,18.89688732
530.30100,13.40338798
530.30150,14.62416561
530.30200,17.37091528
530.30250,12.79299917
530.30300,3.637166937
530.30350,0.280028452
530.30400,5.468333383
530.30450,10.96183272
530.30500,9.130666275
530.30550,3.942361344
530.30600,2.721583714
530.30650,6.078722198
530.30700,8.52027746
530.30750,7.299499829
530.30800,4.857944568
530.30850,4.857944568
530.30900,6.383916606
530.30950,5.163138975
530.31000,1.500806083
530.31050,-1.551137994
530.31100,-0.9407491788
530.31150,1.500806083
530.31200,1.806000491
530.31250,-2.16152681
530.31300,-9.180998187
530.31350,-14.36930312
530.31400,-14.36930312
530.31450,-8.875803779
530.31500,-2.466721217
530.31550,0.280028452
530.31600,-0.9407491788
530.31650,-4.297887663
530.31700,-8.570609371
530.31750,-14.97969193
530.31800,-20.47319127
530.31850,-21.38877449
530.31900,-17.7264416
530.31950,-16.20046956
530.32000,-18.33683042
530.32050,-19.25241364
530.32100,-13.45371989
530.32150,-3.687498848
530.32200,2.721583714
530.32250,5.468333383
530.32300,9.741055091
530.32350,15.23455443
530.32400,17.9813041
530.32450,18.59169291
530.32500,24.39038666
530.32550,40.26049586
530.32600,55.82541065
530.32650,56.43579947
530.32700,40.87088468
530.32750,21.03324818
530.32800,7.604694237
530.32850,0.280028452
530.32900,-4.908276479
530.32950,-7.34983174
530.33000,-6.12905411
530.33050,-5.518665294
530.33100,-6.434248517
530.33150,-3.077110033
530.33200,5.773527791
530.33250,10.35144391
530.33300,-0.02516595566
530.33350,-20.16799686
530.33400,-34.51213403
530.33450,-40.00563336
530.33500,-44.58354948
530.33550,-50.07704882
530.33600,-50.38224323
530.33650,-47.94068796
530.33700,-49.1614656
530.33750,-45.1939383
530.33800,-17.7264416
530.33850,29.883886
530.33900,64.98124288
530.33950,63.45527085
530.34000,38.42932941
530.34050,18.89688732
530.34100,13.09819358
530.34150,9.435860683
530.34200,3.942361344
530.34250,3.026778121
530.34300,8.215083052
530.34350,12.18261035
530.34400,11.57222154
530.34450,11.26702713
530.34500,11.57222154
530.34550,7.909888645
530.34600,1.195611675
530.34650,-2.16152681
530.34700,-0.02516595566
530.34750,2.721583714
530.34800,-0.3303603634
530.34850,-7.655026148
530.34900,-15.59008075
530.34950,-22.60955213
530.35000,-28.10305146
530.35050,-32.07057876
530.35100,-34.20693962
530.35150,-34.51213403
530.35200,-30.54460673
530.35250,-18.94721923
530.35300,-2.16152681
530.35350,10.35144391
530.35400,13.09819358
530.35450,8.215083052
530.35500,2.721583714
530.35550,0.280028452
530.35600,-0.02516595566
530.35650,-0.02516595566
530.35700,0.8904172674
530.35750,4.55275016
530.35800,8.52027746
530.35850,10.65663831
530.35900,11.57222154
530.35950,12.48780476
530.36000,12.48780476
530.36050,8.52027746
530.36100,1.195611675
530.36150,-4.297887663
530.36200,-3.992693256
530.36250,0.280028452
530.36300,3.942361344
530.36350,5.163138975
530.36400,8.52027746
530.36450,15.84494324
530.36500,21.9488314
530.36550,20.42285936
530.36600,12.79299917
530.36650,6.383916606
530.36700,4.857944568
530.36750,4.857944568
530.36800,2.721583714
530.36850,-0.9407491788
530.36900,-2.771915625
530.36950,-2.16152681
530.37000,0.280028452
530.37050,3.331972529
530.37100,4.857944568
530.37150,3.942361344
530.37200,2.111194898
530.37250,1.500806083
530.37300,2.721583714
530.37350,2.721583714
530.37400,0.280028452
530.37450,-4.297887663
530.37500,-10.70697023
530.37550,-15.28488634
530.37600,-16.20046956
530.37650,-13.7589143
530.37700,-11.92774786
530.37750,-14.36930312
530.37800,-18.64202483
530.37850,-20.16799686
530.37900,-16.20046956
530.37950,-10.70697023
530.38000,-5.213470887
530.38050,0.280028452
530.38100,5.773527791
530.38150,7.909888645
530.38200,7.909888645
530.38250,8.825471868
530.38300,14.0137768
530.38350,20.72805377
530.38400,25.00077548
530.38450,25.30596988
530.38500,22.55922021
530.38550,17.06572088
530.38600,10.0462495
530.38650,5.163138975
530.38700,3.331972529
530.38750,0.280028452
530.38800,-5.213470887
530.38850,-11.62255345
530.38900,-12.53813667
530.38950,-7.34983174
530.39000,-0.6355547711
530.39050,3.637166937
530.39100,6.994305421
530.39150,10.35144391
530.39200,10.65663831
530.39250,4.857944568
530.39300,-4.297887663
530.39350,-11.31735904
530.39400,-13.7589143
530.39450,-14.67449753
530.39500,-16.20046956
530.39550,-16.81085838
530.39600,-13.45371989
530.39650,-6.434248517
530.39700,2.111194898
530.39750,9.741055091
530.39800,12.79299917
530.39850,9.130666275
530.39900,1.500806083
530.39950,-4.908276479
530.40000,-8.265414964
530.40050,-9.791387002
530.40100,-9.791387002
530.40150,-6.434248517
530.40200,-2.771915625
530.40250,-4.908276479
530.40300,-12.23294226
530.40350,-15.89527516
530.40400,-8.570609371
530.40450,3.942361344
530.40500,13.40338798
530.40550,15.84494324
530.40600,13.40338798
530.40650,7.909888645
530.40700,0.280028452
530.40750,-4.603082071
530.40800,-5.213470887
530.40850,-5.213470887
530.40900,-7.960220556
530.40950,-11.31735904
530.41000,-12.23294226
530.41050,-12.23294226
530.41100,-14.36930312
530.41150,-17.11605279
530.41200,-18.33683042
530.41250,-20.16799686
530.41300,-25.35630179
530.41350,-29.93421791
530.41400,-30.23941232
530.41450,-27.79785706
530.41500,-23.52513535
530.41550,-8.875803779
530.41600,21.9488314
530.41650,56.13060506
530.41700,67.72799255
530.41750,48.19555046
530.41800,17.67610969
530.41850,3.331972529
530.41900,10.96183272
530.41950,25.00077548
530.42000,31.71505245
530.42050,29.883886
530.42100,22.55922021
530.42150,9.741055091
530.42200,-5.518665294
530.42250,-14.67449753
530.42300,-11.31735904
530.42350,-0.6355547711
530.42400,6.078722198
530.42450,7.604694237
530.42500,10.0462495
530.42550,14.92936002
530.42600,16.76052647
530.42650,13.40338798
530.42700,10.96183272
530.42750,11.26702713
530.42800,8.825471868
530.42850,1.195611675
530.42900,-2.771915625
530.42950,1.195611675
530.43000,8.52027746
530.43050,9.130666275
530.43100,3.331972529
530.43150,-0.9407491788
530.43200,-3.077110033
530.43250,-4.297887663
530.43300,-1.856332402
530.43350,8.825471868
530.43400,21.9488314
530.43450,24.08519225
530.43500,12.18261035
530.43550,-3.077110033
530.43600,-13.45371989
530.43650,-19.25241364
530.43700,-22.60955213
530.43750,-21.99916331
530.43800,-16.50566397
530.43850,-10.40177582
530.43900,-7.655026148
530.43950,-7.960220556
530.44000,-7.34983174
530.44050,-4.603082071
530.44100,-1.245943586
530.44150,1.195611675
530.44200,2.721583714
530.44250,2.721583714
530.44300,3.331972529
530.44350,3.942361344
530.44400,3.942361344
530.44450,1.195611675
530.44500,-2.16152681
530.44550,-5.823859702
530.44600,-10.09658141
530.44650,-15.89527516
530.44700,-20.77838568
530.44750,-22.91474653
530.44800,-23.83032976
530.44850,-25.35630179
530.44900,-26.27188502
530.44950,-24.13552416
530.45000,-19.55760805
530.45050,-15.59008075
530.45100,-12.23294226
530.45150,-8.875803779
530.45200,-5.213470887
530.45250,-3.687498848
530.45300,-3.687498848
530.45350,-3.992693256
530.45400,-3.687498848
530.45450,-3.992693256
530.45500,-5.518665294
530.45550,-6.739442925
530.45600,-5.213470887
530.45650,1.195611675
530.45700,13.40338798
530.45750,25.30596988
530.45800,29.57869159
530.45850,25.00077548
530.45900,17.67610969
530.45950,11.57222154
530.46000,5.163138975
530.46050,-3.38230444
530.46100,-8.570609371
530.46150,-3.992693256
530.46200,7.909888645
530.46250,18.59169291
530.46300,21.9488314
530.46350,20.11766495
530.46400,17.9813041
530.46450,15.53974884
530.46500,12.79299917
530.46550,11.57222154
530.46600,13.40338798
530.46650,14.0137768
530.46700,7.299499829
530.46750,-6.12905411
530.46800,-21.08358009
530.46850,-30.54460673
530.46900,-32.68096758
530.46950,-30.84980113
530.47000,-28.10305146
530.47050,-25.6614962
530.47100,-22.91474653
530.47150,-18.94721923
530.47200,-13.14852549
530.47250,-6.434248517
530.47300,1.195611675
530.47350,9.741055091
530.47400,18.59169291
530.47450,22.55922021
530.47500,18.59169291
530.47550,8.52027746
530.47600,-0.02516595566
530.47650,-2.466721217
530.47700,-0.6355547711
530.47750,-0.02516595566
530.47800,-2.771915625
530.47850,-5.518665294
530.47900,-3.687498848
530.47950,1.806000491
530.48000,6.994305421
530.48050,6.383916606
530.48100,0.8904172674
530.48150,-3.992693256
530.48200,-5.213470887
530.48250,-2.771915625
530.48300,0.8904172674
530.48350,5.468333383
530.48400,11.26702713
530.48450,15.53974884
530.48500,16.15013765
530.48550,14.31897121
530.48600,13.70858239
530.48650,14.92936002
530.48700,14.31897121
530.48750,10.96183272
530.48800,8.52027746
530.48850,8.215083052
530.48900,8.52027746
530.48950,7.604694237
530.49000,6.078722198
530.49050,4.247555752
530.49100,1.806000491
530.49150,-0.6355547711
530.49200,-1.551137994
530.49250,-1.551137994
530.49300,-2.466721217
530.49350,-4.603082071
530.49400,-5.518665294
530.49450,-4.297887663
530.49500,-5.518665294
530.49550,-10.70697023
530.49600,-14.97969193
530.49650,-13.45371989
530.49700,-8.265414964
530.49750,-5.823859702
530.49800,-6.739442925
530.49850,-6.739442925
530.49900,-3.077110033
530.49950,2.721583714
530.50000,8.52027746
530.50050,13.40338798
530.50100,16.76052647
530.50150,17.06572088
530.50200,15.53974884
530.50250,14.0137768
530.50300,13.40338798
530.50350,12.18261035
530.50400,8.52027746
530.50450,3.942361344
530.50500,0.5852228597
530.50550,-0.6355547711
530.50600,-1.245943586
530.50650,-1.856332402
530.50700,-2.466721217
530.50750,-2.16152681
530.50800,0.8904172674
530.50850,5.468333383
530.50900,6.994305421
530.50950,4.247555752
530.51000,0.280028452
530.51050,-0.9407491788
530.51100,-1.856332402
530.51150,-5.518665294
530.51200,-10.09658141
530.51250,-12.84333108
530.51300,-12.23294226
530.51350,-9.791387002
530.51400,-5.213470887
530.51450,3.637166937
530.51500,15.53974884
530.51550,23.77999785
530.51600,23.47480344
530.51650,14.92936002
530.51700,-0.02516595566
530.51750,-15.89527516
530.51800,-22.30435772
530.51850,-11.92774786
530.51900,7.604694237
530.51950,20.11766495
530.52000,17.9813041
530.52050,12.48780476
530.52100,15.53974884
530.52150,25.61116429
530.52200,32.32544126
530.52250,31.71505245
530.52300,25.00077548
530.52350,15.53974884
530.52400,7.604694237
530.52450,8.52027746
530.52500,16.76052647
530.52550,16.76052647
530.52600,-2.466721217
530.52650,-31.15499554
530.52700,-47.02510474
530.52750,-46.41471593
530.52800,-45.80432711
530.52850,-54.65496493
530.52900,-63.50560276
530.52950,-60.45365868
530.53000,-44.58354948
530.53050,-17.42124719
530.53100,21.33844258
530.53150,63.15007644
530.53200,84.20849057
530.53250,69.86435341
530.53300,33.54621889
530.53350,3.637166937
530.53400,-7.34983174
530.53450,-8.570609371
530.53500,-10.40177582
530.53550,-13.14852549
530.53600,-14.36930312
530.53650,-14.67449753
530.53700,-16.50566397
530.53750,-18.64202483
530.53800,-20.16799686
530.53850,-21.99916331
530.53900,-23.83032976
530.53950,-24.44071857
530.54000,-22.60955213
530.54050,-21.6939689
530.54100,-22.60955213
530.54150,-23.52513535
530.54200,-21.99916331
530.54250,-18.03163601
530.54300,-13.45371989
530.54350,-9.180998187
530.54400,-4.603082071
530.54450,-0.3303603634
530.54500,0.5852228597
530.54550,-0.6355547711
530.54600,-1.245943586
530.54650,0.5852228597
530.54700,3.331972529
530.54750,2.416389306
530.54800,-1.245943586
530.54850,-4.603082071
530.54900,-5.213470887
530.54950,-5.518665294
530.55000,-6.739442925
530.55050,-7.655026148
530.55100,-7.044637333
530.55150,-5.823859702
530.55200,-4.603082071
530.55250,-3.077110033
530.55300,-1.245943586
530.55350,0.280028452
530.55400,2.111194898
530.55450,5.773527791
530.55500,10.65663831
530.55550,12.48780476
530.55600,9.741055091
530.55650,4.247555752
530.55700,-0.02516595566
530.55750,-2.16152681
530.55800,-3.992693256
530.55850,-5.213470887
530.55900,-3.077110033
530.55950,3.331972529
530.56000,13.40338798
530.56050,23.77999785
530.56100,31.40985804
530.56150,35.68257975
530.56200,36.29296856
530.56250,34.46180211
530.56300,28.96830278
530.56350,21.33844258
530.56400,14.0137768
530.56450,8.215083052
530.56500,2.721583714
530.56550,-3.077110033
530.56600,-6.739442925
530.56650,-8.570609371
530.56700,-12.53813667
530.56750,-21.08358009
530.56800,-28.10305146
530.56850,-28.10305146
530.56900,-25.96669061
530.56950,-29.6290235
530.57000,-37.86927251
530.57050,-41.226411
530.57100,-35.12252284
530.57150,-25.96669061
530.57200,-17.7264416
530.57250,-10.70697023
530.57300,-5.213470887
530.57350,-4.297887663
530.57400,-3.077110033
530.57450,6.689111014
530.57500,22.55922021
530.57550,28.35791396
530.57600,17.9813041
530.57650,6.383916606
530.57700,9.130666275
530.57750,20.11766495
530.57800,21.03324818
530.57850,8.52027746
530.57900,-3.687498848
530.57950,-8.570609371
530.58000,-11.62255345
530.58050,-17.11605279
530.58100,-20.16799686
530.58150,-18.33683042
530.58200,-16.20046956
530.58250,-18.03163601
530.58300,-19.86280246
530.58350,-17.7264416
530.58400,-14.67449753
530.58450,-12.84333108
530.58500,-6.434248517
530.58550,10.65663831
530.58600,33.8514133
530.58650,51.85788335
530.58700,57.6565771
530.58750,52.16307776
530.58800,40.56569027
530.58850,28.05271955
530.58900,18.28649851
530.58950,11.57222154
530.59000,6.994305421
530.59050,4.857944568
530.59100,5.773527791
530.59150,7.604694237
530.59200,5.773527791
530.59250,-0.02516595566
530.59300,-4.603082071
530.59350,-5.213470887
530.59400,-4.603082071
530.59450,-5.823859702
530.59500,-7.960220556
530.59550,-8.875803779
530.59600,-10.09658141
530.59650,-12.84333108
530.59700,-14.36930312
530.59750,-10.40177582
530.59800,-1.856332402
530.59850,5.773527791
530.59900,8.825471868
530.59950,6.994305421
530.60000,3.637166937
530.60050,1.806000491
530.60100,4.247555752
530.60150,9.130666275
530.60200,11.26702713
530.60250,8.825471868
530.60300,4.857944568
530.60350,4.55275016
530.60400,8.825471868
530.60450,14.0137768
530.60500,16.15013765
530.60550,15.53974884
530.60600,13.70858239
530.60650,11.87741594
530.60700,9.130666275
530.60750,6.689111014
530.60800,4.247555752
530.60850,2.721583714
530.60900,1.806000491
530.60950,0.8904172674
530.61000,-1.551137994
530.61050,-5.823859702
530.61100,-10.09658141
530.61150,-12.23294226
530.61200,-12.23294226
530.61250,-12.23294226
530.61300,-13.14852549
530.61350,-14.36930312
530.61400,-13.7589143
530.61450,-12.84333108
530.61500,-11.92774786
530.61550,-11.31735904
530.61600,-11.31735904
530.61650,-11.92774786
530.61700,-13.7589143
530.61750,-15.59008075
530.61800,-16.50566397
530.61850,-17.42124719
530.61900,-17.11605279
530.61950,-13.45371989
530.62000,-5.823859702
530.62050,3.637166937
530.62100,12.79299917
