"type","name","time_units","begin_time","frequency","count","units"
"signal","Ultium EMG-FLEX.CAPR.U RT","s",98.96000,2000,22000,"uV"

"time","value"
98.96000,0.6056606662
98.96050,0.3004662585
98.96100,0.6056606662
98.96150,-1.22550578
98.96200,-4.582644265
98.96250,-5.498227488
98.96300,-3.056672226
98.96350,-0.004728149245
98.96400,1.521243889
98.96450,2.74202152
98.96500,5.793965597
98.96550,8.540715266
98.96600,8.540715266
98.96650,5.488771189
98.96700,2.131632705
98.96750,0.9108550739
98.96800,1.216049482
98.96850,1.521243889
98.96900,0.9108550739
98.96950,0.9108550739
98.97000,1.216049482
98.97050,0.9108550739
98.97100,-0.9203113723
98.97150,-3.972255449
98.97200,-5.803421896
98.97250,-6.108616303
98.97300,-5.19303308
98.97350,-4.582644265
98.97400,-4.582644265
98.97450,-3.056672226
98.97500,-0.004728149245
98.97550,3.962799151
98.97600,6.099160005
98.97650,5.793965597
98.97700,3.352410335
98.97750,1.826438297
98.97800,1.826438297
98.97850,2.131632705
98.97900,0.6056606662
98.97950,-1.835894595
98.98000,-3.972255449
98.98050,-3.361866634
98.98100,-1.835894595
98.98150,-0.004728149245
98.98200,-0.004728149245
98.98250,-1.22550578
98.98300,-3.361866634
98.98350,-3.667061042
98.98400,-0.6151169646
98.98450,4.267993559
98.98500,7.930326451
98.98550,7.319937636
98.98600,3.657604743
98.98650,0.9108550739
98.98700,0.6056606662
98.98750,1.216049482
98.98800,0.9108550739
98.98850,-0.004728149245
98.98900,-1.530700188
98.98950,-2.446283411
98.99000,-2.141089003
98.99050,-0.9203113723
98.99100,-0.004728149245
98.99150,0.6056606662
98.99200,0.9108550739
98.99250,0.9108550739
98.99300,1.216049482
98.99350,2.436827112
98.99400,4.267993559
98.99450,6.404354412
98.99500,7.319937636
98.99550,6.099160005
98.99600,3.352410335
98.99650,0.3004662585
98.99700,-1.530700188
98.99750,-2.446283411
98.99800,-2.446283411
98.99850,-2.141089003
98.99900,-1.22550578
98.99950,0.3004662585
99.00000,3.352410335
99.00050,7.319937636
99.00100,9.151104082
99.00150,8.235520859
99.00200,5.793965597
99.00250,4.573187966
99.00300,3.657604743
99.00350,1.216049482
99.00400,-3.972255449
99.00450,-9.16056038
99.00500,-9.770949196
99.00550,-4.277449857
99.00600,3.657604743
99.00650,8.845909674
99.00700,8.235520859
99.00750,3.352410335
99.00800,-0.6151169646
99.00850,-1.835894595
99.00900,-2.141089003
99.00950,-3.056672226
99.01000,-4.277449857
99.01050,-3.972255449
99.01100,-3.056672226
99.01150,-3.361866634
99.01200,-4.277449857
99.01250,-3.972255449
99.01300,-2.751477819
99.01350,-2.751477819
99.01400,-3.056672226
99.01450,-1.835894595
99.01500,-0.3099225569
99.01550,-0.3099225569
99.01600,-2.751477819
99.01650,-4.582644265
99.01700,-4.277449857
99.01750,-2.751477819
99.01800,-2.141089003
99.01850,-2.446283411
99.01900,-3.361866634
99.01950,-3.972255449
99.02000,-3.972255449
99.02050,-3.056672226
99.02100,-3.056672226
99.02150,-4.887838672
99.02200,-6.108616303
99.02250,-6.413810711
99.02300,-7.024199526
99.02350,-9.465754788
99.02400,-10.68653242
99.02450,-7.634588342
99.02500,-3.056672226
99.02550,-0.6151169646
99.02600,-0.9203113723
99.02650,0.3004662585
99.02700,3.962799151
99.02750,4.878382374
99.02800,2.131632705
99.02850,-0.6151169646
99.02900,-0.6151169646
99.02950,1.216049482
99.03000,2.131632705
99.03050,2.131632705
99.03100,2.436827112
99.03150,3.352410335
99.03200,4.267993559
99.03250,4.878382374
99.03300,3.962799151
99.03350,1.521243889
99.03400,-1.835894595
99.03450,-3.361866634
99.03500,-2.446283411
99.03550,-0.3099225569
99.03600,0.9108550739
99.03650,1.521243889
99.03700,2.131632705
99.03750,1.826438297
99.03800,0.9108550739
99.03850,0.3004662585
99.03900,0.9108550739
99.03950,1.521243889
99.04000,1.826438297
99.04050,0.9108550739
99.04100,-0.004728149245
99.04150,-1.530700188
99.04200,-2.141089003
99.04250,-1.835894595
99.04300,-0.9203113723
99.04350,-0.6151169646
99.04400,-1.22550578
99.04450,-1.22550578
99.04500,-0.6151169646
99.04550,-0.6151169646
99.04600,-2.141089003
99.04650,-3.056672226
99.04700,-1.835894595
99.04750,0.3004662585
99.04800,2.131632705
99.04850,2.74202152
99.04900,2.131632705
99.04950,0.9108550739
99.05000,0.9108550739
99.05050,3.047215928
99.05100,5.793965597
99.05150,7.319937636
99.05200,6.70954882
99.05250,5.793965597
99.05300,5.488771189
99.05350,3.352410335
99.05400,-0.9203113723
99.05450,-5.19303308
99.05500,-5.803421896
99.05550,-3.972255449
99.05600,-1.22550578
99.05650,3.047215928
99.05700,10.98227053
99.05750,18.00174191
99.05800,15.56018664
99.05850,2.74202152
99.05900,-11.60211564
99.05950,-17.40080939
99.06000,-13.12808768
99.06050,-6.413810711
99.06100,-3.972255449
99.06150,-3.972255449
99.06200,-2.141089003
99.06250,0.9108550739
99.06300,0.9108550739
99.06350,-2.751477819
99.06400,-5.19303308
99.06450,-3.056672226
99.06500,1.216049482
99.06550,4.573187966
99.06600,7.625132043
99.06650,10.67707612
99.06700,8.540715266
99.06750,-2.446283411
99.06800,-17.7060038
99.06850,-28.38780807
99.06900,-31.43975214
99.06950,-30.21897451
99.07000,-24.72547517
99.07050,-14.0436709
99.07100,-2.446283411
99.07150,2.131632705
99.07200,1.826438297
99.07250,8.540715266
99.07300,25.32640769
99.07350,40.58612808
99.07400,42.41729452
99.07450,33.5666567
99.07500,24.71601887
99.07550,19.22251954
99.07600,13.42382579
99.07650,7.319937636
99.07700,3.657604743
99.07750,2.74202152
99.07800,1.216049482
99.07850,-0.9203113723
99.07900,-1.22550578
99.07950,-0.004728149245
99.08000,-0.004728149245
99.08050,-2.446283411
99.08100,-4.582644265
99.08150,-3.972255449
99.08200,-1.835894595
99.08250,-0.3099225569
99.08300,0.3004662585
99.08350,1.216049482
99.08400,1.521243889
99.08450,0.3004662585
99.08500,-0.9203113723
99.08550,-0.6151169646
99.08600,1.826438297
99.08650,3.962799151
99.08700,3.962799151
99.08750,2.131632705
99.08800,0.9108550739
99.08850,0.6056606662
99.08900,-0.004728149245
99.08950,-1.22550578
99.09000,-2.446283411
99.09050,-2.751477819
99.09100,-2.446283411
99.09150,-2.141089003
99.09200,-1.835894595
99.09250,-1.22550578
99.09300,-0.6151169646
99.09350,-1.530700188
99.09400,-3.667061042
99.09450,-5.19303308
99.09500,-5.19303308
99.09550,-4.582644265
99.09600,-4.277449857
99.09650,-4.277449857
99.09700,-3.972255449
99.09750,-3.972255449
99.09800,-4.582644265
99.09850,-5.19303308
99.09900,-4.582644265
99.09950,-3.361866634
99.10000,-3.361866634
99.10050,-4.582644265
99.10100,-4.277449857
99.10150,-2.446283411
99.10200,-1.22550578
99.10250,-2.141089003
99.10300,-3.667061042
99.10350,-3.361866634
99.10400,-2.751477819
99.10450,-3.667061042
99.10500,-5.498227488
99.10550,-4.887838672
99.10600,-2.446283411
99.10650,-2.141089003
99.10700,-4.887838672
99.10750,-8.244977157
99.10800,-8.244977157
99.10850,-6.108616303
99.10900,-4.582644265
99.10950,-4.582644265
99.11000,-5.19303308
99.11050,-4.582644265
99.11100,-2.751477819
99.11150,-0.9203113723
99.11200,-0.004728149245
99.11250,-1.22550578
99.11300,-2.446283411
99.11350,-1.530700188
99.11400,0.6056606662
99.11450,1.216049482
99.11500,-0.3099225569
99.11550,-1.22550578
99.11600,0.9108550739
99.11650,3.047215928
99.11700,2.436827112
99.11750,0.6056606662
99.11800,-0.6151169646
99.11850,-1.835894595
99.11900,-3.667061042
99.11950,-3.056672226
99.12000,1.216049482
99.12050,5.793965597
99.12100,6.099160005
99.12150,4.573187966
99.12200,4.573187966
99.12250,5.183576782
99.12300,1.216049482
99.12350,-5.803421896
99.12400,-10.38133801
99.12450,-8.855365973
99.12500,-5.803421896
99.12550,-5.803421896
99.12600,-5.803421896
99.12650,-1.530700188
99.12700,4.267993559
99.12750,7.014743228
99.12800,6.70954882
99.12850,6.404354412
99.12900,8.540715266
99.12950,10.37188171
99.13000,9.45629849
99.13050,6.404354412
99.13100,3.657604743
99.13150,2.436827112
99.13200,1.826438297
99.13250,1.521243889
99.13300,0.9108550739
99.13350,-0.6151169646
99.13400,-2.141089003
99.13450,-2.141089003
99.13500,-0.6151169646
99.13550,0.9108550739
99.13600,1.216049482
99.13650,-0.004728149245
99.13700,-0.004728149245
99.13750,1.216049482
99.13800,2.131632705
99.13850,0.9108550739
99.13900,-0.9203113723
99.13950,-1.22550578
99.14000,-0.6151169646
99.14050,-0.3099225569
99.14100,-1.530700188
99.14150,-1.835894595
99.14200,-1.22550578
99.14250,-0.6151169646
99.14300,-1.530700188
99.14350,-3.056672226
99.14400,-3.972255449
99.14450,-3.667061042
99.14500,-2.446283411
99.14550,-1.530700188
99.14600,-1.22550578
99.14650,-0.9203113723
99.14700,-0.9203113723
99.14750,-0.3099225569
99.14800,0.3004662585
99.14850,0.6056606662
99.14900,-0.004728149245
99.14950,-0.004728149245
99.15000,-0.004728149245
99.15050,0.3004662585
99.15100,0.9108550739
99.15150,1.216049482
99.15200,2.436827112
99.15250,4.267993559
99.15300,5.488771189
99.15350,5.488771189
99.15400,4.878382374
99.15450,4.267993559
99.15500,4.573187966
99.15550,4.267993559
99.15600,3.657604743
99.15650,3.657604743
99.15700,3.962799151
99.15750,3.352410335
99.15800,2.131632705
99.15850,1.826438297
99.15900,3.047215928
99.15950,3.352410335
99.16000,1.521243889
99.16050,-0.3099225569
99.16100,-0.9203113723
99.16150,-0.6151169646
99.16200,-1.835894595
99.16250,-3.361866634
99.16300,-3.361866634
99.16350,-2.141089003
99.16400,-1.835894595
99.16450,-2.141089003
99.16500,-0.3099225569
99.16550,2.436827112
99.16600,4.267993559
99.16650,4.573187966
99.16700,5.183576782
99.16750,5.488771189
99.16800,4.573187966
99.16850,2.436827112
99.16900,0.9108550739
99.16950,-0.3099225569
99.17000,-3.667061042
99.17050,-6.413810711
99.17100,-6.413810711
99.17150,-4.582644265
99.17200,-4.582644265
99.17250,-6.719005119
99.17300,-7.329393934
99.17350,-4.887838672
99.17400,-1.835894595
99.17450,-0.004728149245
99.17500,2.131632705
99.17550,4.267993559
99.17600,3.962799151
99.17650,1.521243889
99.17700,0.6056606662
99.17750,1.826438297
99.17800,2.131632705
99.17850,0.3004662585
99.17900,-0.004728149245
99.17950,1.826438297
99.18000,3.962799151
99.18050,4.878382374
99.18100,7.014743228
99.18150,10.37188171
99.18200,12.50824257
99.18250,12.50824257
99.18300,13.42382579
99.18350,14.33940901
99.18400,9.151104082
99.18450,-3.056672226
99.18500,-13.12808768
99.18550,-11.60211564
99.18600,-2.446283411
99.18650,2.74202152
99.18700,-0.004728149245
99.18750,-6.108616303
99.18800,-9.16056038
99.18850,-8.855365973
99.18900,-7.634588342
99.18950,-6.108616303
99.19000,-4.277449857
99.19050,-1.835894595
99.19100,0.6056606662
99.19150,3.962799151
99.19200,6.404354412
99.19250,5.793965597
99.19300,3.962799151
99.19350,2.74202152
99.19400,1.826438297
99.19450,-0.004728149245
99.19500,-1.835894595
99.19550,-0.9203113723
99.19600,2.436827112
99.19650,5.488771189
99.19700,6.70954882
99.19750,7.014743228
99.19800,7.319937636
99.19850,5.793965597
99.19900,2.131632705
99.19950,-0.004728149245
99.20000,0.6056606662
99.20050,3.352410335
99.20100,4.878382374
99.20150,4.267993559
99.20200,3.047215928
99.20250,1.521243889
99.20300,-0.3099225569
99.20350,-2.446283411
99.20400,-4.582644265
99.20450,-6.108616303
99.20500,-7.024199526
99.20550,-8.244977157
99.20600,-10.0761436
99.20650,-10.68653242
99.20700,-7.939782749
99.20750,-3.361866634
99.20800,-0.004728149245
99.20850,1.216049482
99.20900,1.216049482
99.20950,2.131632705
99.21000,3.047215928
99.21050,3.352410335
99.21100,2.74202152
99.21150,1.216049482
99.21200,-0.3099225569
99.21250,-1.530700188
99.21300,-0.6151169646
99.21350,0.9108550739
99.21400,1.216049482
99.21450,-0.3099225569
99.21500,-0.9203113723
99.21550,-0.004728149245
99.21600,-0.3099225569
99.21650,-3.056672226
99.21700,-5.19303308
99.21750,-3.361866634
99.21800,-0.9203113723
99.21850,-0.9203113723
99.21900,-2.446283411
99.21950,-3.056672226
99.22000,-2.751477819
99.22050,-3.056672226
99.22100,-2.751477819
99.22150,-0.6151169646
99.22200,1.216049482
99.22250,1.826438297
99.22300,1.521243889
99.22350,2.131632705
99.22400,2.74202152
99.22450,2.131632705
99.22500,1.826438297
99.22550,2.74202152
99.22600,0.3004662585
99.22650,-9.465754788
99.22700,-20.45275347
99.22750,-21.9787255
99.22800,-14.0436709
99.22850,-6.413810711
99.22900,-5.19303308
99.22950,-6.719005119
99.23000,-4.582644265
99.23050,-0.004728149245
99.23100,2.131632705
99.23150,-0.3099225569
99.23200,-3.056672226
99.23250,-2.446283411
99.23300,0.9108550739
99.23350,4.573187966
99.23400,6.099160005
99.23450,5.793965597
99.23500,4.878382374
99.23550,3.657604743
99.23600,3.657604743
99.23650,4.267993559
99.23700,5.183576782
99.23750,4.878382374
99.23800,3.352410335
99.23850,1.826438297
99.23900,1.521243889
99.23950,2.131632705
99.24000,1.826438297
99.24050,1.216049482
99.24100,0.9108550739
99.24150,0.9108550739
99.24200,-0.004728149245
99.24250,-1.22550578
99.24300,-1.530700188
99.24350,-0.004728149245
99.24400,0.6056606662
99.24450,0.6056606662
99.24500,0.6056606662
99.24550,2.131632705
99.24600,2.436827112
99.24650,0.9108550739
99.24700,-0.3099225569
99.24750,-0.3099225569
99.24800,-0.004728149245
99.24850,-1.530700188
99.24900,-4.582644265
99.24950,-7.939782749
99.25000,-10.68653242
99.25050,-11.90731005
99.25100,-10.38133801
99.25150,-6.108616303
99.25200,-2.751477819
99.25250,-1.835894595
99.25300,-0.004728149245
99.25350,5.488771189
99.25400,12.81343697
99.25450,14.64460342
99.25500,10.0666873
99.25550,5.183576782
99.25600,3.962799151
99.25650,4.878382374
99.25700,4.267993559
99.25750,2.74202152
99.25800,2.436827112
99.25850,3.352410335
99.25900,3.962799151
99.25950,3.047215928
99.26000,1.521243889
99.26050,-0.6151169646
99.26100,-2.751477819
99.26150,-3.667061042
99.26200,-3.056672226
99.26250,-1.835894595
99.26300,-1.530700188
99.26350,-1.835894595
99.26400,-1.22550578
99.26450,-0.9203113723
99.26500,-1.835894595
99.26550,-4.582644265
99.26600,-6.719005119
99.26650,-6.108616303
99.26700,-3.361866634
99.26750,0.3004662585
99.26800,2.436827112
99.26850,1.826438297
99.26900,-0.004728149245
99.26950,-0.004728149245
99.27000,1.216049482
99.27050,2.131632705
99.27100,0.3004662585
99.27150,-1.835894595
99.27200,-2.751477819
99.27250,-1.835894595
99.27300,-0.9203113723
99.27350,-1.22550578
99.27400,-2.141089003
99.27450,-3.056672226
99.27500,-3.667061042
99.27550,-4.582644265
99.27600,-5.19303308
99.27650,-5.19303308
99.27700,-4.887838672
99.27750,-4.582644265
99.27800,-3.667061042
99.27850,-2.446283411
99.27900,-2.141089003
99.27950,-2.751477819
99.28000,-4.277449857
99.28050,-4.887838672
99.28100,-3.667061042
99.28150,-1.530700188
99.28200,-0.004728149245
99.28250,0.3004662585
99.28300,0.6056606662
99.28350,2.436827112
99.28400,4.573187966
99.28450,5.488771189
99.28500,3.962799151
99.28550,1.216049482
99.28600,-0.004728149245
99.28650,-0.004728149245
99.28700,0.6056606662
99.28750,-0.004728149245
99.28800,-0.3099225569
99.28850,1.521243889
99.28900,5.488771189
99.28950,7.625132043
99.29000,7.319937636
99.29050,7.930326451
99.29100,10.98227053
99.29150,11.59265934
99.29200,5.183576782
99.29250,-4.277449857
99.29300,-10.0761436
99.29350,-10.68653242
99.29400,-12.21250446
99.29450,-16.79042057
99.29500,-18.92678143
99.29550,-14.0436709
99.29600,-5.498227488
99.29650,2.131632705
99.29700,10.37188171
99.29750,23.19004684
99.29800,36.00821196
99.29850,40.28093367
99.29900,33.5666567
99.29950,24.10563006
99.30000,19.83290835
99.30050,18.61213072
99.30100,13.7290202
99.30150,5.183576782
99.30200,-0.004728149245
99.30250,-0.004728149245
99.30300,1.521243889
99.30350,1.521243889
99.30400,2.131632705
99.30450,4.878382374
99.30500,3.962799151
99.30550,-5.498227488
99.30600,-18.92678143
99.30650,-24.72547517
99.30700,-20.14755906
99.30750,-11.60211564
99.30800,-4.277449857
99.30850,2.131632705
99.30900,7.625132043
99.30950,10.37188171
99.31000,9.151104082
99.31050,7.930326451
99.31100,7.930326451
99.31150,7.625132043
99.31200,5.793965597
99.31250,4.878382374
99.31300,5.488771189
99.31350,3.962799151
99.31400,-0.6151169646
99.31450,-4.887838672
99.31500,-3.667061042
99.31550,0.9108550739
99.31600,5.793965597
99.31650,6.099160005
99.31700,0.3004662585
99.31750,-10.0761436
99.31800,-20.14755906
99.31850,-23.50469754
99.31900,-19.84236465
99.31950,-14.34886531
99.32000,-10.38133801
99.32050,-7.634588342
99.32100,-6.719005119
99.32150,-8.855365973
99.32200,-11.29692123
99.32250,-9.16056038
99.32300,-1.530700188
99.32350,4.267993559
99.32400,3.962799151
99.32450,-0.004728149245
99.32500,-1.530700188
99.32550,-0.9203113723
99.32600,-0.3099225569
99.32650,-0.004728149245
99.32700,-0.004728149245
99.32750,-0.9203113723
99.32800,-4.582644265
99.32850,-8.244977157
99.32900,-9.770949196
99.32950,-9.770949196
99.33000,-9.770949196
99.33050,-9.770949196
99.33100,-7.329393934
99.33150,-3.056672226
99.33200,0.9108550739
99.33250,3.657604743
99.33300,5.183576782
99.33350,5.488771189
99.33400,6.404354412
99.33450,8.845909674
99.33500,11.59265934
99.33550,11.89785375
99.33600,9.45629849
99.33650,7.319937636
99.33700,6.099160005
99.33750,4.573187966
99.33800,1.216049482
99.33850,-1.835894595
99.33900,-2.751477819
99.33950,-2.751477819
99.34000,-2.141089003
99.34050,-0.9203113723
99.34100,-0.004728149245
99.34150,-3.667061042
99.34200,-16.18003176
99.34250,-30.52416892
99.34300,-37.23844589
99.34350,-33.27091859
99.34400,-24.72547517
99.34450,-16.79042057
99.34500,-10.99172683
99.34550,-5.19303308
99.34600,0.6056606662
99.34650,7.014743228
99.34700,14.03421461
99.34750,19.83290835
99.34800,22.27446361
99.34850,20.74849157
99.34900,18.30693631
99.34950,16.78096427
99.35000,16.47576987
99.35050,15.25499224
99.35100,13.42382579
99.35150,11.59265934
99.35200,10.0666873
99.35250,7.930326451
99.35300,5.488771189
99.35350,3.962799151
99.35400,3.657604743
99.35450,3.047215928
99.35500,1.216049482
99.35550,-0.9203113723
99.35600,-1.22550578
99.35650,0.3004662585
99.35700,2.74202152
99.35750,3.962799151
99.35800,3.962799151
99.35850,3.962799151
99.35900,3.657604743
99.35950,2.436827112
99.36000,0.3004662585
99.36050,-1.530700188
99.36100,-2.751477819
99.36150,-2.751477819
99.36200,-1.530700188
99.36250,-0.004728149245
99.36300,0.9108550739
99.36350,0.3004662585
99.36400,-1.835894595
99.36450,-4.277449857
99.36500,-5.19303308
99.36550,-4.887838672
99.36600,-4.277449857
99.36650,-3.667061042
99.36700,-3.667061042
99.36750,-3.361866634
99.36800,-2.751477819
99.36850,-1.22550578
99.36900,-0.004728149245
99.36950,0.6056606662
99.37000,1.826438297
99.37050,3.047215928
99.37100,3.962799151
99.37150,2.74202152
99.37200,-0.004728149245
99.37250,-0.6151169646
99.37300,1.216049482
99.37350,3.352410335
99.37400,2.436827112
99.37450,-0.9203113723
99.37500,-3.667061042
99.37550,-3.361866634
99.37600,-2.141089003
99.37650,-2.751477819
99.37700,-4.887838672
99.37750,-6.413810711
99.37800,-5.19303308
99.37850,-2.446283411
99.37900,-0.9203113723
99.37950,-1.835894595
99.38000,-3.056672226
99.38050,-3.361866634
99.38100,-2.751477819
99.38150,-2.141089003
99.38200,-1.530700188
99.38250,0.3004662585
99.38300,3.352410335
99.38350,6.099160005
99.38400,7.625132043
99.38450,7.625132043
99.38500,5.488771189
99.38550,1.521243889
99.38600,-1.835894595
99.38650,-3.361866634
99.38700,-3.667061042
99.38750,-4.887838672
99.38800,-6.108616303
99.38850,-5.498227488
99.38900,-2.141089003
99.38950,0.3004662585
99.39000,0.6056606662
99.39050,-0.6151169646
99.39100,-2.446283411
99.39150,-4.582644265
99.39200,-6.413810711
99.39250,-5.803421896
99.39300,-4.277449857
99.39350,-4.582644265
99.39400,-7.329393934
99.39450,-7.024199526
99.39500,-1.835894595
99.39550,3.657604743
99.39600,4.573187966
99.39650,2.131632705
99.39700,-0.004728149245
99.39750,-0.004728149245
99.39800,-1.22550578
99.39850,-2.751477819
99.39900,-2.751477819
99.39950,-1.530700188
99.40000,-0.3099225569
99.40050,0.9108550739
99.40100,2.74202152
99.40150,2.74202152
99.40200,-1.530700188
99.40250,-8.244977157
99.40300,-11.60211564
99.40350,-9.770949196
99.40400,-6.108616303
99.40450,-3.361866634
99.40500,-1.835894595
99.40550,0.3004662585
99.40600,2.436827112
99.40650,2.131632705
99.40700,0.3004662585
99.40750,-0.9203113723
99.40800,-0.6151169646
99.40850,0.6056606662
99.40900,1.826438297
99.40950,1.216049482
99.41000,-0.004728149245
99.41050,-0.004728149245
99.41100,0.9108550739
99.41150,0.9108550739
99.41200,-0.3099225569
99.41250,-1.530700188
99.41300,-0.3099225569
99.41350,2.131632705
99.41400,3.352410335
99.41450,2.131632705
99.41500,1.216049482
99.41550,1.826438297
99.41600,3.047215928
99.41650,3.047215928
99.41700,2.131632705
99.41750,0.6056606662
99.41800,-0.004728149245
99.41850,-0.3099225569
99.41900,-0.9203113723
99.41950,-2.141089003
99.42000,-2.751477819
99.42050,-1.22550578
99.42100,0.6056606662
99.42150,0.9108550739
99.42200,-0.3099225569
99.42250,-0.9203113723
99.42300,0.6056606662
99.42350,2.436827112
99.42400,2.436827112
99.42450,1.826438297
99.42500,2.436827112
99.42550,3.657604743
99.42600,4.267993559
99.42650,4.573187966
99.42700,4.878382374
99.42750,5.183576782
99.42800,5.183576782
99.42850,4.878382374
99.42900,5.488771189
99.42950,6.099160005
99.43000,5.793965597
99.43050,5.488771189
99.43100,6.404354412
99.43150,7.014743228
99.43200,6.404354412
99.43250,5.488771189
99.43300,5.793965597
99.43350,6.404354412
99.43400,5.793965597
99.43450,3.962799151
99.43500,3.047215928
99.43550,2.74202152
99.43600,2.436827112
99.43650,2.131632705
99.43700,2.436827112
99.43750,1.826438297
99.43800,-0.9203113723
99.43850,-4.277449857
99.43900,-6.108616303
99.43950,-6.108616303
99.44000,-6.719005119
99.44050,-7.634588342
99.44100,-5.803421896
99.44150,-0.6151169646
99.44200,4.573187966
99.44250,7.014743228
99.44300,6.099160005
99.44350,2.436827112
99.44400,-2.446283411
99.44450,-4.582644265
99.44500,-1.835894595
99.44550,0.6056606662
99.44600,-2.751477819
99.44650,-10.99172683
99.44700,-12.51769887
99.44750,-3.972255449
99.44800,7.014743228
99.44850,11.89785375
99.44900,10.98227053
99.44950,9.45629849
99.45000,8.845909674
99.45050,6.70954882
99.45100,4.878382374
99.45150,5.793965597
99.45200,8.540715266
99.45250,9.45629849
99.45300,8.235520859
99.45350,6.70954882
99.45400,5.183576782
99.45450,2.131632705
99.45500,-0.9203113723
99.45550,-2.141089003
99.45600,-0.004728149245
99.45650,3.962799151
99.45700,8.540715266
99.45750,10.67707612
99.45800,5.793965597
99.45850,-7.024199526
99.45900,-21.9787255
99.45950,-31.13455773
99.46000,-32.66052977
99.46050,-30.21897451
99.46100,-27.47222484
99.46150,-24.72547517
99.46200,-22.89430873
99.46250,-21.06314228
99.46300,-12.82289327
99.46350,5.183576782
99.46400,27.76796295
99.46450,40.58612808
99.46500,38.14457281
99.46550,28.07315736
99.46600,20.74849157
99.46650,18.91732513
99.46700,17.6965475
99.46750,12.20304816
99.46800,3.047215928
99.46850,-5.19303308
99.46900,-8.855365973
99.46950,-6.108616303
99.47000,-2.141089003
99.47050,-2.141089003
99.47100,-5.498227488
99.47150,-7.939782749
99.47200,-7.329393934
99.47250,-7.024199526
99.47300,-8.244977157
99.47350,-8.550171565
99.47400,-6.413810711
99.47450,-4.277449857
99.47500,-4.582644265
99.47550,-5.498227488
99.47600,-5.498227488
99.47650,-6.413810711
99.47700,-7.634588342
99.47750,-5.19303308
99.47800,2.74202152
99.47850,10.98227053
99.47900,10.67707612
99.47950,2.436827112
99.48000,-4.582644265
99.48050,-6.108616303
99.48100,-3.667061042
99.48150,-2.141089003
99.48200,-1.835894595
99.48250,-1.530700188
99.48300,-1.22550578
99.48350,-2.751477819
99.48400,-4.887838672
99.48450,-6.413810711
99.48500,-7.939782749
99.48550,-8.550171565
99.48600,-6.719005119
99.48650,-2.141089003
99.48700,0.3004662585
99.48750,-1.22550578
99.48800,-4.582644265
99.48850,-5.803421896
99.48900,-5.19303308
99.48950,-6.108616303
99.49000,-8.244977157
99.49050,-7.939782749
99.49100,-4.582644265
99.49150,-1.835894595
99.49200,-1.835894595
99.49250,-3.056672226
99.49300,-2.751477819
99.49350,-1.530700188
99.49400,-0.3099225569
99.49450,0.6056606662
99.49500,1.521243889
99.49550,0.3004662585
99.49600,-2.141089003
99.49650,-3.972255449
99.49700,-2.751477819
99.49750,-0.3099225569
99.49800,1.521243889
99.49850,2.131632705
99.49900,1.521243889
99.49950,0.9108550739
99.50000,1.521243889
99.50050,3.657604743
99.50100,4.878382374
99.50150,4.267993559
99.50200,2.436827112
99.50250,1.521243889
99.50300,1.521243889
99.50350,1.216049482
99.50400,0.6056606662
99.50450,1.521243889
99.50500,3.047215928
99.50550,2.131632705
99.50600,-0.004728149245
99.50650,-1.22550578
99.50700,-0.004728149245
99.50750,0.6056606662
99.50800,-0.004728149245
99.50850,-0.004728149245
99.50900,1.826438297
99.50950,1.826438297
99.51000,-1.530700188
99.51050,-5.803421896
99.51100,-7.024199526
99.51150,-6.108616303
99.51200,-6.413810711
99.51250,-6.413810711
99.51300,-2.751477819
99.51350,2.74202152
99.51400,6.404354412
99.51450,7.625132043
99.51500,10.98227053
99.51550,16.78096427
99.51600,20.13810276
99.51650,18.61213072
99.51700,16.78096427
99.51750,17.08615868
99.51800,17.08615868
99.51850,13.7290202
99.51900,7.930326451
99.51950,3.657604743
99.52000,1.216049482
99.52050,-0.3099225569
99.52100,-0.9203113723
99.52150,-0.6151169646
99.52200,-1.22550578
99.52250,-2.751477819
99.52300,-2.751477819
99.52350,-0.004728149245
99.52400,1.826438297
99.52450,1.521243889
99.52500,0.3004662585
99.52550,0.6056606662
99.52600,0.9108550739
99.52650,-1.22550578
99.52700,-4.582644265
99.52750,-5.19303308
99.52800,-3.361866634
99.52850,-2.446283411
99.52900,-3.361866634
99.52950,-3.667061042
99.53000,-2.446283411
99.53050,-1.530700188
99.53100,-2.141089003
99.53150,-2.446283411
99.53200,-1.22550578
99.53250,-0.9203113723
99.53300,-2.446283411
99.53350,-3.361866634
99.53400,-2.141089003
99.53450,-0.004728149245
99.53500,0.6056606662
99.53550,-0.6151169646
99.53600,-2.141089003
99.53650,-2.141089003
99.53700,-1.22550578
99.53750,-0.9203113723
99.53800,-0.9203113723
99.53850,-1.530700188
99.53900,-2.446283411
99.53950,-2.751477819
99.54000,-2.141089003
99.54050,-0.004728149245
99.54100,1.826438297
99.54150,4.267993559
99.54200,6.404354412
99.54250,7.625132043
99.54300,5.488771189
99.54350,0.6056606662
99.54400,-3.361866634
99.54450,-5.19303308
99.54500,-6.108616303
99.54550,-7.329393934
99.54600,-8.244977157
99.54650,-7.329393934
99.54700,-5.19303308
99.54750,-3.972255449
99.54800,-2.751477819
99.54850,-0.6151169646
99.54900,1.521243889
99.54950,3.352410335
99.55000,4.573187966
99.55050,4.573187966
99.55100,2.436827112
99.55150,0.9108550739
99.55200,3.352410335
99.55250,7.625132043
99.55300,7.014743228
99.55350,-1.835894595
99.55400,-12.51769887
99.55450,-16.48522617
99.55500,-12.51769887
99.55550,-7.939782749
99.55600,-7.024199526
99.55650,-7.939782749
99.55700,-7.939782749
99.55750,-5.803421896
99.55800,-3.667061042
99.55850,-2.446283411
99.55900,-1.530700188
99.55950,0.3004662585
99.56000,5.183576782
99.56050,9.761492897
99.56100,10.67707612
99.56150,8.540715266
99.56200,7.319937636
99.56250,8.540715266
99.56300,9.761492897
99.56350,8.845909674
99.56400,7.930326451
99.56450,7.014743228
99.56500,2.74202152
99.56550,-6.108616303
99.56600,-13.7384765
99.56650,-12.51769887
99.56700,-4.277449857
99.56750,1.826438297
99.56800,3.352410335
99.56850,3.962799151
99.56900,5.793965597
99.56950,6.404354412
99.57000,3.047215928
99.57050,-1.835894595
99.57100,-4.582644265
99.57150,-4.277449857
99.57200,-3.056672226
99.57250,-2.751477819
99.57300,-2.141089003
99.57350,-0.9203113723
99.57400,0.6056606662
99.57450,1.521243889
99.57500,1.521243889
99.57550,1.521243889
99.57600,2.436827112
99.57650,3.962799151
99.57700,5.793965597
99.57750,5.793965597
99.57800,2.74202152
99.57850,-2.446283411
99.57900,-8.244977157
99.57950,-10.68653242
99.58000,-8.855365973
99.58050,-4.277449857
99.58100,-0.004728149245
99.58150,1.826438297
99.58200,2.74202152
99.58250,3.657604743
99.58300,4.267993559
99.58350,2.436827112
99.58400,-0.6151169646
99.58450,-3.667061042
99.58500,-4.887838672
99.58550,-4.887838672
99.58600,-5.19303308
99.58650,-4.887838672
99.58700,-3.056672226
99.58750,0.3004662585
99.58800,2.74202152
99.58850,2.74202152
99.58900,0.3004662585
99.58950,-1.530700188
99.59000,-1.835894595
99.59050,-0.6151169646
99.59100,0.3004662585
99.59150,0.9108550739
99.59200,1.216049482
99.59250,1.826438297
99.59300,1.826438297
99.59350,1.216049482
99.59400,0.9108550739
99.59450,1.826438297
99.59500,3.962799151
99.59550,4.573187966
99.59600,3.962799151
99.59650,4.573187966
99.59700,7.930326451
99.59750,11.89785375
99.59800,13.11863138
99.59850,10.67707612
99.59900,6.70954882
99.59950,2.74202152
99.60000,-0.004728149245
99.60050,-2.141089003
99.60100,-2.446283411
99.60150,-1.22550578
99.60200,0.9108550739
99.60250,3.657604743
99.60300,5.793965597
99.60350,5.183576782
99.60400,1.521243889
99.60450,-1.835894595
99.60500,-2.446283411
99.60550,-1.835894595
99.60600,-3.361866634
99.60650,-7.024199526
99.60700,-7.634588342
99.60750,-3.667061042
99.60800,-0.6151169646
99.60850,-3.056672226
99.60900,-7.939782749
99.60950,-9.465754788
99.61000,-7.634588342
99.61050,-7.329393934
99.61100,-10.38133801
99.61150,-10.68653242
99.61200,-3.667061042
99.61250,5.488771189
99.61300,10.37188171
99.61350,8.845909674
99.61400,5.793965597
99.61450,3.962799151
99.61500,3.352410335
99.61550,3.657604743
99.61600,4.267993559
99.61650,4.573187966
99.61700,2.131632705
99.61750,-1.22550578
99.61800,-3.361866634
99.61850,-3.361866634
99.61900,-2.446283411
99.61950,-2.141089003
99.62000,-1.530700188
99.62050,-0.004728149245
99.62100,0.3004662585
99.62150,-0.3099225569
99.62200,-1.835894595
99.62250,-0.9203113723
99.62300,1.826438297
99.62350,3.962799151
99.62400,3.352410335
99.62450,1.216049482
99.62500,0.6056606662
99.62550,3.047215928
99.62600,6.70954882
99.62650,7.930326451
99.62700,5.183576782
99.62750,0.6056606662
99.62800,-3.361866634
99.62850,-6.108616303
99.62900,-7.329393934
99.62950,-7.634588342
99.63000,-7.024199526
99.63050,-5.803421896
99.63100,-3.972255449
99.63150,-2.446283411
99.63200,-0.9203113723
99.63250,-0.004728149245
99.63300,1.521243889
99.63350,3.047215928
99.63400,3.352410335
99.63450,2.74202152
99.63500,2.436827112
99.63550,3.047215928
99.63600,3.047215928
99.63650,1.521243889
99.63700,0.3004662585
99.63750,1.826438297
99.63800,4.573187966
99.63850,3.657604743
99.63900,-1.22550578
99.63950,-6.413810711
99.64000,-6.719005119
99.64050,-3.972255449
99.64100,-2.141089003
99.64150,-2.446283411
99.64200,-2.141089003
99.64250,-0.004728149245
99.64300,2.131632705
99.64350,2.131632705
99.64400,-0.004728149245
99.64450,-1.835894595
99.64500,-1.530700188
99.64550,0.9108550739
99.64600,3.657604743
99.64650,4.573187966
99.64700,3.352410335
99.64750,1.521243889
99.64800,1.216049482
99.64850,1.521243889
99.64900,2.131632705
99.64950,2.74202152
99.65000,3.962799151
99.65050,4.267993559
99.65100,2.74202152
99.65150,-0.004728149245
99.65200,-3.667061042
99.65250,-5.498227488
99.65300,-3.361866634
99.65350,1.216049482
99.65400,3.962799151
99.65450,2.131632705
99.65500,-2.141089003
99.65550,-4.277449857
99.65600,-4.582644265
99.65650,-5.498227488
99.65700,-7.939782749
99.65750,-7.634588342
99.65800,-1.530700188
99.65850,6.099160005
99.65900,9.761492897
99.65950,7.319937636
99.66000,2.74202152
99.66050,0.3004662585
99.66100,0.9108550739
99.66150,2.131632705
99.66200,2.74202152
99.66250,2.74202152
99.66300,2.436827112
99.66350,0.9108550739
99.66400,-1.835894595
99.66450,-3.972255449
99.66500,-3.361866634
99.66550,-1.835894595
99.66600,-1.835894595
99.66650,-2.141089003
99.66700,0.6056606662
99.66750,4.878382374
99.66800,4.573187966
99.66850,-2.751477819
99.66900,-10.38133801
99.66950,-10.99172683
99.67000,-7.939782749
99.67050,-9.465754788
99.67100,-17.40080939
99.67150,-24.72547517
99.67200,-26.86183603
99.67250,-24.11508636
99.67300,-20.14755906
99.67350,-16.48522617
99.67400,-17.09561498
99.67450,-21.36833669
99.67500,-20.75794787
99.67550,-5.19303308
99.67600,20.44329717
99.67650,39.97573926
99.67700,40.89132248
99.67750,29.5991294
99.67800,19.83290835
99.67850,16.17057546
99.67900,14.64460342
99.67950,12.81343697
99.68000,11.59265934
99.68050,10.37188171
99.68100,6.404354412
99.68150,0.3004662585
99.68200,-4.277449857
99.68250,-5.803421896
99.68300,-5.19303308
99.68350,-3.667061042
99.68400,-1.22550578
99.68450,0.3004662585
99.68500,-0.3099225569
99.68550,-2.446283411
99.68600,-1.835894595
99.68650,1.216049482
99.68700,3.352410335
99.68750,1.521243889
99.68800,-2.141089003
99.68850,-4.582644265
99.68900,-6.108616303
99.68950,-8.244977157
99.69000,-8.550171565
99.69050,-5.19303308
99.69100,-0.3099225569
99.69150,2.131632705
99.69200,3.352410335
99.69250,6.70954882
99.69300,10.37188171
99.69350,7.625132043
99.69400,-2.141089003
99.69450,-11.29692123
99.69500,-10.0761436
99.69550,-0.6151169646
99.69600,6.70954882
99.69650,6.404354412
99.69700,1.826438297
99.69750,-0.9203113723
99.69800,-1.530700188
99.69850,-1.22550578
99.69900,-1.22550578
99.69950,-0.9203113723
99.70000,-1.22550578
99.70050,-2.141089003
99.70100,-2.751477819
99.70150,-3.056672226
99.70200,-2.751477819
99.70250,-2.751477819
99.70300,-3.056672226
99.70350,-2.751477819
99.70400,-2.751477819
99.70450,-3.056672226
99.70500,-3.667061042
99.70550,-3.667061042
99.70600,-1.530700188
99.70650,0.6056606662
99.70700,2.131632705
99.70750,1.826438297
99.70800,0.6056606662
99.70850,-0.6151169646
99.70900,-0.9203113723
99.70950,0.3004662585
99.71000,2.436827112
99.71050,3.352410335
99.71100,3.047215928
99.71150,3.047215928
99.71200,3.047215928
99.71250,1.521243889
99.71300,-0.004728149245
99.71350,-0.004728149245
99.71400,3.657604743
99.71450,6.404354412
99.71500,4.267993559
99.71550,-0.6151169646
99.71600,-3.361866634
99.71650,-1.530700188
99.71700,1.216049482
99.71750,0.9108550739
99.71800,-0.9203113723
99.71850,-2.446283411
99.71900,-2.446283411
99.71950,-3.361866634
99.72000,-5.498227488
99.72050,-7.024199526
99.72100,-6.108616303
99.72150,-3.667061042
99.72200,-1.530700188
99.72250,-0.9203113723
99.72300,-0.9203113723
99.72350,-0.9203113723
99.72400,0.3004662585
99.72450,3.047215928
99.72500,7.014743228
99.72550,9.45629849
99.72600,9.151104082
99.72650,6.404354412
99.72700,4.267993559
99.72750,4.573187966
99.72800,5.793965597
99.72850,6.404354412
99.72900,5.488771189
99.72950,3.962799151
99.73000,1.826438297
99.73050,-0.004728149245
99.73100,-0.6151169646
99.73150,-0.004728149245
99.73200,1.216049482
99.73250,1.521243889
99.73300,2.131632705
99.73350,3.352410335
99.73400,4.573187966
99.73450,3.047215928
99.73500,-0.004728149245
99.73550,-2.446283411
99.73600,-1.835894595
99.73650,-0.004728149245
99.73700,-0.004728149245
99.73750,-1.22550578
99.73800,-3.056672226
99.73850,-3.056672226
99.73900,-0.9203113723
99.73950,1.216049482
99.74000,1.521243889
99.74050,-0.004728149245
99.74100,-0.9203113723
99.74150,-0.004728149245
99.74200,1.521243889
99.74250,1.216049482
99.74300,0.6056606662
99.74350,1.826438297
99.74400,3.352410335
99.74450,3.657604743
99.74500,3.047215928
99.74550,4.573187966
99.74600,7.014743228
99.74650,6.099160005
99.74700,0.9108550739
99.74750,-3.667061042
99.74800,-4.277449857
99.74850,-3.056672226
99.74900,-2.446283411
99.74950,-2.446283411
99.75000,-1.530700188
99.75050,0.3004662585
99.75100,3.047215928
99.75150,4.878382374
99.75200,5.488771189
99.75250,3.962799151
99.75300,1.216049482
99.75350,-0.6151169646
99.75400,-1.22550578
99.75450,-1.530700188
99.75500,-1.22550578
99.75550,-0.004728149245
99.75600,1.521243889
99.75650,1.521243889
99.75700,-0.6151169646
99.75750,-2.751477819
99.75800,-2.751477819
99.75850,-1.530700188
99.75900,-1.835894595
99.75950,-2.446283411
99.76000,-1.835894595
99.76050,-0.6151169646
99.76100,-0.6151169646
99.76150,-2.141089003
99.76200,-3.361866634
99.76250,-3.361866634
99.76300,-2.751477819
99.76350,-2.751477819
99.76400,-3.056672226
99.76450,-3.667061042
99.76500,-4.582644265
99.76550,-5.19303308
99.76600,-4.582644265
99.76650,-3.056672226
99.76700,-1.835894595
99.76750,-0.9203113723
99.76800,-0.9203113723
99.76850,-2.446283411
99.76900,-4.887838672
99.76950,-7.939782749
99.77000,-9.770949196
99.77050,-10.0761436
99.77100,-9.465754788
99.77150,-7.634588342
99.77200,-5.498227488
99.77250,-3.361866634
99.77300,-1.835894595
99.77350,-0.6151169646
99.77400,-0.004728149245
99.77450,0.9108550739
99.77500,0.9108550739
99.77550,0.9108550739
99.77600,1.216049482
99.77650,2.74202152
99.77700,6.404354412
99.77750,10.0666873
99.77800,10.67707612
99.77850,7.319937636
99.77900,3.962799151
99.77950,2.74202152
99.78000,3.352410335
99.78050,3.047215928
99.78100,2.436827112
99.78150,2.74202152
99.78200,3.657604743
99.78250,2.74202152
99.78300,1.216049482
99.78350,1.216049482
99.78400,3.047215928
99.78450,4.878382374
99.78500,7.014743228
99.78550,10.0666873
99.78600,11.89785375
99.78650,9.151104082
99.78700,3.047215928
99.78750,-1.530700188
99.78800,-3.361866634
99.78850,-3.056672226
99.78900,-1.22550578
99.78950,2.436827112
99.79000,5.183576782
99.79050,0.6056606662
99.79100,-9.16056038
99.79150,-16.48522617
99.79200,-14.65405972
99.79250,-7.329393934
99.79300,-1.22550578
99.79350,1.216049482
99.79400,1.826438297
99.79450,2.131632705
99.79500,2.131632705
99.79550,1.521243889
99.79600,1.521243889
99.79650,3.657604743
99.79700,7.319937636
99.79750,9.45629849
99.79800,4.267993559
99.79850,-8.855365973
99.79900,-21.6735311
99.79950,-23.50469754
99.80000,-14.34886531
99.80050,-4.582644265
99.80100,-0.004728149245
99.80150,-0.004728149245
99.80200,-0.3099225569
99.80250,-2.141089003
99.80300,-4.277449857
99.80350,-3.361866634
99.80400,0.9108550739
99.80450,5.183576782
99.80500,7.014743228
99.80550,7.930326451
99.80600,9.151104082
99.80650,6.70954882
99.80700,-0.3099225569
99.80750,-6.413810711
99.80800,-4.887838672
99.80850,1.216049482
99.80900,5.793965597
99.80950,6.404354412
99.81000,6.404354412
99.81050,7.014743228
99.81100,7.930326451
99.81150,8.845909674
99.81200,9.151104082
99.81250,7.625132043
99.81300,4.267993559
99.81350,2.74202152
99.81400,4.267993559
99.81450,3.352410335
99.81500,-4.887838672
99.81550,-13.7384765
99.81600,-13.12808768
99.81650,-3.361866634
99.81700,2.74202152
99.81750,-0.004728149245
99.81800,-4.887838672
99.81850,-5.19303308
99.81900,-1.22550578
99.81950,-0.004728149245
99.82000,-0.9203113723
99.82050,-2.141089003
99.82100,-2.751477819
99.82150,-2.751477819
99.82200,-1.22550578
99.82250,1.826438297
99.82300,3.962799151
99.82350,2.131632705
99.82400,-0.004728149245
99.82450,1.521243889
99.82500,6.404354412
99.82550,9.151104082
99.82600,8.235520859
99.82650,6.099160005
99.82700,4.573187966
99.82750,3.657604743
99.82800,2.74202152
99.82850,2.436827112
99.82900,1.826438297
99.82950,0.9108550739
99.83000,0.6056606662
99.83050,1.521243889
99.83100,2.74202152
99.83150,2.131632705
99.83200,-0.004728149245
99.83250,-1.22550578
99.83300,-1.22550578
99.83350,-1.530700188
99.83400,-1.835894595
99.83450,-0.3099225569
99.83500,1.826438297
99.83550,1.826438297
99.83600,-0.3099225569
99.83650,-1.530700188
99.83700,0.3004662585
99.83750,2.74202152
99.83800,2.74202152
99.83850,1.521243889
99.83900,1.216049482
99.83950,0.9108550739
99.84000,-0.3099225569
99.84050,-1.22550578
99.84100,-0.3099225569
99.84150,-0.3099225569
99.84200,-3.056672226
99.84250,-5.498227488
99.84300,-3.667061042
99.84350,0.6056606662
99.84400,4.573187966
99.84450,7.319937636
99.84500,8.845909674
99.84550,5.488771189
99.84600,-6.413810711
99.84650,-22.58911432
99.84700,-32.96572418
99.84750,-35.10208503
99.84800,-34.49169622
99.84850,-33.576113
99.84900,-29.6085857
99.84950,-21.9787255
99.85000,-12.51769887
99.85050,-0.004728149245
99.85100,20.13810276
99.85150,41.80690571
99.85200,52.79390438
99.85250,47.91079386
99.85300,35.70301755
99.85350,25.93679651
99.85400,18.61213072
99.85450,10.37188171
99.85500,3.657604743
99.85550,3.352410335
99.85600,7.319937636
99.85650,8.845909674
99.85700,5.183576782
99.85750,0.3004662585
99.85800,-0.9203113723
99.85850,-0.3099225569
99.85900,-0.9203113723
99.85950,-3.361866634
99.86000,-5.19303308
99.86050,-5.19303308
99.86100,-4.582644265
99.86150,-5.498227488
99.86200,-7.024199526
99.86250,-7.939782749
99.86300,-7.939782749
99.86350,-8.244977157
99.86400,-8.855365973
99.86450,-8.244977157
99.86500,-7.024199526
99.86550,-7.329393934
99.86600,-8.550171565
99.86650,-9.770949196
99.86700,-9.770949196
99.86750,-9.770949196
99.86800,-9.770949196
99.86850,-7.634588342
99.86900,-4.582644265
99.86950,-3.056672226
99.87000,-3.667061042
99.87050,-4.277449857
99.87100,-2.446283411
99.87150,-0.6151169646
99.87200,-0.6151169646
99.87250,-2.446283411
99.87300,-3.972255449
99.87350,-3.972255449
99.87400,-3.056672226
99.87450,-1.835894595
99.87500,-0.9203113723
99.87550,-1.22550578
99.87600,-2.446283411
99.87650,-3.056672226
99.87700,-2.141089003
99.87750,-1.835894595
99.87800,-3.056672226
99.87850,-4.277449857
99.87900,-4.277449857
99.87950,-3.056672226
99.88000,-2.141089003
99.88050,-2.141089003
99.88100,-2.751477819
99.88150,-2.446283411
99.88200,-2.446283411
99.88250,-2.141089003
99.88300,-1.835894595
99.88350,-1.22550578
99.88400,-0.6151169646
99.88450,-0.004728149245
99.88500,-0.6151169646
99.88550,-1.530700188
99.88600,-3.056672226
99.88650,-3.056672226
99.88700,-0.9203113723
99.88750,1.216049482
99.88800,1.521243889
99.88850,-0.6151169646
99.88900,-2.751477819
99.88950,-3.361866634
99.89000,-3.056672226
99.89050,-3.056672226
99.89100,-2.751477819
99.89150,-0.6151169646
99.89200,0.6056606662
99.89250,-1.22550578
99.89300,-5.19303308
99.89350,-5.803421896
99.89400,-1.530700188
99.89450,3.047215928
99.89500,5.183576782
99.89550,4.878382374
99.89600,5.183576782
99.89650,5.488771189
99.89700,5.793965597
99.89750,6.70954882
99.89800,8.845909674
99.89850,8.845909674
99.89900,5.793965597
99.89950,2.131632705
99.90000,1.521243889
99.90050,3.047215928
99.90100,3.352410335
99.90150,3.047215928
99.90200,4.573187966
99.90250,6.404354412
99.90300,6.099160005
99.90350,4.267993559
99.90400,5.183576782
99.90450,7.625132043
99.90500,7.930326451
99.90550,6.404354412
99.90600,7.930326451
99.90650,10.98227053
99.90700,8.540715266
99.90750,-0.6151169646
99.90800,-8.244977157
99.90850,-7.634588342
99.90900,-4.582644265
99.90950,-8.244977157
99.91000,-16.18003176
99.91050,-17.7060038
99.91100,-10.38133801
99.91150,-1.530700188
99.91200,2.436827112
99.91250,3.352410335
99.91300,2.436827112
99.91350,-0.004728149245
99.91400,-3.667061042
99.91450,-3.972255449
99.91500,-0.6151169646
99.91550,1.826438297
99.91600,1.521243889
99.91650,0.6056606662
99.91700,0.9108550739
99.91750,-0.004728149245
99.91800,-0.9203113723
99.91850,0.3004662585
99.91900,6.404354412
99.91950,12.20304816
99.92000,12.20304816
99.92050,7.625132043
99.92100,3.962799151
99.92150,3.352410335
99.92200,3.352410335
99.92250,2.74202152
99.92300,2.131632705
99.92350,1.521243889
99.92400,0.3004662585
99.92450,-0.6151169646
99.92500,-0.9203113723
99.92550,0.3004662585
99.92600,2.74202152
99.92650,4.878382374
99.92700,6.70954882
99.92750,7.625132043
99.92800,6.70954882
99.92850,4.267993559
99.92900,1.521243889
99.92950,-1.530700188
99.93000,-4.277449857
99.93050,-6.108616303
99.93100,-5.498227488
99.93150,-3.056672226
99.93200,0.3004662585
99.93250,2.131632705
99.93300,2.131632705
99.93350,1.521243889
99.93400,2.436827112
99.93450,5.488771189
99.93500,8.235520859
99.93550,7.930326451
99.93600,6.099160005
99.93650,4.878382374
99.93700,4.573187966
99.93750,3.047215928
99.93800,1.216049482
99.93850,1.521243889
99.93900,5.488771189
99.93950,10.37188171
99.94000,12.50824257
99.94050,10.67707612
99.94100,5.488771189
99.94150,0.6056606662
99.94200,0.9108550739
99.94250,3.962799151
99.94300,2.131632705
99.94350,-8.550171565
99.94400,-21.06314228
99.94450,-24.11508636
99.94500,-19.23197583
99.94550,-14.65405972
99.94600,-13.43328209
99.94650,-9.16056038
99.94700,-0.3099225569
99.94750,6.404354412
99.94800,6.404354412
99.94850,2.74202152
99.94900,1.216049482
99.94950,1.216049482
99.95000,0.3004662585
99.95050,-1.530700188
99.95100,-2.446283411
99.95150,-1.22550578
99.95200,0.3004662585
99.95250,1.826438297
99.95300,2.74202152
99.95350,2.436827112
99.95400,1.216049482
99.95450,0.3004662585
99.95500,-0.004728149245
99.95550,-1.530700188
99.95600,-3.361866634
99.95650,-3.667061042
99.95700,-2.141089003
99.95750,-0.9203113723
99.95800,-1.530700188
99.95850,-2.751477819
99.95900,-3.056672226
99.95950,-2.446283411
99.96000,-2.141089003
99.96050,-1.835894595
99.96100,-1.530700188
99.96150,-1.530700188
99.96200,-1.835894595
99.96250,-2.141089003
99.96300,-2.751477819
99.96350,-3.667061042
99.96400,-3.667061042
99.96450,-3.056672226
99.96500,-1.835894595
99.96550,-0.004728149245
99.96600,3.047215928
99.96650,7.014743228
99.96700,7.930326451
99.96750,4.267993559
99.96800,-0.6151169646
99.96850,-3.972255449
99.96900,-5.19303308
99.96950,-6.413810711
99.97000,-7.634588342
99.97050,-5.803421896
99.97100,-1.22550578
99.97150,2.74202152
99.97200,2.131632705
99.97250,-0.9203113723
99.97300,-1.835894595
99.97350,1.826438297
99.97400,5.793965597
99.97450,4.267993559
99.97500,-2.446283411
99.97550,-8.550171565
99.97600,-8.855365973
99.97650,-5.19303308
99.97700,-1.22550578
99.97750,1.826438297
99.97800,5.183576782
99.97850,7.014743228
99.97900,6.70954882
99.97950,5.183576782
99.98000,4.878382374
99.98050,4.573187966
99.98100,2.74202152
99.98150,-0.004728149245
99.98200,-0.3099225569
99.98250,0.9108550739
99.98300,0.9108550739
99.98350,-0.9203113723
99.98400,-3.056672226
99.98450,-2.751477819
99.98500,-0.6151169646
99.98550,0.3004662585
99.98600,0.6056606662
99.98650,-0.004728149245
99.98700,-0.3099225569
99.98750,-1.22550578
99.98800,-1.530700188
99.98850,-0.6151169646
99.98900,-0.004728149245
99.98950,-0.004728149245
99.99000,-0.3099225569
99.99050,-2.141089003
99.99100,-4.277449857
99.99150,-5.498227488
99.99200,-5.19303308
99.99250,-3.361866634
99.99300,-2.141089003
99.99350,-1.835894595
99.99400,-1.835894595
99.99450,-1.22550578
99.99500,-0.9203113723
99.99550,-0.9203113723
99.99600,-0.3099225569
99.99650,0.9108550739
99.99700,2.131632705
99.99750,2.436827112
99.99800,1.521243889
99.99850,0.3004662585
99.99900,-0.9203113723
99.99950,-1.835894595
100.00000,-1.530700188
100.00050,-0.3099225569
100.00100,0.9108550739
100.00150,2.131632705
100.00200,2.436827112
100.00250,2.74202152
100.00300,3.047215928
100.00350,2.436827112
100.00400,1.216049482
100.00450,-0.004728149245
100.00500,-0.9203113723
100.00550,-0.6151169646
100.00600,0.6056606662
100.00650,2.74202152
100.00700,3.962799151
100.00750,4.267993559
100.00800,3.657604743
100.00850,2.74202152
100.00900,1.826438297
100.00950,0.6056606662
100.01000,-0.004728149245
100.01050,-0.004728149245
100.01100,0.3004662585
100.01150,1.216049482
100.01200,2.131632705
100.01250,3.047215928
100.01300,3.657604743
100.01350,3.047215928
100.01400,2.131632705
100.01450,2.436827112
100.01500,3.962799151
100.01550,5.488771189
100.01600,5.488771189
100.01650,4.573187966
100.01700,3.962799151
100.01750,3.657604743
100.01800,3.657604743
100.01850,3.962799151
100.01900,3.962799151
100.01950,3.047215928
100.02000,0.9108550739
100.02050,-0.3099225569
100.02100,-0.3099225569
100.02150,-0.004728149245
100.02200,-0.6151169646
100.02250,-0.6151169646
100.02300,0.9108550739
100.02350,3.657604743
100.02400,4.573187966
100.02450,3.047215928
100.02500,1.216049482
100.02550,0.6056606662
100.02600,1.216049482
100.02650,2.436827112
100.02700,3.657604743
100.02750,3.962799151
100.02800,2.131632705
100.02850,-0.3099225569
100.02900,-3.056672226
100.02950,-4.582644265
100.03000,-3.667061042
100.03050,1.521243889
100.03100,10.0666873
100.03150,13.42382579
100.03200,4.267993559
100.03250,-12.82289327
100.03300,-24.42028077
100.03350,-21.06314228
100.03400,-9.16056038
100.03450,-0.6151169646
100.03500,-0.004728149245
100.03550,-2.751477819
100.03600,-3.667061042
100.03650,-2.141089003
100.03700,-0.6151169646
100.03750,-0.3099225569
100.03800,-1.835894595
100.03850,-3.667061042
100.03900,-5.19303308
100.03950,-6.413810711
100.04000,-7.634588342
100.04050,-9.16056038
100.04100,-9.16056038
100.04150,-7.634588342
100.04200,-6.108616303
100.04250,-5.803421896
100.04300,-6.108616303
100.04350,-7.329393934
100.04400,-9.465754788
100.04450,-11.60211564
100.04500,-12.21250446
100.04550,-10.38133801
100.04600,-8.855365973
100.04650,-10.38133801
100.04700,-13.7384765
100.04750,-15.56964294
100.04800,-13.7384765
100.04850,-7.634588342
100.04900,1.826438297
100.04950,14.03421461
100.05000,26.24199091
100.05050,34.17704551
100.05100,36.00821196
100.05150,32.65107347
100.05200,25.93679651
100.05250,18.91732513
100.05300,13.42382579
100.05350,10.0666873
100.05400,7.625132043
100.05450,5.793965597
100.05500,5.488771189
100.05550,5.793965597
100.05600,4.878382374
100.05650,2.131632705
100.05700,-0.9203113723
100.05750,-2.446283411
100.05800,-2.751477819
100.05850,-2.446283411
100.05900,-1.22550578
100.05950,1.216049482
100.06000,3.352410335
100.06050,3.047215928
100.06100,0.6056606662
100.06150,-0.9203113723
100.06200,-1.530700188
100.06250,-2.446283411
100.06300,-3.972255449
100.06350,-4.887838672
100.06400,-4.582644265
100.06450,-3.972255449
100.06500,-3.972255449
100.06550,-4.277449857
100.06600,-4.277449857
100.06650,-4.582644265
100.06700,-6.108616303
100.06750,-7.634588342
100.06800,-7.024199526
100.06850,-4.277449857
100.06900,-1.530700188
100.06950,-0.6151169646
100.07000,-1.835894595
100.07050,-3.972255449
100.07100,-5.803421896
100.07150,-6.413810711
100.07200,-5.498227488
100.07250,-3.667061042
100.07300,-1.835894595
100.07350,-1.835894595
100.07400,-4.582644265
100.07450,-8.244977157
100.07500,-9.465754788
100.07550,-6.719005119
100.07600,-2.751477819
100.07650,-0.004728149245
100.07700,0.9108550739
100.07750,0.9108550739
100.07800,0.3004662585
100.07850,-1.22550578
100.07900,-2.751477819
100.07950,-3.056672226
100.08000,-3.056672226
100.08050,-5.19303308
100.08100,-9.770949196
100.08150,-14.95925413
100.08200,-17.7060038
100.08250,-16.48522617
100.08300,-12.51769887
100.08350,-7.024199526
100.08400,-1.835894595
100.08450,4.878382374
100.08500,14.94979783
100.08550,25.93679651
100.08600,31.43029584
100.08650,28.07315736
100.08700,18.91732513
100.08750,10.37188171
100.08800,6.099160005
100.08850,4.573187966
100.08900,3.352410335
100.08950,2.131632705
100.09000,0.3004662585
100.09050,-1.22550578
100.09100,-1.22550578
100.09150,1.216049482
100.09200,3.352410335
100.09250,2.436827112
100.09300,-0.6151169646
100.09350,-2.446283411
100.09400,-0.9203113723
100.09450,0.9108550739
100.09500,1.521243889
100.09550,0.6056606662
100.09600,-0.004728149245
100.09650,-0.6151169646
100.09700,-2.446283411
100.09750,-4.582644265
100.09800,-5.498227488
100.09850,-5.19303308
100.09900,-3.972255449
100.09950,-3.361866634
100.10000,-3.361866634
100.10050,-4.582644265
100.10100,-6.413810711
100.10150,-6.719005119
100.10200,-4.887838672
100.10250,-2.446283411
100.10300,-2.141089003
100.10350,-3.361866634
100.10400,-4.887838672
100.10450,-5.19303308
100.10500,-4.277449857
100.10550,-3.056672226
100.10600,-1.22550578
100.10650,0.9108550739
100.10700,2.74202152
100.10750,2.131632705
100.10800,-0.6151169646
100.10850,-3.361866634
100.10900,-3.667061042
100.10950,-2.141089003
100.11000,-0.6151169646
100.11050,-0.3099225569
100.11100,0.3004662585
100.11150,1.216049482
100.11200,0.9108550739
100.11250,-0.004728149245
100.11300,-0.9203113723
100.11350,-0.6151169646
100.11400,-0.3099225569
100.11450,-0.6151169646
100.11500,-1.835894595
100.11550,-1.530700188
100.11600,-0.004728149245
100.11650,1.826438297
100.11700,2.74202152
100.11750,2.131632705
100.11800,0.6056606662
100.11850,-0.9203113723
100.11900,-2.141089003
100.11950,-1.22550578
100.12000,-0.004728149245
100.12050,1.216049482
100.12100,0.6056606662
100.12150,-0.3099225569
100.12200,-1.835894595
100.12250,-2.446283411
100.12300,-2.751477819
100.12350,-2.141089003
100.12400,-0.004728149245
100.12450,1.826438297
100.12500,2.74202152
100.12550,1.826438297
100.12600,0.9108550739
100.12650,0.9108550739
100.12700,1.521243889
100.12750,1.216049482
100.12800,1.216049482
100.12850,1.826438297
100.12900,2.131632705
100.12950,0.9108550739
100.13000,-1.22550578
100.13050,-2.446283411
100.13100,-1.22550578
100.13150,0.9108550739
100.13200,2.74202152
100.13250,2.436827112
100.13300,1.216049482
100.13350,0.3004662585
100.13400,0.9108550739
100.13450,3.047215928
100.13500,4.573187966
100.13550,5.183576782
100.13600,5.488771189
100.13650,5.793965597
100.13700,5.183576782
100.13750,5.793965597
100.13800,9.151104082
100.13850,13.42382579
100.13900,14.94979783
100.13950,14.03421461
100.14000,14.03421461
100.14050,14.94979783
100.14100,11.28746494
100.14150,3.962799151
100.14200,0.3004662585
100.14250,3.352410335
100.14300,4.878382374
100.14350,-2.446283411
100.14400,-12.51769887
100.14450,-14.65405972
100.14500,-11.29692123
100.14550,-12.51769887
100.14600,-19.53717024
100.14650,-21.6735311
100.14700,-14.65405972
100.14750,-5.19303308
100.14800,0.3004662585
100.14850,4.573187966
100.14900,8.845909674
100.14950,10.67707612
100.15000,8.845909674
100.15050,6.404354412
100.15100,5.793965597
100.15150,5.488771189
100.15200,4.573187966
100.15250,6.099160005
100.15300,9.151104082
100.15350,8.235520859
100.15400,0.3004662585
100.15450,-8.855365973
100.15500,-12.51769887
100.15550,-8.244977157
100.15600,-1.835894595
100.15650,1.521243889
100.15700,0.3004662585
100.15750,-3.972255449
100.15800,-7.939782749
100.15850,-8.244977157
100.15900,-4.887838672
100.15950,-1.530700188
100.16000,0.3004662585
100.16050,1.521243889
100.16100,2.74202152
100.16150,4.573187966
100.16200,7.014743228
100.16250,8.845909674
100.16300,8.845909674
100.16350,7.319937636
100.16400,7.319937636
100.16450,9.151104082
100.16500,10.67707612
100.16550,9.151104082
100.16600,6.404354412
100.16650,5.488771189
100.16700,5.793965597
100.16750,5.488771189
100.16800,4.878382374
100.16850,5.488771189
100.16900,6.099160005
100.16950,4.878382374
100.17000,2.74202152
100.17050,1.216049482
100.17100,0.6056606662
100.17150,-0.6151169646
100.17200,-2.751477819
100.17250,-3.972255449
100.17300,-4.887838672
100.17350,-4.582644265
100.17400,-2.751477819
100.17450,-0.6151169646
100.17500,-0.9203113723
100.17550,-2.141089003
100.17600,-0.3099225569
100.17650,5.488771189
100.17700,10.37188171
100.17750,9.45629849
100.17800,5.488771189
100.17850,4.267993559
100.17900,5.183576782
100.17950,3.047215928
100.18000,-1.22550578
100.18050,-3.972255449
100.18100,-2.751477819
100.18150,-1.835894595
100.18200,-4.277449857
100.18250,-7.634588342
100.18300,-8.855365973
100.18350,-6.719005119
100.18400,-3.667061042
100.18450,-2.446283411
100.18500,-2.751477819
100.18550,-3.667061042
100.18600,-3.972255449
100.18650,-4.582644265
100.18700,-6.413810711
100.18750,-9.770949196
100.18800,-11.29692123
100.18850,-10.0761436
100.18900,-6.719005119
100.18950,-3.667061042
100.19000,-2.141089003
100.19050,-1.22550578
100.19100,-0.6151169646
100.19150,-0.004728149245
100.19200,0.6056606662
100.19250,1.216049482
100.19300,3.047215928
100.19350,4.573187966
100.19400,4.573187966
100.19450,2.131632705
100.19500,-0.9203113723
100.19550,-3.361866634
100.19600,-4.277449857
100.19650,-4.582644265
100.19700,-4.582644265
100.19750,-3.361866634
100.19800,-1.835894595
100.19850,-1.530700188
100.19900,-3.361866634
100.19950,-5.498227488
100.20000,-6.108616303
100.20050,-4.887838672
100.20100,-3.361866634
100.20150,-3.056672226
100.20200,-3.056672226
100.20250,-3.056672226
100.20300,-2.141089003
100.20350,-0.9203113723
100.20400,-0.6151169646
100.20450,-0.9203113723
100.20500,-0.3099225569
100.20550,1.216049482
100.20600,3.047215928
100.20650,3.352410335
100.20700,3.657604743
100.20750,5.183576782
100.20800,6.099160005
100.20850,5.183576782
100.20900,3.352410335
100.20950,2.436827112
100.21000,0.6056606662
100.21050,-2.751477819
100.21100,-5.498227488
100.21150,-3.667061042
100.21200,0.9108550739
100.21250,3.047215928
100.21300,1.521243889
100.21350,0.3004662585
100.21400,1.826438297
100.21450,2.74202152
100.21500,0.9108550739
100.21550,-1.22550578
100.21600,-2.446283411
100.21650,-2.751477819
100.21700,-3.667061042
100.21750,-4.582644265
100.21800,-3.361866634
100.21850,-0.3099225569
100.21900,1.216049482
100.21950,1.216049482
100.22000,-0.004728149245
100.22050,-1.530700188
100.22100,-3.056672226
100.22150,-3.361866634
100.22200,-2.751477819
100.22250,-1.835894595
100.22300,-0.9203113723
100.22350,-0.004728149245
100.22400,0.6056606662
100.22450,-0.6151169646
100.22500,-4.277449857
100.22550,-7.939782749
100.22600,-9.770949196
100.22650,-10.68653242
100.22700,-11.90731005
100.22750,-12.21250446
100.22800,-10.38133801
100.22850,-7.634588342
100.22900,-6.108616303
100.22950,-6.413810711
100.23000,-6.719005119
100.23050,-3.667061042
100.23100,0.6056606662
100.23150,3.657604743
100.23200,4.267993559
100.23250,3.657604743
100.23300,3.657604743
100.23350,4.267993559
100.23400,4.878382374
100.23450,5.183576782
100.23500,5.183576782
100.23550,5.183576782
100.23600,4.878382374
100.23650,3.962799151
100.23700,2.74202152
100.23750,1.826438297
100.23800,2.74202152
100.23850,4.878382374
100.23900,5.488771189
100.23950,3.352410335
100.24000,-0.004728149245
100.24050,-2.141089003
100.24100,-1.835894595
100.24150,-1.530700188
100.24200,-1.22550578
100.24250,-0.6151169646
100.24300,0.3004662585
100.24350,1.216049482
100.24400,1.216049482
100.24450,0.9108550739
100.24500,2.131632705
100.24550,3.962799151
100.24600,4.573187966
100.24650,3.657604743
100.24700,2.131632705
100.24750,1.826438297
100.24800,2.436827112
100.24850,2.436827112
100.24900,1.521243889
100.24950,0.9108550739
100.25000,1.216049482
100.25050,2.131632705
100.25100,2.74202152
100.25150,2.131632705
100.25200,0.6056606662
100.25250,-2.141089003
100.25300,-7.024199526
100.25350,-10.99172683
100.25400,-10.38133801
100.25450,-4.582644265
100.25500,1.216049482
100.25550,3.352410335
100.25600,2.436827112
100.25650,3.657604743
100.25700,9.151104082
100.25750,15.56018664
100.25800,16.78096427
100.25850,12.50824257
100.25900,6.70954882
100.25950,2.74202152
100.26000,1.216049482
100.26050,0.6056606662
100.26100,0.9108550739
100.26150,1.826438297
100.26200,2.436827112
100.26250,2.74202152
100.26300,3.047215928
100.26350,3.657604743
100.26400,5.183576782
100.26450,7.319937636
100.26500,9.45629849
100.26550,10.0666873
100.26600,8.845909674
100.26650,7.014743228
100.26700,7.625132043
100.26750,10.98227053
100.26800,12.81343697
100.26850,7.930326451
100.26900,-4.582644265
100.26950,-21.06314228
100.27000,-36.62805707
100.27050,-47.00466694
100.27100,-51.58258305
100.27150,-49.4462222
100.27200,-41.5111676
100.27250,-30.82936333
100.27300,-21.06314228
100.27350,-12.51769887
100.27400,-0.004728149245
100.27450,19.83290835
100.27500,41.80690571
100.27550,53.70948761
100.27600,47.30040504
100.27650,31.12510144
100.27700,19.83290835
100.27750,18.61213072
100.27800,19.22251954
100.27850,14.33940901
100.27900,7.930326451
100.27950,7.014743228
100.28000,8.845909674
100.28050,4.573187966
100.28100,-6.413810711
100.28150,-13.7384765
100.28200,-11.60211564
100.28250,-5.19303308
100.28300,-2.446283411
100.28350,-3.972255449
100.28400,-4.277449857
100.28450,-3.361866634
100.28500,-3.361866634
100.28550,-4.277449857
100.28600,-4.582644265
100.28650,-2.751477819
100.28700,-0.3099225569
100.28750,1.216049482
100.28800,1.826438297
100.28850,1.216049482
100.28900,-0.3099225569
100.28950,-1.530700188
100.29000,-1.530700188
100.29050,-2.141089003
100.29100,-5.19303308
100.29150,-9.465754788
100.29200,-12.51769887
100.29250,-12.82289327
100.29300,-11.29692123
100.29350,-8.550171565
100.29400,-5.803421896
100.29450,-3.667061042
100.29500,-1.835894595
100.29550,-0.004728149245
100.29600,2.131632705
100.29650,3.962799151
100.29700,4.267993559
100.29750,3.047215928
100.29800,1.826438297
100.29850,1.216049482
100.29900,0.9108550739
100.29950,-0.004728149245
100.30000,-2.751477819
100.30050,-5.498227488
100.30100,-6.719005119
100.30150,-6.108616303
100.30200,-4.582644265
100.30250,-3.056672226
100.30300,-1.835894595
100.30350,-1.835894595
100.30400,-3.056672226
100.30450,-3.361866634
100.30500,-1.22550578
100.30550,2.74202152
100.30600,4.878382374
100.30650,3.047215928
100.30700,-0.004728149245
100.30750,-0.6151169646
100.30800,1.216049482
100.30850,2.131632705
100.30900,0.3004662585
100.30950,-1.530700188
100.31000,-2.141089003
100.31050,-2.446283411
100.31100,-3.667061042
100.31150,-4.887838672
100.31200,-4.582644265
100.31250,-2.751477819
100.31300,-1.530700188
100.31350,-1.22550578
100.31400,-0.6151169646
100.31450,-0.004728149245
100.31500,0.6056606662
100.31550,0.3004662585
100.31600,-0.9203113723
100.31650,-2.751477819
100.31700,-3.667061042
100.31750,-2.446283411
100.31800,0.3004662585
100.31850,2.74202152
100.31900,3.047215928
100.31950,1.216049482
100.32000,-0.3099225569
100.32050,-1.835894595
100.32100,-2.751477819
100.32150,-3.056672226
100.32200,-2.141089003
100.32250,-1.530700188
100.32300,-2.141089003
100.32350,-3.361866634
100.32400,-3.972255449
100.32450,-3.361866634
100.32500,-2.141089003
100.32550,-0.3099225569
100.32600,1.826438297
100.32650,3.657604743
100.32700,3.047215928
100.32750,1.216049482
100.32800,-0.004728149245
100.32850,-0.004728149245
100.32900,1.216049482
100.32950,1.826438297
100.33000,1.826438297
100.33050,0.9108550739
100.33100,-0.004728149245
100.33150,-0.004728149245
100.33200,0.6056606662
100.33250,1.216049482
100.33300,2.131632705
100.33350,3.962799151
100.33400,5.488771189
100.33450,4.878382374
100.33500,2.74202152
100.33550,2.131632705
100.33600,3.657604743
100.33650,4.267993559
100.33700,0.9108550739
100.33750,-2.751477819
100.33800,-2.751477819
100.33850,0.6056606662
100.33900,3.047215928
100.33950,2.74202152
100.34000,2.131632705
100.34050,3.047215928
100.34100,3.352410335
100.34150,2.436827112
100.34200,2.436827112
100.34250,3.962799151
100.34300,3.962799151
100.34350,1.521243889
100.34400,-0.6151169646
100.34450,-0.6151169646
100.34500,0.3004662585
100.34550,0.6056606662
100.34600,-0.004728149245
100.34650,-0.9203113723
100.34700,-1.530700188
100.34750,-2.141089003
100.34800,-2.751477819
100.34850,-1.530700188
100.34900,0.3004662585
100.34950,0.9108550739
100.35000,0.3004662585
100.35050,-0.004728149245
100.35100,0.6056606662
100.35150,1.216049482
100.35200,1.826438297
100.35250,2.74202152
100.35300,3.352410335
100.35350,2.74202152
100.35400,1.826438297
100.35450,2.436827112
100.35500,3.962799151
100.35550,5.488771189
100.35600,6.099160005
100.35650,6.099160005
100.35700,4.267993559
100.35750,-0.004728149245
100.35800,-3.972255449
100.35850,-4.277449857
100.35900,-0.6151169646
100.35950,2.131632705
100.36000,1.216049482
100.36050,-0.9203113723
100.36100,-1.530700188
100.36150,-0.004728149245
100.36200,1.216049482
100.36250,2.131632705
100.36300,1.826438297
100.36350,0.6056606662
100.36400,-0.3099225569
100.36450,-0.004728149245
100.36500,1.216049482
100.36550,1.521243889
100.36600,0.6056606662
100.36650,0.6056606662
100.36700,1.826438297
100.36750,1.216049482
100.36800,-1.530700188
100.36850,-4.582644265
100.36900,-4.277449857
100.36950,-2.446283411
100.37000,-2.141089003
100.37050,-1.835894595
100.37100,-0.6151169646
100.37150,1.216049482
100.37200,1.521243889
100.37250,0.9108550739
100.37300,1.826438297
100.37350,3.352410335
100.37400,4.267993559
100.37450,5.183576782
100.37500,6.099160005
100.37550,6.404354412
100.37600,4.878382374
100.37650,2.74202152
100.37700,2.131632705
100.37750,2.131632705
100.37800,0.6056606662
100.37850,-0.3099225569
100.37900,0.3004662585
100.37950,1.216049482
100.38000,-0.004728149245
100.38050,-0.6151169646
100.38100,1.521243889
100.38150,3.962799151
100.38200,2.131632705
100.38250,-1.530700188
100.38300,-0.9203113723
100.38350,3.352410335
100.38400,4.878382374
100.38450,2.131632705
100.38500,0.6056606662
100.38550,2.131632705
100.38600,0.6056606662
100.38650,-7.024199526
100.38700,-15.87483735
100.38750,-17.7060038
100.38800,-12.82289327
100.38850,-6.719005119
100.38900,-3.056672226
100.38950,-0.004728149245
100.39000,4.267993559
100.39050,10.98227053
100.39100,17.08615868
100.39150,18.91732513
100.39200,16.17057546
100.39250,11.89785375
100.39300,10.0666873
100.39350,9.761492897
100.39400,6.404354412
100.39450,-0.6151169646
100.39500,-8.244977157
100.39550,-14.34886531
100.39600,-19.23197583
100.39650,-20.45275347
100.39700,-15.56964294
100.39750,-5.19303308
100.39800,5.488771189
100.39850,11.59265934
100.39900,10.37188171
100.39950,2.436827112
100.40000,-7.024199526
100.40050,-11.60211564
100.40100,-7.329393934
100.40150,-0.004728149245
100.40200,2.131632705
100.40250,-2.141089003
100.40300,-6.108616303
100.40350,-4.582644265
100.40400,-0.004728149245
100.40450,3.352410335
100.40500,4.573187966
100.40550,4.573187966
100.40600,3.657604743
100.40650,2.436827112
100.40700,1.521243889
100.40750,1.216049482
100.40800,1.521243889
100.40850,1.521243889
100.40900,1.826438297
100.40950,2.131632705
100.41000,1.521243889
100.41050,1.521243889
100.41100,2.131632705
100.41150,2.436827112
100.41200,1.521243889
100.41250,0.9108550739
100.41300,0.6056606662
100.41350,-1.22550578
100.41400,-6.108616303
100.41450,-9.770949196
100.41500,-8.550171565
100.41550,-4.582644265
100.41600,-3.667061042
100.41650,-5.498227488
100.41700,-6.108616303
100.41750,-3.667061042
100.41800,-1.530700188
100.41850,-1.835894595
100.41900,-2.751477819
100.41950,-2.446283411
100.42000,-1.835894595
100.42050,-3.056672226
100.42100,-5.803421896
100.42150,-5.498227488
100.42200,-1.22550578
100.42250,2.131632705
100.42300,-0.004728149245
100.42350,-6.719005119
100.42400,-11.90731005
100.42450,-11.60211564
100.42500,-9.465754788
100.42550,-10.0761436
100.42600,-11.90731005
100.42650,-10.99172683
100.42700,-7.024199526
100.42750,-4.277449857
100.42800,-3.667061042
100.42850,-2.141089003
100.42900,1.521243889
100.42950,4.267993559
100.43000,3.047215928
100.43050,1.216049482
100.43100,2.436827112
100.43150,6.099160005
100.43200,8.235520859
100.43250,8.845909674
100.43300,8.845909674
100.43350,9.151104082
100.43400,8.845909674
100.43450,9.151104082
100.43500,10.98227053
100.43550,12.50824257
100.43600,11.28746494
100.43650,8.235520859
100.43700,5.793965597
100.43750,5.488771189
100.43800,4.878382374
100.43850,2.436827112
100.43900,-0.004728149245
100.43950,-0.6151169646
100.44000,-0.004728149245
100.44050,0.6056606662
100.44100,0.3004662585
100.44150,0.3004662585
100.44200,0.9108550739
100.44250,0.3004662585
100.44300,-2.141089003
100.44350,-5.803421896
100.44400,-7.024199526
100.44450,-4.887838672
100.44500,-1.530700188
100.44550,-0.004728149245
100.44600,-0.3099225569
100.44650,-0.9203113723
100.44700,-0.6151169646
100.44750,-0.6151169646
100.44800,-0.6151169646
100.44850,-0.3099225569
100.44900,-0.6151169646
100.44950,-2.751477819
100.45000,-5.498227488
100.45050,-6.108616303
100.45100,-5.498227488
100.45150,-5.19303308
100.45200,-5.803421896
100.45250,-5.19303308
100.45300,-2.751477819
100.45350,-0.9203113723
100.45400,-0.3099225569
100.45450,-0.9203113723
100.45500,-1.835894595
100.45550,-3.056672226
100.45600,-3.361866634
100.45650,-2.141089003
100.45700,-0.004728149245
100.45750,-0.004728149245
100.45800,-1.530700188
100.45850,-0.6151169646
100.45900,3.657604743
100.45950,7.930326451
100.46000,8.235520859
100.46050,5.793965597
100.46100,3.352410335
100.46150,1.521243889
100.46200,-0.3099225569
100.46250,-2.141089003
100.46300,-1.835894595
100.46350,-0.6151169646
100.46400,-1.530700188
100.46450,-5.19303308
100.46500,-7.939782749
100.46550,-7.024199526
100.46600,-5.19303308
100.46650,-3.972255449
100.46700,-3.361866634
100.46750,-2.141089003
100.46800,-1.22550578
100.46850,-0.9203113723
100.46900,-1.22550578
100.46950,-1.530700188
100.47000,-2.141089003
100.47050,-3.361866634
100.47100,-3.972255449
100.47150,-2.751477819
100.47200,-1.835894595
100.47250,-3.056672226
100.47300,-5.498227488
100.47350,-5.498227488
100.47400,-2.751477819
100.47450,0.3004662585
100.47500,0.9108550739
100.47550,0.6056606662
100.47600,0.6056606662
100.47650,0.6056606662
100.47700,-0.004728149245
100.47750,-0.9203113723
100.47800,-1.22550578
100.47850,-1.22550578
100.47900,-1.22550578
100.47950,-0.6151169646
100.48000,1.521243889
100.48050,4.267993559
100.48100,5.793965597
100.48150,5.793965597
100.48200,4.573187966
100.48250,2.436827112
100.48300,0.9108550739
100.48350,0.3004662585
100.48400,0.9108550739
100.48450,1.826438297
100.48500,1.521243889
100.48550,0.9108550739
100.48600,0.9108550739
100.48650,1.216049482
100.48700,1.521243889
100.48750,1.521243889
100.48800,2.436827112
100.48850,3.657604743
100.48900,4.267993559
100.48950,4.267993559
100.49000,3.657604743
100.49050,2.74202152
100.49100,0.9108550739
100.49150,-0.004728149245
100.49200,-0.004728149245
100.49250,0.6056606662
100.49300,-0.004728149245
100.49350,-0.3099225569
100.49400,1.216049482
100.49450,4.267993559
100.49500,5.488771189
100.49550,3.352410335
100.49600,0.9108550739
100.49650,0.9108550739
100.49700,2.74202152
100.49750,3.352410335
100.49800,2.131632705
100.49850,1.521243889
100.49900,1.521243889
100.49950,0.3004662585
100.50000,-1.835894595
100.50050,-3.667061042
100.50100,-3.056672226
100.50150,-1.22550578
100.50200,-0.004728149245
100.50250,-0.004728149245
100.50300,0.6056606662
100.50350,1.826438297
100.50400,3.352410335
100.50450,5.793965597
100.50500,9.761492897
100.50550,13.7290202
100.50600,15.56018664
100.50650,13.7290202
100.50700,9.45629849
100.50750,6.099160005
100.50800,5.793965597
100.50850,7.319937636
100.50900,7.625132043
100.50950,5.793965597
100.51000,4.267993559
100.51050,4.573187966
100.51100,5.793965597
100.51150,7.625132043
100.51200,10.37188171
100.51250,12.20304816
100.51300,9.761492897
100.51350,1.216049482
100.51400,-8.855365973
100.51450,-15.87483735
100.51500,-18.0111982
100.51550,-17.40080939
100.51600,-15.56964294
100.51650,-11.60211564
100.51700,-5.803421896
100.51750,-1.22550578
100.51800,0.6056606662
100.51850,1.521243889
100.51900,2.436827112
100.51950,2.74202152
100.52000,1.826438297
100.52050,2.131632705
100.52100,4.878382374
100.52150,7.930326451
100.52200,6.70954882
100.52250,0.6056606662
100.52300,-7.634588342
100.52350,-12.51769887
100.52400,-10.68653242
100.52450,-2.751477819
100.52500,4.878382374
100.52550,7.014743228
100.52600,2.74202152
100.52650,-2.141089003
100.52700,-3.361866634
100.52750,-3.361866634
100.52800,-5.803421896
100.52850,-9.770949196
100.52900,-11.29692123
100.52950,-8.855365973
100.53000,-5.498227488
100.53050,-3.972255449
100.53100,-3.361866634
100.53150,-2.141089003
100.53200,-0.3099225569
100.53250,0.6056606662
100.53300,-0.004728149245
100.53350,-3.667061042
100.53400,-9.16056038
100.53450,-12.51769887
100.53500,-13.12808768
100.53550,-14.0436709
100.53600,-16.18003176
100.53650,-16.48522617
100.53700,-12.21250446
100.53750,-6.719005119
100.53800,-3.361866634
100.53850,0.9108550739
100.53900,10.67707612
100.53950,22.27446361
100.54000,27.15757414
100.54050,23.49524124
100.54100,18.00174191
100.54150,14.94979783
100.54200,12.50824257
100.54250,8.845909674
100.54300,5.488771189
100.54350,3.962799151
100.54400,3.352410335
100.54450,2.436827112
100.54500,2.436827112
100.54550,3.047215928
100.54600,1.826438297
100.54650,-0.6151169646
100.54700,-2.446283411
100.54750,-2.446283411
100.54800,-1.835894595
100.54850,-1.835894595
100.54900,-1.22550578
100.54950,-0.004728149245
100.55000,-0.004728149245
100.55050,-1.835894595
100.55100,-3.056672226
100.55150,-2.446283411
100.55200,-1.22550578
100.55250,-0.9203113723
100.55300,-1.835894595
100.55350,-2.141089003
100.55400,-1.835894595
100.55450,-0.9203113723
100.55500,-0.3099225569
100.55550,-1.22550578
100.55600,-2.751477819
100.55650,-3.361866634
100.55700,-2.751477819
100.55750,-1.530700188
100.55800,-1.835894595
100.55850,-1.530700188
100.55900,-0.004728149245
100.55950,2.131632705
100.56000,1.826438297
100.56050,-0.3099225569
100.56100,-1.835894595
100.56150,-2.141089003
100.56200,-2.446283411
100.56250,-4.277449857
100.56300,-5.803421896
100.56350,-5.19303308
100.56400,-4.582644265
100.56450,-6.108616303
100.56500,-8.244977157
100.56550,-7.329393934
100.56600,-3.361866634
100.56650,-0.3099225569
100.56700,-1.22550578
100.56750,-3.972255449
100.56800,-5.19303308
100.56850,-4.582644265
100.56900,-3.361866634
100.56950,-2.751477819
100.57000,-2.751477819
100.57050,-2.751477819
100.57100,-3.056672226
100.57150,-3.056672226
100.57200,-1.835894595
100.57250,-0.3099225569
100.57300,0.3004662585
100.57350,0.3004662585
100.57400,0.6056606662
100.57450,0.9108550739
100.57500,-0.004728149245
100.57550,-1.22550578
100.57600,-1.835894595
100.57650,-0.6151169646
100.57700,0.3004662585
100.57750,-0.004728149245
100.57800,-2.141089003
100.57850,-3.056672226
100.57900,-3.056672226
100.57950,-1.530700188
100.58000,-0.004728149245
100.58050,1.521243889
100.58100,2.436827112
100.58150,2.131632705
100.58200,2.74202152
100.58250,3.047215928
100.58300,2.131632705
100.58350,-0.9203113723
100.58400,-4.277449857
100.58450,-4.582644265
100.58500,-3.361866634
100.58550,-2.751477819
100.58600,-2.446283411
100.58650,-1.530700188
100.58700,-0.9203113723
100.58750,-1.835894595
100.58800,-3.972255449
100.58850,-4.887838672
100.58900,-3.667061042
100.58950,-1.530700188
100.59000,0.6056606662
100.59050,3.657604743
100.59100,6.099160005
100.59150,5.488771189
100.59200,1.826438297
100.59250,-1.22550578
100.59300,-1.835894595
100.59350,-0.3099225569
100.59400,0.6056606662
100.59450,1.216049482
100.59500,2.131632705
100.59550,3.352410335
100.59600,4.573187966
100.59650,6.099160005
100.59700,7.930326451
100.59750,8.540715266
100.59800,7.319937636
100.59850,4.267993559
100.59900,2.131632705
100.59950,1.521243889
100.60000,1.521243889
100.60050,0.3004662585
100.60100,-2.141089003
100.60150,-4.887838672
100.60200,-6.413810711
100.60250,-6.413810711
100.60300,-4.887838672
100.60350,-2.141089003
100.60400,0.3004662585
100.60450,1.521243889
100.60500,0.3004662585
100.60550,-0.3099225569
100.60600,-0.9203113723
100.60650,-1.530700188
100.60700,-2.751477819
100.60750,-3.361866634
100.60800,-2.141089003
100.60850,-0.6151169646
100.60900,-0.004728149245
100.60950,0.6056606662
100.61000,1.521243889
100.61050,0.6056606662
100.61100,-1.530700188
100.61150,-3.361866634
100.61200,-3.361866634
100.61250,-3.667061042
100.61300,-5.803421896
100.61350,-6.108616303
100.61400,-2.446283411
100.61450,0.6056606662
100.61500,0.3004662585
100.61550,-0.004728149245
100.61600,4.878382374
100.61650,11.28746494
100.61700,10.98227053
100.61750,5.793965597
100.61800,3.657604743
100.61850,7.625132043
100.61900,10.37188171
100.61950,7.319937636
100.62000,3.047215928
100.62050,1.826438297
100.62100,2.131632705
100.62150,0.9108550739
100.62200,-0.004728149245
100.62250,0.6056606662
100.62300,1.826438297
100.62350,3.047215928
100.62400,4.573187966
100.62450,7.319937636
100.62500,8.540715266
100.62550,6.70954882
100.62600,5.183576782
100.62650,5.488771189
100.62700,6.70954882
100.62750,7.625132043
100.62800,9.151104082
100.62850,9.151104082
100.62900,5.793965597
100.62950,-0.3099225569
100.63000,-4.582644265
100.63050,-4.582644265
100.63100,-3.667061042
100.63150,-5.19303308
100.63200,-6.108616303
100.63250,-2.751477819
100.63300,3.352410335
100.63350,8.235520859
100.63400,9.761492897
100.63450,8.235520859
100.63500,4.878382374
100.63550,1.521243889
100.63600,-0.004728149245
100.63650,0.6056606662
100.63700,0.9108550739
100.63750,0.3004662585
100.63800,0.9108550739
100.63850,3.657604743
100.63900,7.014743228
100.63950,8.845909674
100.64000,8.845909674
100.64050,9.45629849
100.64100,11.59265934
100.64150,14.03421461
100.64200,14.03421461
100.64250,10.0666873
100.64300,2.74202152
100.64350,-3.667061042
100.64400,-6.413810711
100.64450,-6.108616303
100.64500,-5.19303308
100.64550,-5.19303308
100.64600,-3.972255449
100.64650,-1.835894595
100.64700,-0.9203113723
100.64750,-0.9203113723
100.64800,-0.9203113723
100.64850,-0.9203113723
100.64900,-1.22550578
100.64950,-0.004728149245
100.65000,5.183576782
100.65050,10.37188171
100.65100,9.45629849
100.65150,0.6056606662
100.65200,-9.770949196
100.65250,-14.0436709
100.65300,-9.770949196
100.65350,-1.835894595
100.65400,2.74202152
100.65450,0.9108550739
100.65500,-5.19303308
100.65550,-9.770949196
100.65600,-8.550171565
100.65650,-3.972255449
100.65700,-0.9203113723
100.65750,-0.6151169646
100.65800,-0.9203113723
100.65850,-0.9203113723
100.65900,-1.22550578
100.65950,-1.835894595
100.66000,-1.835894595
100.66050,-0.9203113723
100.66100,-0.3099225569
100.66150,-1.22550578
100.66200,-3.056672226
100.66250,-3.667061042
100.66300,-2.446283411
100.66350,-0.9203113723
100.66400,-2.141089003
100.66450,-6.413810711
100.66500,-11.60211564
100.66550,-14.0436709
100.66600,-12.21250446
100.66650,-8.855365973
100.66700,-5.498227488
100.66750,-3.667061042
100.66800,-3.361866634
100.66850,-4.582644265
100.66900,-5.803421896
100.66950,-5.803421896
100.67000,-4.582644265
100.67050,-3.972255449
100.67100,-3.667061042
100.67150,-3.056672226
100.67200,-2.751477819
100.67250,-3.056672226
100.67300,-3.361866634
100.67350,-1.835894595
100.67400,-0.004728149245
100.67450,0.6056606662
100.67500,-0.004728149245
100.67550,-0.004728149245
100.67600,0.9108550739
100.67650,3.047215928
100.67700,4.573187966
100.67750,4.573187966
100.67800,2.74202152
100.67850,-0.6151169646
100.67900,-3.667061042
100.67950,-5.498227488
100.68000,-6.108616303
100.68050,-5.803421896
100.68100,-4.277449857
100.68150,-2.141089003
100.68200,-1.22550578
100.68250,-1.835894595
100.68300,-2.446283411
100.68350,-1.530700188
100.68400,-1.22550578
100.68450,-3.361866634
100.68500,-5.803421896
100.68550,-4.582644265
100.68600,-1.22550578
100.68650,-0.004728149245
100.68700,-0.3099225569
100.68750,-0.6151169646
100.68800,1.521243889
100.68850,4.267993559
100.68900,3.962799151
100.68950,1.216049482
100.69000,-0.004728149245
100.69050,0.9108550739
100.69100,3.352410335
100.69150,4.267993559
100.69200,4.267993559
100.69250,4.573187966
100.69300,5.183576782
100.69350,5.183576782
100.69400,2.74202152
100.69450,-0.004728149245
100.69500,-1.530700188
100.69550,-0.6151169646
100.69600,1.521243889
100.69650,2.436827112
100.69700,1.521243889
100.69750,1.216049482
100.69800,3.657604743
100.69850,8.235520859
100.69900,10.0666873
100.69950,6.404354412
100.70000,-0.004728149245
100.70050,-3.667061042
100.70100,-3.056672226
100.70150,-0.6151169646
100.70200,0.9108550739
100.70250,0.9108550739
100.70300,1.216049482
100.70350,1.826438297
100.70400,2.74202152
100.70450,3.352410335
100.70500,3.962799151
100.70550,4.267993559
100.70600,4.267993559
100.70650,4.267993559
100.70700,4.267993559
100.70750,4.267993559
100.70800,3.352410335
100.70850,1.826438297
100.70900,0.6056606662
100.70950,-0.004728149245
100.71000,-0.004728149245
100.71050,-0.9203113723
100.71100,-2.141089003
100.71150,-2.446283411
100.71200,-1.22550578
100.71250,-0.3099225569
100.71300,-0.3099225569
100.71350,-0.3099225569
100.71400,0.9108550739
100.71450,2.74202152
100.71500,2.74202152
100.71550,0.9108550739
100.71600,-0.6151169646
100.71650,-1.22550578
100.71700,-1.22550578
100.71750,-0.9203113723
100.71800,-0.004728149245
100.71850,1.216049482
100.71900,2.436827112
100.71950,0.9108550739
100.72000,-1.22550578
100.72050,-3.056672226
100.72100,-2.751477819
100.72150,-2.141089003
100.72200,-3.667061042
100.72250,-6.719005119
100.72300,-8.550171565
100.72350,-6.719005119
100.72400,-3.056672226
100.72450,-0.9203113723
100.72500,-2.751477819
100.72550,-5.803421896
100.72600,-7.634588342
100.72650,-7.024199526
100.72700,-5.19303308
100.72750,-5.19303308
100.72800,-7.939782749
100.72850,-11.90731005
100.72900,-15.56964294
100.72950,-17.7060038
100.73000,-19.23197583
100.73050,-20.75794787
100.73100,-20.14755906
100.73150,-16.18003176
100.73200,-10.68653242
100.73250,-6.719005119
100.73300,-3.972255449
100.73350,-0.004728149245
100.73400,6.70954882
100.73450,13.7290202
100.73500,19.22251954
100.73550,21.6640748
100.73600,20.44329717
100.73650,15.25499224
100.73700,9.151104082
100.73750,6.404354412
100.73800,7.625132043
100.73850,10.37188171
100.73900,12.20304816
100.73950,12.20304816
100.74000,10.0666873
100.74050,6.70954882
100.74100,3.657604743
100.74150,2.74202152
100.74200,2.436827112
100.74250,1.216049482
100.74300,-0.004728149245
100.74350,-0.3099225569
100.74400,-0.004728149245
100.74450,-0.6151169646
100.74500,-1.835894595
100.74550,-1.22550578
100.74600,-0.004728149245
100.74650,0.3004662585
100.74700,-0.3099225569
100.74750,0.6056606662
100.74800,3.047215928
100.74850,3.047215928
100.74900,0.6056606662
100.74950,-0.004728149245
100.75000,1.521243889
100.75050,3.352410335
100.75100,3.657604743
100.75150,5.183576782
100.75200,8.845909674
100.75250,9.45629849
100.75300,6.404354412
100.75350,3.962799151
100.75400,4.267993559
100.75450,3.657604743
100.75500,0.6056606662
100.75550,-0.3099225569
100.75600,2.436827112
100.75650,2.74202152
100.75700,-4.582644265
100.75750,-15.87483735
100.75800,-21.36833669
100.75850,-18.31639261
100.75900,-9.770949196
100.75950,-0.9203113723
100.76000,3.352410335
100.76050,-2.751477819
100.76100,-18.0111982
100.76150,-31.43975214
100.76200,-35.10208503
100.76250,-32.96572418
100.76300,-32.05014096
100.76350,-31.43975214
100.76400,-25.9462528
100.76450,-16.18003176
100.76500,-5.803421896
100.76550,7.930326451
100.76600,28.37835177
100.76650,47.30040504
100.76700,52.79390438
100.76750,44.85884978
100.76800,33.26146229
100.76850,24.10563006
100.76900,15.86538105
100.76950,8.235520859
100.77000,4.267993559
100.77050,4.267993559
100.77100,4.267993559
100.77150,3.047215928
100.77200,3.657604743
100.77250,6.70954882
100.77300,8.235520859
100.77350,6.70954882
100.77400,5.183576782
100.77450,5.488771189
100.77500,5.793965597
100.77550,3.657604743
100.77600,0.3004662585
100.77650,-2.141089003
100.77700,-3.667061042
100.77750,-4.277449857
100.77800,-3.056672226
100.77850,-1.530700188
100.77900,-1.835894595
100.77950,-3.361866634
100.78000,-4.887838672
100.78050,-6.108616303
100.78100,-8.550171565
100.78150,-11.90731005
100.78200,-12.82289327
100.78250,-10.99172683
100.78300,-8.550171565
100.78350,-6.108616303
100.78400,-2.751477819
100.78450,0.6056606662
100.78500,0.3004662585
100.78550,-3.667061042
100.78600,-6.719005119
100.78650,-4.582644265
100.78700,-0.3099225569
100.78750,0.3004662585
100.78800,-3.667061042
100.78850,-7.024199526
100.78900,-4.887838672
100.78950,1.216049482
100.79000,5.793965597
100.79050,5.488771189
100.79100,2.74202152
100.79150,0.9108550739
100.79200,-0.004728149245
100.79250,-1.530700188
100.79300,-1.530700188
100.79350,0.6056606662
100.79400,3.352410335
100.79450,1.521243889
100.79500,-4.582644265
100.79550,-9.16056038
100.79600,-7.939782749
100.79650,-3.667061042
100.79700,-1.835894595
100.79750,-3.667061042
100.79800,-6.108616303
100.79850,-7.024199526
100.79900,-5.803421896
100.79950,-3.361866634
100.80000,0.3004662585
100.80050,3.962799151
100.80100,5.183576782
100.80150,4.267993559
100.80200,3.352410335
100.80250,3.657604743
100.80300,3.657604743
100.80350,2.436827112
100.80400,0.6056606662
100.80450,0.6056606662
100.80500,3.352410335
100.80550,6.099160005
100.80600,6.099160005
100.80650,4.573187966
100.80700,3.657604743
100.80750,4.267993559
100.80800,4.878382374
100.80850,5.488771189
100.80900,5.488771189
100.80950,4.573187966
100.81000,3.352410335
100.81050,2.436827112
100.81100,3.352410335
100.81150,4.573187966
100.81200,3.352410335
100.81250,0.3004662585
100.81300,-0.3099225569
100.81350,1.521243889
100.81400,2.436827112
100.81450,-0.3099225569
100.81500,-3.972255449
100.81550,-4.277449857
100.81600,-1.835894595
100.81650,0.3004662585
100.81700,2.436827112
100.81750,3.962799151
100.81800,4.267993559
100.81850,2.131632705
100.81900,0.6056606662
100.81950,1.521243889
100.82000,4.267993559
100.82050,5.183576782
100.82100,4.267993559
100.82150,3.657604743
100.82200,3.352410335
100.82250,3.047215928
100.82300,2.436827112
100.82350,3.047215928
100.82400,4.573187966
100.82450,4.573187966
100.82500,3.352410335
100.82550,3.047215928
100.82600,4.267993559
100.82650,4.267993559
100.82700,2.436827112
100.82750,0.3004662585
100.82800,-0.004728149245
100.82850,0.9108550739
100.82900,1.826438297
100.82950,1.216049482
100.83000,-0.004728149245
100.83050,-0.6151169646
100.83100,-0.6151169646
100.83150,-0.3099225569
100.83200,-0.6151169646
100.83250,-2.751477819
100.83300,-4.277449857
100.83350,-3.667061042
100.83400,-1.835894595
100.83450,-0.9203113723
100.83500,-1.530700188
100.83550,-2.141089003
100.83600,-1.530700188
100.83650,-1.530700188
100.83700,-2.751477819
100.83750,-4.277449857
100.83800,-4.277449857
100.83850,-2.446283411
100.83900,-0.6151169646
100.83950,0.3004662585
100.84000,-0.004728149245
100.84050,-1.530700188
100.84100,-2.751477819
100.84150,-1.22550578
100.84200,2.131632705
100.84250,5.793965597
100.84300,7.014743228
100.84350,5.793965597
100.84400,4.878382374
100.84450,4.878382374
100.84500,5.488771189
100.84550,5.793965597
100.84600,3.962799151
100.84650,-0.3099225569
100.84700,-5.803421896
100.84750,-8.550171565
100.84800,-6.719005119
100.84850,-3.667061042
100.84900,-3.056672226
100.84950,-5.19303308
100.85000,-7.634588342
100.85050,-8.244977157
100.85100,-7.329393934
100.85150,-5.19303308
100.85200,-2.446283411
100.85250,-1.22550578
100.85300,-1.835894595
100.85350,-0.9203113723
100.85400,2.74202152
100.85450,7.319937636
100.85500,7.930326451
100.85550,4.267993559
100.85600,-0.004728149245
100.85650,-2.141089003
100.85700,-2.751477819
100.85750,-3.361866634
100.85800,-3.361866634
100.85850,-2.141089003
100.85900,-0.9203113723
100.85950,-1.22550578
100.86000,-1.835894595
100.86050,-1.22550578
100.86100,-0.3099225569
100.86150,-1.22550578
100.86200,-1.835894595
100.86250,-0.004728149245
100.86300,4.573187966
100.86350,6.099160005
100.86400,1.521243889
100.86450,-3.972255449
100.86500,-5.498227488
100.86550,-2.446283411
100.86600,-0.3099225569
100.86650,-0.3099225569
100.86700,-1.22550578
100.86750,-2.141089003
100.86800,-4.277449857
100.86850,-6.719005119
100.86900,-6.108616303
100.86950,-3.361866634
100.87000,-1.530700188
100.87050,-1.835894595
100.87100,-0.004728149245
100.87150,4.267993559
100.87200,7.319937636
100.87250,5.488771189
100.87300,2.74202152
100.87350,3.352410335
100.87400,4.878382374
100.87450,3.352410335
100.87500,-0.004728149245
100.87550,-0.9203113723
100.87600,-0.004728149245
100.87650,-0.004728149245
100.87700,-2.141089003
100.87750,-2.751477819
100.87800,-0.004728149245
100.87850,2.131632705
100.87900,0.9108550739
100.87950,-1.530700188
100.88000,-2.141089003
100.88050,-0.6151169646
100.88100,1.826438297
100.88150,3.352410335
100.88200,3.352410335
100.88250,1.826438297
100.88300,-0.004728149245
100.88350,-1.22550578
100.88400,-1.22550578
100.88450,-0.9203113723
100.88500,-0.9203113723
100.88550,-0.9203113723
100.88600,-0.6151169646
100.88650,-0.3099225569
100.88700,-1.530700188
100.88750,-3.667061042
100.88800,-4.887838672
100.88850,-4.887838672
100.88900,-4.582644265
100.88950,-5.498227488
100.89000,-6.108616303
100.89050,-5.803421896
100.89100,-4.582644265
100.89150,-2.751477819
100.89200,-0.9203113723
100.89250,-0.004728149245
100.89300,0.3004662585
100.89350,0.6056606662
100.89400,2.74202152
100.89450,6.404354412
100.89500,8.845909674
100.89550,7.319937636
100.89600,3.962799151
100.89650,1.826438297
100.89700,0.9108550739
100.89750,-0.3099225569
100.89800,-1.530700188
100.89850,-0.3099225569
100.89900,1.216049482
100.89950,0.3004662585
100.90000,-3.667061042
100.90050,-7.024199526
100.90100,-6.108616303
100.90150,-3.056672226
100.90200,-2.751477819
100.90250,-4.582644265
100.90300,-6.108616303
100.90350,-6.108616303
100.90400,-5.803421896
100.90450,-6.719005119
100.90500,-7.329393934
100.90550,-6.413810711
100.90600,-3.667061042
100.90650,-0.9203113723
100.90700,0.6056606662
100.90750,1.826438297
100.90800,4.267993559
100.90850,8.845909674
100.90900,12.81343697
100.90950,14.03421461
100.91000,13.11863138
100.91050,12.20304816
100.91100,9.45629849
100.91150,2.436827112
100.91200,-6.719005119
100.91250,-12.21250446
100.91300,-9.770949196
100.91350,-2.751477819
100.91400,2.436827112
100.91450,4.267993559
100.91500,3.352410335
100.91550,0.9108550739
100.91600,-0.9203113723
100.91650,-1.835894595
100.91700,-0.9203113723
100.91750,-0.3099225569
100.91800,-0.6151169646
100.91850,-1.530700188
100.91900,-1.530700188
100.91950,-0.3099225569
100.92000,1.216049482
100.92050,4.573187966
100.92100,7.930326451
100.92150,8.845909674
100.92200,6.70954882
100.92250,4.878382374
100.92300,4.267993559
100.92350,3.047215928
100.92400,1.216049482
100.92450,2.74202152
100.92500,8.540715266
100.92550,10.37188171
100.92600,-0.004728149245
100.92650,-18.92678143
100.92700,-31.74494655
100.92750,-29.30339129
100.92800,-17.40080939
100.92850,-6.719005119
100.92900,-1.530700188
100.92950,0.9108550739
100.93000,2.436827112
100.93050,2.131632705
100.93100,0.6056606662
100.93150,-0.004728149245
100.93200,0.3004662585
100.93250,1.216049482
100.93300,1.826438297
100.93350,4.267993559
100.93400,8.845909674
100.93450,11.59265934
100.93500,7.014743228
100.93550,-4.582644265
100.93600,-17.09561498
100.93650,-21.9787255
100.93700,-17.7060038
100.93750,-10.38133801
100.93800,-6.108616303
100.93850,-5.498227488
100.93900,-4.277449857
100.93950,-1.22550578
100.94000,0.3004662585
100.94050,-0.004728149245
100.94100,-0.6151169646
100.94150,-0.6151169646
100.94200,-1.22550578
100.94250,-3.361866634
100.94300,-5.498227488
100.94350,-6.413810711
100.94400,-6.413810711
100.94450,-7.024199526
100.94500,-7.024199526
100.94550,-4.887838672
100.94600,-1.835894595
100.94650,-0.3099225569
100.94700,0.3004662585
100.94750,1.521243889
100.94800,3.352410335
100.94850,4.267993559
100.94900,3.047215928
100.94950,1.521243889
100.95000,0.6056606662
100.95050,0.6056606662
100.95100,-0.004728149245
100.95150,-0.3099225569
100.95200,-0.6151169646
100.95250,-0.6151169646
100.95300,-0.6151169646
100.95350,-0.3099225569
100.95400,-0.004728149245
100.95450,-0.004728149245
100.95500,-0.3099225569
100.95550,-0.6151169646
100.95600,-0.3099225569
100.95650,-0.004728149245
100.95700,0.6056606662
100.95750,0.9108550739
100.95800,1.216049482
100.95850,1.216049482
100.95900,0.6056606662
100.95950,-0.004728149245
100.96000,-0.3099225569
100.96050,-0.004728149245
100.96100,1.216049482
100.96150,0.9108550739
100.96200,-0.004728149245
100.96250,-0.004728149245
100.96300,1.216049482
100.96350,2.436827112
100.96400,2.131632705
100.96450,2.131632705
100.96500,3.047215928
100.96550,4.267993559
100.96600,4.878382374
100.96650,4.267993559
100.96700,3.657604743
100.96750,3.047215928
100.96800,3.047215928
100.96850,3.657604743
100.96900,4.878382374
100.96950,5.488771189
100.97000,5.488771189
100.97050,6.099160005
100.97100,8.540715266
100.97150,11.59265934
100.97200,12.81343697
100.97250,12.50824257
100.97300,11.89785375
100.97350,11.89785375
100.97400,11.59265934
100.97450,9.45629849
100.97500,6.404354412
100.97550,3.047215928
100.97600,0.6056606662
100.97650,-0.9203113723
100.97700,-1.835894595
100.97750,-0.9203113723
100.97800,2.131632705
100.97850,6.099160005
100.97900,7.930326451
100.97950,7.014743228
100.98000,5.183576782
100.98050,5.183576782
100.98100,7.625132043
100.98150,9.151104082
100.98200,8.235520859
100.98250,5.488771189
100.98300,2.131632705
100.98350,-0.6151169646
100.98400,-3.056672226
100.98450,-3.361866634
100.98500,-1.530700188
100.98550,0.6056606662
100.98600,2.436827112
100.98650,3.657604743
100.98700,3.962799151
100.98750,2.74202152
100.98800,0.3004662585
100.98850,-0.004728149245
100.98900,1.216049482
100.98950,2.74202152
100.99000,1.826438297
100.99050,-0.6151169646
100.99100,-1.835894595
100.99150,-0.6151169646
100.99200,0.9108550739
100.99250,2.131632705
100.99300,3.962799151
100.99350,5.793965597
100.99400,6.404354412
100.99450,4.267993559
100.99500,1.521243889
100.99550,0.6056606662
100.99600,1.216049482
100.99650,0.9108550739
100.99700,-0.3099225569
100.99750,-1.835894595
100.99800,-1.530700188
100.99850,-0.6151169646
100.99900,-0.6151169646
100.99950,-1.835894595
101.00000,-2.446283411
101.00050,-0.6151169646
101.00100,0.9108550739
101.00150,0.9108550739
101.00200,-0.3099225569
101.00250,0.3004662585
101.00300,3.657604743
101.00350,5.488771189
101.00400,3.352410335
101.00450,-0.3099225569
101.00500,-2.751477819
101.00550,-3.056672226
101.00600,-3.056672226
101.00650,-3.056672226
101.00700,-2.751477819
101.00750,-2.446283411
101.00800,-3.056672226
101.00850,-3.056672226
101.00900,-1.835894595
101.00950,-1.835894595
101.01000,-4.582644265
101.01050,-7.939782749
101.01100,-8.244977157
101.01150,-6.108616303
101.01200,-3.667061042
101.01250,-1.22550578
101.01300,2.131632705
101.01350,5.488771189
101.01400,4.573187966
101.01450,0.9108550739
101.01500,-0.3099225569
101.01550,1.216049482
101.01600,2.131632705
101.01650,0.3004662585
101.01700,-0.3099225569
101.01750,2.131632705
101.01800,4.267993559
101.01850,0.9108550739
101.01900,-6.413810711
101.01950,-12.51769887
101.02000,-14.34886531
101.02050,-11.60211564
101.02100,-7.329393934
101.02150,-3.972255449
101.02200,-3.056672226
101.02250,-3.972255449
101.02300,-4.887838672
101.02350,-5.19303308
101.02400,-5.498227488
101.02450,-4.887838672
101.02500,-2.141089003
101.02550,0.9108550739
101.02600,1.826438297
101.02650,-0.004728149245
101.02700,-1.530700188
101.02750,-2.446283411
101.02800,-3.056672226
101.02850,-4.277449857
101.02900,-3.667061042
101.02950,-1.530700188
101.03000,-1.530700188
101.03050,-3.667061042
101.03100,-3.667061042
101.03150,-0.6151169646
101.03200,-0.004728149245
101.03250,-2.446283411
101.03300,-4.277449857
101.03350,-1.530700188
101.03400,0.3004662585
101.03450,-5.498227488
101.03500,-16.48522617
101.03550,-20.75794787
101.03600,-14.95925413
101.03650,-7.329393934
101.03700,-5.498227488
101.03750,-6.413810711
101.03800,-4.582644265
101.03850,-0.004728149245
101.03900,2.74202152
101.03950,1.826438297
101.04000,0.9108550739
101.04050,1.826438297
101.04100,3.352410335
101.04150,3.047215928
101.04200,1.826438297
101.04250,0.6056606662
101.04300,0.6056606662
101.04350,0.9108550739
101.04400,1.826438297
101.04450,3.962799151
101.04500,5.488771189
101.04550,5.183576782
101.04600,2.131632705
101.04650,-1.22550578
101.04700,-3.056672226
101.04750,-2.141089003
101.04800,-0.004728149245
101.04850,1.216049482
101.04900,1.521243889
101.04950,0.9108550739
101.05000,0.3004662585
101.05050,0.6056606662
101.05100,2.436827112
101.05150,4.573187966
101.05200,5.793965597
101.05250,5.793965597
101.05300,4.878382374
101.05350,3.657604743
101.05400,1.826438297
101.05450,0.3004662585
101.05500,0.6056606662
101.05550,1.826438297
101.05600,2.131632705
101.05650,1.521243889
101.05700,1.216049482
101.05750,1.521243889
101.05800,1.521243889
101.05850,-0.004728149245
101.05900,-1.835894595
101.05950,-3.056672226
101.06000,-2.141089003
101.06050,-0.3099225569
101.06100,1.216049482
101.06150,2.131632705
101.06200,1.521243889
101.06250,0.6056606662
101.06300,-0.004728149245
101.06350,-0.004728149245
101.06400,2.436827112
101.06450,6.099160005
101.06500,7.625132043
101.06550,1.826438297
101.06600,-10.68653242
101.06650,-21.36833669
101.06700,-21.06314228
101.06750,-11.60211564
101.06800,-1.835894595
101.06850,1.826438297
101.06900,1.826438297
101.06950,1.826438297
101.07000,0.9108550739
101.07050,-1.530700188
101.07100,-3.361866634
101.07150,-1.530700188
101.07200,1.826438297
101.07250,3.657604743
101.07300,3.657604743
101.07350,3.657604743
101.07400,3.657604743
101.07450,1.521243889
101.07500,-0.6151169646
101.07550,-0.004728149245
101.07600,5.183576782
101.07650,10.98227053
101.07700,12.81343697
101.07750,10.67707612
101.07800,7.319937636
101.07850,4.267993559
101.07900,2.131632705
101.07950,1.216049482
101.08000,0.6056606662
101.08050,-0.3099225569
101.08100,-1.530700188
101.08150,-0.6151169646
101.08200,1.521243889
101.08250,3.047215928
101.08300,1.521243889
101.08350,-0.9203113723
101.08400,-1.835894595
101.08450,-0.004728149245
101.08500,3.047215928
101.08550,3.352410335
101.08600,0.9108550739
101.08650,-1.835894595
101.08700,-3.667061042
101.08750,-3.972255449
101.08800,-3.972255449
101.08850,-4.277449857
101.08900,-3.667061042
101.08950,-2.751477819
101.09000,-1.835894595
101.09050,-2.141089003
101.09100,-2.446283411
101.09150,-1.22550578
101.09200,1.216049482
101.09250,3.962799151
101.09300,5.183576782
101.09350,5.488771189
101.09400,6.404354412
101.09450,8.845909674
101.09500,10.67707612
101.09550,9.151104082
101.09600,4.573187966
101.09650,-0.004728149245
101.09700,-2.446283411
101.09750,-3.361866634
101.09800,-3.972255449
101.09850,-4.277449857
101.09900,-3.361866634
101.09950,-2.141089003
101.10000,-2.141089003
101.10050,-2.446283411
101.10100,-0.9203113723
101.10150,2.74202152
101.10200,4.878382374
101.10250,2.74202152
101.10300,-0.6151169646
101.10350,-0.6151169646
101.10400,3.657604743
101.10450,7.930326451
101.10500,7.625132043
101.10550,4.267993559
101.10600,2.436827112
101.10650,2.131632705
101.10700,0.6056606662
101.10750,-3.056672226
101.10800,-6.719005119
101.10850,-6.413810711
101.10900,-3.667061042
101.10950,-1.835894595
101.11000,-1.530700188
101.11050,-1.530700188
101.11100,-0.3099225569
101.11150,-0.6151169646
101.11200,-3.056672226
101.11250,-6.719005119
101.11300,-9.16056038
101.11350,-10.38133801
101.11400,-10.68653242
101.11450,-9.770949196
101.11500,-7.329393934
101.11550,-3.361866634
101.11600,0.3004662585
101.11650,3.047215928
101.11700,3.962799151
101.11750,3.352410335
101.11800,2.436827112
101.11850,3.047215928
101.11900,4.878382374
101.11950,4.878382374
101.12000,2.131632705
101.12050,-0.9203113723
101.12100,-2.446283411
101.12150,-1.835894595
101.12200,-1.530700188
101.12250,-2.141089003
101.12300,-2.446283411
101.12350,-1.22550578
101.12400,-0.3099225569
101.12450,-1.22550578
101.12500,-4.277449857
101.12550,-5.803421896
101.12600,-4.277449857
101.12650,-2.141089003
101.12700,-1.835894595
101.12750,-3.972255449
101.12800,-5.498227488
101.12850,-4.582644265
101.12900,-3.056672226
101.12950,-1.835894595
101.13000,-1.22550578
101.13050,-0.004728149245
101.13100,2.131632705
101.13150,3.962799151
101.13200,4.267993559
101.13250,3.962799151
101.13300,3.962799151
101.13350,4.267993559
101.13400,3.657604743
101.13450,2.436827112
101.13500,2.436827112
101.13550,4.267993559
101.13600,6.099160005
101.13650,4.573187966
101.13700,0.3004662585
101.13750,-1.835894595
101.13800,-0.3099225569
101.13850,2.131632705
101.13900,2.74202152
101.13950,1.216049482
101.14000,0.3004662585
101.14050,1.521243889
101.14100,2.74202152
101.14150,3.047215928
101.14200,3.352410335
101.14250,4.267993559
101.14300,3.962799151
101.14350,2.131632705
101.14400,-0.004728149245
101.14450,-0.9203113723
101.14500,-0.004728149245
101.14550,1.826438297
101.14600,3.657604743
101.14650,4.573187966
101.14700,4.267993559
101.14750,3.047215928
101.14800,2.436827112
101.14850,3.352410335
101.14900,3.047215928
101.14950,-0.004728149245
101.15000,-4.582644265
101.15050,-7.329393934
101.15100,-6.413810711
101.15150,-3.361866634
101.15200,-1.22550578
101.15250,-0.9203113723
101.15300,-0.3099225569
101.15350,0.9108550739
101.15400,1.826438297
101.15450,1.216049482
101.15500,0.3004662585
101.15550,1.216049482
101.15600,3.047215928
101.15650,3.047215928
101.15700,0.9108550739
101.15750,-1.22550578
101.15800,-0.9203113723
101.15850,0.6056606662
101.15900,1.826438297
101.15950,1.826438297
101.16000,1.216049482
101.16050,1.216049482
101.16100,1.521243889
101.16150,0.9108550739
101.16200,-0.004728149245
101.16250,-0.3099225569
101.16300,-0.3099225569
101.16350,-0.6151169646
101.16400,-0.6151169646
101.16450,-0.004728149245
101.16500,0.3004662585
101.16550,-0.3099225569
101.16600,-2.751477819
101.16650,-5.498227488
101.16700,-7.024199526
101.16750,-7.024199526
101.16800,-4.887838672
101.16850,-0.3099225569
101.16900,3.962799151
101.16950,7.319937636
101.17000,10.67707612
101.17050,13.42382579
101.17100,12.50824257
101.17150,6.70954882
101.17200,0.9108550739
101.17250,1.826438297
101.17300,6.70954882
101.17350,4.573187966
101.17400,-8.855365973
101.17450,-24.72547517
101.17500,-29.9137801
101.17550,-23.50469754
101.17600,-13.43328209
101.17650,-6.719005119
101.17700,-2.751477819
101.17750,0.3004662585
101.17800,2.436827112
101.17850,2.131632705
101.17900,0.6056606662
101.17950,0.3004662585
101.18000,0.6056606662
101.18050,-0.004728149245
101.18100,-0.6151169646
101.18150,-1.835894595
101.18200,-3.056672226
101.18250,-3.972255449
101.18300,-2.446283411
101.18350,1.521243889
101.18400,6.099160005
101.18450,7.625132043
101.18500,6.404354412
101.18550,4.878382374
101.18600,5.183576782
101.18650,7.014743228
101.18700,7.319937636
101.18750,5.488771189
101.18800,2.74202152
101.18850,0.6056606662
101.18900,-0.004728149245
101.18950,0.6056606662
101.19000,1.521243889
101.19050,2.131632705
101.19100,3.047215928
101.19150,3.352410335
101.19200,3.352410335
101.19250,3.047215928
101.19300,3.352410335
101.19350,3.962799151
101.19400,3.047215928
101.19450,1.216049482
101.19500,0.9108550739
101.19550,3.352410335
101.19600,3.657604743
101.19650,-2.446283411
101.19700,-13.43328209
101.19750,-20.45275347
101.19800,-18.31639261
101.19850,-10.68653242
101.19900,-4.582644265
101.19950,-2.751477819
101.20000,-3.361866634
101.20050,-3.972255449
101.20100,-3.972255449
101.20150,-3.667061042
101.20200,-3.056672226
101.20250,-3.056672226
101.20300,-3.361866634
101.20350,-3.056672226
101.20400,-2.141089003
101.20450,-1.530700188
101.20500,-1.530700188
101.20550,-2.141089003
101.20600,-1.530700188
101.20650,-0.6151169646
101.20700,-0.004728149245
101.20750,-0.3099225569
101.20800,-1.530700188
101.20850,-2.141089003
101.20900,-1.835894595
101.20950,-1.22550578
101.21000,-0.6151169646
101.21050,-0.9203113723
101.21100,-1.22550578
101.21150,-1.22550578
101.21200,-1.22550578
101.21250,-0.6151169646
101.21300,-0.004728149245
101.21350,0.9108550739
101.21400,0.9108550739
101.21450,-0.004728149245
101.21500,-0.6151169646
101.21550,-0.004728149245
101.21600,0.6056606662
101.21650,0.6056606662
101.21700,0.6056606662
101.21750,2.74202152
101.21800,6.70954882
101.21850,8.845909674
101.21900,7.014743228
101.21950,2.74202152
101.22000,-0.004728149245
101.22050,-0.004728149245
101.22100,1.521243889
101.22150,2.436827112
101.22200,3.047215928
101.22250,3.352410335
101.22300,3.047215928
101.22350,2.131632705
101.22400,1.826438297
101.22450,2.74202152
101.22500,4.573187966
101.22550,6.099160005
101.22600,6.099160005
101.22650,5.793965597
101.22700,5.183576782
101.22750,3.962799151
101.22800,2.74202152
101.22850,2.74202152
101.22900,4.878382374
101.22950,6.70954882
101.23000,6.099160005
101.23050,3.962799151
101.23100,2.436827112
101.23150,2.131632705
101.23200,-0.004728149245
101.23250,-3.056672226
101.23300,-4.277449857
101.23350,-1.22550578
101.23400,1.826438297
101.23450,2.436827112
101.23500,1.216049482
101.23550,1.521243889
101.23600,3.047215928
101.23650,2.74202152
101.23700,0.3004662585
101.23750,-1.22550578
101.23800,-0.9203113723
101.23850,0.3004662585
101.23900,1.216049482
101.23950,0.9108550739
101.24000,0.9108550739
101.24050,0.6056606662
101.24100,-0.004728149245
101.24150,-1.530700188
101.24200,-2.446283411
101.24250,-2.141089003
101.24300,-1.530700188
101.24350,-1.22550578
101.24400,-2.141089003
101.24450,-3.667061042
101.24500,-4.887838672
101.24550,-4.582644265
101.24600,-3.361866634
101.24650,-2.446283411
101.24700,-1.835894595
101.24750,-1.22550578
101.24800,-1.22550578
101.24850,-1.530700188
101.24900,-1.530700188
101.24950,-0.9203113723
101.25000,-0.9203113723
101.25050,-2.141089003
101.25100,-3.667061042
101.25150,-2.446283411
101.25200,-0.004728149245
101.25250,1.521243889
101.25300,0.3004662585
101.25350,-0.9203113723
101.25400,-0.9203113723
101.25450,-0.3099225569
101.25500,-0.004728149245
101.25550,0.3004662585
101.25600,1.521243889
101.25650,1.521243889
101.25700,-0.3099225569
101.25750,-2.751477819
101.25800,-3.056672226
101.25850,-2.446283411
101.25900,-2.446283411
101.25950,-3.056672226
101.26000,-3.667061042
101.26050,-3.667061042
101.26100,-3.972255449
101.26150,-4.277449857
101.26200,-2.141089003
101.26250,0.9108550739
101.26300,2.131632705
101.26350,0.6056606662
101.26400,-0.6151169646
101.26450,0.3004662585
101.26500,2.131632705
101.26550,2.131632705
101.26600,-0.004728149245
101.26650,-1.530700188
101.26700,-1.835894595
101.26750,-1.22550578
101.26800,-0.004728149245
101.26850,0.9108550739
101.26900,2.436827112
101.26950,3.047215928
101.27000,2.436827112
101.27050,1.521243889
101.27100,1.216049482
101.27150,1.521243889
101.27200,1.216049482
101.27250,-0.004728149245
101.27300,-1.530700188
101.27350,-2.141089003
101.27400,-1.835894595
101.27450,-0.6151169646
101.27500,0.3004662585
101.27550,1.216049482
101.27600,1.521243889
101.27650,1.216049482
101.27700,0.9108550739
101.27750,1.216049482
101.27800,1.521243889
101.27850,1.521243889
101.27900,1.521243889
101.27950,1.521243889
101.28000,1.216049482
101.28050,0.3004662585
101.28100,-0.3099225569
101.28150,-0.9203113723
101.28200,-1.22550578
101.28250,-2.141089003
101.28300,-3.361866634
101.28350,-3.667061042
101.28400,-3.056672226
101.28450,-1.530700188
101.28500,-0.3099225569
101.28550,0.3004662585
101.28600,0.9108550739
101.28650,1.216049482
101.28700,2.436827112
101.28750,3.352410335
101.28800,3.962799151
101.28850,4.267993559
101.28900,4.878382374
101.28950,3.657604743
101.29000,-0.004728149245
101.29050,-4.582644265
101.29100,-6.413810711
101.29150,-5.803421896
101.29200,-4.887838672
101.29250,-3.667061042
101.29300,-2.141089003
101.29350,-2.751477819
101.29400,-7.329393934
101.29450,-13.12808768
101.29500,-14.65405972
101.29550,-11.29692123
101.29600,-7.939782749
101.29650,-4.887838672
101.29700,2.131632705
101.29750,11.89785375
101.29800,16.47576987
101.29850,12.81343697
101.29900,7.625132043
101.29950,8.540715266
101.30000,10.98227053
101.30050,8.235520859
101.30100,1.826438297
101.30150,-0.9203113723
101.30200,0.3004662585
101.30250,0.6056606662
101.30300,-2.141089003
101.30350,-3.667061042
101.30400,-1.835894595
101.30450,0.6056606662
101.30500,0.9108550739
101.30550,-0.3099225569
101.30600,-0.6151169646
101.30650,0.6056606662
101.30700,2.436827112
101.30750,3.352410335
101.30800,2.74202152
101.30850,0.9108550739
101.30900,-0.6151169646
101.30950,-1.835894595
101.31000,-1.835894595
101.31050,-0.6151169646
101.31100,1.826438297
101.31150,4.267993559
101.31200,4.878382374
101.31250,3.657604743
101.31300,2.131632705
101.31350,2.131632705
101.31400,2.131632705
101.31450,0.3004662585
101.31500,-1.835894595
101.31550,-2.751477819
101.31600,-1.530700188
101.31650,-0.3099225569
101.31700,-0.004728149245
101.31750,-0.004728149245
101.31800,-0.004728149245
101.31850,0.9108550739
101.31900,2.131632705
101.31950,3.352410335
101.32000,3.352410335
101.32050,0.9108550739
101.32100,-1.530700188
101.32150,-3.056672226
101.32200,-3.056672226
101.32250,-3.361866634
101.32300,-4.582644265
101.32350,-5.19303308
101.32400,-3.667061042
101.32450,-1.22550578
101.32500,-0.004728149245
101.32550,-1.22550578
101.32600,-3.056672226
101.32650,-4.582644265
101.32700,-4.887838672
101.32750,-3.972255449
101.32800,-1.22550578
101.32850,3.047215928
101.32900,7.625132043
101.32950,9.45629849
101.33000,9.45629849
101.33050,9.761492897
101.33100,10.37188171
101.33150,10.37188171
101.33200,9.151104082
101.33250,8.540715266
101.33300,8.540715266
101.33350,7.625132043
101.33400,5.488771189
101.33450,3.657604743
101.33500,2.74202152
101.33550,2.131632705
101.33600,0.9108550739
101.33650,0.3004662585
101.33700,1.826438297
101.33750,4.267993559
101.33800,6.70954882
101.33850,8.540715266
101.33900,7.014743228
101.33950,0.6056606662
101.34000,-7.329393934
101.34050,-10.0761436
101.34100,-5.19303308
101.34150,-0.004728149245
101.34200,-2.751477819
101.34250,-13.12808768
101.34300,-21.6735311
101.34350,-21.9787255
101.34400,-15.87483735
101.34450,-9.770949196
101.34500,-7.329393934
101.34550,-7.939782749
101.34600,-8.550171565
101.34650,-7.329393934
101.34700,-4.887838672
101.34750,-3.056672226
101.34800,-3.361866634
101.34850,-4.277449857
101.34900,-4.582644265
101.34950,-3.667061042
101.35000,-2.141089003
101.35050,-0.004728149245
101.35100,1.826438297
101.35150,2.131632705
101.35200,-0.004728149245
101.35250,-1.835894595
101.35300,-0.9203113723
101.35350,0.9108550739
101.35400,-0.004728149245
101.35450,-3.056672226
101.35500,-4.887838672
101.35550,-4.887838672
101.35600,-6.108616303
101.35650,-8.550171565
101.35700,-9.465754788
101.35750,-7.024199526
101.35800,-3.667061042
101.35850,-3.056672226
101.35900,-3.361866634
101.35950,-2.141089003
101.36000,-0.6151169646
101.36050,-0.004728149245
101.36100,0.9108550739
101.36150,3.047215928
101.36200,5.183576782
101.36250,5.183576782
101.36300,3.352410335
101.36350,1.216049482
101.36400,-0.9203113723
101.36450,-3.667061042
101.36500,-5.19303308
101.36550,-3.972255449
101.36600,-1.835894595
101.36650,-0.9203113723
101.36700,-1.22550578
101.36750,-0.004728149245
101.36800,2.74202152
101.36850,5.183576782
101.36900,5.183576782
101.36950,3.962799151
101.37000,3.352410335
101.37050,3.962799151
101.37100,5.793965597
101.37150,7.625132043
101.37200,6.70954882
101.37250,2.131632705
101.37300,-2.141089003
101.37350,-3.361866634
101.37400,-1.835894595
101.37450,-0.6151169646
101.37500,-0.004728149245
101.37550,2.436827112
101.37600,4.573187966
101.37650,4.267993559
101.37700,1.826438297
101.37750,0.3004662585
101.37800,-0.004728149245
101.37850,-1.835894595
101.37900,-3.972255449
101.37950,-3.056672226
101.38000,0.3004662585
101.38050,2.74202152
101.38100,1.826438297
101.38150,0.9108550739
101.38200,2.131632705
101.38250,3.962799151
101.38300,3.047215928
101.38350,-0.004728149245
101.38400,-3.056672226
101.38450,-4.277449857
101.38500,-3.056672226
101.38550,-0.6151169646
101.38600,1.216049482
101.38650,1.826438297
101.38700,0.3004662585
101.38750,-1.530700188
101.38800,-3.361866634
101.38850,-3.667061042
101.38900,-2.141089003
101.38950,0.6056606662
101.39000,4.573187966
101.39050,7.625132043
101.39100,8.540715266
101.39150,6.70954882
101.39200,3.352410335
101.39250,0.6056606662
101.39300,1.216049482
101.39350,3.657604743
101.39400,4.573187966
101.39450,1.521243889
101.39500,-2.751477819
101.39550,-5.19303308
101.39600,-5.19303308
101.39650,-3.361866634
101.39700,-1.22550578
101.39750,1.521243889
101.39800,4.267993559
101.39850,5.793965597
101.39900,6.099160005
101.39950,5.488771189
101.40000,3.962799151
101.40050,2.436827112
101.40100,1.826438297
101.40150,2.131632705
101.40200,2.74202152
101.40250,3.352410335
101.40300,5.488771189
101.40350,7.319937636
101.40400,5.793965597
101.40450,0.6056606662
101.40500,-3.361866634
101.40550,-3.667061042
101.40600,-1.835894595
101.40650,-0.004728149245
101.40700,0.3004662585
101.40750,0.6056606662
101.40800,0.6056606662
101.40850,0.3004662585
101.40900,1.521243889
101.40950,3.962799151
101.41000,5.488771189
101.41050,3.962799151
101.41100,2.436827112
101.41150,3.352410335
101.41200,4.573187966
101.41250,4.267993559
101.41300,2.74202152
101.41350,2.131632705
101.41400,2.131632705
101.41450,0.9108550739
101.41500,0.3004662585
101.41550,2.436827112
101.41600,4.267993559
101.41650,2.74202152
101.41700,-0.6151169646
101.41750,-2.141089003
101.41800,-0.9203113723
101.41850,-0.004728149245
101.41900,-0.004728149245
101.41950,0.6056606662
101.42000,2.436827112
101.42050,4.267993559
101.42100,5.488771189
101.42150,6.70954882
101.42200,7.319937636
101.42250,7.014743228
101.42300,6.404354412
101.42350,6.099160005
101.42400,6.099160005
101.42450,5.793965597
101.42500,5.793965597
101.42550,2.74202152
101.42600,-8.244977157
101.42650,-23.80989195
101.42700,-31.43975214
101.42750,-24.11508636
101.42800,-10.99172683
101.42850,-4.582644265
101.42900,-3.667061042
101.42950,-0.6151169646
101.43000,5.183576782
101.43050,8.235520859
101.43100,7.625132043
101.43150,7.930326451
101.43200,9.761492897
101.43250,9.151104082
101.43300,7.014743228
101.43350,6.099160005
101.43400,3.047215928
101.43450,-7.634588342
101.43500,-20.75794787
101.43550,-23.80989195
101.43600,-14.34886531
101.43650,-3.667061042
101.43700,1.216049482
101.43750,3.352410335
101.43800,4.267993559
101.43850,2.436827112
101.43900,-0.9203113723
101.43950,-1.530700188
101.44000,0.6056606662
101.44050,0.3004662585
101.44100,-1.835894595
101.44150,-0.004728149245
101.44200,7.014743228
101.44250,12.20304816
101.44300,11.59265934
101.44350,10.98227053
101.44400,13.42382579
101.44450,14.33940901
101.44500,9.761492897
101.44550,4.878382374
101.44600,4.267993559
101.44650,4.267993559
101.44700,1.216049482
101.44750,-1.835894595
101.44800,-2.141089003
101.44850,-0.9203113723
101.44900,-1.835894595
101.44950,-3.361866634
101.45000,-3.361866634
101.45050,-2.751477819
101.45100,-3.667061042
101.45150,-5.498227488
101.45200,-6.108616303
101.45250,-5.19303308
101.45300,-4.277449857
101.45350,-3.361866634
101.45400,-2.751477819
101.45450,-3.056672226
101.45500,-3.667061042
101.45550,-3.361866634
101.45600,-2.141089003
101.45650,-1.835894595
101.45700,-3.056672226
101.45750,-3.667061042
101.45800,-2.446283411
101.45850,-0.6151169646
101.45900,-0.9203113723
101.45950,-3.056672226
101.46000,-5.498227488
101.46050,-6.413810711
101.46100,-5.803421896
101.46150,-4.277449857
101.46200,-3.361866634
101.46250,-2.446283411
101.46300,-2.141089003
101.46350,-2.446283411
101.46400,-3.972255449
101.46450,-5.803421896
101.46500,-6.108616303
101.46550,-5.498227488
101.46600,-4.582644265
101.46650,-4.582644265
101.46700,-4.582644265
101.46750,-3.667061042
101.46800,-3.972255449
101.46850,-6.108616303
101.46900,-7.939782749
101.46950,-7.634588342
101.47000,-6.108616303
101.47050,-5.19303308
101.47100,-4.582644265
101.47150,-3.667061042
101.47200,-2.751477819
101.47250,-2.141089003
101.47300,-1.530700188
101.47350,-0.004728149245
101.47400,0.6056606662
101.47450,-0.004728149245
101.47500,-1.530700188
101.47550,-1.835894595
101.47600,-0.3099225569
101.47650,0.9108550739
101.47700,2.131632705
101.47750,2.74202152
101.47800,3.047215928
101.47850,3.657604743
101.47900,3.657604743
101.47950,3.047215928
101.48000,1.216049482
101.48050,-0.004728149245
101.48100,-0.9203113723
101.48150,-0.9203113723
101.48200,-0.9203113723
101.48250,-1.530700188
101.48300,-2.751477819
101.48350,-3.972255449
101.48400,-4.582644265
101.48450,-3.667061042
101.48500,-2.141089003
101.48550,-1.530700188
101.48600,-3.056672226
101.48650,-3.667061042
101.48700,-1.530700188
101.48750,2.131632705
101.48800,3.657604743
101.48850,3.047215928
101.48900,2.74202152
101.48950,3.657604743
101.49000,4.267993559
101.49050,3.657604743
101.49100,3.047215928
101.49150,2.131632705
101.49200,-0.3099225569
101.49250,-3.361866634
101.49300,-3.972255449
101.49350,-1.530700188
101.49400,0.6056606662
101.49450,0.9108550739
101.49500,0.3004662585
101.49550,1.216049482
101.49600,1.521243889
101.49650,-0.004728149245
101.49700,-3.056672226
101.49750,-3.667061042
101.49800,-2.141089003
101.49850,-0.3099225569
101.49900,-0.3099225569
101.49950,-1.835894595
101.50000,-3.361866634
101.50050,-3.972255449
101.50100,-2.751477819
101.50150,-0.3099225569
101.50200,1.216049482
101.50250,1.521243889
101.50300,0.9108550739
101.50350,0.6056606662
101.50400,0.9108550739
101.50450,1.521243889
101.50500,1.216049482
101.50550,-0.004728149245
101.50600,-0.004728149245
101.50650,1.216049482
101.50700,3.657604743
101.50750,4.878382374
101.50800,5.488771189
101.50850,7.014743228
101.50900,8.540715266
101.50950,7.625132043
101.51000,2.74202152
101.51050,-2.446283411
101.51100,-3.667061042
101.51150,-2.751477819
101.51200,-2.446283411
101.51250,-2.751477819
101.51300,-0.9203113723
101.51350,2.131632705
101.51400,2.131632705
101.51450,-0.6151169646
101.51500,-1.835894595
101.51550,0.9108550739
101.51600,3.962799151
101.51650,3.352410335
101.51700,1.216049482
101.51750,1.521243889
101.51800,2.74202152
101.51850,2.131632705
101.51900,0.6056606662
101.51950,2.131632705
101.52000,6.099160005
101.52050,8.540715266
101.52100,7.319937636
101.52150,4.573187966
101.52200,2.131632705
101.52250,0.3004662585
101.52300,-1.22550578
101.52350,-2.446283411
101.52400,-3.667061042
101.52450,-4.582644265
101.52500,-4.277449857
101.52550,-2.141089003
101.52600,0.9108550739
101.52650,4.573187966
101.52700,7.014743228
101.52750,7.014743228
101.52800,4.267993559
101.52850,1.521243889
101.52900,1.521243889
101.52950,4.267993559
101.53000,5.488771189
101.53050,3.657604743
101.53100,3.352410335
101.53150,5.488771189
101.53200,4.878382374
101.53250,-2.751477819
101.53300,-12.51769887
101.53350,-15.87483735
101.53400,-10.99172683
101.53450,-5.19303308
101.53500,-3.361866634
101.53550,-3.361866634
101.53600,-2.141089003
101.53650,-0.9203113723
101.53700,-0.6151169646
101.53750,-1.22550578
101.53800,-1.22550578
101.53850,-1.835894595
101.53900,-1.530700188
101.53950,0.3004662585
101.54000,2.436827112
101.54050,0.3004662585
101.54100,-5.498227488
101.54150,-8.855365973
101.54200,-6.108616303
101.54250,-1.530700188
101.54300,-0.004728149245
101.54350,0.9108550739
101.54400,3.657604743
101.54450,5.793965597
101.54500,5.793965597
101.54550,7.319937636
101.54600,12.20304816
101.54650,14.33940901
101.54700,7.014743228
101.54750,-4.582644265
101.54800,-9.770949196
101.54850,-5.19303308
101.54900,0.6056606662
101.54950,3.047215928
101.55000,2.74202152
101.55050,1.826438297
101.55100,-0.004728149245
101.55150,-3.056672226
101.55200,-2.141089003
101.55250,2.131632705
101.55300,6.099160005
101.55350,6.099160005
101.55400,4.267993559
101.55450,3.047215928
101.55500,1.216049482
101.55550,-0.6151169646
101.55600,-0.004728149245
101.55650,2.131632705
101.55700,2.74202152
101.55750,-0.004728149245
101.55800,-1.530700188
101.55850,0.6056606662
101.55900,3.962799151
101.55950,5.488771189
101.56000,6.099160005
101.56050,6.70954882
101.56100,7.625132043
101.56150,10.67707612
101.56200,16.47576987
101.56250,18.61213072
101.56300,10.98227053
101.56350,-3.056672226
101.56400,-12.51769887
101.56450,-12.82289327
101.56500,-13.12808768
101.56550,-18.92678143
101.56600,-23.19950313
101.56650,-18.31639261
101.56700,-7.024199526
101.56750,0.3004662585
101.56800,2.436827112
101.56850,3.352410335
101.56900,3.352410335
101.56950,0.6056606662
101.57000,-3.972255449
101.57050,-6.719005119
101.57100,-6.108616303
101.57150,-3.972255449
101.57200,-0.9203113723
101.57250,2.74202152
101.57300,7.319937636
101.57350,9.761492897
101.57400,10.67707612
101.57450,12.20304816
101.57500,14.03421461
101.57550,13.42382579
101.57600,9.761492897
101.57650,5.183576782
101.57700,1.521243889
101.57750,-0.3099225569
101.57800,-0.6151169646
101.57850,1.216049482
101.57900,3.962799151
101.57950,5.488771189
101.58000,4.267993559
101.58050,2.436827112
101.58100,1.826438297
101.58150,2.131632705
101.58200,0.9108550739
101.58250,-2.141089003
101.58300,-6.108616303
101.58350,-7.329393934
101.58400,-5.498227488
101.58450,-3.361866634
101.58500,-3.361866634
101.58550,-4.582644265
101.58600,-5.19303308
101.58650,-4.582644265
101.58700,-3.667061042
101.58750,-1.530700188
101.58800,1.521243889
101.58850,5.183576782
101.58900,5.793965597
101.58950,3.047215928
101.59000,-0.3099225569
101.59050,-1.835894595
101.59100,-1.22550578
101.59150,-0.004728149245
101.59200,0.3004662585
101.59250,-0.004728149245
101.59300,-0.3099225569
101.59350,-0.3099225569
101.59400,0.3004662585
101.59450,1.826438297
101.59500,3.047215928
101.59550,4.573187966
101.59600,5.488771189
101.59650,5.183576782
101.59700,3.352410335
101.59750,1.216049482
101.59800,-0.004728149245
101.59850,-0.3099225569
101.59900,-0.3099225569
101.59950,-0.3099225569
101.60000,0.3004662585
101.60050,1.521243889
101.60100,1.826438297
101.60150,1.216049482
101.60200,0.3004662585
101.60250,-0.3099225569
101.60300,-1.530700188
101.60350,-2.446283411
101.60400,-3.361866634
101.60450,-4.277449857
101.60500,-5.498227488
101.60550,-6.413810711
101.60600,-5.803421896
101.60650,-3.667061042
101.60700,-2.446283411
101.60750,-2.141089003
101.60800,-2.446283411
101.60850,-1.835894595
101.60900,-0.9203113723
101.60950,-0.9203113723
101.61000,-0.9203113723
101.61050,-0.6151169646
101.61100,-0.004728149245
101.61150,-0.004728149245
101.61200,-0.6151169646
101.61250,-1.530700188
101.61300,-2.446283411
101.61350,-3.361866634
101.61400,-4.582644265
101.61450,-4.277449857
101.61500,-1.22550578
101.61550,2.74202152
101.61600,4.573187966
101.61650,2.74202152
101.61700,0.3004662585
101.61750,-0.004728149245
101.61800,1.521243889
101.61850,2.131632705
101.61900,0.9108550739
101.61950,-0.3099225569
101.62000,-0.3099225569
101.62050,-0.004728149245
101.62100,-0.004728149245
101.62150,-0.9203113723
101.62200,-1.835894595
101.62250,-1.530700188
101.62300,-0.3099225569
101.62350,0.6056606662
101.62400,-0.004728149245
101.62450,-1.530700188
101.62500,-2.446283411
101.62550,-1.530700188
101.62600,-0.004728149245
101.62650,-0.004728149245
101.62700,-1.530700188
101.62750,-1.835894595
101.62800,-0.6151169646
101.62850,-0.004728149245
101.62900,-0.6151169646
101.62950,-1.22550578
101.63000,-1.22550578
101.63050,-2.446283411
101.63100,-4.277449857
101.63150,-5.19303308
101.63200,-4.582644265
101.63250,-3.667061042
101.63300,-3.667061042
101.63350,-2.751477819
101.63400,-0.6151169646
101.63450,-0.004728149245
101.63500,-0.3099225569
101.63550,-0.6151169646
101.63600,0.9108550739
101.63650,3.352410335
101.63700,3.352410335
101.63750,0.9108550739
101.63800,-1.835894595
101.63850,-4.277449857
101.63900,-5.803421896
101.63950,-6.413810711
