"type","name","time_units","begin_time","frequency","count","units"
"signal","Ultium EMG-EXT.CARP.ULN. RT","s",131.98000,2000,22000,"uV"

"time","value"
131.98000,2.470839283
131.98050,1.250061652
131.98100,0.02928402113
131.98150,-0.2759103866
131.98200,0.02928402113
131.98250,-1.19149361
131.98300,-3.633048871
131.98350,-5.464215317
131.98400,-5.769409725
131.98450,-5.464215317
131.98500,-4.853826502
131.98550,-4.548632094
131.98600,-4.548632094
131.98650,-4.853826502
131.98700,-5.15902091
131.98750,-4.853826502
131.98800,-4.548632094
131.98850,-3.938243279
131.98900,-2.717465648
131.98950,-1.801882425
131.99000,-3.022660056
131.99050,-5.464215317
131.99100,-6.684992948
131.99150,-3.938243279
131.99200,0.3344784288
131.99250,3.386422506
131.99300,3.691616914
131.99350,3.996811321
131.99400,5.827977767
131.99450,8.269533029
131.99500,9.795505068
131.99550,9.49031066
131.99600,7.964338621
131.99650,6.133172175
131.99700,4.302005729
131.99750,3.996811321
131.99800,5.217588952
131.99850,6.743560991
131.99900,7.048755398
131.99950,5.52278336
132.00000,2.470839283
132.00050,0.02928402113
132.00100,-1.801882425
132.00150,-2.41227124
132.00200,-1.496688017
132.00250,0.02928402113
132.00300,-0.2759103866
132.00350,-3.938243279
132.00400,-8.516159395
132.00450,-10.65252025
132.00500,-9.12654821
132.00550,-5.769409725
132.00600,-3.022660056
132.00650,-1.19149361
132.00700,-0.2759103866
132.00750,-0.886299202
132.00800,-2.107076833
132.00850,-2.41227124
132.00900,-1.19149361
132.00950,0.02928402113
132.01000,0.02928402113
132.01050,-0.5811047943
132.01100,-2.107076833
132.01150,-4.243437687
132.01200,-6.379798541
132.01250,-5.769409725
132.01300,-2.717465648
132.01350,0.02928402113
132.01400,0.6396728365
132.01450,0.9448672442
132.01500,1.55525606
132.01550,2.470839283
132.01600,2.77603369
132.01650,3.081228098
132.01700,3.081228098
132.01750,3.081228098
132.01800,3.386422506
132.01850,5.52278336
132.01900,9.49031066
132.01950,13.45783796
132.02000,14.67861559
132.02050,13.76303237
132.02100,11.93186592
132.02150,10.10069948
132.02200,8.269533029
132.02250,5.827977767
132.02300,2.165644875
132.02350,-0.886299202
132.02400,-2.717465648
132.02450,-3.327854464
132.02500,-4.243437687
132.02550,-5.769409725
132.02600,-6.379798541
132.02650,-5.15902091
132.02700,-2.41227124
132.02750,-0.5811047943
132.02800,-0.886299202
132.02850,-2.41227124
132.02900,-3.633048871
132.02950,-3.022660056
132.03000,0.02928402113
132.03050,2.77603369
132.03100,2.77603369
132.03150,0.3344784288
132.03200,-0.2759103866
132.03250,1.55525606
132.03300,4.912394544
132.03350,5.827977767
132.03400,3.691616914
132.03450,0.3344784288
132.03500,-1.19149361
132.03550,-0.5811047943
132.03600,1.860450467
132.03650,3.691616914
132.03700,2.470839283
132.03750,0.02928402113
132.03800,-0.2759103866
132.03850,1.860450467
132.03900,2.77603369
132.03950,0.02928402113
132.04000,-3.327854464
132.04050,-4.548632094
132.04100,-3.938243279
132.04150,-4.243437687
132.04200,-6.074604133
132.04250,-6.379798541
132.04300,-4.853826502
132.04350,-4.243437687
132.04400,-5.15902091
132.04450,-5.464215317
132.04500,-4.548632094
132.04550,-3.938243279
132.04600,-4.853826502
132.04650,-5.464215317
132.04700,-4.243437687
132.04750,-2.107076833
132.04800,-0.886299202
132.04850,-1.496688017
132.04900,-2.107076833
132.04950,-1.496688017
132.05000,-0.2759103866
132.05050,0.3344784288
132.05100,1.250061652
132.05150,2.470839283
132.05200,3.691616914
132.05250,3.386422506
132.05300,2.165644875
132.05350,0.6396728365
132.05400,0.02928402113
132.05450,0.6396728365
132.05500,1.250061652
132.05550,2.165644875
132.05600,2.77603369
132.05650,3.386422506
132.05700,3.081228098
132.05750,2.470839283
132.05800,1.860450467
132.05850,1.860450467
132.05900,1.55525606
132.05950,0.6396728365
132.06000,-1.496688017
132.06050,-3.022660056
132.06100,-3.022660056
132.06150,-2.717465648
132.06200,-3.633048871
132.06250,-5.15902091
132.06300,-5.769409725
132.06350,-6.074604133
132.06400,-6.990187356
132.06450,-7.600576171
132.06500,-6.074604133
132.06550,-2.717465648
132.06600,-0.2759103866
132.06650,0.02928402113
132.06700,0.6396728365
132.06750,1.55525606
132.06800,1.860450467
132.06850,0.3344784288
132.06900,-0.5811047943
132.06950,-1.19149361
132.07000,-1.496688017
132.07050,-2.107076833
132.07100,-1.496688017
132.07150,1.250061652
132.07200,4.302005729
132.07250,4.912394544
132.07300,3.996811321
132.07350,3.386422506
132.07400,3.996811321
132.07450,4.912394544
132.07500,6.743560991
132.07550,8.574727437
132.07600,8.879921844
132.07650,7.353949806
132.07700,5.52278336
132.07750,5.52278336
132.07800,7.353949806
132.07850,7.659144214
132.07900,5.217588952
132.07950,0.9448672442
132.08000,-1.496688017
132.08050,-1.19149361
132.08100,-0.5811047943
132.08150,-1.19149361
132.08200,-2.717465648
132.08250,-2.717465648
132.08300,-1.19149361
132.08350,-0.5811047943
132.08400,-2.717465648
132.08450,-5.464215317
132.08500,-6.379798541
132.08550,-6.379798541
132.08600,-6.990187356
132.08650,-6.990187356
132.08700,-4.548632094
132.08750,-0.886299202
132.08800,0.02928402113
132.08850,-0.5811047943
132.08900,0.02928402113
132.08950,2.470839283
132.09000,3.996811321
132.09050,2.77603369
132.09100,1.55525606
132.09150,3.386422506
132.09200,5.827977767
132.09250,5.217588952
132.09300,1.55525606
132.09350,-0.2759103866
132.09400,0.6396728365
132.09450,1.55525606
132.09500,0.6396728365
132.09550,-0.2759103866
132.09600,0.6396728365
132.09650,3.386422506
132.09700,5.217588952
132.09750,5.827977767
132.09800,6.133172175
132.09850,6.133172175
132.09900,5.217588952
132.09950,3.386422506
132.10000,2.165644875
132.10050,2.165644875
132.10100,2.470839283
132.10150,2.470839283
132.10200,1.860450467
132.10250,0.9448672442
132.10300,-0.2759103866
132.10350,-1.801882425
132.10400,-2.41227124
132.10450,-1.801882425
132.10500,-2.107076833
132.10550,-3.022660056
132.10600,-3.633048871
132.10650,-3.633048871
132.10700,-3.633048871
132.10750,-5.15902091
132.10800,-6.990187356
132.10850,-7.295381764
132.10900,-6.379798541
132.10950,-5.15902091
132.11000,-4.548632094
132.11050,-3.938243279
132.11100,-3.022660056
132.11150,-1.801882425
132.11200,-0.5811047943
132.11250,0.6396728365
132.11300,1.860450467
132.11350,3.996811321
132.11400,7.048755398
132.11450,9.49031066
132.11500,9.795505068
132.11550,8.269533029
132.11600,7.048755398
132.11650,6.438366583
132.11700,5.217588952
132.11750,3.081228098
132.11800,0.6396728365
132.11850,-0.886299202
132.11900,-1.801882425
132.11950,-1.19149361
132.12000,0.02928402113
132.12050,0.02928402113
132.12100,-0.5811047943
132.12150,-1.496688017
132.12200,-2.41227124
132.12250,-3.938243279
132.12300,-6.074604133
132.12350,-5.769409725
132.12400,-1.19149361
132.12450,3.691616914
132.12500,4.912394544
132.12550,2.165644875
132.12600,0.9448672442
132.12650,2.470839283
132.12700,3.691616914
132.12750,2.165644875
132.12800,0.02928402113
132.12850,0.02928402113
132.12900,-0.2759103866
132.12950,-2.717465648
132.13000,-5.464215317
132.13050,-5.769409725
132.13100,-3.938243279
132.13150,-2.41227124
132.13200,-1.801882425
132.13250,-1.19149361
132.13300,0.6396728365
132.13350,2.470839283
132.13400,3.386422506
132.13450,3.691616914
132.13500,4.607200137
132.13550,5.217588952
132.13600,4.607200137
132.13650,1.860450467
132.13700,-0.2759103866
132.13750,0.02928402113
132.13800,1.55525606
132.13850,1.55525606
132.13900,0.02928402113
132.13950,0.02928402113
132.14000,3.691616914
132.14050,7.048755398
132.14100,4.302005729
132.14150,-2.41227124
132.14200,-6.990187356
132.14250,-7.295381764
132.14300,-7.905770579
132.14350,-11.87329788
132.14400,-15.23043636
132.14450,-13.39926992
132.14500,-9.12654821
132.14550,-6.379798541
132.14600,-5.464215317
132.14650,-4.243437687
132.14700,-3.022660056
132.14750,-3.938243279
132.14800,-5.769409725
132.14850,-5.464215317
132.14900,-3.022660056
132.14950,-1.19149361
132.15000,-1.801882425
132.15050,-2.41227124
132.15100,-1.19149361
132.15150,0.02928402113
132.15200,0.02928402113
132.15250,0.02928402113
132.15300,0.02928402113
132.15350,0.3344784288
132.15400,0.3344784288
132.15450,-0.2759103866
132.15500,-1.496688017
132.15550,-2.107076833
132.15600,-0.5811047943
132.15650,2.77603369
132.15700,6.133172175
132.15750,6.133172175
132.15800,3.691616914
132.15850,2.165644875
132.15900,2.77603369
132.15950,3.386422506
132.16000,1.250061652
132.16050,-1.19149361
132.16100,-2.41227124
132.16150,-0.5811047943
132.16200,1.250061652
132.16250,0.3344784288
132.16300,-2.717465648
132.16350,-4.853826502
132.16400,-3.633048871
132.16450,-1.801882425
132.16500,-3.022660056
132.16550,-6.379798541
132.16600,-7.600576171
132.16650,-5.464215317
132.16700,-3.022660056
132.16750,-3.022660056
132.16800,-3.633048871
132.16850,-2.107076833
132.16900,0.02928402113
132.16950,0.3344784288
132.17000,-0.5811047943
132.17050,-0.2759103866
132.17100,0.9448672442
132.17150,1.55525606
132.17200,1.250061652
132.17250,1.55525606
132.17300,2.470839283
132.17350,0.9448672442
132.17400,-1.496688017
132.17450,-2.107076833
132.17500,0.02928402113
132.17550,2.77603369
132.17600,3.996811321
132.17650,6.133172175
132.17700,9.795505068
132.17750,12.54225474
132.17800,12.54225474
132.17850,10.40589388
132.17900,8.269533029
132.17950,7.048755398
132.18000,5.827977767
132.18050,3.996811321
132.18100,2.470839283
132.18150,0.9448672442
132.18200,0.3344784288
132.18250,0.9448672442
132.18300,1.860450467
132.18350,1.55525606
132.18400,-0.886299202
132.18450,-3.633048871
132.18500,-4.548632094
132.18550,-4.243437687
132.18600,-4.243437687
132.18650,-4.548632094
132.18700,-3.938243279
132.18750,-2.107076833
132.18800,-0.2759103866
132.18850,-0.5811047943
132.18900,-2.717465648
132.18950,-3.633048871
132.19000,-2.41227124
132.19050,0.02928402113
132.19100,1.860450467
132.19150,2.470839283
132.19200,2.470839283
132.19250,1.860450467
132.19300,1.250061652
132.19350,1.860450467
132.19400,3.996811321
132.19450,6.438366583
132.19500,7.048755398
132.19550,5.827977767
132.19600,4.912394544
132.19650,5.217588952
132.19700,5.217588952
132.19750,3.386422506
132.19800,1.55525606
132.19850,0.9448672442
132.19900,1.250061652
132.19950,1.860450467
132.20000,1.55525606
132.20050,0.9448672442
132.20100,0.3344784288
132.20150,0.6396728365
132.20200,2.165644875
132.20250,3.386422506
132.20300,2.77603369
132.20350,0.3344784288
132.20400,-1.496688017
132.20450,-1.496688017
132.20500,-0.2759103866
132.20550,0.02928402113
132.20600,-2.107076833
132.20650,-4.243437687
132.20700,-4.853826502
132.20750,-3.938243279
132.20800,-2.41227124
132.20850,-1.801882425
132.20900,-2.41227124
132.20950,-3.327854464
132.21000,-3.022660056
132.21050,-1.496688017
132.21100,0.02928402113
132.21150,0.6396728365
132.21200,1.250061652
132.21250,2.165644875
132.21300,3.081228098
132.21350,3.996811321
132.21400,4.607200137
132.21450,4.607200137
132.21500,3.691616914
132.21550,2.165644875
132.21600,2.470839283
132.21650,3.996811321
132.21700,4.607200137
132.21750,2.77603369
132.21800,1.250061652
132.21850,2.165644875
132.21900,4.607200137
132.21950,4.912394544
132.22000,2.165644875
132.22050,-0.2759103866
132.22100,-1.801882425
132.22150,-3.633048871
132.22200,-5.769409725
132.22250,-6.379798541
132.22300,-5.15902091
132.22350,-3.327854464
132.22400,-2.717465648
132.22450,-3.327854464
132.22500,-4.548632094
132.22550,-6.074604133
132.22600,-7.295381764
132.22650,-6.684992948
132.22700,-4.548632094
132.22750,-3.022660056
132.22800,-3.327854464
132.22850,-3.938243279
132.22900,-2.717465648
132.22950,-1.19149361
132.23000,-1.496688017
132.23050,-3.327854464
132.23100,-3.938243279
132.23150,-2.107076833
132.23200,0.02928402113
132.23250,0.9448672442
132.23300,1.250061652
132.23350,2.165644875
132.23400,3.386422506
132.23450,3.691616914
132.23500,2.77603369
132.23550,2.165644875
132.23600,1.250061652
132.23650,0.02928402113
132.23700,-0.5811047943
132.23750,-0.2759103866
132.23800,0.3344784288
132.23850,0.9448672442
132.23900,1.55525606
132.23950,2.77603369
132.24000,3.996811321
132.24050,4.302005729
132.24100,3.386422506
132.24150,3.386422506
132.24200,3.081228098
132.24250,1.250061652
132.24300,-2.107076833
132.24350,-4.548632094
132.24400,-4.548632094
132.24450,-4.548632094
132.24500,-6.074604133
132.24550,-7.600576171
132.24600,-7.905770579
132.24650,-6.379798541
132.24700,-5.15902091
132.24750,-5.15902091
132.24800,-4.853826502
132.24850,-3.938243279
132.24900,-2.41227124
132.24950,-1.801882425
132.25000,-1.496688017
132.25050,-0.2759103866
132.25100,0.9448672442
132.25150,1.250061652
132.25200,-0.2759103866
132.25250,-1.496688017
132.25300,-0.5811047943
132.25350,1.250061652
132.25400,1.55525606
132.25450,0.6396728365
132.25500,0.9448672442
132.25550,3.081228098
132.25600,3.996811321
132.25650,1.860450467
132.25700,0.02928402113
132.25750,0.6396728365
132.25800,2.470839283
132.25850,1.860450467
132.25900,0.02928402113
132.25950,-1.19149361
132.26000,0.02928402113
132.26050,0.6396728365
132.26100,-0.2759103866
132.26150,-2.107076833
132.26200,-3.327854464
132.26250,-2.41227124
132.26300,0.02928402113
132.26350,3.386422506
132.26400,5.827977767
132.26450,7.048755398
132.26500,8.269533029
132.26550,8.574727437
132.26600,6.133172175
132.26650,1.250061652
132.26700,-3.022660056
132.26750,-4.243437687
132.26800,-3.022660056
132.26850,-2.107076833
132.26900,-3.022660056
132.26950,-3.938243279
132.27000,-3.938243279
132.27050,-3.327854464
132.27100,-2.41227124
132.27150,-0.886299202
132.27200,1.55525606
132.27250,3.386422506
132.27300,3.996811321
132.27350,4.607200137
132.27400,5.827977767
132.27450,7.048755398
132.27500,6.133172175
132.27550,3.996811321
132.27600,2.77603369
132.27650,3.386422506
132.27700,4.912394544
132.27750,6.133172175
132.27800,6.743560991
132.27850,7.353949806
132.27900,7.048755398
132.27950,5.217588952
132.28000,2.77603369
132.28050,1.250061652
132.28100,0.9448672442
132.28150,0.3344784288
132.28200,0.02928402113
132.28250,0.6396728365
132.28300,1.55525606
132.28350,0.6396728365
132.28400,-2.107076833
132.28450,-5.15902091
132.28500,-7.295381764
132.28550,-8.821353802
132.28600,-10.04213143
132.28650,-10.34732584
132.28700,-8.210964987
132.28750,-4.853826502
132.28800,-3.327854464
132.28850,-3.633048871
132.28900,-3.938243279
132.28950,-2.41227124
132.29000,0.3344784288
132.29050,3.691616914
132.29100,4.607200137
132.29150,2.165644875
132.29200,-1.496688017
132.29250,-2.41227124
132.29300,0.6396728365
132.29350,4.302005729
132.29400,4.912394544
132.29450,3.691616914
132.29500,3.691616914
132.29550,4.912394544
132.29600,5.52278336
132.29650,4.302005729
132.29700,3.081228098
132.29750,2.165644875
132.29800,0.9448672442
132.29850,-0.2759103866
132.29900,-2.107076833
132.29950,-3.327854464
132.30000,-3.633048871
132.30050,-3.327854464
132.30100,-2.717465648
132.30150,-2.41227124
132.30200,-3.327854464
132.30250,-4.548632094
132.30300,-5.15902091
132.30350,-5.15902091
132.30400,-5.464215317
132.30450,-5.769409725
132.30500,-5.769409725
132.30550,-5.769409725
132.30600,-6.074604133
132.30650,-5.769409725
132.30700,-4.853826502
132.30750,-3.938243279
132.30800,-3.633048871
132.30850,-3.327854464
132.30900,-1.496688017
132.30950,0.3344784288
132.31000,1.55525606
132.31050,1.860450467
132.31100,2.165644875
132.31150,2.470839283
132.31200,2.77603369
132.31250,2.470839283
132.31300,2.165644875
132.31350,2.165644875
132.31400,2.470839283
132.31450,1.860450467
132.31500,0.9448672442
132.31550,0.9448672442
132.31600,2.77603369
132.31650,4.912394544
132.31700,5.217588952
132.31750,3.996811321
132.31800,2.77603369
132.31850,1.860450467
132.31900,0.3344784288
132.31950,-1.19149361
132.32000,-2.107076833
132.32050,-1.801882425
132.32100,-0.886299202
132.32150,-1.19149361
132.32200,-2.107076833
132.32250,-3.022660056
132.32300,-3.327854464
132.32350,-3.022660056
132.32400,-2.41227124
132.32450,-1.801882425
132.32500,-2.41227124
132.32550,-3.938243279
132.32600,-4.243437687
132.32650,-2.107076833
132.32700,0.02928402113
132.32750,0.02928402113
132.32800,-0.2759103866
132.32850,0.9448672442
132.32900,3.081228098
132.32950,3.386422506
132.33000,1.860450467
132.33050,0.6396728365
132.33100,0.3344784288
132.33150,-0.2759103866
132.33200,-2.107076833
132.33250,-2.107076833
132.33300,-0.2759103866
132.33350,0.9448672442
132.33400,-0.2759103866
132.33450,-2.717465648
132.33500,-3.938243279
132.33550,-2.717465648
132.33600,-0.886299202
132.33650,-0.5811047943
132.33700,-0.886299202
132.33750,-0.886299202
132.33800,0.6396728365
132.33850,2.165644875
132.33900,2.470839283
132.33950,2.470839283
132.34000,5.217588952
132.34050,9.795505068
132.34100,12.54225474
132.34150,11.0162827
132.34200,7.353949806
132.34250,5.217588952
132.34300,4.302005729
132.34350,2.165644875
132.34400,-0.5811047943
132.34450,-2.107076833
132.34500,-1.19149361
132.34550,0.02928402113
132.34600,0.3344784288
132.34650,0.6396728365
132.34700,0.6396728365
132.34750,0.02928402113
132.34800,-1.801882425
132.34850,-3.938243279
132.34900,-5.769409725
132.34950,-6.990187356
132.35000,-6.990187356
132.35050,-4.548632094
132.35100,-1.801882425
132.35150,0.02928402113
132.35200,0.02928402113
132.35250,-0.2759103866
132.35300,-0.5811047943
132.35350,-1.19149361
132.35400,-1.19149361
132.35450,0.02928402113
132.35500,2.470839283
132.35550,4.607200137
132.35600,5.217588952
132.35650,4.607200137
132.35700,3.691616914
132.35750,1.55525606
132.35800,0.02928402113
132.35850,1.250061652
132.35900,5.217588952
132.35950,10.10069948
132.36000,12.54225474
132.36050,11.93186592
132.36100,9.49031066
132.36150,6.133172175
132.36200,2.165644875
132.36250,-1.496688017
132.36300,-3.938243279
132.36350,-3.938243279
132.36400,-3.022660056
132.36450,-3.022660056
132.36500,-4.548632094
132.36550,-5.769409725
132.36600,-5.464215317
132.36650,-3.938243279
132.36700,-2.717465648
132.36750,-3.022660056
132.36800,-3.938243279
132.36850,-4.548632094
132.36900,-4.243437687
132.36950,-3.022660056
132.37000,-1.801882425
132.37050,-0.886299202
132.37100,-0.886299202
132.37150,-0.2759103866
132.37200,0.6396728365
132.37250,2.470839283
132.37300,3.081228098
132.37350,2.77603369
132.37400,1.55525606
132.37450,1.55525606
132.37500,2.77603369
132.37550,4.607200137
132.37600,5.827977767
132.37650,6.133172175
132.37700,5.827977767
132.37750,6.133172175
132.37800,6.743560991
132.37850,6.438366583
132.37900,3.386422506
132.37950,0.02928402113
132.38000,-1.496688017
132.38050,-1.801882425
132.38100,-3.327854464
132.38150,-5.769409725
132.38200,-5.769409725
132.38250,-2.717465648
132.38300,0.02928402113
132.38350,-0.2759103866
132.38400,-1.496688017
132.38450,-1.19149361
132.38500,0.02928402113
132.38550,0.02928402113
132.38600,0.02928402113
132.38650,0.9448672442
132.38700,1.55525606
132.38750,-0.2759103866
132.38800,-4.548632094
132.38850,-7.295381764
132.38900,-7.295381764
132.38950,-5.769409725
132.39000,-3.633048871
132.39050,-0.5811047943
132.39100,0.9448672442
132.39150,0.3344784288
132.39200,-0.886299202
132.39250,-0.2759103866
132.39300,2.165644875
132.39350,3.386422506
132.39400,1.860450467
132.39450,0.9448672442
132.39500,1.860450467
132.39550,2.77603369
132.39600,1.860450467
132.39650,1.250061652
132.39700,2.470839283
132.39750,3.691616914
132.39800,2.165644875
132.39850,-0.5811047943
132.39900,-3.022660056
132.39950,-3.633048871
132.40000,-3.022660056
132.40050,-2.717465648
132.40100,-2.41227124
132.40150,-2.717465648
132.40200,-3.633048871
132.40250,-3.938243279
132.40300,-3.022660056
132.40350,-2.41227124
132.40400,-2.717465648
132.40450,-4.243437687
132.40500,-5.15902091
132.40550,-4.548632094
132.40600,-2.717465648
132.40650,-1.19149361
132.40700,-0.5811047943
132.40750,-0.886299202
132.40800,-1.19149361
132.40850,-1.19149361
132.40900,-0.2759103866
132.40950,1.250061652
132.41000,2.77603369
132.41050,2.470839283
132.41100,0.3344784288
132.41150,-1.801882425
132.41200,-3.022660056
132.41250,-2.41227124
132.41300,-0.886299202
132.41350,0.6396728365
132.41400,2.470839283
132.41450,4.607200137
132.41500,5.827977767
132.41550,5.827977767
132.41600,4.912394544
132.41650,3.386422506
132.41700,1.55525606
132.41750,0.02928402113
132.41800,-0.886299202
132.41850,-1.496688017
132.41900,-1.801882425
132.41950,-3.022660056
132.42000,-4.548632094
132.42050,-5.769409725
132.42100,-6.684992948
132.42150,-7.600576171
132.42200,-9.431742618
132.42250,-10.95771466
132.42300,-10.95771466
132.42350,-8.516159395
132.42400,-6.074604133
132.42450,-5.464215317
132.42500,-6.074604133
132.42550,-6.684992948
132.42600,-6.379798541
132.42650,-4.853826502
132.42700,-2.41227124
132.42750,0.9448672442
132.42800,5.217588952
132.42850,7.964338621
132.42900,9.49031066
132.42950,11.32147711
132.43000,13.45783796
132.43050,14.06822678
132.43100,11.62667151
132.43150,9.185116252
132.43200,9.49031066
132.43250,10.71108829
132.43300,10.40589388
132.43350,9.49031066
132.43400,9.795505068
132.43450,11.0162827
132.43500,10.10069948
132.43550,6.438366583
132.43600,3.386422506
132.43650,2.470839283
132.43700,0.6396728365
132.43750,-2.41227124
132.43800,-3.938243279
132.43850,-1.19149361
132.43900,2.77603369
132.43950,3.691616914
132.44000,0.6396728365
132.44050,-1.801882425
132.44100,-1.19149361
132.44150,-0.2759103866
132.44200,-1.496688017
132.44250,-3.633048871
132.44300,-5.15902091
132.44350,-5.15902091
132.44400,-5.15902091
132.44450,-5.769409725
132.44500,-6.379798541
132.44550,-6.684992948
132.44600,-7.600576171
132.44650,-8.210964987
132.44700,-7.905770579
132.44750,-5.464215317
132.44800,-1.801882425
132.44850,1.250061652
132.44900,3.081228098
132.44950,3.386422506
132.45000,2.77603369
132.45050,2.77603369
132.45100,3.386422506
132.45150,4.607200137
132.45200,4.302005729
132.45250,2.470839283
132.45300,0.9448672442
132.45350,1.250061652
132.45400,2.470839283
132.45450,2.77603369
132.45500,2.470839283
132.45550,3.691616914
132.45600,5.217588952
132.45650,4.607200137
132.45700,1.860450467
132.45750,0.3344784288
132.45800,2.165644875
132.45850,4.302005729
132.45900,3.386422506
132.45950,0.3344784288
132.46000,-0.5811047943
132.46050,0.9448672442
132.46100,2.470839283
132.46150,1.860450467
132.46200,0.02928402113
132.46250,0.02928402113
132.46300,0.9448672442
132.46350,1.55525606
132.46400,0.3344784288
132.46450,-0.886299202
132.46500,-2.717465648
132.46550,-4.243437687
132.46600,-5.769409725
132.46650,-5.769409725
132.46700,-4.243437687
132.46750,-3.022660056
132.46800,-2.717465648
132.46850,-1.801882425
132.46900,0.6396728365
132.46950,1.860450467
132.47000,0.02928402113
132.47050,-2.107076833
132.47100,-2.717465648
132.47150,-2.107076833
132.47200,-2.41227124
132.47250,-3.022660056
132.47300,-1.19149361
132.47350,1.860450467
132.47400,3.386422506
132.47450,1.860450467
132.47500,0.02928402113
132.47550,-1.801882425
132.47600,-2.717465648
132.47650,-2.41227124
132.47700,-0.2759103866
132.47750,0.6396728365
132.47800,-1.19149361
132.47850,-3.938243279
132.47900,-3.633048871
132.47950,-1.19149361
132.48000,0.02928402113
132.48050,-1.19149361
132.48100,-1.801882425
132.48150,-0.886299202
132.48200,-0.886299202
132.48250,-1.801882425
132.48300,-2.41227124
132.48350,-2.717465648
132.48400,-2.717465648
132.48450,-3.022660056
132.48500,-2.107076833
132.48550,-0.5811047943
132.48600,-0.5811047943
132.48650,-1.801882425
132.48700,-2.41227124
132.48750,-2.717465648
132.48800,-3.938243279
132.48850,-4.548632094
132.48900,-2.717465648
132.48950,0.02928402113
132.49000,0.6396728365
132.49050,-0.886299202
132.49100,-2.107076833
132.49150,0.02928402113
132.49200,2.470839283
132.49250,3.691616914
132.49300,4.302005729
132.49350,5.217588952
132.49400,5.827977767
132.49450,5.217588952
132.49500,4.607200137
132.49550,4.607200137
132.49600,4.302005729
132.49650,2.77603369
132.49700,1.250061652
132.49750,1.55525606
132.49800,1.860450467
132.49850,0.9448672442
132.49900,-0.2759103866
132.49950,0.02928402113
132.50000,0.6396728365
132.50050,0.3344784288
132.50100,-0.5811047943
132.50150,-1.19149361
132.50200,-0.886299202
132.50250,-0.886299202
132.50300,-1.801882425
132.50350,-1.801882425
132.50400,-0.886299202
132.50450,-0.5811047943
132.50500,-2.41227124
132.50550,-3.633048871
132.50600,-2.717465648
132.50650,-0.2759103866
132.50700,0.6396728365
132.50750,0.9448672442
132.50800,1.250061652
132.50850,2.165644875
132.50900,2.77603369
132.50950,2.470839283
132.51000,2.470839283
132.51050,2.470839283
132.51100,2.470839283
132.51150,1.250061652
132.51200,0.02928402113
132.51250,-0.2759103866
132.51300,0.3344784288
132.51350,1.860450467
132.51400,2.77603369
132.51450,2.165644875
132.51500,0.02928402113
132.51550,-1.496688017
132.51600,-1.496688017
132.51650,-0.2759103866
132.51700,-0.2759103866
132.51750,-1.19149361
132.51800,-2.107076833
132.51850,-1.801882425
132.51900,-0.5811047943
132.51950,0.6396728365
132.52000,2.77603369
132.52050,4.912394544
132.52100,6.743560991
132.52150,7.659144214
132.52200,6.743560991
132.52250,4.302005729
132.52300,1.55525606
132.52350,-0.2759103866
132.52400,-1.19149361
132.52450,-1.496688017
132.52500,-2.107076833
132.52550,-3.022660056
132.52600,-3.938243279
132.52650,-3.633048871
132.52700,-3.327854464
132.52750,-3.633048871
132.52800,-4.548632094
132.52850,-5.15902091
132.52900,-4.243437687
132.52950,-3.633048871
132.53000,-4.243437687
132.53050,-4.548632094
132.53100,-3.938243279
132.53150,-2.41227124
132.53200,-1.801882425
132.53250,-1.19149361
132.53300,0.9448672442
132.53350,5.217588952
132.53400,9.795505068
132.53450,12.23706033
132.53500,12.84744914
132.53550,11.62667151
132.53600,9.49031066
132.53650,7.048755398
132.53700,5.217588952
132.53750,4.607200137
132.53800,5.827977767
132.53850,7.353949806
132.53900,6.133172175
132.53950,0.6396728365
132.54000,-5.464215317
132.54050,-6.990187356
132.54100,-3.633048871
132.54150,-1.496688017
132.54200,-5.15902091
132.54250,-11.56810347
132.54300,-14.62004755
132.54350,-12.17849229
132.54400,-7.600576171
132.54450,-4.853826502
132.54500,-4.548632094
132.54550,-6.074604133
132.54600,-7.905770579
132.54650,-8.821353802
132.54700,-7.905770579
132.54750,-6.379798541
132.54800,-5.15902091
132.54850,-3.938243279
132.54900,-1.801882425
132.54950,0.02928402113
132.55000,0.6396728365
132.55050,1.55525606
132.55100,2.77603369
132.55150,3.386422506
132.55200,3.691616914
132.55250,4.607200137
132.55300,4.912394544
132.55350,3.081228098
132.55400,0.3344784288
132.55450,-0.2759103866
132.55500,0.9448672442
132.55550,1.250061652
132.55600,-0.2759103866
132.55650,-2.107076833
132.55700,-2.107076833
132.55750,-2.41227124
132.55800,-3.327854464
132.55850,-2.107076833
132.55900,2.165644875
132.55950,5.52278336
132.56000,3.691616914
132.56050,0.9448672442
132.56100,2.77603369
132.56150,7.964338621
132.56200,9.795505068
132.56250,6.438366583
132.56300,2.77603369
132.56350,1.250061652
132.56400,0.6396728365
132.56450,-0.2759103866
132.56500,-1.801882425
132.56550,-2.107076833
132.56600,-2.107076833
132.56650,-2.107076833
132.56700,-3.022660056
132.56750,-5.15902091
132.56800,-7.295381764
132.56850,-7.905770579
132.56900,-5.15902091
132.56950,-1.19149361
132.57000,1.55525606
132.57050,2.77603369
132.57100,3.386422506
132.57150,3.081228098
132.57200,1.250061652
132.57250,-0.886299202
132.57300,-1.801882425
132.57350,-0.2759103866
132.57400,1.55525606
132.57450,3.996811321
132.57500,6.133172175
132.57550,6.743560991
132.57600,4.912394544
132.57650,2.470839283
132.57700,1.250061652
132.57750,1.250061652
132.57800,2.165644875
132.57850,3.081228098
132.57900,3.081228098
132.57950,1.55525606
132.58000,0.02928402113
132.58050,0.3344784288
132.58100,3.386422506
132.58150,3.996811321
132.58200,0.02928402113
132.58250,-4.853826502
132.58300,-5.769409725
132.58350,-3.633048871
132.58400,-2.717465648
132.58450,-4.243437687
132.58500,-3.938243279
132.58550,-2.107076833
132.58600,-1.801882425
132.58650,-4.548632094
132.58700,-6.379798541
132.58750,-5.464215317
132.58800,-4.243437687
132.58850,-4.243437687
132.58900,-3.938243279
132.58950,-2.107076833
132.59000,-1.19149361
132.59050,-2.41227124
132.59100,-2.107076833
132.59150,1.250061652
132.59200,5.217588952
132.59250,3.996811321
132.59300,0.02928402113
132.59350,-3.022660056
132.59400,-3.327854464
132.59450,-1.801882425
132.59500,1.250061652
132.59550,6.743560991
132.59600,12.23706033
132.59650,13.76303237
132.59700,12.84744914
132.59750,12.54225474
132.59800,13.45783796
132.59850,13.76303237
132.59900,11.93186592
132.59950,9.49031066
132.60000,7.659144214
132.60050,5.827977767
132.60100,4.302005729
132.60150,3.081228098
132.60200,1.55525606
132.60250,-0.886299202
132.60300,-3.633048871
132.60350,-4.853826502
132.60400,-4.853826502
132.60450,-5.464215317
132.60500,-6.379798541
132.60550,-6.074604133
132.60600,-5.464215317
132.60650,-6.379798541
132.60700,-8.210964987
132.60750,-8.516159395
132.60800,-7.905770579
132.60850,-7.295381764
132.60900,-7.295381764
132.60950,-6.684992948
132.61000,-4.243437687
132.61050,-1.19149361
132.61100,2.165644875
132.61150,4.607200137
132.61200,3.691616914
132.61250,0.02928402113
132.61300,-2.717465648
132.61350,-1.19149361
132.61400,2.470839283
132.61450,4.607200137
132.61500,3.691616914
132.61550,3.081228098
132.61600,3.996811321
132.61650,5.52278336
132.61700,5.827977767
132.61750,3.996811321
132.61800,0.6396728365
132.61850,-2.717465648
132.61900,-3.938243279
132.61950,-1.496688017
132.62000,0.9448672442
132.62050,0.9448672442
132.62100,0.02928402113
132.62150,0.9448672442
132.62200,2.470839283
132.62250,0.6396728365
132.62300,-4.243437687
132.62350,-7.600576171
132.62400,-6.379798541
132.62450,-3.633048871
132.62500,-2.717465648
132.62550,-3.327854464
132.62600,-3.633048871
132.62650,-5.464215317
132.62700,-8.516159395
132.62750,-9.12654821
132.62800,-4.853826502
132.62850,0.3344784288
132.62900,3.081228098
132.62950,3.996811321
132.63000,5.52278336
132.63050,6.438366583
132.63100,4.912394544
132.63150,3.081228098
132.63200,4.302005729
132.63250,7.048755398
132.63300,6.438366583
132.63350,2.77603369
132.63400,0.6396728365
132.63450,1.860450467
132.63500,3.081228098
132.63550,2.77603369
132.63600,1.860450467
132.63650,1.55525606
132.63700,1.55525606
132.63750,0.6396728365
132.63800,0.6396728365
132.63850,1.250061652
132.63900,0.9448672442
132.63950,-0.2759103866
132.64000,-1.801882425
132.64050,-1.801882425
132.64100,-1.496688017
132.64150,-2.41227124
132.64200,-4.243437687
132.64250,-4.853826502
132.64300,-4.243437687
132.64350,-3.633048871
132.64400,-4.243437687
132.64450,-6.074604133
132.64500,-6.379798541
132.64550,-4.853826502
132.64600,-3.938243279
132.64650,-5.769409725
132.64700,-7.905770579
132.64750,-7.295381764
132.64800,-4.243437687
132.64850,-1.801882425
132.64900,-1.801882425
132.64950,-2.717465648
132.65000,-2.717465648
132.65050,-1.801882425
132.65100,-0.2759103866
132.65150,0.9448672442
132.65200,2.470839283
132.65250,2.470839283
132.65300,1.55525606
132.65350,1.55525606
132.65400,3.081228098
132.65450,4.302005729
132.65500,3.996811321
132.65550,2.77603369
132.65600,2.470839283
132.65650,3.081228098
132.65700,3.081228098
132.65750,2.165644875
132.65800,1.250061652
132.65850,0.9448672442
132.65900,0.6396728365
132.65950,0.3344784288
132.66000,0.02928402113
132.66050,-0.5811047943
132.66100,-0.5811047943
132.66150,-0.886299202
132.66200,-2.41227124
132.66250,-4.548632094
132.66300,-4.243437687
132.66350,-1.496688017
132.66400,1.55525606
132.66450,1.250061652
132.66500,-1.496688017
132.66550,-4.548632094
132.66600,-3.633048871
132.66650,0.02928402113
132.66700,3.081228098
132.66750,3.996811321
132.66800,3.386422506
132.66850,3.386422506
132.66900,3.996811321
132.66950,4.607200137
132.67000,4.912394544
132.67050,4.607200137
132.67100,2.470839283
132.67150,-1.496688017
132.67200,-4.853826502
132.67250,-3.938243279
132.67300,0.02928402113
132.67350,2.470839283
132.67400,2.165644875
132.67450,2.470839283
132.67500,4.912394544
132.67550,7.353949806
132.67600,5.827977767
132.67650,3.081228098
132.67700,2.470839283
132.67750,3.691616914
132.67800,3.081228098
132.67850,0.3344784288
132.67900,-0.5811047943
132.67950,0.9448672442
132.68000,4.302005729
132.68050,7.048755398
132.68100,7.353949806
132.68150,5.52278336
132.68200,1.55525606
132.68250,-1.496688017
132.68300,-3.022660056
132.68350,-3.022660056
132.68400,-4.243437687
132.68450,-5.769409725
132.68500,-5.464215317
132.68550,-3.633048871
132.68600,-3.938243279
132.68650,-8.210964987
132.68700,-12.48368669
132.68750,-12.7888811
132.68800,-8.516159395
132.68850,-4.243437687
132.68900,-2.41227124
132.68950,-1.496688017
132.69000,0.3344784288
132.69050,4.302005729
132.69100,7.048755398
132.69150,6.743560991
132.69200,4.912394544
132.69250,3.081228098
132.69300,2.470839283
132.69350,2.77603369
132.69400,3.386422506
132.69450,3.386422506
132.69500,3.386422506
132.69550,3.996811321
132.69600,5.827977767
132.69650,7.659144214
132.69700,8.269533029
132.69750,7.048755398
132.69800,5.827977767
132.69850,4.912394544
132.69900,3.691616914
132.69950,2.165644875
132.70000,1.55525606
132.70050,1.250061652
132.70100,-0.2759103866
132.70150,-3.633048871
132.70200,-6.684992948
132.70250,-7.600576171
132.70300,-8.210964987
132.70350,-9.736937025
132.70400,-10.04213143
132.70450,-6.990187356
132.70500,-2.717465648
132.70550,-0.2759103866
132.70600,-1.19149361
132.70650,-2.107076833
132.70700,-2.41227124
132.70750,-1.801882425
132.70800,-2.107076833
132.70850,-1.801882425
132.70900,-1.19149361
132.70950,-0.2759103866
132.71000,-0.2759103866
132.71050,-1.19149361
132.71100,-1.801882425
132.71150,-0.886299202
132.71200,1.250061652
132.71250,4.302005729
132.71300,5.52278336
132.71350,4.607200137
132.71400,2.77603369
132.71450,2.470839283
132.71500,3.081228098
132.71550,3.386422506
132.71600,3.691616914
132.71650,4.302005729
132.71700,4.607200137
132.71750,3.386422506
132.71800,1.55525606
132.71850,0.6396728365
132.71900,0.6396728365
132.71950,0.02928402113
132.72000,-2.107076833
132.72050,-3.327854464
132.72100,-2.717465648
132.72150,-0.886299202
132.72200,0.02928402113
132.72250,-0.2759103866
132.72300,-1.19149361
132.72350,-2.717465648
132.72400,-3.938243279
132.72450,-3.633048871
132.72500,-2.717465648
132.72550,-3.633048871
132.72600,-6.990187356
132.72650,-10.04213143
132.72700,-9.736937025
132.72750,-6.684992948
132.72800,-4.243437687
132.72850,-4.243437687
132.72900,-4.548632094
132.72950,-3.938243279
132.73000,-2.41227124
132.73050,-0.5811047943
132.73100,0.9448672442
132.73150,2.470839283
132.73200,3.081228098
132.73250,2.470839283
132.73300,2.165644875
132.73350,2.470839283
132.73400,2.470839283
132.73450,2.470839283
132.73500,3.081228098
132.73550,4.912394544
132.73600,5.827977767
132.73650,4.302005729
132.73700,1.250061652
132.73750,-1.496688017
132.73800,-3.327854464
132.73850,-3.938243279
132.73900,-4.243437687
132.73950,-4.548632094
132.74000,-4.243437687
132.74050,-4.243437687
132.74100,-3.938243279
132.74150,-3.633048871
132.74200,-2.717465648
132.74250,-2.107076833
132.74300,-2.107076833
132.74350,-2.717465648
132.74400,-3.633048871
132.74450,-3.327854464
132.74500,-0.886299202
132.74550,2.77603369
132.74600,7.353949806
132.74650,10.10069948
132.74700,11.0162827
132.74750,10.71108829
132.74800,9.795505068
132.74850,8.574727437
132.74900,6.743560991
132.74950,6.133172175
132.75000,6.133172175
132.75050,6.438366583
132.75100,5.827977767
132.75150,4.607200137
132.75200,4.302005729
132.75250,4.912394544
132.75300,5.217588952
132.75350,4.912394544
132.75400,3.996811321
132.75450,2.77603369
132.75500,1.250061652
132.75550,-0.5811047943
132.75600,-2.717465648
132.75650,-2.717465648
132.75700,-0.5811047943
132.75750,0.9448672442
132.75800,1.55525606
132.75850,0.6396728365
132.75900,-0.5811047943
132.75950,-1.801882425
132.76000,-2.41227124
132.76050,-2.41227124
132.76100,-1.801882425
132.76150,-1.496688017
132.76200,-2.107076833
132.76250,-3.022660056
132.76300,-3.633048871
132.76350,-3.938243279
132.76400,-4.853826502
132.76450,-5.769409725
132.76500,-6.074604133
132.76550,-3.938243279
132.76600,-1.19149361
132.76650,0.02928402113
132.76700,-1.801882425
132.76750,-4.548632094
132.76800,-5.769409725
132.76850,-4.853826502
132.76900,-3.938243279
132.76950,-2.717465648
132.77000,-1.19149361
132.77050,0.02928402113
132.77100,0.3344784288
132.77150,-0.2759103866
132.77200,-0.2759103866
132.77250,0.3344784288
132.77300,1.250061652
132.77350,0.9448672442
132.77400,0.3344784288
132.77450,0.9448672442
132.77500,1.55525606
132.77550,2.470839283
132.77600,3.691616914
132.77650,3.996811321
132.77700,2.165644875
132.77750,-0.886299202
132.77800,-2.717465648
132.77850,-3.022660056
132.77900,-3.938243279
132.77950,-5.769409725
132.78000,-4.243437687
132.78050,0.9448672442
132.78100,6.133172175
132.78150,5.217588952
132.78200,0.02928402113
132.78250,-4.243437687
132.78300,-6.074604133
132.78350,-7.600576171
132.78400,-9.12654821
132.78450,-7.600576171
132.78500,-2.41227124
132.78550,1.250061652
132.78600,0.6396728365
132.78650,-2.41227124
132.78700,-3.327854464
132.78750,-0.886299202
132.78800,1.250061652
132.78850,0.6396728365
132.78900,-1.19149361
132.78950,-2.717465648
132.79000,-3.633048871
132.79050,-3.938243279
132.79100,-3.327854464
132.79150,-0.886299202
132.79200,1.250061652
132.79250,2.77603369
132.79300,3.691616914
132.79350,4.912394544
132.79400,5.217588952
132.79450,3.996811321
132.79500,1.860450467
132.79550,0.9448672442
132.79600,1.250061652
132.79650,1.250061652
132.79700,0.6396728365
132.79750,0.3344784288
132.79800,1.250061652
132.79850,2.77603369
132.79900,5.217588952
132.79950,7.964338621
132.80000,10.10069948
132.80050,9.185116252
132.80100,4.912394544
132.80150,0.9448672442
132.80200,-0.5811047943
132.80250,-0.2759103866
132.80300,-1.19149361
132.80350,-2.717465648
132.80400,-3.633048871
132.80450,-3.327854464
132.80500,-3.327854464
132.80550,-3.633048871
132.80600,-4.243437687
132.80650,-4.243437687
132.80700,-3.327854464
132.80750,-2.107076833
132.80800,-0.2759103866
132.80850,0.6396728365
132.80900,0.6396728365
132.80950,0.02928402113
132.81000,0.3344784288
132.81050,2.165644875
132.81100,4.912394544
132.81150,6.133172175
132.81200,5.827977767
132.81250,5.827977767
132.81300,7.353949806
132.81350,8.879921844
132.81400,7.659144214
132.81450,4.912394544
132.81500,3.691616914
132.81550,4.912394544
132.81600,4.912394544
132.81650,1.55525606
132.81700,-2.107076833
132.81750,-2.41227124
132.81800,0.3344784288
132.81850,1.860450467
132.81900,0.3344784288
132.81950,-0.5811047943
132.82000,1.250061652
132.82050,3.691616914
132.82100,3.081228098
132.82150,0.6396728365
132.82200,-0.886299202
132.82250,-3.022660056
132.82300,-6.379798541
132.82350,-9.736937025
132.82400,-9.431742618
132.82450,-6.379798541
132.82500,-3.633048871
132.82550,-3.327854464
132.82600,-3.938243279
132.82650,-3.327854464
132.82700,-1.801882425
132.82750,0.02928402113
132.82800,1.860450467
132.82850,1.860450467
132.82900,0.02928402113
132.82950,-2.717465648
132.83000,-2.717465648
132.83050,0.02928402113
132.83100,3.081228098
132.83150,3.081228098
132.83200,0.3344784288
132.83250,-1.801882425
132.83300,-1.19149361
132.83350,1.860450467
132.83400,5.217588952
132.83450,5.52278336
132.83500,3.691616914
132.83550,2.165644875
132.83600,2.470839283
132.83650,4.302005729
132.83700,7.048755398
132.83750,9.49031066
132.83800,9.185116252
132.83850,5.52278336
132.83900,0.6396728365
132.83950,-1.496688017
132.84000,-0.886299202
132.84050,-1.19149361
132.84100,-3.633048871
132.84150,-5.769409725
132.84200,-5.769409725
132.84250,-4.853826502
132.84300,-4.548632094
132.84350,-4.853826502
132.84400,-5.15902091
132.84450,-6.379798541
132.84500,-7.600576171
132.84550,-6.684992948
132.84600,-3.022660056
132.84650,0.3344784288
132.84700,0.6396728365
132.84750,-0.2759103866
132.84800,-0.5811047943
132.84850,0.02928402113
132.84900,0.3344784288
132.84950,1.860450467
132.85000,5.827977767
132.85050,10.40589388
132.85100,12.54225474
132.85150,12.23706033
132.85200,11.32147711
132.85250,10.40589388
132.85300,8.574727437
132.85350,4.607200137
132.85400,0.9448672442
132.85450,0.02928402113
132.85500,1.250061652
132.85550,3.386422506
132.85600,4.302005729
132.85650,2.77603369
132.85700,0.02928402113
132.85750,-1.801882425
132.85800,-0.5811047943
132.85850,0.6396728365
132.85900,-0.2759103866
132.85950,-2.717465648
132.86000,-4.548632094
132.86050,-5.769409725
132.86100,-7.905770579
132.86150,-9.736937025
132.86200,-7.905770579
132.86250,-3.327854464
132.86300,-1.19149361
132.86350,-3.022660056
132.86400,-4.548632094
132.86450,-3.633048871
132.86500,-3.022660056
132.86550,-4.548632094
132.86600,-6.379798541
132.86650,-5.769409725
132.86700,-4.548632094
132.86750,-5.15902091
132.86800,-5.769409725
132.86850,-4.548632094
132.86900,-2.717465648
132.86950,-3.327854464
132.87000,-4.853826502
132.87050,-4.548632094
132.87100,-2.41227124
132.87150,-1.19149361
132.87200,-0.5811047943
132.87250,1.55525606
132.87300,5.217588952
132.87350,7.048755398
132.87400,5.827977767
132.87450,2.77603369
132.87500,0.6396728365
132.87550,0.02928402113
132.87600,1.250061652
132.87650,3.081228098
132.87700,3.081228098
132.87750,1.55525606
132.87800,2.165644875
132.87850,4.912394544
132.87900,5.827977767
132.87950,1.55525606
132.88000,-3.633048871
132.88050,-3.633048871
132.88100,0.3344784288
132.88150,2.77603369
132.88200,0.3344784288
132.88250,-3.022660056
132.88300,-4.548632094
132.88350,-4.548632094
132.88400,-5.769409725
132.88450,-7.905770579
132.88500,-8.821353802
132.88550,-7.600576171
132.88600,-6.074604133
132.88650,-5.464215317
132.88700,-5.769409725
132.88750,-4.853826502
132.88800,-1.19149361
132.88850,2.77603369
132.88900,4.607200137
132.88950,2.77603369
132.89000,0.6396728365
132.89050,0.9448672442
132.89100,1.250061652
132.89150,-0.5811047943
132.89200,-3.633048871
132.89250,-3.938243279
132.89300,-1.496688017
132.89350,0.9448672442
132.89400,1.55525606
132.89450,1.55525606
132.89500,2.77603369
132.89550,3.996811321
132.89600,4.912394544
132.89650,4.607200137
132.89700,4.607200137
132.89750,5.217588952
132.89800,6.438366583
132.89850,7.048755398
132.89900,5.827977767
132.89950,3.386422506
132.90000,0.6396728365
132.90050,-0.886299202
132.90100,-1.19149361
132.90150,-0.886299202
132.90200,-0.886299202
132.90250,-2.107076833
132.90300,-4.243437687
132.90350,-6.379798541
132.90400,-7.295381764
132.90450,-7.905770579
132.90500,-8.516159395
132.90550,-8.516159395
132.90600,-6.684992948
132.90650,-3.022660056
132.90700,0.9448672442
132.90750,5.217588952
132.90800,7.353949806
132.90850,7.353949806
132.90900,5.52278336
132.90950,3.996811321
132.91000,2.77603369
132.91050,0.6396728365
132.91100,-3.327854464
132.91150,-6.990187356
132.91200,-6.074604133
132.91250,-1.19149361
132.91300,3.691616914
132.91350,4.302005729
132.91400,1.250061652
132.91450,-0.2759103866
132.91500,0.9448672442
132.91550,3.996811321
132.91600,5.217588952
132.91650,4.302005729
132.91700,3.386422506
132.91750,3.386422506
132.91800,2.470839283
132.91850,0.6396728365
132.91900,-0.2759103866
132.91950,0.02928402113
132.92000,0.3344784288
132.92050,0.3344784288
132.92100,0.02928402113
132.92150,0.9448672442
132.92200,1.55525606
132.92250,0.6396728365
132.92300,-1.19149361
132.92350,-1.496688017
132.92400,-0.5811047943
132.92450,0.02928402113
132.92500,-0.5811047943
132.92550,-2.107076833
132.92600,-3.327854464
132.92650,-4.548632094
132.92700,-4.853826502
132.92750,-3.633048871
132.92800,-1.801882425
132.92850,0.02928402113
132.92900,1.55525606
132.92950,3.996811321
132.93000,4.912394544
132.93050,2.77603369
132.93100,-0.5811047943
132.93150,-1.19149361
132.93200,1.55525606
132.93250,3.386422506
132.93300,1.860450467
132.93350,0.02928402113
132.93400,0.6396728365
132.93450,3.691616914
132.93500,3.691616914
132.93550,1.55525606
132.93600,0.6396728365
132.93650,2.470839283
132.93700,3.691616914
132.93750,2.77603369
132.93800,2.77603369
132.93850,6.743560991
132.93900,11.93186592
132.93950,14.06822678
132.94000,11.62667151
132.94050,8.574727437
132.94100,6.743560991
132.94150,4.912394544
132.94200,0.9448672442
132.94250,-3.327854464
132.94300,-5.769409725
132.94350,-5.15902091
132.94400,-4.243437687
132.94450,-5.15902091
132.94500,-6.990187356
132.94550,-6.990187356
132.94600,-5.769409725
132.94650,-5.15902091
132.94700,-4.853826502
132.94750,-3.633048871
132.94800,-1.801882425
132.94850,-1.19149361
132.94900,-2.41227124
132.94950,-3.633048871
132.95000,-3.327854464
132.95050,-2.107076833
132.95100,-1.19149361
132.95150,-0.2759103866
132.95200,0.9448672442
132.95250,2.165644875
132.95300,1.860450467
132.95350,0.9448672442
132.95400,0.6396728365
132.95450,0.9448672442
132.95500,0.6396728365
132.95550,-0.5811047943
132.95600,-2.717465648
132.95650,-4.548632094
132.95700,-3.938243279
132.95750,-1.801882425
132.95800,0.3344784288
132.95850,0.3344784288
132.95900,-0.886299202
132.95950,-2.107076833
132.96000,-1.496688017
132.96050,-0.886299202
132.96100,-1.19149361
132.96150,-2.41227124
132.96200,-2.107076833
132.96250,-0.886299202
132.96300,-0.886299202
132.96350,-2.41227124
132.96400,-3.938243279
132.96450,-3.938243279
132.96500,-2.717465648
132.96550,-1.19149361
132.96600,0.02928402113
132.96650,0.3344784288
132.96700,0.6396728365
132.96750,0.6396728365
132.96800,0.6396728365
132.96850,0.6396728365
132.96900,0.3344784288
132.96950,-0.886299202
132.97000,-3.022660056
132.97050,-5.769409725
132.97100,-6.684992948
132.97150,-5.464215317
132.97200,-3.022660056
132.97250,-1.496688017
132.97300,-2.107076833
132.97350,-3.022660056
132.97400,-2.41227124
132.97450,0.3344784288
132.97500,3.996811321
132.97550,6.743560991
132.97600,7.353949806
132.97650,6.743560991
132.97700,6.438366583
132.97750,5.827977767
132.97800,4.912394544
132.97850,3.386422506
132.97900,2.165644875
132.97950,1.55525606
132.98000,1.250061652
132.98050,0.02928402113
132.98100,-1.496688017
132.98150,-3.022660056
132.98200,-4.243437687
132.98250,-5.15902091
132.98300,-4.548632094
132.98350,-1.496688017
132.98400,2.77603369
132.98450,5.827977767
132.98500,5.52278336
132.98550,3.081228098
132.98600,1.860450467
132.98650,3.691616914
132.98700,6.133172175
132.98750,7.048755398
132.98800,5.217588952
132.98850,2.470839283
132.98900,1.250061652
132.98950,1.860450467
132.99000,2.470839283
132.99050,3.386422506
132.99100,4.607200137
132.99150,5.827977767
132.99200,5.217588952
132.99250,2.77603369
132.99300,1.55525606
132.99350,3.691616914
132.99400,7.353949806
132.99450,7.964338621
132.99500,5.217588952
132.99550,2.165644875
132.99600,1.55525606
132.99650,2.470839283
132.99700,1.55525606
132.99750,-0.2759103866
132.99800,-2.107076833
132.99850,-2.41227124
132.99900,-1.496688017
132.99950,-1.19149361
133.00000,-2.107076833
133.00050,-3.022660056
133.00100,-3.022660056
133.00150,-2.41227124
133.00200,-3.022660056
133.00250,-4.243437687
133.00300,-3.633048871
133.00350,-0.886299202
133.00400,0.02928402113
133.00450,-1.19149361
133.00500,-3.633048871
133.00550,-4.548632094
133.00600,-4.548632094
133.00650,-5.769409725
133.00700,-6.684992948
133.00750,-3.938243279
133.00800,0.02928402113
133.00850,0.9448672442
133.00900,-0.5811047943
133.00950,-1.496688017
133.01000,-0.5811047943
133.01050,-0.2759103866
133.01100,-1.19149361
133.01150,-2.107076833
133.01200,-1.496688017
133.01250,-0.886299202
133.01300,-0.5811047943
133.01350,0.6396728365
133.01400,4.607200137
133.01450,9.49031066
133.01500,12.54225474
133.01550,14.06822678
133.01600,15.28900441
133.01650,15.28900441
133.01700,13.15264355
133.01750,8.879921844
133.01800,5.827977767
133.01850,4.607200137
133.01900,4.302005729
133.01950,3.691616914
133.02000,1.860450467
133.02050,0.02928402113
133.02100,-2.41227124
133.02150,-5.769409725
133.02200,-8.821353802
133.02250,-10.65252025
133.02300,-10.65252025
133.02350,-9.736937025
133.02400,-8.821353802
133.02450,-8.210964987
133.02500,-7.295381764
133.02550,-5.464215317
133.02600,-4.548632094
133.02650,-4.853826502
133.02700,-5.769409725
133.02750,-5.15902091
133.02800,-3.327854464
133.02850,-1.801882425
133.02900,-2.717465648
133.02950,-4.548632094
133.03000,-4.548632094
133.03050,-1.801882425
133.03100,1.55525606
133.03150,3.386422506
133.03200,2.470839283
133.03250,0.02928402113
133.03300,-0.886299202
133.03350,0.02928402113
133.03400,1.250061652
133.03450,1.55525606
133.03500,1.250061652
133.03550,1.250061652
133.03600,2.165644875
133.03650,2.77603369
133.03700,2.470839283
133.03750,2.165644875
133.03800,2.470839283
133.03850,2.470839283
133.03900,2.165644875
133.03950,1.250061652
133.04000,0.3344784288
133.04050,-1.19149361
133.04100,-4.548632094
133.04150,-7.905770579
133.04200,-9.12654821
133.04250,-8.210964987
133.04300,-6.990187356
133.04350,-5.769409725
133.04400,-4.243437687
133.04450,-2.717465648
133.04500,-3.022660056
133.04550,-5.464215317
133.04600,-6.990187356
133.04650,-5.769409725
133.04700,-2.717465648
133.04750,0.3344784288
133.04800,1.55525606
133.04850,0.02928402113
133.04900,-3.327854464
133.04950,-6.074604133
133.05000,-5.464215317
133.05050,-3.022660056
133.05100,-1.19149361
133.05150,-0.5811047943
133.05200,0.3344784288
133.05250,2.77603369
133.05300,3.996811321
133.05350,2.470839283
133.05400,1.860450467
133.05450,3.386422506
133.05500,6.133172175
133.05550,6.438366583
133.05600,4.302005729
133.05650,1.860450467
133.05700,0.9448672442
133.05750,0.9448672442
133.05800,1.250061652
133.05850,1.250061652
133.05900,1.860450467
133.05950,1.860450467
133.06000,1.860450467
133.06050,1.860450467
133.06100,1.860450467
133.06150,0.9448672442
133.06200,-0.5811047943
133.06250,-2.107076833
133.06300,-2.41227124
133.06350,-0.5811047943
133.06400,0.3344784288
133.06450,-0.5811047943
133.06500,-3.938243279
133.06550,-5.15902091
133.06600,-3.327854464
133.06650,-0.2759103866
133.06700,0.02928402113
133.06750,-1.801882425
133.06800,-3.633048871
133.06850,-4.548632094
133.06900,-4.548632094
133.06950,-4.243437687
133.07000,-1.801882425
133.07050,0.9448672442
133.07100,2.470839283
133.07150,2.165644875
133.07200,2.165644875
133.07250,3.691616914
133.07300,4.607200137
133.07350,3.081228098
133.07400,1.250061652
133.07450,1.250061652
133.07500,3.081228098
133.07550,3.996811321
133.07600,3.386422506
133.07650,2.77603369
133.07700,3.386422506
133.07750,4.302005729
133.07800,4.302005729
133.07850,4.607200137
133.07900,5.217588952
133.07950,5.217588952
133.08000,4.912394544
133.08050,5.827977767
133.08100,7.964338621
133.08150,7.964338621
133.08200,3.691616914
133.08250,-2.107076833
133.08300,-4.853826502
133.08350,-3.327854464
133.08400,-0.886299202
133.08450,-0.886299202
133.08500,-2.41227124
133.08550,-3.327854464
133.08600,-3.633048871
133.08650,-3.633048871
133.08700,-3.633048871
133.08750,-2.41227124
133.08800,-0.886299202
133.08850,0.02928402113
133.08900,0.02928402113
133.08950,0.6396728365
133.09000,1.860450467
133.09050,1.860450467
133.09100,0.02928402113
133.09150,-0.2759103866
133.09200,0.9448672442
133.09250,3.691616914
133.09300,5.52278336
133.09350,5.827977767
133.09400,5.827977767
133.09450,6.133172175
133.09500,6.438366583
133.09550,5.827977767
133.09600,5.217588952
133.09650,4.607200137
133.09700,3.996811321
133.09750,3.386422506
133.09800,2.77603369
133.09850,2.165644875
133.09900,1.860450467
133.09950,2.165644875
133.10000,1.55525606
133.10050,-1.19149361
133.10100,-5.769409725
133.10150,-9.12654821
133.10200,-9.736937025
133.10250,-7.905770579
133.10300,-6.074604133
133.10350,-5.15902091
133.10400,-5.15902091
133.10450,-5.15902091
133.10500,-5.15902091
133.10550,-5.15902091
133.10600,-5.15902091
133.10650,-6.990187356
133.10700,-10.65252025
133.10750,-13.09407551
133.10800,-11.87329788
133.10850,-7.600576171
133.10900,-3.938243279
133.10950,-1.801882425
133.11000,1.250061652
133.11050,6.743560991
133.11100,11.0162827
133.11150,11.0162827
133.11200,9.185116252
133.11250,7.659144214
133.11300,6.743560991
133.11350,4.607200137
133.11400,3.081228098
133.11450,3.996811321
133.11500,5.827977767
133.11550,4.607200137
133.11600,1.860450467
133.11650,1.55525606
133.11700,3.691616914
133.11750,4.302005729
133.11800,1.860450467
133.11850,-0.886299202
133.11900,-1.496688017
133.11950,-0.886299202
133.12000,-0.5811047943
133.12050,-1.19149361
133.12100,-2.107076833
133.12150,-3.327854464
133.12200,-4.548632094
133.12250,-5.769409725
133.12300,-6.990187356
133.12350,-8.210964987
133.12400,-7.905770579
133.12450,-6.074604133
133.12500,-4.548632094
133.12550,-5.15902091
133.12600,-7.295381764
133.12650,-7.905770579
133.12700,-6.074604133
133.12750,-3.938243279
133.12800,-2.717465648
133.12850,-2.107076833
133.12900,-2.107076833
133.12950,-2.107076833
133.13000,-2.107076833
133.13050,-0.2759103866
133.13100,1.860450467
133.13150,3.081228098
133.13200,2.77603369
133.13250,3.386422506
133.13300,6.133172175
133.13350,8.574727437
133.13400,7.964338621
133.13450,3.996811321
133.13500,0.3344784288
133.13550,0.3344784288
133.13600,3.081228098
133.13650,5.217588952
133.13700,4.607200137
133.13750,1.860450467
133.13800,0.3344784288
133.13850,0.02928402113
133.13900,0.02928402113
133.13950,0.02928402113
133.14000,0.02928402113
133.14050,-0.2759103866
133.14100,-1.496688017
133.14150,-3.633048871
133.14200,-5.464215317
133.14250,-5.769409725
133.14300,-5.15902091
133.14350,-5.15902091
133.14400,-5.769409725
133.14450,-5.769409725
133.14500,-3.327854464
133.14550,0.6396728365
133.14600,4.302005729
133.14650,5.52278336
133.14700,4.912394544
133.14750,3.386422506
133.14800,3.081228098
133.14850,3.081228098
133.14900,3.081228098
133.14950,2.77603369
133.15000,3.081228098
133.15050,4.302005729
133.15100,4.912394544
133.15150,3.996811321
133.15200,2.165644875
133.15250,1.250061652
133.15300,1.860450467
133.15350,3.386422506
133.15400,3.996811321
133.15450,3.691616914
133.15500,2.77603369
133.15550,1.860450467
133.15600,2.470839283
133.15650,4.302005729
133.15700,6.133172175
133.15750,4.912394544
133.15800,0.3344784288
133.15850,-2.717465648
133.15900,-2.107076833
133.15950,0.3344784288
133.16000,0.6396728365
133.16050,-1.801882425
133.16100,-3.022660056
133.16150,-0.886299202
133.16200,0.3344784288
133.16250,-2.41227124
133.16300,-6.379798541
133.16350,-5.464215317
133.16400,-1.801882425
133.16450,-2.41227124
133.16500,-9.431742618
133.16550,-14.92524196
133.16600,-12.48368669
133.16650,-4.853826502
133.16700,-0.5811047943
133.16750,-2.107076833
133.16800,-4.548632094
133.16850,-3.327854464
133.16900,-0.2759103866
133.16950,0.9448672442
133.17000,1.250061652
133.17050,2.165644875
133.17100,3.691616914
133.17150,4.912394544
133.17200,5.52278336
133.17250,5.827977767
133.17300,4.607200137
133.17350,2.77603369
133.17400,0.9448672442
133.17450,0.9448672442
133.17500,1.250061652
133.17550,0.6396728365
133.17600,-0.2759103866
133.17650,-0.5811047943
133.17700,0.02928402113
133.17750,-0.886299202
133.17800,-2.41227124
133.17850,-3.022660056
133.17900,-0.886299202
133.17950,2.165644875
133.18000,4.302005729
133.18050,4.607200137
133.18100,3.996811321
133.18150,2.77603369
133.18200,0.6396728365
133.18250,-1.19149361
133.18300,-0.886299202
133.18350,0.9448672442
133.18400,3.081228098
133.18450,3.081228098
133.18500,0.9448672442
133.18550,-1.19149361
133.18600,-2.41227124
133.18650,-1.801882425
133.18700,0.02928402113
133.18750,1.860450467
133.18800,1.250061652
133.18850,-1.19149361
133.18900,-3.327854464
133.18950,-2.717465648
133.19000,-0.2759103866
133.19050,0.6396728365
133.19100,0.02928402113
133.19150,-0.5811047943
133.19200,0.02928402113
133.19250,0.3344784288
133.19300,-0.2759103866
133.19350,-1.19149361
133.19400,-0.2759103866
133.19450,1.250061652
133.19500,1.860450467
133.19550,0.9448672442
133.19600,0.6396728365
133.19650,0.9448672442
133.19700,0.6396728365
133.19750,-0.886299202
133.19800,-2.41227124
133.19850,-2.107076833
133.19900,-1.496688017
133.19950,-1.801882425
133.20000,-3.022660056
133.20050,-3.938243279
133.20100,-3.938243279
133.20150,-3.327854464
133.20200,-2.107076833
133.20250,-0.5811047943
133.20300,0.9448672442
133.20350,3.386422506
133.20400,7.353949806
133.20450,10.10069948
133.20500,9.49031066
133.20550,5.827977767
133.20600,2.470839283
133.20650,1.55525606
133.20700,1.55525606
133.20750,0.3344784288
133.20800,-0.2759103866
133.20850,0.02928402113
133.20900,0.6396728365
133.20950,-1.19149361
133.21000,-3.327854464
133.21050,-1.496688017
133.21100,2.470839283
133.21150,4.607200137
133.21200,2.470839283
133.21250,0.02928402113
133.21300,1.55525606
133.21350,6.133172175
133.21400,7.048755398
133.21450,3.386422506
133.21500,-0.5811047943
133.21550,-1.801882425
133.21600,0.02928402113
133.21650,2.77603369
133.21700,4.302005729
133.21750,4.607200137
133.21800,3.996811321
133.21850,2.77603369
133.21900,1.250061652
133.21950,0.02928402113
133.22000,-1.801882425
133.22050,-3.327854464
133.22100,-4.243437687
133.22150,-4.548632094
133.22200,-4.548632094
133.22250,-5.15902091
133.22300,-6.074604133
133.22350,-7.600576171
133.22400,-7.905770579
133.22450,-5.464215317
133.22500,-0.5811047943
133.22550,2.470839283
133.22600,1.860450467
133.22650,-1.19149361
133.22700,-3.327854464
133.22750,-2.41227124
133.22800,0.02928402113
133.22850,1.250061652
133.22900,1.250061652
133.22950,0.02928402113
133.23000,-0.886299202
133.23050,-1.19149361
133.23100,-0.886299202
133.23150,0.02928402113
133.23200,1.250061652
133.23250,2.470839283
133.23300,3.386422506
133.23350,3.691616914
133.23400,3.081228098
133.23450,2.165644875
133.23500,2.470839283
133.23550,2.77603369
133.23600,2.165644875
133.23650,0.3344784288
133.23700,-1.496688017
133.23750,-2.107076833
133.23800,-0.886299202
133.23850,0.3344784288
133.23900,0.02928402113
133.23950,-2.717465648
133.24000,-5.15902091
133.24050,-4.853826502
133.24100,-2.107076833
133.24150,0.02928402113
133.24200,-0.5811047943
133.24250,-2.107076833
133.24300,-2.717465648
133.24350,-2.41227124
133.24400,-2.107076833
133.24450,-1.496688017
133.24500,0.02928402113
133.24550,0.3344784288
133.24600,-0.886299202
133.24650,-3.633048871
133.24700,-5.15902091
133.24750,-4.243437687
133.24800,-2.717465648
133.24850,-1.19149361
133.24900,0.02928402113
133.24950,2.165644875
133.25000,3.386422506
133.25050,3.081228098
133.25100,1.250061652
133.25150,-0.5811047943
133.25200,-1.801882425
133.25250,-1.496688017
133.25300,0.3344784288
133.25350,2.77603369
133.25400,3.691616914
133.25450,2.165644875
133.25500,0.9448672442
133.25550,1.250061652
133.25600,3.081228098
133.25650,3.996811321
133.25700,2.470839283
133.25750,0.3344784288
133.25800,0.02928402113
133.25850,0.3344784288
133.25900,0.3344784288
133.25950,-0.2759103866
133.26000,-0.5811047943
133.26050,0.9448672442
133.26100,3.691616914
133.26150,5.217588952
133.26200,4.912394544
133.26250,3.691616914
133.26300,2.470839283
133.26350,0.3344784288
133.26400,-2.107076833
133.26450,-2.717465648
133.26500,-1.19149361
133.26550,0.02928402113
133.26600,-2.107076833
133.26650,-5.769409725
133.26700,-6.379798541
133.26750,-3.633048871
133.26800,-2.107076833
133.26850,-3.327854464
133.26900,-3.938243279
133.26950,-1.801882425
133.27000,-0.2759103866
133.27050,-2.41227124
133.27100,-5.15902091
133.27150,-3.938243279
133.27200,0.02928402113
133.27250,2.77603369
133.27300,3.691616914
133.27350,4.302005729
133.27400,5.52278336
133.27450,5.827977767
133.27500,6.438366583
133.27550,8.574727437
133.27600,10.40589388
133.27650,8.269533029
133.27700,3.386422506
133.27750,0.3344784288
133.27800,1.55525606
133.27850,3.996811321
133.27900,4.607200137
133.27950,3.386422506
133.28000,1.250061652
133.28050,-0.886299202
133.28100,-3.327854464
133.28150,-3.633048871
133.28200,-3.022660056
133.28250,-3.327854464
133.28300,-4.548632094
133.28350,-4.548632094
133.28400,-3.327854464
133.28450,-2.717465648
133.28500,-3.327854464
133.28550,-3.633048871
133.28600,-3.327854464
133.28650,-3.938243279
133.28700,-5.464215317
133.28750,-5.769409725
133.28800,-4.853826502
133.28850,-4.548632094
133.28900,-6.379798541
133.28950,-7.600576171
133.29000,-7.905770579
133.29050,-7.295381764
133.29100,-7.295381764
133.29150,-6.074604133
133.29200,-3.633048871
133.29250,-1.19149361
133.29300,0.02928402113
133.29350,1.55525606
133.29400,5.827977767
133.29450,10.71108829
133.29500,14.67861559
133.29550,16.81497644
133.29600,17.42536526
133.29650,15.59419881
133.29700,11.93186592
133.29750,7.964338621
133.29800,5.827977767
133.29850,3.996811321
133.29900,1.860450467
133.29950,-1.19149361
133.30000,-3.633048871
133.30050,-4.548632094
133.30100,-4.243437687
133.30150,-3.938243279
133.30200,-4.548632094
133.30250,-6.379798541
133.30300,-7.600576171
133.30350,-7.905770579
133.30400,-6.990187356
133.30450,-6.074604133
133.30500,-4.853826502
133.30550,-3.327854464
133.30600,-2.717465648
133.30650,-3.633048871
133.30700,-5.464215317
133.30750,-5.15902091
133.30800,-2.41227124
133.30850,-0.886299202
133.30900,-1.496688017
133.30950,-3.633048871
133.31000,-4.243437687
133.31050,-2.717465648
133.31100,-0.886299202
133.31150,0.02928402113
133.31200,0.02928402113
133.31250,0.6396728365
133.31300,1.55525606
133.31350,1.55525606
133.31400,0.9448672442
133.31450,0.3344784288
133.31500,1.860450467
133.31550,4.607200137
133.31600,6.438366583
133.31650,6.743560991
133.31700,5.52278336
133.31750,3.996811321
133.31800,2.77603369
133.31850,1.55525606
133.31900,0.02928402113
133.31950,-1.801882425
133.32000,-3.327854464
133.32050,-3.938243279
133.32100,-3.327854464
133.32150,-2.717465648
133.32200,-3.022660056
133.32250,-3.633048871
133.32300,-3.327854464
133.32350,-3.938243279
133.32400,-6.684992948
133.32450,-10.34732584
133.32500,-10.95771466
133.32550,-6.379798541
133.32600,-0.5811047943
133.32650,1.860450467
133.32700,0.3344784288
133.32750,-0.886299202
133.32800,-1.496688017
133.32850,-0.886299202
133.32900,0.3344784288
133.32950,2.77603369
133.33000,4.607200137
133.33050,3.081228098
133.33100,-0.5811047943
133.33150,-3.327854464
133.33200,-1.801882425
133.33250,1.860450467
133.33300,4.912394544
133.33350,5.827977767
133.33400,5.217588952
133.33450,4.607200137
133.33500,5.52278336
133.33550,7.353949806
133.33600,8.269533029
133.33650,6.133172175
133.33700,2.470839283
133.33750,0.3344784288
133.33800,0.9448672442
133.33850,2.165644875
133.33900,2.77603369
133.33950,2.77603369
133.34000,3.386422506
133.34050,2.77603369
133.34100,0.3344784288
133.34150,-0.886299202
133.34200,0.6396728365
133.34250,3.691616914
133.34300,4.302005729
133.34350,1.55525606
133.34400,-0.2759103866
133.34450,-1.496688017
133.34500,-3.327854464
133.34550,-6.684992948
133.34600,-8.821353802
133.34650,-7.600576171
133.34700,-4.243437687
133.34750,-1.19149361
133.34800,-0.5811047943
133.34850,-1.19149361
133.34900,-2.107076833
133.34950,-2.107076833
133.35000,-1.19149361
133.35050,0.02928402113
133.35100,1.250061652
133.35150,2.77603369
133.35200,3.691616914
133.35250,3.081228098
133.35300,2.165644875
133.35350,3.081228098
133.35400,5.217588952
133.35450,5.52278336
133.35500,2.77603369
133.35550,0.9448672442
133.35600,3.081228098
133.35650,6.438366583
133.35700,7.659144214
133.35750,6.133172175
133.35800,4.912394544
133.35850,4.607200137
133.35900,3.691616914
133.35950,2.165644875
133.36000,1.250061652
133.36050,1.250061652
133.36100,0.3344784288
133.36150,-1.496688017
133.36200,-2.717465648
133.36250,-2.41227124
133.36300,-1.801882425
133.36350,-1.801882425
133.36400,-1.19149361
133.36450,0.02928402113
133.36500,0.6396728365
133.36550,0.6396728365
133.36600,0.6396728365
133.36650,0.6396728365
133.36700,0.02928402113
133.36750,0.02928402113
133.36800,0.6396728365
133.36850,0.6396728365
133.36900,-0.886299202
133.36950,-3.633048871
133.37000,-4.243437687
133.37050,-3.022660056
133.37100,-2.107076833
133.37150,-2.41227124
133.37200,-2.717465648
133.37250,-1.801882425
133.37300,-0.5811047943
133.37350,0.9448672442
133.37400,2.77603369
133.37450,4.607200137
133.37500,5.217588952
133.37550,4.607200137
133.37600,4.912394544
133.37650,6.438366583
133.37700,7.353949806
133.37750,5.217588952
133.37800,0.6396728365
133.37850,-3.633048871
133.37900,-5.15902091
133.37950,-4.853826502
133.38000,-3.938243279
133.38050,-4.548632094
133.38100,-5.15902091
133.38150,-4.853826502
133.38200,-2.107076833
133.38250,1.250061652
133.38300,3.996811321
133.38350,4.607200137
133.38400,3.691616914
133.38450,1.55525606
133.38500,0.02928402113
133.38550,-0.5811047943
133.38600,0.02928402113
133.38650,0.3344784288
133.38700,0.3344784288
133.38750,-0.2759103866
133.38800,-0.886299202
133.38850,-0.886299202
133.38900,-0.2759103866
133.38950,-0.5811047943
133.39000,-1.19149361
133.39050,-1.801882425
133.39100,-1.496688017
133.39150,-1.496688017
133.39200,-1.19149361
133.39250,-0.886299202
133.39300,0.02928402113
133.39350,0.02928402113
133.39400,-0.5811047943
133.39450,0.02928402113
133.39500,1.860450467
133.39550,3.691616914
133.39600,2.77603369
133.39650,0.02928402113
133.39700,0.02928402113
133.39750,1.55525606
133.39800,2.165644875
133.39850,0.3344784288
133.39900,-1.496688017
133.39950,-1.801882425
133.40000,-1.19149361
133.40050,-1.496688017
133.40100,-3.327854464
133.40150,-5.15902091
133.40200,-5.769409725
133.40250,-4.243437687
133.40300,-1.496688017
133.40350,0.02928402113
133.40400,-2.41227124
133.40450,-6.990187356
133.40500,-10.34732584
133.40550,-9.736937025
133.40600,-8.210964987
133.40650,-7.905770579
133.40700,-8.516159395
133.40750,-9.12654821
133.40800,-9.12654821
133.40850,-7.905770579
133.40900,-4.243437687
133.40950,-0.2759103866
133.41000,0.9448672442
133.41050,-0.2759103866
133.41100,-1.496688017
133.41150,0.6396728365
133.41200,4.302005729
133.41250,6.438366583
133.41300,7.659144214
133.41350,10.10069948
133.41400,13.76303237
133.41450,15.28900441
133.41500,13.15264355
133.41550,9.49031066
133.41600,6.133172175
133.41650,4.302005729
133.41700,3.996811321
133.41750,4.607200137
133.41800,4.302005729
133.41850,2.77603369
133.41900,0.9448672442
133.41950,-0.5811047943
133.42000,-2.41227124
133.42050,-4.243437687
133.42100,-3.938243279
133.42150,-2.107076833
133.42200,-0.886299202
133.42250,-2.107076833
133.42300,-3.938243279
133.42350,-3.022660056
133.42400,-1.496688017
133.42450,-1.496688017
133.42500,-3.022660056
133.42550,-3.022660056
133.42600,-1.801882425
133.42650,-2.107076833
133.42700,-3.327854464
133.42750,-2.717465648
133.42800,0.02928402113
133.42850,1.860450467
133.42900,0.3344784288
133.42950,-0.886299202
133.43000,0.02928402113
133.43050,1.860450467
133.43100,2.470839283
133.43150,1.860450467
133.43200,1.55525606
133.43250,1.55525606
133.43300,1.250061652
133.43350,1.55525606
133.43400,3.691616914
133.43450,6.133172175
133.43500,6.743560991
133.43550,5.52278336
133.43600,4.607200137
133.43650,4.607200137
133.43700,5.217588952
133.43750,5.52278336
133.43800,5.52278336
133.43850,4.607200137
133.43900,2.470839283
133.43950,0.02928402113
133.44000,-2.41227124
133.44050,-3.327854464
133.44100,-3.938243279
133.44150,-4.853826502
133.44200,-5.464215317
133.44250,-5.15902091
133.44300,-4.243437687
133.44350,-3.327854464
133.44400,-3.327854464
133.44450,-3.633048871
133.44500,-3.938243279
133.44550,-3.938243279
133.44600,-3.633048871
133.44650,-3.327854464
133.44700,-3.633048871
133.44750,-3.633048871
133.44800,-2.41227124
133.44850,0.02928402113
133.44900,1.55525606
133.44950,1.55525606
133.45000,0.9448672442
133.45050,0.9448672442
133.45100,0.02928402113
133.45150,-0.886299202
133.45200,-1.19149361
133.45250,0.3344784288
133.45300,3.081228098
133.45350,4.912394544
133.45400,4.912394544
133.45450,4.607200137
133.45500,5.217588952
133.45550,5.827977767
133.45600,5.827977767
133.45650,5.217588952
133.45700,3.691616914
133.45750,2.165644875
133.45800,1.250061652
133.45850,0.3344784288
133.45900,-0.5811047943
133.45950,-0.886299202
133.46000,0.9448672442
133.46050,4.302005729
133.46100,5.827977767
133.46150,3.386422506
133.46200,0.02928402113
133.46250,-1.19149361
133.46300,-0.5811047943
133.46350,-0.2759103866
133.46400,-0.2759103866
133.46450,-0.2759103866
133.46500,0.02928402113
133.46550,-0.886299202
133.46600,-3.327854464
133.46650,-6.074604133
133.46700,-7.295381764
133.46750,-6.074604133
133.46800,-3.327854464
133.46850,0.02928402113
133.46900,1.55525606
133.46950,0.02928402113
133.47000,-3.022660056
133.47050,-3.938243279
133.47100,-1.496688017
133.47150,1.250061652
133.47200,2.165644875
133.47250,0.9448672442
133.47300,0.02928402113
133.47350,0.3344784288
133.47400,1.250061652
133.47450,2.165644875
133.47500,3.081228098
133.47550,3.386422506
133.47600,3.386422506
133.47650,2.165644875
133.47700,0.6396728365
133.47750,-0.2759103866
133.47800,-0.886299202
133.47850,-0.886299202
133.47900,-1.19149361
133.47950,-2.107076833
133.48000,-3.022660056
133.48050,-3.327854464
133.48100,-2.717465648
133.48150,-2.107076833
133.48200,-2.107076833
133.48250,-2.41227124
133.48300,-2.41227124
133.48350,-2.717465648
133.48400,-3.633048871
133.48450,-4.548632094
133.48500,-4.243437687
133.48550,-3.022660056
133.48600,-1.496688017
133.48650,-0.886299202
133.48700,-0.886299202
133.48750,-0.2759103866
133.48800,-0.2759103866
133.48850,-0.2759103866
133.48900,-0.2759103866
133.48950,0.02928402113
133.49000,0.02928402113
133.49050,1.250061652
133.49100,3.691616914
133.49150,5.52278336
133.49200,4.912394544
133.49250,2.470839283
133.49300,0.6396728365
133.49350,1.55525606
133.49400,2.77603369
133.49450,1.860450467
133.49500,-0.5811047943
133.49550,-1.496688017
133.49600,-0.2759103866
133.49650,0.02928402113
133.49700,-0.886299202
133.49750,-2.107076833
133.49800,-2.107076833
133.49850,-2.107076833
133.49900,-3.633048871
133.49950,-4.853826502
133.50000,-4.243437687
133.50050,-2.107076833
133.50100,-0.2759103866
133.50150,0.6396728365
133.50200,1.250061652
133.50250,0.9448672442
133.50300,-0.5811047943
133.50350,-2.41227124
133.50400,-2.717465648
133.50450,-2.107076833
133.50500,-2.717465648
133.50550,-3.938243279
133.50600,-4.243437687
133.50650,-2.717465648
133.50700,0.02928402113
133.50750,2.470839283
133.50800,3.081228098
133.50850,2.165644875
133.50900,0.6396728365
133.50950,0.6396728365
133.51000,2.165644875
133.51050,3.386422506
133.51100,3.996811321
133.51150,5.52278336
133.51200,7.964338621
133.51250,8.574727437
133.51300,6.438366583
133.51350,3.691616914
133.51400,2.470839283
133.51450,1.55525606
133.51500,0.02928402113
133.51550,-0.2759103866
133.51600,0.3344784288
133.51650,1.55525606
133.51700,0.9448672442
133.51750,-0.5811047943
133.51800,-1.801882425
133.51850,-3.022660056
133.51900,-4.243437687
133.51950,-4.548632094
133.52000,-3.633048871
133.52050,-3.938243279
133.52100,-7.295381764
133.52150,-10.65252025
133.52200,-10.34732584
133.52250,-7.600576171
133.52300,-6.379798541
133.52350,-6.990187356
133.52400,-6.684992948
133.52450,-4.853826502
133.52500,-5.15902091
133.52550,-6.990187356
133.52600,-6.684992948
133.52650,-2.717465648
133.52700,0.6396728365
133.52750,1.250061652
133.52800,-0.2759103866
133.52850,-2.107076833
133.52900,-3.327854464
133.52950,-3.633048871
133.53000,-1.19149361
133.53050,3.996811321
133.53100,8.879921844
133.53150,10.40589388
133.53200,9.49031066
133.53250,8.879921844
133.53300,8.879921844
133.53350,8.574727437
133.53400,7.048755398
133.53450,5.52278336
133.53500,3.691616914
133.53550,2.470839283
133.53600,1.55525606
133.53650,1.860450467
133.53700,2.165644875
133.53750,1.55525606
133.53800,0.6396728365
133.53850,0.6396728365
133.53900,2.470839283
133.53950,3.996811321
133.54000,3.691616914
133.54050,1.250061652
133.54100,-0.5811047943
133.54150,-1.496688017
133.54200,-2.107076833
133.54250,-2.717465648
133.54300,-3.022660056
133.54350,-3.022660056
133.54400,-3.327854464
133.54450,-3.938243279
133.54500,-4.548632094
133.54550,-4.548632094
133.54600,-4.243437687
133.54650,-3.938243279
133.54700,-3.327854464
133.54750,-3.022660056
133.54800,-2.107076833
133.54850,-1.496688017
133.54900,-0.5811047943
133.54950,0.3344784288
133.55000,1.860450467
133.55050,2.470839283
133.55100,2.77603369
133.55150,1.860450467
133.55200,0.02928402113
133.55250,-1.496688017
133.55300,-2.107076833
133.55350,-1.496688017
133.55400,0.3344784288
133.55450,2.77603369
133.55500,3.691616914
133.55550,3.386422506
133.55600,3.386422506
133.55650,4.912394544
133.55700,6.438366583
133.55750,6.438366583
133.55800,5.52278336
133.55850,6.133172175
133.55900,9.185116252
133.55950,12.84744914
133.56000,13.45783796
133.56050,11.93186592
133.56100,9.795505068
133.56150,7.048755398
133.56200,3.996811321
133.56250,1.55525606
133.56300,0.02928402113
133.56350,-0.5811047943
133.56400,-1.496688017
133.56450,-2.717465648
133.56500,-3.938243279
133.56550,-5.769409725
133.56600,-8.210964987
133.56650,-10.04213143
133.56700,-9.431742618
133.56750,-6.379798541
133.56800,-2.107076833
133.56850,0.9448672442
133.56900,2.165644875
133.56950,0.6396728365
133.57000,-1.801882425
133.57050,-1.801882425
133.57100,0.6396728365
133.57150,3.691616914
133.57200,3.996811321
133.57250,2.77603369
133.57300,2.470839283
133.57350,3.996811321
133.57400,4.607200137
133.57450,3.081228098
133.57500,0.02928402113
133.57550,-2.41227124
133.57600,-3.327854464
133.57650,-1.801882425
133.57700,0.6396728365
133.57750,1.860450467
133.57800,0.6396728365
133.57850,-0.886299202
133.57900,-1.19149361
133.57950,-0.5811047943
133.58000,-0.5811047943
133.58050,-1.801882425
133.58100,-2.717465648
133.58150,-3.022660056
133.58200,-3.633048871
133.58250,-4.548632094
133.58300,-4.243437687
133.58350,-3.633048871
133.58400,-3.633048871
133.58450,-4.548632094
133.58500,-4.548632094
133.58550,-3.633048871
133.58600,-3.327854464
133.58650,-3.938243279
133.58700,-3.938243279
133.58750,-3.022660056
133.58800,-2.107076833
133.58850,-2.107076833
133.58900,-1.801882425
133.58950,-1.19149361
133.59000,-0.5811047943
133.59050,-0.5811047943
133.59100,-0.2759103866
133.59150,0.6396728365
133.59200,2.77603369
133.59250,3.996811321
133.59300,3.996811321
133.59350,3.996811321
133.59400,3.996811321
133.59450,3.996811321
133.59500,4.302005729
133.59550,4.912394544
133.59600,5.52278336
133.59650,5.217588952
133.59700,3.386422506
133.59750,1.55525606
133.59800,1.250061652
133.59850,1.250061652
133.59900,0.6396728365
133.59950,-0.2759103866
133.60000,-1.19149361
133.60050,-1.496688017
133.60100,-1.496688017
133.60150,-2.717465648
133.60200,-3.633048871
133.60250,-3.633048871
133.60300,-3.022660056
133.60350,-2.41227124
133.60400,-3.022660056
133.60450,-4.243437687
133.60500,-5.15902091
133.60550,-4.853826502
133.60600,-3.327854464
133.60650,-2.107076833
133.60700,-2.107076833
133.60750,-2.717465648
133.60800,-3.022660056
133.60850,-3.327854464
133.60900,-3.633048871
133.60950,-3.327854464
133.61000,-1.19149361
133.61050,1.55525606
133.61100,3.386422506
133.61150,3.996811321
133.61200,4.607200137
133.61250,4.912394544
133.61300,4.607200137
133.61350,3.691616914
133.61400,3.386422506
133.61450,3.691616914
133.61500,3.081228098
133.61550,1.55525606
133.61600,0.3344784288
133.61650,0.02928402113
133.61700,0.02928402113
133.61750,-0.5811047943
133.61800,-2.107076833
133.61850,-3.938243279
133.61900,-6.684992948
133.61950,-9.12654821
133.62000,-8.821353802
133.62050,-5.15902091
133.62100,-0.886299202
133.62150,1.250061652
133.62200,3.081228098
133.62250,6.743560991
133.62300,11.0162827
133.62350,13.15264355
133.62400,12.23706033
133.62450,11.0162827
133.62500,9.795505068
133.62550,6.743560991
133.62600,0.9448672442
133.62650,-4.853826502
133.62700,-7.600576171
133.62750,-6.990187356
133.62800,-5.15902091
133.62850,-3.938243279
133.62900,-2.107076833
133.62950,0.02928402113
133.63000,0.6396728365
133.63050,0.3344784288
133.63100,0.3344784288
133.63150,2.165644875
133.63200,3.081228098
133.63250,1.860450467
133.63300,0.02928402113
133.63350,0.6396728365
133.63400,2.77603369
133.63450,4.302005729
133.63500,4.912394544
133.63550,6.743560991
133.63600,8.574727437
133.63650,7.048755398
133.63700,3.081228098
133.63750,0.02928402113
133.63800,0.02928402113
133.63850,0.6396728365
133.63900,0.02928402113
133.63950,-0.2759103866
133.64000,0.02928402113
133.64050,-0.5811047943
133.64100,-2.41227124
133.64150,-3.633048871
133.64200,-3.327854464
133.64250,-3.022660056
133.64300,-4.243437687
133.64350,-5.464215317
133.64400,-5.769409725
133.64450,-5.15902091
133.64500,-5.464215317
133.64550,-6.379798541
133.64600,-6.379798541
133.64650,-5.464215317
133.64700,-4.548632094
133.64750,-3.938243279
133.64800,-2.717465648
133.64850,-1.19149361
133.64900,-0.886299202
133.64950,-2.107076833
133.65000,-3.327854464
133.65050,-3.327854464
133.65100,-2.717465648
133.65150,-2.107076833
133.65200,-1.496688017
133.65250,-1.19149361
133.65300,-0.2759103866
133.65350,0.3344784288
133.65400,0.3344784288
133.65450,0.3344784288
133.65500,1.55525606
133.65550,4.607200137
133.65600,6.743560991
133.65650,6.743560991
133.65700,4.912394544
133.65750,3.386422506
133.65800,3.996811321
133.65850,4.607200137
133.65900,3.386422506
133.65950,1.55525606
133.66000,0.3344784288
133.66050,0.6396728365
133.66100,0.3344784288
133.66150,-2.107076833
133.66200,-5.464215317
133.66250,-5.15902091
133.66300,-1.496688017
133.66350,0.02928402113
133.66400,-2.717465648
133.66450,-7.295381764
133.66500,-7.600576171
133.66550,-4.243437687
133.66600,-1.19149361
133.66650,-1.19149361
133.66700,-1.496688017
133.66750,-0.2759103866
133.66800,0.9448672442
133.66850,1.250061652
133.66900,1.55525606
133.66950,3.081228098
133.67000,4.302005729
133.67050,3.996811321
133.67100,3.081228098
133.67150,2.470839283
133.67200,2.470839283
133.67250,3.386422506
133.67300,5.52278336
133.67350,8.574727437
133.67400,10.10069948
133.67450,9.795505068
133.67500,9.49031066
133.67550,10.40589388
133.67600,11.32147711
133.67650,10.40589388
133.67700,6.743560991
133.67750,0.9448672442
133.67800,-4.548632094
133.67850,-7.905770579
133.67900,-6.990187356
133.67950,-3.633048871
133.68000,-1.496688017
133.68050,-2.107076833
133.68100,-4.548632094
133.68150,-6.990187356
133.68200,-9.12654821
133.68250,-9.736937025
133.68300,-8.210964987
133.68350,-4.853826502
133.68400,-2.717465648
133.68450,-3.633048871
133.68500,-6.074604133
133.68550,-6.990187356
133.68600,-5.15902091
133.68650,-1.801882425
133.68700,1.250061652
133.68750,3.081228098
133.68800,2.165644875
133.68850,-0.2759103866
133.68900,-3.022660056
133.68950,-3.633048871
133.69000,-3.022660056
133.69050,-2.107076833
133.69100,-0.2759103866
133.69150,2.165644875
133.69200,3.996811321
133.69250,3.386422506
133.69300,1.55525606
133.69350,0.9448672442
133.69400,1.860450467
133.69450,2.77603369
133.69500,3.691616914
133.69550,5.217588952
133.69600,6.438366583
133.69650,5.827977767
133.69700,3.996811321
133.69750,2.165644875
133.69800,1.55525606
133.69850,0.6396728365
133.69900,0.3344784288
133.69950,0.3344784288
133.70000,0.02928402113
133.70050,-1.801882425
133.70100,-3.327854464
133.70150,-2.717465648
133.70200,-1.496688017
133.70250,-2.717465648
133.70300,-5.15902091
133.70350,-5.464215317
133.70400,-3.633048871
133.70450,-3.327854464
133.70500,-5.15902091
133.70550,-5.15902091
133.70600,-1.801882425
133.70650,0.02928402113
133.70700,-1.801882425
133.70750,-5.464215317
133.70800,-4.853826502
133.70850,-0.886299202
133.70900,1.250061652
133.70950,0.9448672442
133.71000,1.55525606
133.71050,3.996811321
133.71100,5.52278336
133.71150,4.607200137
133.71200,2.77603369
133.71250,2.470839283
133.71300,2.470839283
133.71350,1.250061652
133.71400,0.02928402113
133.71450,-0.5811047943
133.71500,-2.107076833
133.71550,-3.327854464
133.71600,-3.022660056
133.71650,-1.19149361
133.71700,-0.5811047943
133.71750,-1.19149361
133.71800,-1.19149361
133.71850,0.02928402113
133.71900,0.02928402113
133.71950,-0.886299202
133.72000,-0.5811047943
133.72050,2.470839283
133.72100,7.048755398
133.72150,8.879921844
133.72200,7.659144214
133.72250,5.52278336
133.72300,3.081228098
133.72350,0.6396728365
133.72400,-0.886299202
133.72450,-1.801882425
133.72500,-2.717465648
133.72550,-3.022660056
133.72600,-1.496688017
133.72650,0.9448672442
133.72700,2.77603369
133.72750,3.081228098
133.72800,3.691616914
133.72850,5.827977767
133.72900,7.353949806
133.72950,5.827977767
133.73000,2.77603369
133.73050,0.02928402113
133.73100,-1.496688017
133.73150,-2.717465648
133.73200,-3.938243279
133.73250,-3.938243279
133.73300,-3.633048871
133.73350,-3.938243279
133.73400,-3.938243279
133.73450,-1.801882425
133.73500,1.250061652
133.73550,3.691616914
133.73600,4.607200137
133.73650,5.217588952
133.73700,6.133172175
133.73750,6.743560991
133.73800,5.52278336
133.73850,3.996811321
133.73900,3.081228098
133.73950,2.165644875
133.74000,0.02928402113
133.74050,-2.41227124
133.74100,-3.938243279
133.74150,-4.243437687
133.74200,-3.327854464
133.74250,-2.41227124
133.74300,-2.717465648
133.74350,-3.938243279
133.74400,-5.15902091
133.74450,-5.15902091
133.74500,-3.633048871
133.74550,-2.717465648
133.74600,-4.243437687
133.74650,-6.990187356
133.74700,-7.295381764
133.74750,-4.243437687
133.74800,-0.886299202
133.74850,-0.2759103866
133.74900,-1.496688017
133.74950,-1.496688017
133.75000,0.02928402113
133.75050,0.6396728365
133.75100,0.3344784288
133.75150,0.02928402113
133.75200,0.6396728365
133.75250,1.860450467
133.75300,2.77603369
133.75350,3.691616914
133.75400,3.691616914
133.75450,2.470839283
133.75500,1.55525606
133.75550,1.860450467
133.75600,3.386422506
133.75650,4.607200137
133.75700,5.217588952
133.75750,5.52278336
133.75800,4.302005729
133.75850,1.250061652
133.75900,-2.107076833
133.75950,-3.633048871
133.76000,-3.327854464
133.76050,-3.938243279
133.76100,-5.769409725
133.76150,-6.684992948
133.76200,-5.15902091
133.76250,-3.633048871
133.76300,-3.633048871
133.76350,-4.243437687
133.76400,-3.938243279
133.76450,-3.633048871
133.76500,-4.853826502
133.76550,-6.074604133
133.76600,-4.853826502
133.76650,-1.801882425
133.76700,-0.5811047943
133.76750,-2.107076833
133.76800,-2.717465648
133.76850,-1.496688017
133.76900,0.02928402113
133.76950,0.02928402113
133.77000,-2.107076833
133.77050,-3.022660056
133.77100,-1.801882425
133.77150,0.3344784288
133.77200,2.470839283
133.77250,2.77603369
133.77300,1.860450467
133.77350,2.470839283
133.77400,4.912394544
133.77450,7.353949806
133.77500,7.048755398
133.77550,5.217588952
133.77600,5.217588952
133.77650,5.52278336
133.77700,3.996811321
133.77750,1.250061652
133.77800,0.9448672442
133.77850,3.691616914
133.77900,5.52278336
133.77950,3.691616914
133.78000,1.250061652
133.78050,0.9448672442
133.78100,1.860450467
133.78150,0.9448672442
133.78200,-1.19149361
133.78250,-3.938243279
133.78300,-6.684992948
133.78350,-8.821353802
133.78400,-8.821353802
133.78450,-6.074604133
133.78500,-2.717465648
133.78550,-0.2759103866
133.78600,0.9448672442
133.78650,1.860450467
133.78700,1.55525606
133.78750,-0.2759103866
133.78800,-1.801882425
133.78850,-0.886299202
133.78900,0.02928402113
133.78950,-0.2759103866
133.79000,-0.5811047943
133.79050,1.55525606
133.79100,4.302005729
133.79150,3.996811321
133.79200,2.165644875
133.79250,2.165644875
133.79300,3.996811321
133.79350,4.607200137
133.79400,2.77603369
133.79450,1.250061652
133.79500,2.165644875
133.79550,3.691616914
133.79600,3.996811321
133.79650,3.081228098
133.79700,1.860450467
133.79750,0.3344784288
133.79800,-1.19149361
133.79850,-3.022660056
133.79900,-3.633048871
133.79950,-3.022660056
133.80000,-2.107076833
133.80050,-1.496688017
133.80100,-2.41227124
133.80150,-3.938243279
133.80200,-3.633048871
133.80250,-1.801882425
133.80300,-0.886299202
133.80350,-1.801882425
133.80400,-3.327854464
133.80450,-3.938243279
133.80500,-4.243437687
133.80550,-4.243437687
133.80600,-3.633048871
133.80650,-2.107076833
133.80700,-0.2759103866
133.80750,0.02928402113
133.80800,0.3344784288
133.80850,0.3344784288
133.80900,-0.2759103866
133.80950,-1.496688017
133.81000,-0.886299202
133.81050,1.860450467
133.81100,4.912394544
133.81150,5.217588952
133.81200,4.607200137
133.81250,5.827977767
133.81300,8.574727437
133.81350,9.795505068
133.81400,9.185116252
133.81450,8.269533029
133.81500,8.574727437
133.81550,9.185116252
133.81600,8.574727437
133.81650,7.353949806
133.81700,5.52278336
133.81750,4.607200137
133.81800,4.302005729
133.81850,3.691616914
133.81900,1.55525606
133.81950,-0.5811047943
133.82000,-1.801882425
133.82050,-1.19149361
133.82100,-1.19149361
133.82150,-2.107076833
133.82200,-3.327854464
133.82250,-3.633048871
133.82300,-3.633048871
133.82350,-4.243437687
133.82400,-4.853826502
133.82450,-4.853826502
133.82500,-3.938243279
133.82550,-3.327854464
133.82600,-3.633048871
133.82650,-4.243437687
133.82700,-4.243437687
133.82750,-2.717465648
133.82800,-1.19149361
133.82850,-0.886299202
133.82900,-2.41227124
133.82950,-3.938243279
133.83000,-3.327854464
133.83050,-1.19149361
133.83100,0.6396728365
133.83150,0.6396728365
133.83200,0.02928402113
133.83250,0.02928402113
133.83300,1.250061652
133.83350,2.77603369
133.83400,3.386422506
133.83450,3.081228098
133.83500,2.470839283
133.83550,2.470839283
133.83600,1.55525606
133.83650,0.02928402113
133.83700,-2.107076833
133.83750,-3.327854464
133.83800,-3.022660056
133.83850,-2.717465648
133.83900,-3.633048871
133.83950,-5.769409725
133.84000,-6.990187356
133.84050,-6.684992948
133.84100,-5.15902091
133.84150,-3.022660056
133.84200,-1.19149361
133.84250,-0.2759103866
133.84300,-0.886299202
133.84350,-1.801882425
133.84400,-1.496688017
133.84450,0.6396728365
133.84500,4.302005729
133.84550,7.353949806
133.84600,7.964338621
133.84650,6.133172175
133.84700,2.77603369
133.84750,0.3344784288
133.84800,-0.2759103866
133.84850,-0.886299202
133.84900,-2.107076833
133.84950,-3.327854464
133.85000,-2.41227124
133.85050,0.02928402113
133.85100,2.470839283
133.85150,2.165644875
133.85200,1.55525606
133.85250,2.470839283
133.85300,3.996811321
133.85350,3.081228098
133.85400,0.02928402113
133.85450,-2.107076833
133.85500,-1.801882425
133.85550,-0.2759103866
133.85600,0.02928402113
133.85650,0.3344784288
133.85700,0.6396728365
133.85750,0.3344784288
133.85800,-1.496688017
133.85850,-3.022660056
133.85900,-1.496688017
133.85950,0.02928402113
133.86000,-0.2759103866
133.86050,-2.717465648
133.86100,-3.633048871
133.86150,-1.801882425
133.86200,-1.19149361
133.86250,-2.717465648
133.86300,-3.633048871
133.86350,-2.107076833
133.86400,-0.886299202
133.86450,-1.801882425
133.86500,-3.327854464
133.86550,-2.41227124
133.86600,-0.2759103866
133.86650,0.02928402113
133.86700,-1.801882425
133.86750,-3.022660056
133.86800,-2.41227124
133.86850,-1.496688017
133.86900,-0.886299202
133.86950,-0.5811047943
133.87000,0.6396728365
133.87050,1.55525606
133.87100,1.860450467
133.87150,1.860450467
133.87200,2.165644875
133.87250,2.165644875
133.87300,2.165644875
133.87350,3.081228098
133.87400,3.996811321
133.87450,4.912394544
133.87500,6.438366583
133.87550,8.269533029
133.87600,8.574727437
133.87650,5.52278336
133.87700,1.250061652
133.87750,-0.2759103866
133.87800,0.02928402113
133.87850,-0.886299202
133.87900,-3.022660056
133.87950,-3.938243279
133.88000,-2.717465648
133.88050,-2.41227124
133.88100,-3.327854464
133.88150,-3.327854464
133.88200,-1.801882425
133.88250,-0.886299202
133.88300,-2.41227124
133.88350,-3.938243279
133.88400,-4.243437687
133.88450,-3.327854464
133.88500,-2.41227124
133.88550,-1.19149361
133.88600,0.02928402113
133.88650,0.02928402113
133.88700,-2.107076833
133.88750,-3.633048871
133.88800,-3.022660056
133.88850,-1.801882425
133.88900,-1.801882425
133.88950,-2.41227124
133.89000,-1.496688017
133.89050,0.02928402113
133.89100,1.55525606
133.89150,2.165644875
133.89200,3.081228098
133.89250,3.996811321
133.89300,4.912394544
133.89350,5.52278336
133.89400,6.133172175
133.89450,7.659144214
133.89500,9.185116252
133.89550,8.574727437
133.89600,6.133172175
133.89650,3.386422506
133.89700,3.386422506
133.89750,4.912394544
133.89800,5.217588952
133.89850,2.470839283
133.89900,-0.5811047943
133.89950,-1.801882425
133.90000,-2.41227124
133.90050,-3.327854464
133.90100,-3.938243279
133.90150,-2.41227124
133.90200,-0.5811047943
133.90250,-1.496688017
133.90300,-4.548632094
133.90350,-5.769409725
133.90400,-3.633048871
133.90450,0.02928402113
133.90500,2.165644875
133.90550,2.165644875
133.90600,2.470839283
133.90650,2.470839283
133.90700,0.9448672442
133.90750,-1.496688017
133.90800,-3.022660056
133.90850,-2.107076833
133.90900,-0.886299202
133.90950,-0.5811047943
133.91000,-0.5811047943
133.91050,0.3344784288
133.91100,0.6396728365
133.91150,-0.886299202
133.91200,-2.717465648
133.91250,-1.19149361
133.91300,3.081228098
133.91350,6.743560991
133.91400,7.353949806
133.91450,6.133172175
133.91500,4.607200137
133.91550,2.470839283
133.91600,0.3344784288
133.91650,1.250061652
133.91700,5.52278336
133.91750,9.795505068
133.91800,9.49031066
133.91850,4.912394544
133.91900,-0.2759103866
133.91950,-3.633048871
133.92000,-4.548632094
133.92050,-4.243437687
133.92100,-3.633048871
133.92150,-3.633048871
133.92200,-4.548632094
133.92250,-5.464215317
133.92300,-5.15902091
133.92350,-3.633048871
133.92400,-2.717465648
133.92450,-2.717465648
133.92500,-2.717465648
133.92550,-2.717465648
133.92600,-3.022660056
133.92650,-3.938243279
133.92700,-3.633048871
133.92750,-1.496688017
133.92800,-0.5811047943
133.92850,-2.717465648
133.92900,-6.074604133
133.92950,-7.600576171
133.93000,-6.074604133
133.93050,-4.853826502
133.93100,-5.15902091
133.93150,-4.548632094
133.93200,-1.801882425
133.93250,1.250061652
133.93300,2.77603369
133.93350,3.386422506
133.93400,4.302005729
133.93450,4.912394544
133.93500,3.691616914
133.93550,1.55525606
133.93600,0.9448672442
133.93650,1.860450467
133.93700,2.77603369
133.93750,3.386422506
133.93800,3.996811321
133.93850,3.996811321
133.93900,2.77603369
133.93950,1.55525606
133.94000,0.3344784288
133.94050,-0.5811047943
133.94100,-2.107076833
133.94150,-2.717465648
133.94200,-2.41227124
133.94250,-2.717465648
133.94300,-4.243437687
133.94350,-5.15902091
133.94400,-4.243437687
133.94450,-3.327854464
133.94500,-3.633048871
133.94550,-3.938243279
133.94600,-1.801882425
133.94650,0.02928402113
133.94700,-0.886299202
133.94750,-3.938243279
133.94800,-4.243437687
133.94850,-1.496688017
133.94900,0.02928402113
133.94950,-1.801882425
133.95000,-3.327854464
133.95050,-2.41227124
133.95100,0.02928402113
133.95150,0.3344784288
133.95200,0.02928402113
133.95250,0.6396728365
133.95300,2.470839283
133.95350,3.081228098
133.95400,1.860450467
133.95450,1.55525606
133.95500,3.081228098
133.95550,5.217588952
133.95600,5.52278336
133.95650,3.691616914
133.95700,0.3344784288
133.95750,-2.41227124
133.95800,-2.41227124
133.95850,0.3344784288
133.95900,4.607200137
133.95950,6.743560991
133.96000,7.048755398
133.96050,7.659144214
133.96100,9.185116252
133.96150,8.574727437
133.96200,4.607200137
133.96250,0.3344784288
133.96300,0.02928402113
133.96350,1.250061652
133.96400,0.3344784288
133.96450,-2.717465648
133.96500,-4.548632094
133.96550,-3.327854464
133.96600,-1.496688017
133.96650,-1.19149361
133.96700,-1.19149361
133.96750,-0.2759103866
133.96800,0.02928402113
133.96850,0.02928402113
133.96900,0.02928402113
133.96950,0.9448672442
133.97000,2.165644875
133.97050,1.55525606
133.97100,0.02928402113
133.97150,-1.496688017
133.97200,-1.496688017
133.97250,-0.5811047943
133.97300,0.6396728365
133.97350,2.470839283
133.97400,3.386422506
133.97450,2.77603369
133.97500,1.55525606
133.97550,0.6396728365
133.97600,1.250061652
133.97650,3.386422506
133.97700,5.217588952
133.97750,5.827977767
133.97800,4.912394544
133.97850,4.302005729
133.97900,4.912394544
133.97950,5.217588952
133.98000,4.607200137
133.98050,3.996811321
133.98100,3.996811321
133.98150,2.165644875
133.98200,-2.107076833
133.98250,-6.684992948
133.98300,-7.295381764
133.98350,-4.548632094
133.98400,-1.801882425
133.98450,-0.5811047943
133.98500,0.02928402113
133.98550,-0.2759103866
133.98600,-2.41227124
133.98650,-5.464215317
133.98700,-6.990187356
133.98750,-6.684992948
133.98800,-5.769409725
133.98850,-5.464215317
133.98900,-4.548632094
133.98950,-2.717465648
133.99000,-2.107076833
133.99050,-3.022660056
133.99100,-3.633048871
133.99150,-2.107076833
133.99200,0.6396728365
133.99250,3.081228098
133.99300,3.386422506
133.99350,2.165644875
133.99400,0.9448672442
133.99450,1.250061652
133.99500,3.081228098
133.99550,4.607200137
133.99600,3.691616914
133.99650,1.250061652
133.99700,0.02928402113
133.99750,-0.2759103866
133.99800,-0.886299202
133.99850,-1.801882425
133.99900,-2.717465648
133.99950,-3.022660056
134.00000,-2.41227124
134.00050,-0.886299202
134.00100,0.3344784288
134.00150,0.02928402113
134.00200,-2.41227124
134.00250,-4.548632094
134.00300,-3.938243279
134.00350,-1.801882425
134.00400,-1.19149361
134.00450,-2.717465648
134.00500,-3.633048871
134.00550,-3.327854464
134.00600,-3.938243279
134.00650,-6.074604133
134.00700,-8.516159395
134.00750,-8.821353802
134.00800,-6.684992948
134.00850,-3.633048871
134.00900,-0.5811047943
134.00950,0.6396728365
134.01000,1.860450467
134.01050,3.691616914
134.01100,6.133172175
134.01150,8.269533029
134.01200,8.879921844
134.01250,8.879921844
134.01300,8.574727437
134.01350,7.353949806
134.01400,5.52278336
134.01450,3.996811321
134.01500,4.607200137
134.01550,5.827977767
134.01600,5.217588952
134.01650,3.996811321
134.01700,4.302005729
134.01750,4.607200137
134.01800,2.470839283
134.01850,-2.41227124
134.01900,-7.295381764
134.01950,-7.905770579
134.02000,-5.464215317
134.02050,-3.938243279
134.02100,-3.938243279
134.02150,-4.548632094
134.02200,-4.548632094
134.02250,-4.548632094
134.02300,-5.464215317
134.02350,-6.379798541
134.02400,-6.684992948
134.02450,-5.769409725
134.02500,-4.853826502
134.02550,-5.464215317
134.02600,-6.379798541
134.02650,-5.15902091
134.02700,-1.496688017
134.02750,2.77603369
134.02800,5.52278336
134.02850,6.438366583
134.02900,6.438366583
134.02950,5.827977767
134.03000,3.691616914
134.03050,0.6396728365
134.03100,-0.5811047943
134.03150,0.02928402113
134.03200,0.6396728365
134.03250,0.02928402113
134.03300,-1.19149361
134.03350,0.02928402113
134.03400,3.691616914
134.03450,7.659144214
134.03500,9.49031066
134.03550,9.185116252
134.03600,7.964338621
134.03650,6.133172175
134.03700,4.607200137
134.03750,3.081228098
134.03800,1.860450467
134.03850,0.3344784288
134.03900,-0.2759103866
134.03950,-0.886299202
134.04000,-1.496688017
134.04050,-2.107076833
134.04100,-2.107076833
134.04150,-2.107076833
134.04200,-2.717465648
134.04250,-3.327854464
134.04300,-2.107076833
134.04350,0.02928402113
134.04400,0.9448672442
134.04450,-1.19149361
134.04500,-4.243437687
134.04550,-5.769409725
134.04600,-5.769409725
134.04650,-5.464215317
134.04700,-4.243437687
134.04750,-2.41227124
134.04800,-1.19149361
134.04850,-2.41227124
134.04900,-3.327854464
134.04950,-2.107076833
134.05000,0.6396728365
134.05050,1.860450467
134.05100,1.55525606
134.05150,0.3344784288
134.05200,0.02928402113
134.05250,0.02928402113
134.05300,1.250061652
134.05350,3.081228098
134.05400,3.996811321
134.05450,3.386422506
134.05500,2.470839283
134.05550,2.470839283
134.05600,1.860450467
134.05650,0.3344784288
134.05700,0.02928402113
134.05750,0.3344784288
134.05800,0.3344784288
134.05850,-0.5811047943
134.05900,-1.19149361
134.05950,0.02928402113
134.06000,0.3344784288
134.06050,-1.496688017
134.06100,-1.496688017
134.06150,2.470839283
134.06200,7.353949806
134.06250,7.048755398
134.06300,3.691616914
134.06350,3.081228098
134.06400,4.607200137
134.06450,3.691616914
134.06500,0.02928402113
134.06550,-2.107076833
134.06600,-0.886299202
134.06650,0.6396728365
134.06700,0.9448672442
134.06750,0.9448672442
134.06800,1.860450467
134.06850,2.77603369
134.06900,2.470839283
134.06950,2.165644875
134.07000,2.165644875
134.07050,1.860450467
134.07100,1.55525606
134.07150,1.860450467
134.07200,1.860450467
134.07250,0.02928402113
134.07300,-3.633048871
134.07350,-3.633048871
134.07400,1.55525606
134.07450,7.048755398
134.07500,6.743560991
134.07550,2.470839283
134.07600,0.02928402113
134.07650,0.9448672442
134.07700,1.55525606
134.07750,0.02928402113
134.07800,-3.022660056
134.07850,-4.243437687
134.07900,-3.633048871
134.07950,-3.022660056
134.08000,-3.022660056
134.08050,-2.717465648
134.08100,-2.107076833
134.08150,-1.19149361
134.08200,-1.19149361
134.08250,-2.41227124
134.08300,-4.853826502
134.08350,-6.990187356
134.08400,-6.379798541
134.08450,-3.633048871
134.08500,-1.496688017
134.08550,-1.19149361
134.08600,-1.496688017
134.08650,-0.886299202
134.08700,-0.2759103866
134.08750,-1.19149361
134.08800,-2.717465648
134.08850,-3.938243279
134.08900,-4.243437687
134.08950,-4.243437687
134.09000,-4.243437687
134.09050,-2.717465648
134.09100,-0.2759103866
134.09150,2.165644875
134.09200,3.996811321
134.09250,4.607200137
134.09300,5.217588952
134.09350,5.52278336
134.09400,5.217588952
134.09450,3.691616914
134.09500,0.3344784288
134.09550,-2.41227124
134.09600,-2.41227124
134.09650,0.02928402113
134.09700,2.77603369
134.09750,2.470839283
134.09800,0.02928402113
134.09850,-1.801882425
134.09900,-1.19149361
134.09950,0.6396728365
134.10000,1.860450467
134.10050,0.9448672442
134.10100,-0.5811047943
134.10150,-1.496688017
134.10200,-0.886299202
134.10250,-0.5811047943
134.10300,-2.107076833
134.10350,-4.548632094
134.10400,-5.464215317
134.10450,-4.853826502
134.10500,-3.938243279
134.10550,-4.243437687
134.10600,-5.769409725
134.10650,-7.600576171
134.10700,-7.905770579
134.10750,-6.684992948
134.10800,-3.633048871
134.10850,-0.5811047943
134.10900,1.860450467
134.10950,3.996811321
134.11000,5.52278336
134.11050,5.52278336
134.11100,4.302005729
134.11150,3.081228098
134.11200,2.165644875
134.11250,1.55525606
134.11300,2.470839283
134.11350,4.607200137
134.11400,6.133172175
134.11450,5.217588952
134.11500,3.996811321
134.11550,4.302005729
134.11600,6.438366583
134.11650,6.743560991
134.11700,4.607200137
134.11750,2.470839283
134.11800,1.55525606
134.11850,0.3344784288
134.11900,-0.2759103866
134.11950,0.6396728365
134.12000,3.386422506
134.12050,3.081228098
134.12100,-1.19149361
134.12150,-5.15902091
134.12200,-4.548632094
134.12250,-2.107076833
134.12300,-3.022660056
134.12350,-7.295381764
134.12400,-9.736937025
134.12450,-8.210964987
134.12500,-5.464215317
134.12550,-4.548632094
134.12600,-3.938243279
134.12650,-2.41227124
134.12700,-0.886299202
134.12750,-0.5811047943
134.12800,-1.19149361
134.12850,-0.2759103866
134.12900,1.860450467
134.12950,4.912394544
134.13000,7.048755398
134.13050,7.353949806
134.13100,5.827977767
134.13150,2.77603369
134.13200,0.02928402113
134.13250,-1.19149361
134.13300,-1.496688017
134.13350,-1.19149361
134.13400,-1.19149361
134.13450,-1.19149361
134.13500,-1.19149361
134.13550,-1.19149361
134.13600,-1.19149361
134.13650,-0.2759103866
134.13700,1.250061652
134.13750,2.77603369
134.13800,4.607200137
134.13850,5.217588952
134.13900,4.607200137
134.13950,1.55525606
134.14000,-1.496688017
134.14050,-2.107076833
134.14100,0.02928402113
134.14150,2.165644875
134.14200,2.165644875
134.14250,1.250061652
134.14300,0.6396728365
134.14350,1.55525606
134.14400,3.081228098
134.14450,3.691616914
134.14500,3.996811321
134.14550,3.996811321
134.14600,3.691616914
134.14650,2.77603369
134.14700,1.55525606
134.14750,0.3344784288
134.14800,-0.5811047943
134.14850,-0.886299202
134.14900,-0.2759103866
134.14950,1.250061652
134.15000,3.081228098
134.15050,3.691616914
134.15100,3.081228098
134.15150,1.55525606
134.15200,0.02928402113
134.15250,-0.886299202
134.15300,-0.886299202
134.15350,0.3344784288
134.15400,3.081228098
134.15450,5.217588952
134.15500,4.607200137
134.15550,2.165644875
134.15600,0.9448672442
134.15650,1.860450467
134.15700,3.386422506
134.15750,3.691616914
134.15800,2.165644875
134.15850,0.02928402113
134.15900,-1.496688017
134.15950,-3.327854464
134.16000,-4.548632094
134.16050,-4.243437687
134.16100,-3.938243279
134.16150,-4.853826502
134.16200,-6.074604133
134.16250,-6.379798541
134.16300,-6.074604133
134.16350,-5.464215317
134.16400,-5.464215317
134.16450,-5.15902091
134.16500,-4.853826502
134.16550,-4.853826502
134.16600,-4.853826502
134.16650,-3.633048871
134.16700,-1.496688017
134.16750,-0.5811047943
134.16800,-1.19149361
134.16850,-1.801882425
134.16900,-1.801882425
134.16950,-1.801882425
134.17000,-2.717465648
134.17050,-3.022660056
134.17100,-0.886299202
134.17150,2.470839283
134.17200,5.217588952
134.17250,5.52278336
134.17300,3.996811321
134.17350,2.470839283
134.17400,1.55525606
134.17450,1.250061652
134.17500,0.6396728365
134.17550,0.3344784288
134.17600,0.3344784288
134.17650,0.02928402113
134.17700,-0.886299202
134.17750,-3.327854464
134.17800,-4.853826502
134.17850,-3.938243279
134.17900,-2.107076833
134.17950,-1.19149361
134.18000,-2.107076833
134.18050,-3.327854464
134.18100,-3.633048871
134.18150,-2.717465648
134.18200,-1.496688017
134.18250,0.3344784288
134.18300,3.386422506
134.18350,6.133172175
134.18400,7.353949806
134.18450,6.743560991
134.18500,4.912394544
134.18550,3.996811321
134.18600,3.691616914
134.18650,2.165644875
134.18700,-0.2759103866
134.18750,-1.19149361
134.18800,1.250061652
134.18850,5.52278336
134.18900,7.353949806
134.18950,4.607200137
134.19000,0.6396728365
134.19050,-1.19149361
134.19100,-0.5811047943
134.19150,1.250061652
134.19200,3.386422506
134.19250,3.996811321
134.19300,2.470839283
134.19350,0.02928402113
134.19400,-2.41227124
134.19450,-2.41227124
134.19500,-0.886299202
134.19550,-0.886299202
134.19600,-2.107076833
134.19650,-2.717465648
134.19700,-1.19149361
134.19750,0.6396728365
134.19800,1.250061652
134.19850,1.250061652
134.19900,1.55525606
134.19950,1.55525606
134.20000,0.6396728365
134.20050,-0.886299202
134.20100,-2.107076833
134.20150,-3.022660056
134.20200,-4.548632094
134.20250,-7.295381764
134.20300,-9.12654821
134.20350,-9.736937025
134.20400,-9.431742618
134.20450,-7.295381764
134.20500,-4.243437687
134.20550,-2.717465648
134.20600,-4.853826502
134.20650,-9.736937025
134.20700,-12.7888811
134.20750,-11.56810347
134.20800,-7.295381764
134.20850,-3.022660056
134.20900,0.3344784288
134.20950,3.691616914
134.21000,6.133172175
134.21050,7.353949806
134.21100,7.048755398
134.21150,5.827977767
134.21200,4.302005729
134.21250,2.77603369
134.21300,2.470839283
134.21350,3.691616914
134.21400,4.607200137
134.21450,4.912394544
134.21500,4.607200137
134.21550,4.302005729
134.21600,4.302005729
134.21650,4.302005729
134.21700,4.607200137
134.21750,3.996811321
134.21800,2.165644875
134.21850,0.02928402113
134.21900,0.02928402113
134.21950,0.6396728365
134.22000,0.6396728365
134.22050,0.02928402113
134.22100,-0.2759103866
134.22150,0.02928402113
134.22200,-0.2759103866
134.22250,-2.41227124
134.22300,-3.327854464
134.22350,-2.717465648
134.22400,-2.41227124
134.22450,-3.938243279
134.22500,-5.15902091
134.22550,-3.938243279
134.22600,-1.19149361
134.22650,-0.886299202
134.22700,-1.496688017
134.22750,-0.886299202
134.22800,0.6396728365
134.22850,1.55525606
134.22900,0.6396728365
134.22950,0.02928402113
134.23000,1.55525606
134.23050,2.77603369
134.23100,2.77603369
134.23150,2.77603369
134.23200,3.996811321
134.23250,5.52278336
134.23300,5.827977767
134.23350,4.912394544
134.23400,3.691616914
134.23450,2.470839283
134.23500,0.9448672442
134.23550,0.02928402113
134.23600,-0.2759103866
134.23650,0.02928402113
134.23700,-0.2759103866
134.23750,-1.496688017
134.23800,-2.41227124
134.23850,-1.496688017
134.23900,0.02928402113
134.23950,0.02928402113
134.24000,-1.496688017
134.24050,-3.938243279
134.24100,-5.464215317
134.24150,-4.853826502
134.24200,-3.327854464
134.24250,-2.107076833
134.24300,-2.107076833
134.24350,-3.327854464
134.24400,-3.633048871
134.24450,-2.41227124
134.24500,-1.19149361
134.24550,-1.496688017
134.24600,-2.107076833
134.24650,-0.886299202
134.24700,0.6396728365
134.24750,1.250061652
134.24800,0.02928402113
134.24850,-0.2759103866
134.24900,-0.2759103866
134.24950,0.02928402113
134.25000,0.02928402113
134.25050,0.02928402113
134.25100,0.9448672442
134.25150,0.9448672442
134.25200,0.02928402113
134.25250,0.02928402113
134.25300,2.165644875
134.25350,5.217588952
134.25400,5.217588952
134.25450,3.386422506
134.25500,3.386422506
134.25550,6.133172175
134.25600,9.185116252
134.25650,10.10069948
134.25700,9.49031066
134.25750,8.269533029
134.25800,6.438366583
134.25850,3.691616914
134.25900,2.165644875
134.25950,3.081228098
134.26000,4.607200137
134.26050,3.691616914
134.26100,0.6396728365
134.26150,-2.107076833
134.26200,-4.548632094
134.26250,-7.600576171
134.26300,-10.65252025
134.26350,-10.65252025
134.26400,-6.990187356
134.26450,-2.717465648
134.26500,-0.5811047943
134.26550,-0.2759103866
134.26600,-0.2759103866
134.26650,-0.5811047943
134.26700,-1.19149361
134.26750,-1.19149361
134.26800,-0.2759103866
134.26850,-1.19149361
134.26900,-3.938243279
134.26950,-6.074604133
134.27000,-4.853826502
134.27050,-2.107076833
134.27100,-1.19149361
134.27150,-1.801882425
134.27200,-1.801882425
134.27250,0.02928402113
134.27300,2.470839283
134.27350,3.386422506
134.27400,2.165644875
134.27450,0.3344784288
134.27500,0.02928402113
134.27550,0.9448672442
134.27600,1.860450467
134.27650,2.165644875
134.27700,1.55525606
134.27750,1.55525606
134.27800,1.250061652
134.27850,0.02928402113
134.27900,-1.801882425
134.27950,-2.107076833
134.28000,-1.19149361
134.28050,-0.5811047943
134.28100,-1.19149361
134.28150,-1.496688017
134.28200,-1.19149361
134.28250,-2.107076833
134.28300,-3.938243279
134.28350,-4.548632094
134.28400,-3.022660056
134.28450,-0.886299202
134.28500,-0.886299202
134.28550,-2.717465648
134.28600,-4.853826502
134.28650,-6.074604133
134.28700,-6.990187356
134.28750,-6.379798541
134.28800,-4.853826502
134.28850,-2.717465648
134.28900,-1.496688017
134.28950,-1.496688017
134.29000,-1.496688017
134.29050,-0.886299202
134.29100,0.3344784288
134.29150,1.860450467
134.29200,2.77603369
134.29250,3.386422506
134.29300,5.827977767
134.29350,10.40589388
134.29400,15.28900441
134.29450,17.12017085
134.29500,16.50978204
134.29550,15.28900441
134.29600,14.06822678
134.29650,12.23706033
134.29700,9.185116252
134.29750,6.438366583
134.29800,3.996811321
134.29850,0.6396728365
134.29900,-3.022660056
134.29950,-4.548632094
134.30000,-3.327854464
134.30050,-2.41227124
134.30100,-3.327854464
134.30150,-4.548632094
134.30200,-5.15902091
134.30250,-5.15902091
134.30300,-6.684992948
134.30350,-8.516159395
134.30400,-7.600576171
134.30450,-4.548632094
134.30500,-1.801882425
134.30550,-0.5811047943
134.30600,0.3344784288
134.30650,3.386422506
134.30700,5.827977767
134.30750,5.827977767
134.30800,3.996811321
134.30850,2.77603369
134.30900,3.691616914
134.30950,5.217588952
134.31000,5.217588952
134.31050,4.912394544
134.31100,5.827977767
134.31150,6.743560991
134.31200,5.827977767
134.31250,3.996811321
134.31300,3.386422506
134.31350,3.081228098
134.31400,1.55525606
134.31450,-0.2759103866
134.31500,-1.19149361
134.31550,0.02928402113
134.31600,1.250061652
134.31650,0.6396728365
134.31700,-1.19149361
134.31750,-2.41227124
134.31800,-3.022660056
134.31850,-3.327854464
134.31900,-3.022660056
134.31950,-1.496688017
134.32000,0.02928402113
134.32050,0.02928402113
134.32100,-1.19149361
134.32150,-3.022660056
134.32200,-4.243437687
134.32250,-4.853826502
134.32300,-5.15902091
134.32350,-4.853826502
134.32400,-3.938243279
134.32450,-3.633048871
134.32500,-3.938243279
134.32550,-5.15902091
134.32600,-5.464215317
134.32650,-4.548632094
134.32700,-2.107076833
134.32750,0.02928402113
134.32800,0.02928402113
134.32850,-1.801882425
134.32900,-3.938243279
134.32950,-4.548632094
134.33000,-3.327854464
134.33050,-1.496688017
134.33100,-0.2759103866
134.33150,0.3344784288
134.33200,0.3344784288
134.33250,0.9448672442
134.33300,2.470839283
134.33350,3.691616914
134.33400,3.386422506
134.33450,2.470839283
134.33500,2.165644875
134.33550,2.165644875
134.33600,2.165644875
134.33650,1.860450467
134.33700,2.470839283
134.33750,2.77603369
134.33800,1.55525606
134.33850,-0.5811047943
134.33900,-1.496688017
134.33950,0.02928402113
134.34000,0.3344784288
134.34050,-2.107076833
134.34100,-5.464215317
134.34150,-6.379798541
134.34200,-4.853826502
134.34250,-4.548632094
134.34300,-6.379798541
134.34350,-6.684992948
134.34400,-4.548632094
134.34450,-2.717465648
134.34500,-3.327854464
134.34550,-3.938243279
134.34600,-2.41227124
134.34650,0.3344784288
134.34700,1.250061652
134.34750,0.02928402113
134.34800,-2.41227124
134.34850,-4.243437687
134.34900,-5.464215317
134.34950,-6.074604133
134.35000,-4.243437687
134.35050,0.02928402113
134.35100,3.996811321
134.35150,6.133172175
134.35200,5.827977767
134.35250,4.607200137
134.35300,4.607200137
134.35350,4.607200137
134.35400,3.996811321
134.35450,1.55525606
134.35500,0.02928402113
134.35550,0.3344784288
134.35600,1.860450467
134.35650,0.6396728365
134.35700,-2.717465648
134.35750,-5.15902091
134.35800,-3.938243279
134.35850,-0.5811047943
134.35900,1.860450467
134.35950,4.607200137
134.36000,7.048755398
134.36050,7.964338621
134.36100,6.438366583
134.36150,4.607200137
134.36200,4.302005729
134.36250,4.302005729
134.36300,3.996811321
134.36350,3.386422506
134.36400,3.081228098
134.36450,1.250061652
134.36500,-2.717465648
134.36550,-6.990187356
134.36600,-8.210964987
134.36650,-6.684992948
134.36700,-5.464215317
134.36750,-5.769409725
134.36800,-5.464215317
134.36850,-3.938243279
134.36900,-3.022660056
134.36950,-3.327854464
134.37000,-3.327854464
134.37050,-1.801882425
134.37100,-0.2759103866
134.37150,0.3344784288
134.37200,0.6396728365
134.37250,0.9448672442
134.37300,0.6396728365
134.37350,-0.5811047943
134.37400,-2.41227124
134.37450,-3.633048871
134.37500,-3.633048871
134.37550,-2.717465648
134.37600,-1.19149361
134.37650,1.55525606
134.37700,4.302005729
134.37750,3.386422506
134.37800,-0.2759103866
134.37850,-3.327854464
134.37900,-1.19149361
134.37950,4.607200137
134.38000,9.795505068
134.38050,11.0162827
134.38100,11.0162827
134.38150,11.32147711
134.38200,11.32147711
134.38250,8.574727437
134.38300,4.912394544
134.38350,3.386422506
134.38400,2.77603369
134.38450,0.9448672442
134.38500,-1.496688017
134.38550,-1.19149361
134.38600,0.6396728365
134.38650,0.02928402113
134.38700,-4.548632094
134.38750,-7.295381764
134.38800,-3.938243279
134.38850,1.55525606
134.38900,3.996811321
134.38950,2.470839283
134.39000,1.55525606
134.39050,2.165644875
134.39100,2.470839283
134.39150,1.250061652
134.39200,0.02928402113
134.39250,-0.5811047943
134.39300,-0.886299202
134.39350,-0.886299202
134.39400,0.02928402113
134.39450,1.55525606
134.39500,2.77603369
134.39550,2.470839283
134.39600,1.55525606
134.39650,0.9448672442
134.39700,0.3344784288
134.39750,0.02928402113
134.39800,-0.2759103866
134.39850,0.02928402113
134.39900,0.3344784288
134.39950,0.6396728365
134.40000,0.02928402113
134.40050,-1.19149361
134.40100,-2.41227124
134.40150,-3.327854464
134.40200,-4.548632094
134.40250,-5.464215317
134.40300,-5.464215317
134.40350,-4.243437687
134.40400,-3.327854464
134.40450,-3.327854464
134.40500,-3.938243279
134.40550,-3.938243279
134.40600,-2.41227124
134.40650,-1.496688017
134.40700,-1.801882425
134.40750,-2.717465648
134.40800,-3.022660056
134.40850,-2.107076833
134.40900,-0.2759103866
134.40950,0.9448672442
134.41000,2.165644875
134.41050,3.996811321
134.41100,6.133172175
134.41150,7.353949806
134.41200,6.743560991
134.41250,5.52278336
134.41300,5.217588952
134.41350,5.217588952
134.41400,4.302005729
134.41450,3.691616914
134.41500,3.386422506
134.41550,2.77603369
134.41600,0.9448672442
134.41650,-0.2759103866
134.41700,-0.2759103866
134.41750,0.02928402113
134.41800,0.02928402113
134.41850,0.02928402113
134.41900,0.6396728365
134.41950,1.250061652
134.42000,-0.886299202
134.42050,-5.15902091
134.42100,-7.600576171
134.42150,-6.990187356
134.42200,-4.548632094
134.42250,-2.717465648
134.42300,-2.107076833
134.42350,-2.717465648
134.42400,-3.938243279
134.42450,-4.243437687
134.42500,-3.327854464
134.42550,-2.41227124
134.42600,-3.022660056
134.42650,-4.243437687
134.42700,-4.853826502
134.42750,-4.853826502
134.42800,-6.074604133
134.42850,-6.990187356
134.42900,-6.379798541
134.42950,-3.327854464
134.43000,0.3344784288
134.43050,3.386422506
134.43100,4.607200137
134.43150,3.996811321
134.43200,2.77603369
134.43250,3.081228098
134.43300,5.52278336
134.43350,7.048755398
134.43400,5.827977767
134.43450,3.996811321
134.43500,4.302005729
134.43550,5.217588952
134.43600,4.607200137
134.43650,2.77603369
134.43700,2.470839283
134.43750,3.081228098
134.43800,2.165644875
134.43850,0.02928402113
134.43900,-2.41227124
134.43950,-3.633048871
134.44000,-3.938243279
134.44050,-4.548632094
134.44100,-3.938243279
134.44150,-2.717465648
134.44200,-2.41227124
134.44250,-3.633048871
134.44300,-4.853826502
134.44350,-4.853826502
134.44400,-3.938243279
134.44450,-2.717465648
134.44500,-2.717465648
134.44550,-3.633048871
134.44600,-4.853826502
134.44650,-4.548632094
134.44700,-3.022660056
134.44750,-0.886299202
134.44800,0.02928402113
134.44850,-0.2759103866
134.44900,-0.5811047943
134.44950,-0.5811047943
134.45000,-0.5811047943
134.45050,-0.2759103866
134.45100,0.3344784288
134.45150,1.55525606
134.45200,2.165644875
134.45250,2.470839283
134.45300,4.302005729
134.45350,6.743560991
134.45400,7.659144214
134.45450,5.52278336
134.45500,2.165644875
134.45550,0.3344784288
134.45600,0.02928402113
134.45650,-0.5811047943
134.45700,-1.496688017
134.45750,-0.886299202
134.45800,1.250061652
134.45850,3.996811321
134.45900,4.607200137
134.45950,3.691616914
134.46000,2.77603369
134.46050,1.860450467
134.46100,0.02928402113
134.46150,-1.801882425
134.46200,-2.717465648
134.46250,-2.41227124
134.46300,-2.41227124
134.46350,-3.327854464
134.46400,-4.548632094
134.46450,-4.853826502
134.46500,-3.633048871
134.46550,-2.107076833
134.46600,-2.107076833
134.46650,-3.327854464
134.46700,-4.853826502
134.46750,-4.853826502
134.46800,-4.243437687
134.46850,-4.243437687
134.46900,-5.464215317
134.46950,-6.074604133
134.47000,-4.853826502
134.47050,-2.41227124
134.47100,-1.19149361
134.47150,-0.886299202
134.47200,0.02928402113
134.47250,3.691616914
134.47300,8.269533029
134.47350,10.40589388
134.47400,10.10069948
134.47450,9.795505068
134.47500,11.0162827
134.47550,12.54225474
134.47600,13.15264355
134.47650,13.76303237
134.47700,14.67861559
134.47750,13.76303237
134.47800,9.795505068
134.47850,4.912394544
134.47900,1.55525606
134.47950,-0.2759103866
134.48000,-3.022660056
134.48050,-5.464215317
134.48100,-6.074604133
134.48150,-3.938243279
134.48200,-2.41227124
134.48250,-3.022660056
134.48300,-4.853826502
134.48350,-5.769409725
134.48400,-5.464215317
134.48450,-5.464215317
134.48500,-5.769409725
134.48550,-6.684992948
134.48600,-7.295381764
134.48650,-6.074604133
134.48700,-2.41227124
134.48750,1.55525606
134.48800,4.302005729
134.48850,5.217588952
134.48900,5.217588952
134.48950,5.827977767
134.49000,5.52278336
134.49050,2.470839283
134.49100,-0.5811047943
134.49150,-1.496688017
134.49200,0.02928402113
134.49250,1.55525606
134.49300,0.9448672442
134.49350,0.6396728365
134.49400,2.165644875
134.49450,4.302005729
134.49500,4.302005729
134.49550,2.77603369
134.49600,1.55525606
134.49650,2.165644875
134.49700,2.77603369
134.49750,2.470839283
134.49800,0.9448672442
134.49850,-1.19149361
134.49900,-4.243437687
134.49950,-6.684992948
134.50000,-6.684992948
134.50050,-5.464215317
134.50100,-5.769409725
134.50150,-6.990187356
134.50200,-7.600576171
134.50250,-6.990187356
134.50300,-6.379798541
134.50350,-6.074604133
134.50400,-5.15902091
134.50450,-3.022660056
134.50500,-1.19149361
134.50550,-1.496688017
134.50600,-3.022660056
134.50650,-3.327854464
134.50700,-1.801882425
134.50750,0.02928402113
134.50800,0.3344784288
134.50850,-0.2759103866
134.50900,-0.5811047943
134.50950,0.9448672442
134.51000,3.691616914
134.51050,5.827977767
134.51100,5.52278336
134.51150,4.302005729
134.51200,3.996811321
134.51250,3.081228098
134.51300,1.860450467
134.51350,0.3344784288
134.51400,0.6396728365
134.51450,1.55525606
134.51500,2.165644875
134.51550,2.470839283
134.51600,3.386422506
134.51650,3.996811321
134.51700,3.386422506
134.51750,1.860450467
134.51800,0.9448672442
134.51850,1.250061652
134.51900,1.250061652
134.51950,0.3344784288
134.52000,0.02928402113
134.52050,0.3344784288
134.52100,0.02928402113
134.52150,-2.717465648
134.52200,-5.464215317
134.52250,-6.074604133
134.52300,-5.464215317
134.52350,-5.15902091
134.52400,-6.074604133
134.52450,-6.074604133
134.52500,-4.243437687
134.52550,-1.801882425
134.52600,-0.5811047943
134.52650,0.02928402113
134.52700,0.02928402113
134.52750,0.9448672442
134.52800,0.6396728365
134.52850,-0.5811047943
134.52900,-1.801882425
134.52950,-0.886299202
134.53000,1.55525606
134.53050,4.302005729
134.53100,5.217588952
134.53150,5.52278336
134.53200,5.217588952
134.53250,3.996811321
134.53300,2.165644875
134.53350,1.250061652
134.53400,2.77603369
134.53450,3.691616914
134.53500,1.860450467
134.53550,-0.5811047943
134.53600,-1.801882425
134.53650,-0.2759103866
134.53700,0.3344784288
134.53750,-1.19149361
134.53800,-3.938243279
134.53850,-3.938243279
134.53900,-1.801882425
134.53950,-0.2759103866
134.54000,-0.5811047943
134.54050,-0.886299202
134.54100,0.3344784288
134.54150,1.860450467
134.54200,2.165644875
134.54250,2.470839283
134.54300,2.77603369
134.54350,2.77603369
134.54400,1.250061652
134.54450,-0.2759103866
134.54500,-0.2759103866
134.54550,0.6396728365
134.54600,1.250061652
134.54650,0.3344784288
134.54700,-0.5811047943
134.54750,-1.19149361
134.54800,-0.5811047943
134.54850,0.3344784288
134.54900,1.860450467
134.54950,2.77603369
134.55000,2.77603369
134.55050,2.470839283
134.55100,2.470839283
134.55150,2.77603369
134.55200,3.081228098
134.55250,3.996811321
134.55300,4.912394544
134.55350,4.912394544
134.55400,4.302005729
134.55450,3.996811321
134.55500,4.302005729
134.55550,3.996811321
134.55600,2.165644875
134.55650,0.3344784288
134.55700,0.6396728365
134.55750,2.470839283
134.55800,3.081228098
134.55850,1.250061652
134.55900,-0.886299202
134.55950,-1.801882425
134.56000,-1.496688017
134.56050,-0.886299202
134.56100,-1.801882425
134.56150,-3.022660056
134.56200,-3.022660056
134.56250,-1.801882425
134.56300,-2.107076833
134.56350,-4.853826502
134.56400,-6.990187356
134.56450,-6.074604133
134.56500,-3.633048871
134.56550,-3.022660056
134.56600,-4.548632094
134.56650,-5.464215317
134.56700,-3.938243279
134.56750,-1.801882425
134.56800,-0.886299202
134.56850,-1.801882425
134.56900,-2.41227124
134.56950,-1.496688017
134.57000,1.55525606
134.57050,4.607200137
134.57100,4.302005729
134.57150,1.55525606
134.57200,0.02928402113
134.57250,0.9448672442
134.57300,3.081228098
134.57350,3.081228098
134.57400,2.165644875
134.57450,1.55525606
134.57500,0.6396728365
134.57550,-0.886299202
134.57600,-2.41227124
134.57650,-1.496688017
134.57700,0.02928402113
134.57750,0.02928402113
134.57800,-0.886299202
134.57850,-0.5811047943
134.57900,0.02928402113
134.57950,-0.2759103866
134.58000,-1.496688017
134.58050,-2.107076833
134.58100,-2.717465648
134.58150,-3.633048871
134.58200,-4.548632094
134.58250,-3.633048871
134.58300,-2.107076833
134.58350,-2.107076833
134.58400,-2.717465648
134.58450,-3.022660056
134.58500,-3.022660056
134.58550,-3.327854464
134.58600,-3.633048871
134.58650,-2.107076833
134.58700,-0.2759103866
134.58750,0.3344784288
134.58800,0.02928402113
134.58850,-0.5811047943
134.58900,-1.801882425
134.58950,-3.327854464
134.59000,-2.107076833
134.59050,2.165644875
134.59100,6.133172175
134.59150,5.827977767
134.59200,3.081228098
134.59250,1.860450467
134.59300,3.691616914
134.59350,5.827977767
134.59400,6.133172175
134.59450,6.743560991
134.59500,7.353949806
134.59550,7.048755398
134.59600,4.607200137
134.59650,1.860450467
134.59700,1.55525606
134.59750,2.165644875
134.59800,1.860450467
134.59850,0.02928402113
134.59900,-2.107076833
134.59950,-3.327854464
134.60000,-2.107076833
134.60050,0.02928402113
134.60100,0.02928402113
134.60150,-1.801882425
134.60200,-5.15902091
134.60250,-7.600576171
134.60300,-8.516159395
134.60350,-9.12654821
134.60400,-9.431742618
134.60450,-7.295381764
134.60500,-3.633048871
134.60550,-1.19149361
134.60600,-1.19149361
134.60650,-2.107076833
134.60700,-1.496688017
134.60750,-0.2759103866
134.60800,0.02928402113
134.60850,-0.5811047943
134.60900,-2.107076833
134.60950,-2.717465648
134.61000,-2.717465648
134.61050,-1.496688017
134.61100,0.02928402113
134.61150,1.860450467
134.61200,2.77603369
134.61250,3.996811321
134.61300,5.827977767
134.61350,7.964338621
134.61400,9.49031066
134.61450,9.185116252
134.61500,6.133172175
134.61550,2.470839283
134.61600,0.6396728365
134.61650,1.250061652
134.61700,2.470839283
134.61750,1.55525606
134.61800,-0.2759103866
134.61850,-1.496688017
134.61900,-0.886299202
134.61950,-0.5811047943
134.62000,-2.41227124
134.62050,-4.243437687
134.62100,-4.548632094
134.62150,-3.327854464
134.62200,-2.41227124
134.62250,-2.107076833
134.62300,-2.107076833
134.62350,-2.717465648
134.62400,-3.938243279
134.62450,-5.15902091
134.62500,-4.548632094
134.62550,-2.717465648
134.62600,-1.19149361
134.62650,-2.107076833
134.62700,-4.243437687
134.62750,-5.464215317
134.62800,-3.938243279
134.62850,-0.2759103866
134.62900,2.77603369
134.62950,4.912394544
134.63000,6.438366583
134.63050,7.659144214
134.63100,8.574727437
134.63150,8.269533029
