"type","name","time_units","begin_time","frequency","count","units"
"signal","Ultium EMG-FLEX.CARP.R RT","s",131.98000,2000,22000,"uV"

"time","value"
131.98000,34.7763003
131.98050,12.49710854
131.98100,6.088025976
131.98150,6.393220384
131.98200,5.172442753
131.98250,5.477637161
131.98300,8.834775645
131.98350,8.529581238
131.98400,0.5945266373
131.98450,-7.340527963
131.98500,-8.256111186
131.98550,-4.898972701
131.98600,-3.373000663
131.98650,-4.593778294
131.98700,-4.898972701
131.98750,-2.762611847
131.98800,-1.847028624
131.98850,-3.373000663
131.98900,-6.42494474
131.98950,-8.256111186
131.99000,-7.645722371
131.99050,-4.593778294
131.99100,-1.847028624
131.99150,-2.152223032
131.99200,-5.814555924
131.99250,-8.561305594
131.99300,-7.645722371
131.99350,-4.593778294
131.99400,-3.678195071
131.99450,-5.204167109
131.99500,-6.730139148
131.99550,-5.204167109
131.99600,-2.45741744
131.99650,-1.541834217
131.99700,-3.678195071
131.99750,-7.340527963
131.99800,-10.08727763
131.99850,-11.61324967
131.99900,-11.91844408
131.99950,-10.08727763
132.00000,-6.119750332
132.00050,-1.236639809
132.00100,3.341276307
132.00150,5.782831568
132.00200,4.867248345
132.00250,0.899721045
132.00300,-2.762611847
132.00350,-1.541834217
132.00400,7.003609199
132.00450,18.9061911
132.00500,26.23085688
132.00550,25.01007925
132.00600,17.38021906
132.00650,9.445164461
132.00700,3.341276307
132.00750,-2.45741744
132.00800,-12.52883289
132.00850,-23.51583157
132.00900,-29.61971973
132.00950,-27.17816446
132.01000,-19.85349868
132.01050,-11.00286086
132.01100,-2.762611847
132.01150,4.562053937
132.01200,9.750358868
132.01250,13.41269176
132.01300,17.07502465
132.01350,20.73735755
132.01400,19.51657991
132.01450,11.88671972
132.01500,2.120498676
132.01550,-4.288583886
132.01600,-9.782083225
132.01650,-17.41194342
132.01700,-25.04180361
132.01750,-26.56777565
132.01800,-20.15869309
132.01850,-11.61324967
132.01900,-7.340527963
132.01950,-6.119750332
132.02000,-3.678195071
132.02050,0.5945266373
132.02100,3.341276307
132.02150,2.425693084
132.02200,0.5945266373
132.02250,1.51010986
132.02300,3.951665122
132.02350,3.036081899
132.02400,-2.762611847
132.02450,-9.476888817
132.02500,-11.30805526
132.02550,-8.256111186
132.02600,-4.898972701
132.02650,-4.288583886
132.02700,-6.119750332
132.02750,-7.645722371
132.02800,-5.509361517
132.02850,0.5945266373
132.02900,7.003609199
132.02950,7.003609199
132.03000,1.204915453
132.03050,-1.236639809
132.03100,4.562053937
132.03150,11.88671972
132.03200,8.834775645
132.03250,-3.067806255
132.03300,-10.69766645
132.03350,-8.256111186
132.03400,-2.152223032
132.03450,-0.6262509935
132.03500,-0.3210565858
132.03550,4.25685953
132.03600,11.88671972
132.03650,16.76983025
132.03700,19.82177432
132.03750,24.39969044
132.03800,28.06202333
132.03850,24.70488485
132.03900,13.71788617
132.03950,3.341276307
132.04000,-0.3210565858
132.04050,-2.152223032
132.04100,-7.340527963
132.04150,-14.05480493
132.04200,-16.8015546
132.04250,-13.44441612
132.04300,-7.340527963
132.04350,-1.541834217
132.04400,2.425693084
132.04450,6.088025976
132.04500,8.22438683
132.04550,8.834775645
132.04600,9.139970053
132.04650,9.750358868
132.04700,10.05555328
132.04750,7.613998014
132.04800,2.120498676
132.04850,-3.678195071
132.04900,-6.119750332
132.04950,-3.373000663
132.05000,1.51010986
132.05050,4.562053937
132.05100,4.25685953
132.05150,4.25685953
132.05200,6.393220384
132.05250,8.22438683
132.05300,5.782831568
132.05350,-0.6262509935
132.05400,-8.256111186
132.05450,-13.13922171
132.05500,-12.52883289
132.05550,-7.340527963
132.05600,-1.541834217
132.05650,0.899721045
132.05700,0.2893322296
132.05750,-0.01586217811
132.05800,0.5945266373
132.05850,1.51010986
132.05900,1.204915453
132.05950,2.425693084
132.06000,6.698414791
132.06050,10.36074768
132.06100,9.445164461
132.06150,5.477637161
132.06200,3.951665122
132.06250,4.867248345
132.06300,3.341276307
132.06350,-0.9314454012
132.06400,-4.288583886
132.06450,-4.288583886
132.06500,-5.204167109
132.06550,-7.340527963
132.06600,-7.035333555
132.06650,-2.152223032
132.06700,0.899721045
132.06750,-0.01586217811
132.06800,-0.9314454012
132.06850,3.036081899
132.06900,7.308803607
132.06950,5.782831568
132.07000,2.425693084
132.07050,4.867248345
132.07100,8.834775645
132.07150,6.088025976
132.07200,-2.152223032
132.07250,-5.204167109
132.07300,-0.01586217811
132.07350,4.562053937
132.07400,1.815304268
132.07450,-3.373000663
132.07500,-4.593778294
132.07550,-3.678195071
132.07600,-5.814555924
132.07650,-8.561305594
132.07700,-6.730139148
132.07750,-0.9314454012
132.07800,3.341276307
132.07850,3.036081899
132.07900,0.5945266373
132.07950,-1.236639809
132.08000,-1.236639809
132.08050,-0.3210565858
132.08100,-0.01586217811
132.08150,-0.9314454012
132.08200,-1.847028624
132.08250,-1.847028624
132.08300,-2.762611847
132.08350,-5.814555924
132.08400,-8.866500001
132.08450,-8.256111186
132.08500,-3.983389478
132.08550,0.899721045
132.08600,4.25685953
132.08650,4.25685953
132.08700,-0.9314454012
132.08750,-10.69766645
132.08800,-16.8015546
132.08850,-13.13922171
132.08900,-7.340527963
132.08950,-11.91844408
132.09000,-24.7366092
132.09050,-31.45088617
132.09100,-28.39894209
132.09150,-29.31452532
132.09200,-39.69113518
132.09250,-39.08074636
132.09300,-8.256111186
132.09350,36.91266115
132.09400,61.93860259
132.09450,57.36068647
132.09500,47.28927102
132.09550,50.34121509
132.09600,53.39315917
132.09650,38.43863319
132.09700,13.71788617
132.09750,0.899721045
132.09800,2.425693084
132.09850,4.562053937
132.09900,0.2893322296
132.09950,-3.373000663
132.10000,-2.45741744
132.10050,-1.541834217
132.10100,-4.288583886
132.10150,-7.035333555
132.10200,-7.950916778
132.10250,-10.08727763
132.10300,-13.13922171
132.10350,-12.52883289
132.10400,-7.035333555
132.10450,-1.847028624
132.10500,-0.6262509935
132.10550,-0.9314454012
132.10600,-0.01586217811
132.10650,0.5945266373
132.10700,-0.3210565858
132.10750,-1.236639809
132.10800,0.2893322296
132.10850,1.51010986
132.10900,-0.3210565858
132.10950,-3.983389478
132.11000,-6.119750332
132.11050,-6.119750332
132.11100,-5.204167109
132.11150,-3.983389478
132.11200,-2.45741744
132.11250,-2.152223032
132.11300,-2.762611847
132.11350,-1.236639809
132.11400,2.120498676
132.11450,5.477637161
132.11500,4.562053937
132.11550,-0.01586217811
132.11600,-4.898972701
132.11650,-10.39247204
132.11700,-15.27558256
132.11750,-18.02233223
132.11800,-15.88597138
132.11850,-10.39247204
132.11900,-7.340527963
132.11950,-8.866500001
132.12000,-10.08727763
132.12050,-7.645722371
132.12100,-7.340527963
132.12150,-16.19116579
132.12200,-28.09374769
132.12250,-26.56777565
132.12300,-7.340527963
132.12350,13.41269176
132.12400,18.60099669
132.12450,10.66594209
132.12500,4.867248345
132.12550,4.867248345
132.12600,-0.3210565858
132.12650,-13.74961052
132.12700,-21.68466512
132.12750,-11.91844408
132.12800,5.782831568
132.12850,14.02308058
132.12900,10.9711365
132.12950,8.22438683
132.13000,11.58152531
132.13050,11.88671972
132.13100,3.646470714
132.13150,-5.509361517
132.13200,-5.814555924
132.13250,1.204915453
132.13300,6.393220384
132.13350,5.477637161
132.13400,2.425693084
132.13450,0.5945266373
132.13500,-1.541834217
132.13550,-6.730139148
132.13600,-11.91844408
132.13650,-11.61324967
132.13700,-6.42494474
132.13750,-1.236639809
132.13800,2.120498676
132.13850,8.529581238
132.13900,17.07502465
132.13950,21.34774636
132.14000,17.99060788
132.14050,13.10749735
132.14100,14.9386638
132.14150,19.21138551
132.14200,14.9386638
132.14250,0.899721045
132.14300,-9.171694409
132.14350,-7.340527963
132.14400,-0.01586217811
132.14450,1.51010986
132.14500,-3.983389478
132.14550,-8.866500001
132.14600,-9.476888817
132.14650,-8.256111186
132.14700,-6.119750332
132.14750,-0.01586217811
132.14800,7.613998014
132.14850,8.834775645
132.14900,2.425693084
132.14950,-1.236639809
132.15000,3.036081899
132.15050,9.750358868
132.15100,8.22438683
132.15150,-0.01586217811
132.15200,-3.678195071
132.15250,2.425693084
132.15300,11.88671972
132.15350,14.02308058
132.15400,7.308803607
132.15450,0.2893322296
132.15500,-0.01586217811
132.15550,4.867248345
132.15600,8.22438683
132.15650,4.562053937
132.15700,-2.45741744
132.15750,-6.42494474
132.15800,-3.983389478
132.15850,0.2893322296
132.15900,1.51010986
132.15950,-0.01586217811
132.16000,-0.01586217811
132.16050,3.951665122
132.16100,8.22438683
132.16150,8.834775645
132.16200,6.088025976
132.16250,3.036081899
132.16300,1.815304268
132.16350,1.204915453
132.16400,0.5945266373
132.16450,-0.6262509935
132.16500,-3.067806255
132.16550,-5.814555924
132.16600,-6.730139148
132.16650,-4.898972701
132.16700,-1.847028624
132.16750,-0.01586217811
132.16800,-0.6262509935
132.16850,-2.152223032
132.16900,-2.152223032
132.16950,-0.3210565858
132.17000,1.204915453
132.17050,1.815304268
132.17100,1.815304268
132.17150,3.646470714
132.17200,7.613998014
132.17250,10.9711365
132.17300,9.750358868
132.17350,3.341276307
132.17400,-3.678195071
132.17450,-6.119750332
132.17500,-2.45741744
132.17550,2.730887491
132.17600,4.25685953
132.17650,-1.236639809
132.17700,-10.69766645
132.17750,-16.49636019
132.17800,-14.66519375
132.17850,-7.950916778
132.17900,-3.983389478
132.17950,-6.119750332
132.18000,-12.52883289
132.18050,-18.93791546
132.18100,-21.07427631
132.18150,-18.63272105
132.18200,-15.27558256
132.18250,-13.44441612
132.18300,-12.52883289
132.18350,-7.645722371
132.18400,4.562053937
132.18450,17.99060788
132.18500,23.17891281
132.18550,17.68541347
132.18600,10.36074768
132.18650,8.529581238
132.18700,9.750358868
132.18750,8.22438683
132.18800,6.088025976
132.18850,8.529581238
132.18900,15.24385821
132.18950,18.60099669
132.19000,14.9386638
132.19050,5.477637161
132.19100,-5.814555924
132.19150,-18.02233223
132.19200,-25.95738683
132.19250,-23.21063716
132.19300,-11.30805526
132.19350,-0.6262509935
132.19400,0.5945266373
132.19450,-2.45741744
132.19500,-3.373000663
132.19550,-1.236639809
132.19600,-0.01586217811
132.19650,1.51010986
132.19700,7.919192422
132.19750,17.07502465
132.19800,20.43216314
132.19850,14.02308058
132.19900,4.25685953
132.19950,-0.9314454012
132.20000,-2.45741744
132.20050,-3.373000663
132.20100,-4.288583886
132.20150,-3.373000663
132.20200,-2.762611847
132.20250,-3.678195071
132.20300,-4.288583886
132.20350,-2.762611847
132.20400,-0.6262509935
132.20450,-0.6262509935
132.20500,-2.152223032
132.20550,-3.678195071
132.20600,-6.119750332
132.20650,-8.561305594
132.20700,-7.340527963
132.20750,-1.236639809
132.20800,5.477637161
132.20850,7.613998014
132.20900,6.088025976
132.20950,5.477637161
132.21000,6.088025976
132.21050,5.477637161
132.21100,4.25685953
132.21150,4.25685953
132.21200,4.867248345
132.21250,4.25685953
132.21300,2.730887491
132.21350,1.204915453
132.21400,-0.6262509935
132.21450,-2.762611847
132.21500,-2.45741744
132.21550,-0.6262509935
132.21600,-0.3210565858
132.21650,-0.6262509935
132.21700,1.815304268
132.21750,3.951665122
132.21800,-4.898972701
132.21850,-23.51583157
132.21900,-34.50283025
132.21950,-29.61971973
132.22000,-22.60024835
132.22050,-23.21063716
132.22100,-16.49636019
132.22150,16.15944143
132.22200,61.32821377
132.22250,83.60740553
132.22300,71.09443482
132.22350,44.54252135
132.22400,25.92566248
132.22450,16.15944143
132.22500,7.613998014
132.22550,0.2893322296
132.22600,-4.898972701
132.22650,-11.61324967
132.22700,-17.71713782
132.22750,-14.97038816
132.22800,-3.678195071
132.22850,3.341276307
132.22900,-1.541834217
132.22950,-10.08727763
132.23000,-11.00286086
132.23050,-7.950916778
132.23100,-8.561305594
132.23150,-12.22363849
132.23200,-10.69766645
132.23250,-4.288583886
132.23300,-0.3210565858
132.23350,-2.152223032
132.23400,-4.898972701
132.23450,-6.42494474
132.23500,-7.950916778
132.23550,-8.561305594
132.23600,-4.898972701
132.23650,1.51010986
132.23700,5.172442753
132.23750,4.562053937
132.23800,3.036081899
132.23850,3.341276307
132.23900,3.646470714
132.23950,2.120498676
132.24000,1.204915453
132.24050,0.899721045
132.24100,-2.762611847
132.24150,-12.22363849
132.24200,-22.29505394
132.24250,-27.78855328
132.24300,-27.78855328
132.24350,-22.90544276
132.24400,-12.52883289
132.24450,0.2893322296
132.24500,8.834775645
132.24550,7.919192422
132.24600,2.120498676
132.24650,-0.9314454012
132.24700,-0.6262509935
132.24750,-0.6262509935
132.24800,-1.847028624
132.24850,-2.45741744
132.24900,-1.847028624
132.24950,-1.541834217
132.25000,-2.152223032
132.25050,-2.762611847
132.25100,-2.45741744
132.25150,-0.6262509935
132.25200,4.25685953
132.25250,10.9711365
132.25300,13.41269176
132.25350,8.834775645
132.25400,2.120498676
132.25450,0.5945266373
132.25500,4.25685953
132.25550,6.698414791
132.25600,4.562053937
132.25650,0.899721045
132.25700,-0.9314454012
132.25750,-1.541834217
132.25800,-2.152223032
132.25850,-2.152223032
132.25900,-2.152223032
132.25950,-3.373000663
132.26000,-5.509361517
132.26050,-5.509361517
132.26100,-3.983389478
132.26150,-5.204167109
132.26200,-9.782083225
132.26250,-13.74961052
132.26300,-11.30805526
132.26350,-3.678195071
132.26400,1.815304268
132.26450,2.425693084
132.26500,0.2893322296
132.26550,-0.6262509935
132.26600,-0.01586217811
132.26650,0.5945266373
132.26700,2.730887491
132.26750,6.393220384
132.26800,9.445164461
132.26850,8.529581238
132.26900,4.867248345
132.26950,3.341276307
132.27000,4.867248345
132.27050,4.25685953
132.27100,-2.45741744
132.27150,-11.00286086
132.27200,-14.05480493
132.27250,-10.39247204
132.27300,-2.762611847
132.27350,5.782831568
132.27400,12.80230295
132.27450,13.41269176
132.27500,6.698414791
132.27550,-0.9314454012
132.27600,-2.45741744
132.27650,-0.3210565858
132.27700,-1.236639809
132.27750,-6.119750332
132.27800,-9.476888817
132.27850,-7.035333555
132.27900,-1.847028624
132.27950,2.425693084
132.28000,4.25685953
132.28050,2.120498676
132.28100,-2.762611847
132.28150,-6.42494474
132.28200,-4.593778294
132.28250,-0.01586217811
132.28300,2.120498676
132.28350,1.204915453
132.28400,2.425693084
132.28450,6.088025976
132.28500,7.003609199
132.28550,2.120498676
132.28600,-4.593778294
132.28650,-10.08727763
132.28700,-11.61324967
132.28750,-9.171694409
132.28800,-3.373000663
132.28850,2.730887491
132.28900,7.308803607
132.28950,11.58152531
132.29000,17.07502465
132.29050,19.21138551
132.29100,14.63346939
132.29150,7.919192422
132.29200,7.003609199
132.29250,10.9711365
132.29300,11.58152531
132.29350,5.782831568
132.29400,0.5945266373
132.29450,-0.01586217811
132.29500,-0.01586217811
132.29550,-2.762611847
132.29600,-6.119750332
132.29650,-7.340527963
132.29700,-7.035333555
132.29750,-6.42494474
132.29800,-4.288583886
132.29850,-1.236639809
132.29900,-0.3210565858
132.29950,-2.762611847
132.30000,-3.983389478
132.30050,-1.847028624
132.30100,-0.01586217811
132.30150,-1.541834217
132.30200,-3.983389478
132.30250,-3.678195071
132.30300,-1.541834217
132.30350,-1.236639809
132.30400,-2.152223032
132.30450,-2.45741744
132.30500,-1.236639809
132.30550,-0.9314454012
132.30600,-3.373000663
132.30650,-5.814555924
132.30700,-5.814555924
132.30750,-3.678195071
132.30800,-1.236639809
132.30850,-1.236639809
132.30900,-2.152223032
132.30950,-0.6262509935
132.31000,3.951665122
132.31050,8.834775645
132.31100,8.834775645
132.31150,4.562053937
132.31200,1.204915453
132.31250,2.425693084
132.31300,5.782831568
132.31350,6.698414791
132.31400,3.951665122
132.31450,1.51010986
132.31500,0.899721045
132.31550,0.5945266373
132.31600,-0.6262509935
132.31650,-1.847028624
132.31700,-1.236639809
132.31750,-0.01586217811
132.31800,-0.01586217811
132.31850,-1.847028624
132.31900,-2.45741744
132.31950,-1.236639809
132.32000,-0.9314454012
132.32050,-2.152223032
132.32100,-2.152223032
132.32150,-0.01586217811
132.32200,2.120498676
132.32250,-0.01586217811
132.32300,-4.288583886
132.32350,-7.645722371
132.32400,-8.256111186
132.32450,-6.119750332
132.32500,-0.9314454012
132.32550,6.088025976
132.32600,12.19191413
132.32650,12.80230295
132.32700,8.834775645
132.32750,6.698414791
132.32800,10.05555328
132.32850,16.46463584
132.32900,20.12696873
132.32950,17.99060788
132.33000,12.19191413
132.33050,5.782831568
132.33100,-0.6262509935
132.33150,-10.08727763
132.33200,-22.90544276
132.33250,-32.6716638
132.33300,-30.84049736
132.33350,-19.54830427
132.33400,-7.950916778
132.33450,-2.45741744
132.33500,1.51010986
132.33550,9.445164461
132.33600,14.63346939
132.33650,9.139970053
132.33700,-4.593778294
132.33750,-16.19116579
132.33800,-18.32752664
132.33850,-13.13922171
132.33900,-6.119750332
132.33950,-0.9314454012
132.34000,-0.9314454012
132.34050,-5.814555924
132.34100,-10.08727763
132.34150,-11.30805526
132.34200,-12.8340273
132.34250,-18.02233223
132.34300,-20.7690819
132.34350,-14.35999934
132.34400,-2.762611847
132.34450,3.951665122
132.34500,5.477637161
132.34550,7.003609199
132.34600,10.66594209
132.34650,13.71788617
132.34700,16.76983025
132.34750,20.73735755
132.34800,17.38021906
132.34850,-0.01586217811
132.34900,-21.07427631
132.34950,-27.48335887
132.35000,-20.15869309
132.35050,-16.49636019
132.35100,-18.02233223
132.35150,-3.983389478
132.35200,32.94513385
132.35250,67.12690752
132.35300,68.34768515
132.35350,41.49057727
132.35400,16.76983025
132.35450,10.36074768
132.35500,11.27633091
132.35550,7.919192422
132.35600,1.815304268
132.35650,-0.6262509935
132.35700,-1.236639809
132.35750,-2.152223032
132.35800,-1.847028624
132.35850,-0.01586217811
132.35900,-1.236639809
132.35950,-7.340527963
132.36000,-13.74961052
132.36050,-14.66519375
132.36100,-9.476888817
132.36150,-3.373000663
132.36200,-0.9314454012
132.36250,-2.762611847
132.36300,-4.593778294
132.36350,-3.678195071
132.36400,0.2893322296
132.36450,6.088025976
132.36500,12.19191413
132.36550,17.07502465
132.36600,18.29580228
132.36650,14.63346939
132.36700,8.529581238
132.36750,4.562053937
132.36800,3.036081899
132.36850,1.204915453
132.36900,-0.6262509935
132.36950,-1.236639809
132.37000,-0.01586217811
132.37050,-0.3210565858
132.37100,-2.152223032
132.37150,-2.45741744
132.37200,-0.6262509935
132.37250,-0.01586217811
132.37300,-0.9314454012
132.37350,-2.45741744
132.37400,-3.067806255
132.37450,-2.762611847
132.37500,-1.541834217
132.37550,0.899721045
132.37600,2.730887491
132.37650,1.51010986
132.37700,-0.6262509935
132.37750,-1.847028624
132.37800,-5.509361517
132.37850,-14.35999934
132.37900,-23.51583157
132.37950,-24.43141479
132.38000,-18.63272105
132.38050,-14.66519375
132.38100,-15.88597138
132.38150,-15.27558256
132.38200,-8.256111186
132.38250,-0.6262509935
132.38300,1.815304268
132.38350,0.2893322296
132.38400,-2.152223032
132.38450,-4.898972701
132.38500,-4.593778294
132.38550,-0.3210565858
132.38600,3.341276307
132.38650,0.2893322296
132.38700,-4.288583886
132.38750,-1.236639809
132.38800,6.698414791
132.38850,5.782831568
132.38900,-5.204167109
132.38950,-8.866500001
132.39000,3.646470714
132.39050,17.07502465
132.39100,14.02308058
132.39150,2.120498676
132.39200,-0.01586217811
132.39250,7.613998014
132.39300,9.445164461
132.39350,2.120498676
132.39400,-3.067806255
132.39450,-1.541834217
132.39500,-0.3210565858
132.39550,-3.678195071
132.39600,-5.204167109
132.39650,-1.847028624
132.39700,0.2893322296
132.39750,-0.9314454012
132.39800,-1.541834217
132.39850,3.341276307
132.39900,8.834775645
132.39950,9.139970053
132.40000,6.088025976
132.40050,5.782831568
132.40100,7.613998014
132.40150,7.003609199
132.40200,3.646470714
132.40250,0.5945266373
132.40300,0.2893322296
132.40350,-0.01586217811
132.40400,-0.9314454012
132.40450,-1.847028624
132.40500,-1.236639809
132.40550,-0.01586217811
132.40600,-0.01586217811
132.40650,-0.9314454012
132.40700,-2.45741744
132.40750,-3.373000663
132.40800,-3.678195071
132.40850,-2.762611847
132.40900,-0.9314454012
132.40950,1.51010986
132.41000,3.341276307
132.41050,2.425693084
132.41100,-0.01586217811
132.41150,-3.373000663
132.41200,-4.593778294
132.41250,-3.678195071
132.41300,-0.6262509935
132.41350,1.815304268
132.41400,3.036081899
132.41450,3.341276307
132.41500,3.036081899
132.41550,1.815304268
132.41600,0.2893322296
132.41650,-1.236639809
132.41700,-3.067806255
132.41750,-6.42494474
132.41800,-11.61324967
132.41850,-15.58077697
132.41900,-15.27558256
132.41950,-11.61324967
132.42000,-8.561305594
132.42050,-8.256111186
132.42100,-7.950916778
132.42150,-4.593778294
132.42200,-0.01586217811
132.42250,3.341276307
132.42300,5.782831568
132.42350,7.613998014
132.42400,6.698414791
132.42450,3.646470714
132.42500,1.815304268
132.42550,3.951665122
132.42600,6.393220384
132.42650,6.088025976
132.42700,3.951665122
132.42750,3.341276307
132.42800,2.730887491
132.42850,-0.3210565858
132.42900,-4.593778294
132.42950,-6.119750332
132.43000,-5.814555924
132.43050,-7.340527963
132.43100,-10.08727763
132.43150,-9.476888817
132.43200,-4.898972701
132.43250,-0.9314454012
132.43300,1.204915453
132.43350,3.646470714
132.43400,4.25685953
132.43450,1.204915453
132.43500,-2.45741744
132.43550,-1.847028624
132.43600,-0.6262509935
132.43650,-5.814555924
132.43700,-13.44441612
132.43750,-12.22363849
132.43800,-1.236639809
132.43850,5.782831568
132.43900,2.730887491
132.43950,0.2893322296
132.44000,7.003609199
132.44050,12.80230295
132.44100,5.477637161
132.44150,-9.476888817
132.44200,-17.41194342
132.44250,-12.52883289
132.44300,-3.678195071
132.44350,2.120498676
132.44400,6.698414791
132.44450,10.9711365
132.44500,11.58152531
132.44550,8.529581238
132.44600,7.613998014
132.44650,11.27633091
132.44700,14.63346939
132.44750,11.88671972
132.44800,4.562053937
132.44850,-1.541834217
132.44900,-3.373000663
132.44950,-0.3210565858
132.45000,4.867248345
132.45050,7.613998014
132.45100,5.477637161
132.45150,1.815304268
132.45200,1.51010986
132.45250,4.867248345
132.45300,8.529581238
132.45350,9.445164461
132.45400,8.834775645
132.45450,8.834775645
132.45500,8.834775645
132.45550,7.919192422
132.45600,2.730887491
132.45650,-7.340527963
132.45700,-18.32752664
132.45750,-20.46388749
132.45800,-12.8340273
132.45850,-3.678195071
132.45900,-0.3210565858
132.45950,-0.6262509935
132.46000,-1.847028624
132.46050,-9.782083225
132.46100,-26.26258124
132.46150,-39.38594077
132.46200,-38.47035755
132.46250,-32.97685821
132.46300,-36.33399669
132.46350,-37.85996873
132.46400,-14.66519375
132.46450,28.36721774
132.46500,56.13990884
132.46550,48.81524305
132.46600,27.45163452
132.46650,22.8737184
132.46700,32.63993945
132.46750,34.7763003
132.46800,23.78930162
132.46850,14.9386638
132.46900,16.46463584
132.46950,18.60099669
132.47000,13.71788617
132.47050,8.22438683
132.47100,9.750358868
132.47150,13.71788617
132.47200,10.66594209
132.47250,-0.9314454012
132.47300,-13.13922171
132.47350,-17.71713782
132.47400,-11.91844408
132.47450,-0.9314454012
132.47500,10.05555328
132.47550,19.51657991
132.47600,25.92566248
132.47650,25.31527366
132.47700,12.80230295
132.47750,-7.340527963
132.47800,-22.29505394
132.47850,-22.29505394
132.47900,-11.91844408
132.47950,-3.678195071
132.48000,-1.847028624
132.48050,-1.236639809
132.48100,2.425693084
132.48150,5.782831568
132.48200,2.425693084
132.48250,-6.119750332
132.48300,-12.8340273
132.48350,-13.44441612
132.48400,-9.782083225
132.48450,-3.983389478
132.48500,3.341276307
132.48550,9.750358868
132.48600,8.529581238
132.48650,-1.847028624
132.48700,-12.22363849
132.48750,-12.22363849
132.48800,-4.288583886
132.48850,1.204915453
132.48900,0.5945266373
132.48950,-0.6262509935
132.49000,-1.847028624
132.49050,-7.340527963
132.49100,-16.8015546
132.49150,-21.68466512
132.49200,-16.8015546
132.49250,-6.730139148
132.49300,1.815304268
132.49350,10.05555328
132.49400,18.60099669
132.49450,23.17891281
132.49500,19.51657991
132.49550,10.36074768
132.49600,2.120498676
132.49650,-2.762611847
132.49700,-5.814555924
132.49750,-7.950916778
132.49800,-7.950916778
132.49850,-7.340527963
132.49900,-6.730139148
132.49950,-6.42494474
132.50000,-4.898972701
132.50050,-3.067806255
132.50100,-2.762611847
132.50150,-3.983389478
132.50200,-5.204167109
132.50250,-5.814555924
132.50300,-5.509361517
132.50350,-5.814555924
132.50400,-7.035333555
132.50450,-9.476888817
132.50500,-11.91844408
132.50550,-11.30805526
132.50600,-7.035333555
132.50650,-0.9314454012
132.50700,3.036081899
132.50750,4.25685953
132.50800,2.425693084
132.50850,-0.01586217811
132.50900,-1.236639809
132.50950,-0.3210565858
132.51000,2.425693084
132.51050,5.172442753
132.51100,4.562053937
132.51150,0.2893322296
132.51200,-3.678195071
132.51250,-5.204167109
132.51300,-5.509361517
132.51350,-6.42494474
132.51400,-6.730139148
132.51450,-3.678195071
132.51500,1.51010986
132.51550,5.172442753
132.51600,4.562053937
132.51650,0.5945266373
132.51700,-2.45741744
132.51750,-3.678195071
132.51800,-2.45741744
132.51850,-0.9314454012
132.51900,-0.3210565858
132.51950,-2.762611847
132.52000,-6.42494474
132.52050,-8.561305594
132.52100,-7.645722371
132.52150,-5.814555924
132.52200,-5.814555924
132.52250,-6.42494474
132.52300,-4.898972701
132.52350,-0.9314454012
132.52400,1.51010986
132.52450,1.51010986
132.52500,1.204915453
132.52550,2.730887491
132.52600,5.477637161
132.52650,6.088025976
132.52700,4.562053937
132.52750,2.730887491
132.52800,2.730887491
132.52850,4.562053937
132.52900,5.782831568
132.52950,5.782831568
132.53000,4.562053937
132.53050,2.120498676
132.53100,0.2893322296
132.53150,1.51010986
132.53200,4.867248345
132.53250,3.646470714
132.53300,-5.509361517
132.53350,-19.54830427
132.53400,-27.78855328
132.53450,-23.51583157
132.53500,-8.866500001
132.53550,6.088025976
132.53600,14.32827498
132.53650,15.54905261
132.53700,14.9386638
132.53750,14.02308058
132.53800,10.05555328
132.53850,2.120498676
132.53900,-2.45741744
132.53950,0.5945266373
132.54000,3.036081899
132.54050,-6.42494474
132.54100,-21.98985953
132.54150,-25.65219243
132.54200,-12.8340273
132.54250,1.51010986
132.54300,4.562053937
132.54350,0.899721045
132.54400,-0.6262509935
132.54450,-0.3210565858
132.54500,-1.236639809
132.54550,-0.01586217811
132.54600,5.782831568
132.54650,8.22438683
132.54700,2.730887491
132.54750,-3.678195071
132.54800,-8.256111186
132.54850,-15.88597138
132.54900,-26.87297006
132.54950,-29.31452532
132.55000,-17.10674901
132.55050,-4.288583886
132.55100,-2.152223032
132.55150,3.646470714
132.55200,32.33474504
132.55250,71.39962922
132.55300,89.40609928
132.55350,75.36715652
132.55400,47.28927102
132.55450,21.65294077
132.55500,-1.236639809
132.55550,-23.21063716
132.55600,-33.89244143
132.55650,-27.48335887
132.55700,-11.91844408
132.55750,3.341276307
132.55800,16.76983025
132.55850,27.75682892
132.55900,33.25032826
132.55950,34.47110589
132.56000,38.43863319
132.56050,43.32174372
132.56100,34.7763003
132.56150,5.477637161
132.56200,-27.78855328
132.56250,-43.04827366
132.56300,-36.6391911
132.56350,-24.43141479
132.56400,-19.24310986
132.56450,-19.85349868
132.56500,-19.24310986
132.56550,-17.10674901
132.56600,-14.35999934
132.56650,-10.08727763
132.56700,-2.45741744
132.56750,2.730887491
132.56800,1.204915453
132.56850,-4.898972701
132.56900,-8.256111186
132.56950,-7.035333555
132.57000,-5.814555924
132.57050,-8.866500001
132.57100,-11.61324967
132.57150,-9.476888817
132.57200,-3.373000663
132.57250,1.204915453
132.57300,3.341276307
132.57350,3.951665122
132.57400,3.036081899
132.57450,0.899721045
132.57500,-0.6262509935
132.57550,-1.847028624
132.57600,-3.678195071
132.57650,-6.42494474
132.57700,-7.950916778
132.57750,-6.42494474
132.57800,-4.898972701
132.57850,-4.593778294
132.57900,-1.541834217
132.57950,4.25685953
132.58000,3.646470714
132.58050,-10.39247204
132.58100,-29.31452532
132.58150,-33.58724703
132.58200,-18.32752664
132.58250,2.730887491
132.58300,15.54905261
132.58350,17.07502465
132.58400,14.32827498
132.58450,10.36074768
132.58500,6.393220384
132.58550,3.036081899
132.58600,1.204915453
132.58650,-0.3210565858
132.58700,-3.067806255
132.58750,-4.593778294
132.58800,-4.593778294
132.58850,-3.983389478
132.58900,-2.762611847
132.58950,0.5945266373
132.59000,7.308803607
132.59050,13.41269176
132.59100,14.63346939
132.59150,8.834775645
132.59200,-2.152223032
132.59250,-13.44441612
132.59300,-16.8015546
132.59350,-9.171694409
132.59400,3.951665122
132.59450,13.10749735
132.59500,13.10749735
132.59550,7.919192422
132.59600,3.646470714
132.59650,1.51010986
132.59700,-0.6262509935
132.59750,-4.593778294
132.59800,-7.645722371
132.59850,-7.950916778
132.59900,-7.035333555
132.59950,-7.950916778
132.60000,-10.69766645
132.60050,-11.00286086
132.60100,-7.340527963
132.60150,-3.983389478
132.60200,-3.983389478
132.60250,-5.204167109
132.60300,-2.152223032
132.60350,4.25685953
132.60400,7.308803607
132.60450,3.951665122
132.60500,-0.6262509935
132.60550,-1.541834217
132.60600,1.204915453
132.60650,3.646470714
132.60700,4.867248345
132.60750,6.088025976
132.60800,7.613998014
132.60850,9.139970053
132.60900,9.750358868
132.60950,9.139970053
132.61000,7.308803607
132.61050,5.172442753
132.61100,4.25685953
132.61150,3.646470714
132.61200,1.204915453
132.61250,-2.152223032
132.61300,-4.593778294
132.61350,-4.288583886
132.61400,-3.067806255
132.61450,-2.762611847
132.61500,-2.762611847
132.61550,-2.45741744
132.61600,-4.288583886
132.61650,-8.866500001
132.61700,-12.52883289
132.61750,-11.91844408
132.61800,-6.119750332
132.61850,0.2893322296
132.61900,5.172442753
132.61950,7.308803607
132.62000,8.22438683
132.62050,8.22438683
132.62100,6.698414791
132.62150,3.036081899
132.62200,-0.01586217811
132.62250,-0.01586217811
132.62300,1.51010986
132.62350,1.204915453
132.62400,-0.6262509935
132.62450,-1.541834217
132.62500,-0.6262509935
132.62550,-3.373000663
132.62600,-11.00286086
132.62650,-17.10674901
132.62700,-12.8340273
132.62750,-0.3210565858
132.62800,11.88671972
132.62850,18.60099669
132.62900,19.21138551
132.62950,15.85424702
132.63000,10.66594209
132.63050,5.477637161
132.63100,0.899721045
132.63150,-5.204167109
132.63200,-12.8340273
132.63250,-16.19116579
132.63300,-12.52883289
132.63350,-7.645722371
132.63400,-8.866500001
132.63450,-13.13922171
132.63500,-11.61324967
132.63550,-1.236639809
132.63600,12.19191413
132.63650,23.48410721
132.63700,30.808773
132.63750,30.50357859
132.63800,20.43216314
132.63850,5.477637161
132.63900,-3.373000663
132.63950,-1.541834217
132.64000,5.172442753
132.64050,9.139970053
132.64100,8.529581238
132.64150,8.834775645
132.64200,13.71788617
132.64250,18.29580228
132.64300,18.9061911
132.64350,17.99060788
132.64400,19.21138551
132.64450,16.76983025
132.64500,0.2893322296
132.64550,-26.26258124
132.64600,-42.13269044
132.64650,-35.41841347
132.64700,-23.82102598
132.64750,-28.09374769
132.64800,-37.85996873
132.64850,-22.60024835
132.64900,21.04255195
132.64950,58.88665851
132.65000,61.32821377
132.65050,38.13343878
132.65100,16.76983025
132.65150,8.22438683
132.65200,4.562053937
132.65250,0.2893322296
132.65300,-1.541834217
132.65350,-2.45741744
132.65400,-4.593778294
132.65450,-6.42494474
132.65500,-3.678195071
132.65550,0.5945266373
132.65600,1.204915453
132.65650,-1.541834217
132.65700,-2.762611847
132.65750,-0.6262509935
132.65800,0.2893322296
132.65850,-2.152223032
132.65900,-5.509361517
132.65950,-6.730139148
132.66000,-6.730139148
132.66050,-7.645722371
132.66100,-8.561305594
132.66150,-7.035333555
132.66200,-1.847028624
132.66250,3.646470714
132.66300,6.088025976
132.66350,3.646470714
132.66400,-1.847028624
132.66450,-8.256111186
132.66500,-14.05480493
132.66550,-17.10674901
132.66600,-17.10674901
132.66650,-13.44441612
132.66700,-6.42494474
132.66750,1.815304268
132.66800,8.529581238
132.66850,10.36074768
132.66900,8.529581238
132.66950,8.834775645
132.67000,8.834775645
132.67050,-1.847028624
132.67100,-27.48335887
132.67150,-51.28852267
132.67200,-51.89891149
132.67250,-27.78855328
132.67300,-0.01586217811
132.67350,12.80230295
132.67400,8.22438683
132.67450,-4.288583886
132.67500,-15.58077697
132.67550,-18.63272105
132.67600,-11.00286086
132.67650,-0.01586217811
132.67700,4.25685953
132.67750,1.815304268
132.67800,1.51010986
132.67850,6.698414791
132.67900,10.36074768
132.67950,6.698414791
132.68000,-1.847028624
132.68050,-10.39247204
132.68100,-14.66519375
132.68150,-10.69766645
132.68200,1.204915453
132.68250,12.19191413
132.68300,12.19191413
132.68350,3.341276307
132.68400,-1.236639809
132.68450,1.51010986
132.68500,3.036081899
132.68550,-1.541834217
132.68600,-3.983389478
132.68650,3.951665122
132.68700,16.46463584
132.68750,19.82177432
132.68800,12.19191413
132.68850,3.036081899
132.68900,-0.9314454012
132.68950,-1.847028624
132.69000,-3.067806255
132.69050,-4.593778294
132.69100,-4.288583886
132.69150,-3.373000663
132.69200,-3.067806255
132.69250,-3.983389478
132.69300,-4.593778294
132.69350,-3.373000663
132.69400,-1.236639809
132.69450,-0.01586217811
132.69500,-0.3210565858
132.69550,-0.01586217811
132.69600,0.899721045
132.69650,1.204915453
132.69700,-1.236639809
132.69750,-4.288583886
132.69800,-6.119750332
132.69850,-8.561305594
132.69900,-14.05480493
132.69950,-20.15869309
132.70000,-21.98985953
132.70050,-17.10674901
132.70100,-8.866500001
132.70150,-0.01586217811
132.70200,8.834775645
132.70250,16.46463584
132.70300,23.17891281
132.70350,29.28280096
132.70400,32.33474504
132.70450,28.06202333
132.70500,17.68541347
132.70550,7.919192422
132.70600,4.562053937
132.70650,4.867248345
132.70700,4.562053937
132.70750,4.562053937
132.70800,7.919192422
132.70850,10.36074768
132.70900,8.22438683
132.70950,5.477637161
132.71000,7.919192422
132.71050,10.66594209
132.71100,3.646470714
132.71150,-11.00286086
132.71200,-19.54830427
132.71250,-14.97038816
132.71300,-5.814555924
132.71350,-0.9314454012
132.71400,-0.01586217811
132.71450,0.2893322296
132.71500,-0.6262509935
132.71550,-1.847028624
132.71600,1.51010986
132.71650,7.919192422
132.71700,10.36074768
132.71750,7.308803607
132.71800,6.393220384
132.71850,8.22438683
132.71900,3.646470714
132.71950,-8.256111186
132.72000,-14.97038816
132.72050,-7.645722371
132.72100,3.036081899
132.72150,4.562053937
132.72200,-0.9314454012
132.72250,-4.288583886
132.72300,-5.814555924
132.72350,-10.39247204
132.72400,-14.66519375
132.72450,-12.8340273
132.72500,-8.866500001
132.72550,-8.256111186
132.72600,-7.035333555
132.72650,-0.9314454012
132.72700,0.899721045
132.72750,-9.171694409
132.72800,-19.54830427
132.72850,-8.256111186
132.72900,22.56852399
132.72950,46.06849338
132.73000,43.32174372
132.73050,24.39969044
132.73100,11.27633091
132.73150,8.529581238
132.73200,7.003609199
132.73250,3.646470714
132.73300,3.036081899
132.73350,6.698414791
132.73400,9.139970053
132.73450,7.003609199
132.73500,5.172442753
132.73550,5.782831568
132.73600,4.867248345
132.73650,-0.01586217811
132.73700,-3.983389478
132.73750,-1.236639809
132.73800,4.25685953
132.73850,1.204915453
132.73900,-13.13922171
132.73950,-26.87297006
132.74000,-25.95738683
132.74050,-11.91844408
132.74100,0.899721045
132.74150,1.51010986
132.74200,-6.119750332
132.74250,-10.69766645
132.74300,-6.730139148
132.74350,-0.01586217811
132.74400,4.25685953
132.74450,6.088025976
132.74500,7.613998014
132.74550,4.562053937
132.74600,-9.171694409
132.74650,-28.39894209
132.74700,-37.55477433
132.74750,-31.75608058
132.74800,-22.90544276
132.74850,-19.54830427
132.74900,-11.61324967
132.74950,13.10749735
132.75000,42.7113549
132.75050,51.86718713
132.75100,34.7763003
132.75150,10.05555328
132.75200,-4.288583886
132.75250,-9.476888817
132.75300,-11.30805526
132.75350,-11.00286086
132.75400,-7.950916778
132.75450,-5.814555924
132.75500,-5.509361517
132.75550,-2.45741744
132.75600,0.5945266373
132.75650,-3.983389478
132.75700,-16.8015546
132.75750,-23.21063716
132.75800,-14.35999934
132.75850,-0.3210565858
132.75900,4.867248345
132.75950,1.815304268
132.76000,0.5945266373
132.76050,2.730887491
132.76100,1.204915453
132.76150,-3.067806255
132.76200,-4.288583886
132.76250,-0.01586217811
132.76300,3.036081899
132.76350,3.646470714
132.76400,6.393220384
132.76450,14.02308058
132.76500,19.51657991
132.76550,18.60099669
132.76600,13.71788617
132.76650,10.05555328
132.76700,4.562053937
132.76750,-7.035333555
132.76800,-22.60024835
132.76850,-32.36646939
132.76900,-30.84049736
132.76950,-21.98985953
132.77000,-11.00286086
132.77050,-0.3210565858
132.77100,7.308803607
132.77150,10.36074768
132.77200,7.003609199
132.77250,-1.236639809
132.77300,-11.30805526
132.77350,-17.71713782
132.77400,-16.19116579
132.77450,-9.171694409
132.77500,-3.983389478
132.77550,-4.288583886
132.77600,-5.509361517
132.77650,-0.6262509935
132.77700,8.529581238
132.77750,14.32827498
132.77800,13.10749735
132.77850,10.66594209
132.77900,12.80230295
132.77950,18.9061911
132.78000,21.95813518
132.78050,16.46463584
132.78100,4.25685953
132.78150,-4.288583886
132.78200,-1.541834217
132.78250,7.613998014
132.78300,10.05555328
132.78350,0.899721045
132.78400,-8.561305594
132.78450,-7.950916778
132.78500,-1.541834217
132.78550,-0.01586217811
132.78600,-3.373000663
132.78650,-3.067806255
132.78700,3.951665122
132.78750,10.66594209
132.78800,11.88671972
132.78850,10.36074768
132.78900,9.445164461
132.78950,8.834775645
132.79000,7.003609199
132.79050,5.782831568
132.79100,6.088025976
132.79150,7.003609199
132.79200,5.477637161
132.79250,0.5945266373
132.79300,-5.204167109
132.79350,-8.866500001
132.79400,-7.035333555
132.79450,-2.45741744
132.79500,-0.6262509935
132.79550,-1.847028624
132.79600,0.2893322296
132.79650,8.834775645
132.79700,12.49710854
132.79750,0.899721045
132.79800,-18.63272105
132.79850,-28.39894209
132.79900,-23.21063716
132.79950,-11.91844408
132.80000,-1.847028624
132.80050,10.05555328
132.80100,23.17891281
132.80150,27.45163452
132.80200,20.43216314
132.80250,15.54905261
132.80300,21.04255195
132.80350,24.09449603
132.80400,8.834775645
132.80450,-16.8015546
132.80500,-28.7041365
132.80550,-18.02233223
132.80600,-3.067806255
132.80650,-3.067806255
132.80700,-14.35999934
132.80750,-18.02233223
132.80800,-7.950916778
132.80850,3.951665122
132.80900,4.25685953
132.80950,-6.119750332
132.81000,-15.27558256
132.81050,-15.88597138
132.81100,-11.91844408
132.81150,-10.08727763
132.81200,-9.171694409
132.81250,-3.067806255
132.81300,7.308803607
132.81350,13.71788617
132.81400,10.66594209
132.81450,3.646470714
132.81500,1.815304268
132.81550,6.698414791
132.81600,12.19191413
132.81650,13.10749735
132.81700,10.05555328
132.81750,5.477637161
132.81800,1.51010986
132.81850,-0.3210565858
132.81900,-0.01586217811
132.81950,-0.01586217811
132.82000,-0.6262509935
132.82050,-0.01586217811
132.82100,3.646470714
132.82150,6.088025976
132.82200,3.036081899
132.82250,-1.847028624
132.82300,-1.847028624
132.82350,1.815304268
132.82400,1.204915453
132.82450,-5.814555924
132.82500,-13.13922171
132.82550,-13.44441612
132.82600,-7.035333555
132.82650,0.899721045
132.82700,6.088025976
132.82750,2.120498676
132.82800,-14.05480493
132.82850,-33.89244143
132.82900,-41.52230163
132.82950,-36.33399669
132.83000,-34.19763584
132.83050,-41.52230163
132.83100,-38.47035755
132.83150,-5.204167109
132.83200,43.32174372
132.83250,69.26326837
132.83300,57.36068647
132.83350,29.58799537
132.83400,14.63346939
132.83450,15.54905261
132.83500,18.29580228
132.83550,16.46463584
132.83600,13.10749735
132.83650,10.05555328
132.83700,4.25685953
132.83750,-4.898972701
132.83800,-14.97038816
132.83850,-21.37947072
132.83900,-22.29505394
132.83950,-17.71713782
132.84000,-10.69766645
132.84050,-6.119750332
132.84100,-4.593778294
132.84150,-3.373000663
132.84200,-0.6262509935
132.84250,1.51010986
132.84300,1.204915453
132.84350,0.5945266373
132.84400,2.730887491
132.84450,7.613998014
132.84500,13.10749735
132.84550,16.46463584
132.84600,16.15944143
132.84650,10.05555328
132.84700,-0.3210565858
132.84750,-12.8340273
132.84800,-24.43141479
132.84850,-31.75608058
132.84900,-29.61971973
132.84950,-18.32752664
132.85000,-8.256111186
132.85050,-8.866500001
132.85100,-15.88597138
132.85150,-17.10674901
132.85200,-11.91844408
132.85250,-12.8340273
132.85300,-19.85349868
132.85350,-14.35999934
132.85400,12.19191413
132.85450,39.96460523
132.85500,42.10096608
132.85550,22.26332958
132.85600,6.393220384
132.85650,6.698414791
132.85700,11.88671972
132.85750,10.66594209
132.85800,7.003609199
132.85850,7.003609199
132.85900,6.393220384
132.85950,1.815304268
132.86000,-0.3210565858
132.86050,5.477637161
132.86100,13.10749735
132.86150,10.66594209
132.86200,-1.236639809
132.86250,-11.00286086
132.86300,-12.52883289
132.86350,-11.30805526
132.86400,-14.05480493
132.86450,-17.41194342
132.86500,-13.74961052
132.86550,-0.01586217811
132.86600,17.07502465
132.86650,27.75682892
132.86700,27.45163452
132.86750,20.12696873
132.86800,11.88671972
132.86850,7.308803607
132.86900,7.613998014
132.86950,9.445164461
132.87000,10.05555328
132.87050,7.919192422
132.87100,5.782831568
132.87150,6.698414791
132.87200,9.139970053
132.87250,9.139970053
132.87300,6.698414791
132.87350,4.867248345
132.87400,4.562053937
132.87450,0.899721045
132.87500,-8.561305594
132.87550,-19.24310986
132.87600,-21.98985953
132.87650,-13.74961052
132.87700,-4.593778294
132.87750,-3.983389478
132.87800,-11.30805526
132.87850,-15.27558256
132.87900,-9.171694409
132.87950,1.204915453
132.88000,6.393220384
132.88050,4.867248345
132.88100,2.120498676
132.88150,1.204915453
132.88200,1.51010986
132.88250,2.425693084
132.88300,3.646470714
132.88350,1.815304268
132.88400,-3.983389478
132.88450,-7.340527963
132.88500,-2.152223032
132.88550,3.646470714
132.88600,-0.3210565858
132.88650,-11.30805526
132.88700,-13.74961052
132.88750,-3.983389478
132.88800,3.036081899
132.88850,-2.152223032
132.88900,-11.91844408
132.88950,-14.66519375
132.89000,-10.69766645
132.89050,-4.898972701
132.89100,4.25685953
132.89150,17.07502465
132.89200,24.09449603
132.89250,18.60099669
132.89300,8.22438683
132.89350,4.867248345
132.89400,7.003609199
132.89450,7.003609199
132.89500,3.036081899
132.89550,1.815304268
132.89600,3.951665122
132.89650,4.562053937
132.89700,1.51010986
132.89750,-0.9314454012
132.89800,-1.847028624
132.89850,-3.678195071
132.89900,-7.645722371
132.89950,-10.69766645
132.90000,-12.22363849
132.90050,-13.44441612
132.90100,-14.05480493
132.90150,-10.39247204
132.90200,-1.541834217
132.90250,6.393220384
132.90300,9.139970053
132.90350,7.003609199
132.90400,3.646470714
132.90450,1.51010986
132.90500,2.120498676
132.90550,4.562053937
132.90600,6.698414791
132.90650,5.782831568
132.90700,3.646470714
132.90750,3.646470714
132.90800,6.698414791
132.90850,8.834775645
132.90900,8.834775645
132.90950,9.750358868
132.91000,13.10749735
132.91050,15.24385821
132.91100,12.80230295
132.91150,7.308803607
132.91200,0.2893322296
132.91250,-11.91844408
132.91300,-31.45088617
132.91350,-47.62618978
132.91400,-46.10021774
132.91450,-25.65219243
132.91500,-4.288583886
132.91550,1.815304268
132.91600,-4.288583886
132.91650,-9.782083225
132.91700,-9.171694409
132.91750,-7.645722371
132.91800,-10.39247204
132.91850,-13.44441612
132.91900,-11.61324967
132.91950,-3.067806255
132.92000,9.750358868
132.92050,21.65294077
132.92100,26.23085688
132.92150,18.60099669
132.92200,4.562053937
132.92250,-3.983389478
132.92300,-0.3210565858
132.92350,9.445164461
132.92400,15.24385821
132.92450,11.58152531
132.92500,3.036081899
132.92550,-4.288583886
132.92600,-9.171694409
132.92650,-10.08727763
132.92700,-7.645722371
132.92750,-4.898972701
132.92800,-4.288583886
132.92850,-4.593778294
132.92900,-2.45741744
132.92950,0.5945266373
132.93000,3.341276307
132.93050,8.22438683
132.93100,16.15944143
132.93150,18.29580228
132.93200,6.393220384
132.93250,-11.61324967
132.93300,-19.54830427
132.93350,-16.8015546
132.93400,-19.54830427
132.93450,-27.78855328
132.93500,-18.02233223
132.93550,19.82177432
132.93600,55.52952002
132.93650,51.56199272
132.93700,15.54905261
132.93750,-9.476888817
132.93800,-4.288583886
132.93850,9.445164461
132.93900,10.05555328
132.93950,3.341276307
132.94000,3.951665122
132.94050,6.698414791
132.94100,-1.236639809
132.94150,-17.10674901
132.94200,-25.95738683
132.94250,-23.82102598
132.94300,-17.41194342
132.94350,-10.69766645
132.94400,-1.847028624
132.94450,7.308803607
132.94500,11.27633091
132.94550,8.834775645
132.94600,4.867248345
132.94650,2.730887491
132.94700,0.899721045
132.94750,-0.9314454012
132.94800,-0.6262509935
132.94850,2.730887491
132.94900,5.782831568
132.94950,5.477637161
132.95000,4.25685953
132.95050,4.867248345
132.95100,6.698414791
132.95150,7.308803607
132.95200,4.562053937
132.95250,0.899721045
132.95300,-0.9314454012
132.95350,-1.847028624
132.95400,-2.152223032
132.95450,-1.847028624
132.95500,-0.01586217811
132.95550,3.036081899
132.95600,4.25685953
132.95650,3.341276307
132.95700,0.5945266373
132.95750,-2.45741744
132.95800,-6.119750332
132.95850,-8.561305594
132.95900,-7.340527963
132.95950,-4.898972701
132.96000,-6.119750332
132.96050,-11.91844408
132.96100,-18.02233223
132.96150,-18.02233223
132.96200,-13.44441612
132.96250,-9.476888817
132.96300,-8.256111186
132.96350,-8.256111186
132.96400,-8.256111186
132.96450,-9.476888817
132.96500,-11.30805526
132.96550,-11.30805526
132.96600,-7.645722371
132.96650,-1.541834217
132.96700,3.646470714
132.96750,5.172442753
132.96800,2.425693084
132.96850,0.899721045
132.96900,5.782831568
132.96950,16.15944143
132.97000,22.56852399
132.97050,20.12696873
132.97100,13.71788617
132.97150,9.445164461
132.97200,3.341276307
132.97250,-7.645722371
132.97300,-15.58077697
132.97350,-10.39247204
132.97400,3.646470714
132.97450,12.80230295
132.97500,9.750358868
132.97550,3.951665122
132.97600,3.036081899
132.97650,4.25685953
132.97700,3.036081899
132.97750,2.120498676
132.97800,4.25685953
132.97850,5.172442753
132.97900,2.120498676
132.97950,-1.236639809
132.98000,-1.847028624
132.98050,-0.6262509935
132.98100,-1.847028624
132.98150,-3.067806255
132.98200,-1.847028624
132.98250,-0.01586217811
132.98300,-1.847028624
132.98350,-5.814555924
132.98400,-6.42494474
132.98450,-2.45741744
132.98500,0.899721045
132.98550,0.899721045
132.98600,-1.541834217
132.98650,-4.593778294
132.98700,-7.035333555
132.98750,-8.561305594
132.98800,-9.171694409
132.98850,-9.476888817
132.98900,-10.08727763
132.98950,-8.866500001
132.99000,-5.814555924
132.99050,-3.678195071
132.99100,-5.509361517
132.99150,-6.730139148
132.99200,-1.236639809
132.99250,8.834775645
132.99300,15.85424702
132.99350,13.10749735
132.99400,5.172442753
132.99450,0.2893322296
132.99500,3.646470714
132.99550,10.9711365
132.99600,15.85424702
132.99650,14.02308058
132.99700,6.088025976
132.99750,-2.762611847
132.99800,-8.256111186
132.99850,-9.782083225
132.99900,-10.39247204
132.99950,-11.00286086
133.00000,-8.256111186
133.00050,-2.152223032
133.00100,1.204915453
133.00150,-0.9314454012
133.00200,-6.119750332
133.00250,-7.950916778
133.00300,-7.035333555
133.00350,-8.256111186
133.00400,-9.171694409
133.00450,-5.509361517
133.00500,1.204915453
133.00550,3.951665122
133.00600,3.036081899
133.00650,6.393220384
133.00700,17.68541347
133.00750,27.75682892
133.00800,26.8412457
133.00850,18.29580228
133.00900,12.19191413
133.00950,10.9711365
133.01000,10.05555328
133.01050,7.308803607
133.01100,5.782831568
133.01150,5.782831568
133.01200,3.646470714
133.01250,-0.01586217811
133.01300,-1.541834217
133.01350,-1.541834217
133.01400,-3.678195071
133.01450,-7.645722371
133.01500,-7.035333555
133.01550,-1.541834217
133.01600,1.204915453
133.01650,-0.3210565858
133.01700,-0.01586217811
133.01750,5.477637161
133.01800,5.782831568
133.01850,-7.035333555
133.01900,-24.7366092
133.01950,-31.14569176
133.02000,-24.12622039
133.02050,-15.58077697
133.02100,-11.61324967
133.02150,-9.171694409
133.02200,-6.730139148
133.02250,-6.119750332
133.02300,-4.898972701
133.02350,2.120498676
133.02400,12.19191413
133.02450,14.9386638
133.02500,8.834775645
133.02550,2.730887491
133.02600,2.730887491
133.02650,3.341276307
133.02700,-0.9314454012
133.02750,-5.204167109
133.02800,-3.983389478
133.02850,-0.01586217811
133.02900,2.730887491
133.02950,5.172442753
133.03000,8.834775645
133.03050,11.27633091
133.03100,9.445164461
133.03150,7.308803607
133.03200,10.66594209
133.03250,19.82177432
133.03300,28.97760655
133.03350,32.94513385
133.03400,27.45163452
133.03450,10.66594209
133.03500,-14.35999934
133.03550,-36.94438551
133.03600,-46.10021774
133.03650,-39.99632959
133.03700,-29.92491413
133.03750,-29.00933091
133.03800,-35.41841347
133.03850,-32.36646939
133.03900,-8.256111186
133.03950,27.45163452
133.04000,51.25679832
133.04050,51.56199272
133.04100,39.35421642
133.04150,32.02955063
133.04200,31.41916182
133.04250,28.97760655
133.04300,22.56852399
133.04350,17.07502465
133.04400,16.15944143
133.04450,17.38021906
133.04500,18.9061911
133.04550,20.43216314
133.04600,21.04255195
133.04650,19.82177432
133.04700,17.07502465
133.04750,12.80230295
133.04800,3.341276307
133.04850,-10.69766645
133.04900,-21.07427631
133.04950,-21.37947072
133.05000,-16.19116579
133.05050,-14.35999934
133.05100,-15.58077697
133.05150,-14.05480493
133.05200,-11.00286086
133.05250,-9.782083225
133.05300,-9.476888817
133.05350,-4.898972701
133.05400,0.5945266373
133.05450,-0.01586217811
133.05500,-7.340527963
133.05550,-14.66519375
133.05600,-17.71713782
133.05650,-20.15869309
133.05700,-25.34699802
133.05750,-29.31452532
133.05800,-25.65219243
133.05850,-14.35999934
133.05900,-0.3210565858
133.05950,10.05555328
133.06000,14.9386638
133.06050,16.46463584
133.06100,18.9061911
133.06150,21.65294077
133.06200,17.99060788
133.06250,5.172442753
133.06300,-10.39247204
133.06350,-18.63272105
133.06400,-15.88597138
133.06450,-7.645722371
133.06500,-0.01586217811
133.06550,1.815304268
133.06600,-2.152223032
133.06650,-9.476888817
133.06700,-13.44441612
133.06750,-12.22363849
133.06800,-8.561305594
133.06850,-4.288583886
133.06900,1.204915453
133.06950,6.393220384
133.07000,7.003609199
133.07050,2.730887491
133.07100,-0.01586217811
133.07150,0.899721045
133.07200,1.204915453
133.07250,-1.236639809
133.07300,-1.847028624
133.07350,3.036081899
133.07400,7.919192422
133.07450,6.698414791
133.07500,4.867248345
133.07550,9.139970053
133.07600,13.71788617
133.07650,8.22438683
133.07700,-4.593778294
133.07750,-14.05480493
133.07800,-14.35999934
133.07850,-11.91844408
133.07900,-10.08727763
133.07950,-6.730139148
133.08000,-1.541834217
133.08050,0.2893322296
133.08100,-0.9314454012
133.08150,-1.236639809
133.08200,3.036081899
133.08250,6.698414791
133.08300,5.172442753
133.08350,0.5945266373
133.08400,-2.152223032
133.08450,-3.373000663
133.08500,-5.509361517
133.08550,-8.256111186
133.08600,-8.561305594
133.08650,-6.119750332
133.08700,-3.983389478
133.08750,-4.593778294
133.08800,-6.42494474
133.08850,-6.119750332
133.08900,-4.288583886
133.08950,-3.678195071
133.09000,-3.983389478
133.09050,-3.067806255
133.09100,-0.3210565858
133.09150,0.899721045
133.09200,0.5945266373
133.09250,0.5945266373
133.09300,1.51010986
133.09350,2.120498676
133.09400,1.51010986
133.09450,2.120498676
133.09500,3.951665122
133.09550,2.425693084
133.09600,-1.847028624
133.09650,-0.9314454012
133.09700,8.834775645
133.09750,17.68541347
133.09800,11.88671972
133.09850,-6.730139148
133.09900,-24.43141479
133.09950,-32.36646939
133.10000,-32.97685821
133.10050,-31.45088617
133.10100,-29.92491413
133.10150,-27.48335887
133.10200,-19.85349868
133.10250,-0.01586217811
133.10300,28.67241215
133.10350,47.59446542
133.10400,40.57499405
133.10450,16.46463584
133.10500,-0.6262509935
133.10550,-2.45741744
133.10600,0.5945266373
133.10650,-0.3210565858
133.10700,-0.01586217811
133.10750,6.393220384
133.10800,14.02308058
133.10850,14.9386638
133.10900,12.80230295
133.10950,12.49710854
133.11000,10.66594209
133.11050,3.341276307
133.11100,-3.678195071
133.11150,-4.593778294
133.11200,-2.762611847
133.11250,-6.119750332
133.11300,-12.52883289
133.11350,-12.22363849
133.11400,-5.509361517
133.11450,-2.45741744
133.11500,-6.119750332
133.11550,-5.509361517
133.11600,5.172442753
133.11650,14.32827498
133.11700,6.393220384
133.11750,-12.52883289
133.11800,-24.7366092
133.11850,-25.95738683
133.11900,-28.39894209
133.11950,-33.89244143
133.12000,-22.90544276
133.12050,15.85424702
133.12100,62.24379699
133.12150,80.25026705
133.12200,62.24379699
133.12250,34.47110589
133.12300,22.56852399
133.12350,23.48410721
133.12400,18.29580228
133.12450,0.2893322296
133.12500,-16.49636019
133.12550,-18.93791546
133.12600,-8.256111186
133.12650,3.341276307
133.12700,7.919192422
133.12750,6.698414791
133.12800,3.951665122
133.12850,0.5945266373
133.12900,-4.898972701
133.12950,-10.08727763
133.13000,-10.08727763
133.13050,-5.204167109
133.13100,-0.6262509935
133.13150,0.5945266373
133.13200,3.646470714
133.13250,9.139970053
133.13300,12.80230295
133.13350,10.9711365
133.13400,7.003609199
133.13450,5.477637161
133.13500,3.951665122
133.13550,-3.373000663
133.13600,-14.05480493
133.13650,-18.32752664
133.13700,-13.13922171
133.13750,-6.730139148
133.13800,-6.730139148
133.13850,-11.30805526
133.13900,-14.05480493
133.13950,-13.74961052
133.14000,-13.13922171
133.14050,-13.13922171
133.14100,-10.08727763
133.14150,-2.45741744
133.14200,5.782831568
133.14250,9.139970053
133.14300,7.003609199
133.14350,4.867248345
133.14400,6.698414791
133.14450,10.36074768
133.14500,10.36074768
133.14550,6.393220384
133.14600,3.951665122
133.14650,5.172442753
133.14700,7.003609199
133.14750,6.088025976
133.14800,3.646470714
133.14850,1.815304268
133.14900,-1.236639809
133.14950,-7.645722371
133.15000,-12.8340273
133.15050,-13.13922171
133.15100,-10.69766645
133.15150,-11.91844408
133.15200,-17.41194342
133.15250,-22.90544276
133.15300,-24.7366092
133.15350,-21.68466512
133.15400,-13.74961052
133.15450,-2.45741744
133.15500,9.445164461
133.15550,18.60099669
133.15600,21.04255195
133.15650,14.32827498
133.15700,-0.9314454012
133.15750,-18.02233223
133.15800,-24.7366092
133.15850,-17.71713782
133.15900,-7.035333555
133.15950,-3.983389478
133.16000,-7.035333555
133.16050,-9.782083225
133.16100,-11.30805526
133.16150,-14.66519375
133.16200,-15.58077697
133.16250,-7.645722371
133.16300,4.867248345
133.16350,11.27633091
133.16400,9.139970053
133.16450,8.834775645
133.16500,15.24385821
133.16550,19.82177432
133.16600,14.9386638
133.16650,4.867248345
133.16700,-0.3210565858
133.16750,0.2893322296
133.16800,2.730887491
133.16850,2.425693084
133.16900,-0.3210565858
133.16950,-1.847028624
133.17000,1.204915453
133.17050,8.834775645
133.17100,14.02308058
133.17150,10.66594209
133.17200,1.204915453
133.17250,-5.204167109
133.17300,-3.373000663
133.17350,2.120498676
133.17400,3.951665122
133.17450,0.2893322296
133.17500,-2.45741744
133.17550,-0.3210565858
133.17600,4.25685953
133.17650,6.393220384
133.17700,2.730887491
133.17750,-1.847028624
133.17800,-3.067806255
133.17850,-0.9314454012
133.17900,1.204915453
133.17950,0.899721045
133.18000,-0.3210565858
133.18050,-0.6262509935
133.18100,-0.3210565858
133.18150,-0.6262509935
133.18200,-1.541834217
133.18250,-1.541834217
133.18300,-0.3210565858
133.18350,2.425693084
133.18400,6.088025976
133.18450,6.698414791
133.18500,3.646470714
133.18550,1.815304268
133.18600,3.951665122
133.18650,7.308803607
133.18700,4.867248345
133.18750,-2.152223032
133.18800,-7.950916778
133.18850,-7.645722371
133.18900,-5.204167109
133.18950,-5.509361517
133.19000,-7.035333555
133.19050,-6.119750332
133.19100,-2.152223032
133.19150,0.5945266373
133.19200,0.5945266373
133.19250,-0.01586217811
133.19300,0.899721045
133.19350,4.25685953
133.19400,5.477637161
133.19450,3.036081899
133.19500,0.5945266373
133.19550,2.120498676
133.19600,7.003609199
133.19650,9.750358868
133.19700,7.003609199
133.19750,1.815304268
133.19800,-1.541834217
133.19850,-2.762611847
133.19900,-2.45741744
133.19950,-0.9314454012
133.20000,-0.01586217811
133.20050,-0.01586217811
133.20100,-0.3210565858
133.20150,0.2893322296
133.20200,0.2893322296
133.20250,-1.541834217
133.20300,-3.983389478
133.20350,-2.45741744
133.20400,2.425693084
133.20450,6.088025976
133.20500,6.088025976
133.20550,6.088025976
133.20600,8.529581238
133.20650,10.66594209
133.20700,10.66594209
133.20750,8.22438683
133.20800,3.646470714
133.20850,-3.373000663
133.20900,-10.39247204
133.20950,-13.44441612
133.21000,-12.52883289
133.21050,-12.22363849
133.21100,-13.44441612
133.21150,-9.782083225
133.21200,1.51010986
133.21250,11.88671972
133.21300,9.750358868
133.21350,-7.645722371
133.21400,-30.23010854
133.21450,-43.65866248
133.21500,-41.82749603
133.21550,-32.97685821
133.21600,-30.23010854
133.21650,-34.50283025
133.21700,-28.09374769
133.21750,4.25685953
133.21800,50.34121509
133.21850,74.4515733
133.21900,58.88665851
133.21950,23.48410721
133.22000,2.425693084
133.22050,4.867248345
133.22100,11.58152531
133.22150,5.477637161
133.22200,-9.171694409
133.22250,-19.54830427
133.22300,-18.93791546
133.22350,-9.782083225
133.22400,3.036081899
133.22450,15.24385821
133.22500,21.04255195
133.22550,18.60099669
133.22600,13.41269176
133.22650,11.27633091
133.22700,11.27633091
133.22750,9.750358868
133.22800,6.393220384
133.22850,5.477637161
133.22900,6.088025976
133.22950,3.036081899
133.23000,-3.067806255
133.23050,-7.035333555
133.23100,-3.373000663
133.23150,2.120498676
133.23200,3.646470714
133.23250,0.5945266373
133.23300,-2.152223032
133.23350,-5.204167109
133.23400,-10.39247204
133.23450,-16.8015546
133.23500,-20.15869309
133.23550,-18.63272105
133.23600,-13.44441612
133.23650,-5.204167109
133.23700,3.341276307
133.23750,7.308803607
133.23800,4.562053937
133.23850,1.815304268
133.23900,6.698414791
133.23950,15.24385821
133.24000,14.32827498
133.24050,1.204915453
133.24100,-13.13922171
133.24150,-18.02233223
133.24200,-16.19116579
133.24250,-14.35999934
133.24300,-11.30805526
133.24350,-3.678195071
133.24400,4.25685953
133.24450,5.477637161
133.24500,0.5945266373
133.24550,-2.45741744
133.24600,-1.541834217
133.24650,-0.01586217811
133.24700,-0.01586217811
133.24750,0.2893322296
133.24800,2.730887491
133.24850,4.25685953
133.24900,3.036081899
133.24950,1.815304268
133.25000,2.425693084
133.25050,5.172442753
133.25100,8.834775645
133.25150,12.80230295
133.25200,14.32827498
133.25250,12.80230295
133.25300,10.9711365
133.25350,11.27633091
133.25400,10.66594209
133.25450,5.782831568
133.25500,-0.3210565858
133.25550,-2.45741744
133.25600,-1.847028624
133.25650,-3.373000663
133.25700,-4.593778294
133.25750,-0.01586217811
133.25800,8.22438683
133.25850,10.05555328
133.25900,4.25685953
133.25950,0.2893322296
133.26000,2.730887491
133.26050,2.730887491
133.26100,-6.42494474
133.26150,-18.32752664
133.26200,-21.07427631
133.26250,-13.44441612
133.26300,-5.509361517
133.26350,-2.762611847
133.26400,-3.983389478
133.26450,-4.593778294
133.26500,-1.847028624
133.26550,2.730887491
133.26600,5.477637161
133.26650,1.51010986
133.26700,-6.730139148
133.26750,-11.30805526
133.26800,-7.035333555
133.26850,0.899721045
133.26900,4.867248345
133.26950,4.867248345
133.27000,7.003609199
133.27050,11.58152531
133.27100,13.10749735
133.27150,9.750358868
133.27200,4.867248345
133.27250,0.5945266373
133.27300,-3.373000663
133.27350,-6.42494474
133.27400,-5.814555924
133.27450,-2.45741744
133.27500,-2.152223032
133.27550,-6.119750332
133.27600,-7.645722371
133.27650,-1.236639809
133.27700,7.919192422
133.27750,12.19191413
133.27800,9.139970053
133.27850,3.951665122
133.27900,-0.01586217811
133.27950,-3.678195071
133.28000,-6.42494474
133.28050,-4.288583886
133.28100,0.5945266373
133.28150,2.730887491
133.28200,0.899721045
133.28250,0.2893322296
133.28300,3.646470714
133.28350,5.477637161
133.28400,1.815304268
133.28450,-2.762611847
133.28500,-2.45741744
133.28550,1.815304268
133.28600,5.782831568
133.28650,9.139970053
133.28700,13.10749735
133.28750,12.49710854
133.28800,3.341276307
133.28850,-7.035333555
133.28900,-8.256111186
133.28950,-0.9314454012
133.29000,3.646470714
133.29050,0.2893322296
133.29100,-5.509361517
133.29150,-7.645722371
133.29200,-6.42494474
133.29250,-5.204167109
133.29300,-4.288583886
133.29350,-2.762611847
133.29400,-3.067806255
133.29450,-5.509361517
133.29500,-7.645722371
133.29550,-8.256111186
133.29600,-8.256111186
133.29650,-7.645722371
133.29700,-5.204167109
133.29750,-1.541834217
133.29800,-0.3210565858
133.29850,-2.152223032
133.29900,-3.067806255
133.29950,-0.6262509935
133.30000,0.5945266373
133.30050,-2.45741744
133.30100,-7.645722371
133.30150,-9.476888817
133.30200,-6.42494474
133.30250,-2.152223032
133.30300,0.2893322296
133.30350,0.899721045
133.30400,-0.01586217811
133.30450,-1.847028624
133.30500,-4.593778294
133.30550,-6.119750332
133.30600,-4.288583886
133.30650,-0.01586217811
133.30700,5.172442753
133.30750,8.22438683
133.30800,6.698414791
133.30850,2.425693084
133.30900,-0.01586217811
133.30950,1.204915453
133.31000,5.172442753
133.31050,7.003609199
133.31100,5.477637161
133.31150,2.730887491
133.31200,3.036081899
133.31250,8.834775645
133.31300,15.85424702
133.31350,17.07502465
133.31400,11.58152531
133.31450,6.698414791
133.31500,6.088025976
133.31550,3.036081899
133.31600,-8.561305594
133.31650,-24.7366092
133.31700,-33.28205262
133.31750,-29.00933091
133.31800,-17.10674901
133.31850,-1.847028624
133.31900,12.19191413
133.31950,16.76983025
133.32000,4.562053937
133.32050,-16.19116579
133.32100,-30.23010854
133.32150,-33.58724703
133.32200,-33.58724703
133.32250,-29.00933091
133.32300,-5.204167109
133.32350,39.35421642
133.32400,82.3866279
133.32450,98.2567371
133.32500,82.08143349
133.32550,46.06849338
133.32600,4.867248345
133.32650,-27.17816446
133.32700,-38.47035755
133.32750,-28.09374769
133.32800,-8.561305594
133.32850,6.698414791
133.32900,14.02308058
133.32950,14.63346939
133.33000,11.27633091
133.33050,9.445164461
133.33100,15.54905261
133.33150,23.78930162
133.33200,20.43216314
133.33250,3.036081899
133.33300,-13.74961052
133.33350,-20.46388749
133.33400,-20.15869309
133.33450,-20.7690819
133.33500,-23.21063716
133.33550,-27.48335887
133.33600,-35.11321906
133.33650,-35.41841347
133.33700,-13.44441612
133.33750,24.39969044
133.33800,46.37368779
133.33850,32.33474504
133.33900,1.204915453
133.33950,-13.13922171
133.34000,-5.509361517
133.34050,2.425693084
133.34100,-1.541834217
133.34150,-11.61324967
133.34200,-18.32752664
133.34250,-21.37947072
133.34300,-21.37947072
133.34350,-16.8015546
133.34400,-9.476888817
133.34450,-5.814555924
133.34500,-6.42494474
133.34550,-5.814555924
133.34600,-1.541834217
133.34650,0.5945266373
133.34700,-3.067806255
133.34750,-8.866500001
133.34800,-9.782083225
133.34850,-2.45741744
133.34900,9.750358868
133.34950,21.04255195
133.35000,23.78930162
133.35050,15.85424702
133.35100,4.562053937
133.35150,-1.541834217
133.35200,-2.152223032
133.35250,-2.45741744
133.35300,-6.42494474
133.35350,-10.08727763
133.35400,-8.866500001
133.35450,-4.898972701
133.35500,-1.847028624
133.35550,-0.9314454012
133.35600,-0.6262509935
133.35650,1.204915453
133.35700,4.562053937
133.35750,6.088025976
133.35800,3.036081899
133.35850,-3.983389478
133.35900,-10.69766645
133.35950,-10.69766645
133.36000,-4.898972701
133.36050,1.204915453
133.36100,3.646470714
133.36150,2.730887491
133.36200,0.5945266373
133.36250,-2.762611847
133.36300,-5.814555924
133.36350,-5.509361517
133.36400,-0.9314454012
133.36450,2.425693084
133.36500,0.899721045
133.36550,-1.847028624
133.36600,-0.01586217811
133.36650,7.003609199
133.36700,10.05555328
133.36750,6.088025976
133.36800,0.899721045
133.36850,-0.01586217811
133.36900,-1.236639809
133.36950,-7.035333555
133.37000,-15.27558256
133.37050,-18.32752664
133.37100,-14.05480493
133.37150,-6.42494474
133.37200,0.5945266373
133.37250,5.477637161
133.37300,7.613998014
133.37350,7.919192422
133.37400,6.393220384
133.37450,3.646470714
133.37500,-0.3210565858
133.37550,-2.45741744
133.37600,0.2893322296
133.37650,5.172442753
133.37700,5.172442753
133.37750,0.5945266373
133.37800,-0.01586217811
133.37850,4.867248345
133.37900,6.393220384
133.37950,-0.6262509935
133.38000,-8.561305594
133.38050,-5.814555924
133.38100,2.425693084
133.38150,3.646470714
133.38200,-4.288583886
133.38250,-10.39247204
133.38300,-8.256111186
133.38350,-4.288583886
133.38400,-5.814555924
133.38450,-8.256111186
133.38500,-5.814555924
133.38550,-0.6262509935
133.38600,0.2893322296
133.38650,-1.236639809
133.38700,-0.01586217811
133.38750,5.477637161
133.38800,12.49710854
133.38850,17.99060788
133.38900,21.95813518
133.38950,22.8737184
133.39000,17.99060788
133.39050,10.05555328
133.39100,4.562053937
133.39150,3.036081899
133.39200,3.646470714
133.39250,3.951665122
133.39300,4.25685953
133.39350,4.25685953
133.39400,2.120498676
133.39450,-1.236639809
133.39500,-4.898972701
133.39550,-7.645722371
133.39600,-10.39247204
133.39650,-12.22363849
133.39700,-11.00286086
133.39750,-7.645722371
133.39800,-4.898972701
133.39850,-2.762611847
133.39900,0.2893322296
133.39950,3.341276307
133.40000,3.341276307
133.40050,2.425693084
133.40100,6.698414791
133.40150,16.46463584
133.40200,23.48410721
133.40250,21.04255195
133.40300,12.80230295
133.40350,6.698414791
133.40400,4.867248345
133.40450,5.172442753
133.40500,6.393220384
133.40550,9.445164461
133.40600,12.19191413
133.40650,9.750358868
133.40700,1.204915453
133.40750,-6.42494474
133.40800,-7.950916778
133.40850,-4.593778294
133.40900,-5.814555924
133.40950,-14.35999934
133.41000,-22.60024835
133.41050,-22.29505394
133.41100,-18.02233223
133.41150,-18.32752664
133.41200,-16.8015546
133.41250,3.036081899
133.41300,42.40616049
133.41350,73.84118449
133.41400,72.01001804
133.41450,44.54252135
133.41500,20.43216314
133.41550,10.9711365
133.41600,0.2893322296
133.41650,-22.90544276
133.41700,-46.10021774
133.41750,-48.84696741
133.41800,-33.28205262
133.41850,-18.32752664
133.41900,-15.88597138
133.41950,-18.02233223
133.42000,-13.74961052
133.42050,-3.373000663
133.42100,3.646470714
133.42150,3.951665122
133.42200,2.730887491
133.42250,3.646470714
133.42300,2.425693084
133.42350,-6.42494474
133.42400,-19.54830427
133.42450,-26.87297006
133.42500,-23.51583157
133.42550,-15.58077697
133.42600,-10.08727763
133.42650,-6.42494474
133.42700,0.2893322296
133.42750,9.139970053
133.42800,13.41269176
133.42850,11.27633091
133.42900,7.308803607
133.42950,4.867248345
133.43000,1.204915453
133.43050,-6.119750332
133.43100,-15.58077697
133.43150,-18.63272105
133.43200,-11.30805526
133.43250,2.120498676
133.43300,13.41269176
133.43350,15.85424702
133.43400,11.27633091
133.43450,6.393220384
133.43500,6.698414791
133.43550,9.445164461
133.43600,9.139970053
133.43650,3.646470714
133.43700,-2.45741744
133.43750,-6.42494474
133.43800,-8.561305594
133.43850,-11.30805526
133.43900,-14.97038816
133.43950,-16.49636019
133.44000,-13.44441612
133.44050,-5.509361517
133.44100,2.730887491
133.44150,6.698414791
133.44200,3.341276307
133.44250,-1.847028624
133.44300,-2.45741744
133.44350,2.425693084
133.44400,7.613998014
133.44450,8.529581238
133.44500,6.393220384
133.44550,5.477637161
133.44600,7.919192422
133.44650,12.19191413
133.44700,15.54905261
133.44750,14.02308058
133.44800,7.613998014
133.44850,-0.01586217811
133.44900,-4.288583886
133.44950,-4.898972701
133.45000,-4.288583886
133.45050,-3.678195071
133.45100,-1.847028624
133.45150,0.2893322296
133.45200,-0.01586217811
133.45250,-4.288583886
133.45300,-9.782083225
133.45350,-13.74961052
133.45400,-14.66519375
133.45450,-12.22363849
133.45500,-9.171694409
133.45550,-9.782083225
133.45600,-12.8340273
133.45650,-10.39247204
133.45700,1.204915453
133.45750,13.71788617
133.45800,14.02308058
133.45850,2.425693084
133.45900,-7.340527963
133.45950,-6.42494474
133.46000,2.425693084
133.46050,11.58152531
133.46100,16.46463584
133.46150,16.15944143
133.46200,11.88671972
133.46250,7.308803607
133.46300,5.782831568
133.46350,5.782831568
133.46400,5.477637161
133.46450,6.088025976
133.46500,10.05555328
133.46550,14.9386638
133.46600,14.02308058
133.46650,7.919192422
133.46700,0.5945266373
133.46750,-4.288583886
133.46800,-7.645722371
133.46850,-9.171694409
133.46900,-7.340527963
133.46950,-4.288583886
133.47000,-2.152223032
133.47050,-0.01586217811
133.47100,3.951665122
133.47150,5.477637161
133.47200,0.899721045
133.47250,-5.509361517
133.47300,-9.171694409
133.47350,-8.256111186
133.47400,-6.730139148
133.47450,-4.593778294
133.47500,-1.236639809
133.47550,-0.01586217811
133.47600,-3.983389478
133.47650,-8.561305594
133.47700,-5.509361517
133.47750,3.646470714
133.47800,10.05555328
133.47850,8.22438683
133.47900,2.425693084
133.47950,-1.541834217
133.48000,-3.983389478
133.48050,-7.035333555
133.48100,-8.256111186
133.48150,-7.035333555
133.48200,-6.42494474
133.48250,-8.561305594
133.48300,-10.08727763
133.48350,-6.730139148
133.48400,-1.541834217
133.48450,-0.3210565858
133.48500,-3.983389478
133.48550,-6.119750332
133.48600,-2.762611847
133.48650,2.120498676
133.48700,4.25685953
133.48750,3.036081899
133.48800,-0.01586217811
133.48850,-3.678195071
133.48900,-5.814555924
133.48950,-1.847028624
133.49000,7.919192422
133.49050,15.54905261
133.49100,14.9386638
133.49150,8.529581238
133.49200,4.867248345
133.49250,4.867248345
133.49300,2.730887491
133.49350,-1.847028624
133.49400,-2.45741744
133.49450,4.562053937
133.49500,14.02308058
133.49550,16.15944143
133.49600,10.36074768
133.49650,3.036081899
133.49700,-0.3210565858
133.49750,-0.9314454012
133.49800,-1.236639809
133.49850,-1.541834217
133.49900,-0.9314454012
133.49950,-0.9314454012
133.50000,-3.373000663
133.50050,-4.898972701
133.50100,-3.067806255
133.50150,-1.236639809
133.50200,-6.119750332
133.50250,-15.88597138
133.50300,-19.24310986
133.50350,-11.30805526
133.50400,-1.541834217
133.50450,1.204915453
133.50500,1.204915453
133.50550,6.393220384
133.50600,14.32827498
133.50650,17.07502465
133.50700,17.68541347
133.50750,21.95813518
133.50800,25.31527366
133.50850,17.99060788
133.50900,3.036081899
133.50950,-7.035333555
133.51000,-11.61324967
133.51050,-20.46388749
133.51100,-34.50283025
133.51150,-44.26905129
133.51200,-46.71060656
133.51250,-47.62618978
133.51300,-43.04827366
133.51350,-19.85349868
133.51400,16.15944143
133.51450,39.04902201
133.51500,31.72435622
133.51550,8.22438683
133.51600,-7.950916778
133.51650,-10.08727763
133.51700,-3.373000663
133.51750,9.139970053
133.51800,22.8737184
133.51850,27.75682892
133.51900,21.04255195
133.51950,14.63346939
133.52000,16.76983025
133.52050,17.68541347
133.52100,6.393220384
133.52150,-8.866500001
133.52200,-13.74961052
133.52250,-7.645722371
133.52300,-3.067806255
133.52350,-4.898972701
133.52400,-6.119750332
133.52450,-2.152223032
133.52500,2.120498676
133.52550,3.951665122
133.52600,4.562053937
133.52650,4.562053937
133.52700,2.425693084
133.52750,-0.3210565858
133.52800,-0.01586217811
133.52850,5.477637161
133.52900,12.19191413
133.52950,15.85424702
133.53000,15.24385821
133.53050,10.66594209
133.53100,3.341276307
133.53150,-0.9314454012
133.53200,-0.01586217811
133.53250,2.730887491
133.53300,2.425693084
133.53350,-0.6262509935
133.53400,-3.067806255
133.53450,-2.45741744
133.53500,-1.541834217
133.53550,-2.152223032
133.53600,-3.373000663
133.53650,-4.593778294
133.53700,-7.645722371
133.53750,-10.69766645
133.53800,-10.39247204
133.53850,-7.340527963
133.53900,-6.119750332
133.53950,-7.340527963
133.54000,-6.730139148
133.54050,-0.9314454012
133.54100,5.172442753
133.54150,5.782831568
133.54200,1.204915453
133.54250,-1.847028624
133.54300,-0.01586217811
133.54350,5.477637161
133.54400,9.750358868
133.54450,11.27633091
133.54500,10.36074768
133.54550,7.919192422
133.54600,4.25685953
133.54650,0.5945266373
133.54700,-1.236639809
133.54750,-0.9314454012
133.54800,0.899721045
133.54850,2.730887491
133.54900,1.815304268
133.54950,-0.9314454012
133.55000,-3.678195071
133.55050,-3.678195071
133.55100,-2.152223032
133.55150,-1.541834217
133.55200,-2.45741744
133.55250,-2.762611847
133.55300,-0.9314454012
133.55350,0.5945266373
133.55400,-0.6262509935
133.55450,-5.814555924
133.55500,-10.08727763
133.55550,-8.561305594
133.55600,-4.898972701
133.55650,-4.288583886
133.55700,-5.814555924
133.55750,-3.067806255
133.55800,3.951665122
133.55850,7.003609199
133.55900,-0.6262509935
133.55950,-14.66519375
133.56000,-23.21063716
133.56050,-21.98985953
133.56100,-14.35999934
133.56150,-4.898972701
133.56200,3.646470714
133.56250,8.834775645
133.56300,10.36074768
133.56350,9.750358868
133.56400,9.445164461
133.56450,9.750358868
133.56500,9.750358868
133.56550,9.750358868
133.56600,8.529581238
133.56650,3.036081899
133.56700,-5.509361517
133.56750,-10.08727763
133.56800,-7.950916778
133.56850,-5.509361517
133.56900,-5.204167109
133.56950,-1.847028624
133.57000,9.139970053
133.57050,21.34774636
133.57100,23.78930162
133.57150,17.68541347
133.57200,10.05555328
133.57250,2.730887491
133.57300,-6.730139148
133.57350,-15.27558256
133.57400,-14.97038816
133.57450,-6.42494474
133.57500,0.5945266373
133.57550,1.204915453
133.57600,-1.541834217
133.57650,-3.678195071
133.57700,-5.204167109
133.57750,-6.730139148
133.57800,-6.119750332
133.57850,-4.288583886
133.57900,-3.678195071
133.57950,-3.983389478
133.58000,-3.983389478
133.58050,-3.067806255
133.58100,-2.762611847
133.58150,-3.067806255
133.58200,-2.152223032
133.58250,-1.541834217
133.58300,-3.067806255
133.58350,-5.509361517
133.58400,-5.204167109
133.58450,-2.762611847
133.58500,-1.236639809
133.58550,-1.236639809
133.58600,-1.236639809
133.58650,-1.236639809
133.58700,-0.9314454012
133.58750,1.51010986
133.58800,8.529581238
133.58850,15.24385821
133.58900,14.9386638
133.58950,8.22438683
133.59000,2.120498676
133.59050,0.2893322296
133.59100,0.5945266373
133.59150,-0.01586217811
133.59200,-0.9314454012
133.59250,-0.9314454012
133.59300,-0.3210565858
133.59350,-0.01586217811
133.59400,1.815304268
133.59450,3.951665122
133.59500,4.25685953
133.59550,3.341276307
133.59600,2.730887491
133.59650,2.730887491
133.59700,1.51010986
133.59750,-0.3210565858
133.59800,-1.541834217
133.59850,-0.6262509935
133.59900,0.5945266373
133.59950,0.2893322296
133.60000,-0.6262509935
133.60050,-2.45741744
133.60100,-3.983389478
133.60150,-4.593778294
133.60200,-3.373000663
133.60250,-2.152223032
133.60300,-2.152223032
133.60350,-2.152223032
133.60400,-0.6262509935
133.60450,1.204915453
133.60500,1.51010986
133.60550,0.5945266373
133.60600,0.899721045
133.60650,2.120498676
133.60700,0.5945266373
133.60750,-3.983389478
133.60800,-7.340527963
133.60850,-4.898972701
133.60900,1.204915453
133.60950,7.308803607
133.61000,8.834775645
133.61050,4.867248345
133.61100,-1.236639809
133.61150,-6.730139148
133.61200,-7.340527963
133.61250,-4.288583886
133.61300,-0.6262509935
133.61350,1.51010986
133.61400,1.815304268
133.61450,1.204915453
133.61500,1.204915453
133.61550,3.646470714
133.61600,5.477637161
133.61650,4.25685953
133.61700,0.899721045
133.61750,-0.6262509935
133.61800,-2.152223032
133.61850,-9.171694409
133.61900,-23.51583157
133.61950,-37.24957992
133.62000,-42.43788485
133.62050,-37.24957992
133.62100,-21.07427631
133.62150,2.425693084
133.62200,21.04255195
133.62250,19.21138551
133.62300,-0.01586217811
133.62350,-16.49636019
133.62400,-19.85349868
133.62450,-21.98985953
133.62500,-31.14569176
133.62550,-29.61971973
133.62600,1.815304268
133.62650,49.42563187
133.62700,75.67235093
133.62750,64.99054666
133.62800,38.13343878
133.62850,18.9061911
133.62900,9.750358868
133.62950,3.646470714
133.63000,0.899721045
133.63050,3.646470714
133.63100,6.088025976
133.63150,4.867248345
133.63200,3.646470714
133.63250,6.698414791
133.63300,10.05555328
133.63350,8.529581238
133.63400,3.646470714
133.63450,-0.01586217811
133.63500,-2.152223032
133.63550,-5.509361517
133.63600,-7.645722371
133.63650,-6.42494474
133.63700,-3.067806255
133.63750,-0.9314454012
133.63800,-0.3210565858
133.63850,-0.01586217811
133.63900,0.2893322296
133.63950,1.204915453
133.64000,2.120498676
133.64050,2.120498676
133.64100,-0.01586217811
133.64150,-3.373000663
133.64200,-5.204167109
133.64250,-3.983389478
133.64300,-1.847028624
133.64350,0.2893322296
133.64400,3.646470714
133.64450,8.529581238
133.64500,12.19191413
133.64550,12.80230295
133.64600,9.750358868
133.64650,4.562053937
133.64700,0.899721045
133.64750,1.204915453
133.64800,5.172442753
133.64850,7.003609199
133.64900,4.25685953
133.64950,0.2893322296
133.65000,1.204915453
133.65050,4.562053937
133.65100,3.951665122
133.65150,-2.152223032
133.65200,-9.476888817
133.65250,-12.8340273
133.65300,-12.22363849
133.65350,-8.561305594
133.65400,-0.6262509935
133.65450,9.445164461
133.65500,13.71788617
133.65550,7.613998014
133.65600,-0.9314454012
133.65650,-1.847028624
133.65700,6.088025976
133.65750,14.32827498
133.65800,15.24385821
133.65850,10.66594209
133.65900,4.867248345
133.65950,-0.01586217811
133.66000,-3.678195071
133.66050,-6.730139148
133.66100,-11.30805526
133.66150,-18.93791546
133.66200,-25.04180361
133.66250,-22.90544276
133.66300,-14.66519375
133.66350,-11.30805526
133.66400,-17.41194342
133.66450,-23.21063716
133.66500,-17.10674901
133.66550,-2.152223032
133.66600,5.782831568
133.66650,0.899721045
133.66700,-7.645722371
133.66750,-9.171694409
133.66800,-4.593778294
133.66850,-3.067806255
133.66900,-6.42494474
133.66950,-8.256111186
133.67000,-3.983389478
133.67050,1.815304268
133.67100,3.646470714
133.67150,1.51010986
133.67200,0.5945266373
133.67250,4.25685953
133.67300,9.139970053
133.67350,11.88671972
133.67400,13.10749735
133.67450,14.63346939
133.67500,14.32827498
133.67550,6.698414791
133.67600,-7.950916778
133.67650,-22.60024835
133.67700,-28.09374769
133.67750,-25.04180361
133.67800,-18.02233223
133.67850,-12.52883289
133.67900,-10.08727763
133.67950,-9.171694409
133.68000,-6.42494474
133.68050,-0.3210565858
133.68100,7.003609199
133.68150,12.19191413
133.68200,14.63346939
133.68250,15.54905261
133.68300,13.41269176
133.68350,6.088025976
133.68400,-3.067806255
133.68450,-4.288583886
133.68500,5.782831568
133.68550,17.07502465
133.68600,17.07502465
133.68650,7.613998014
133.68700,1.204915453
133.68750,3.646470714
133.68800,7.919192422
133.68850,5.172442753
133.68900,-2.762611847
133.68950,-7.645722371
133.69000,-5.509361517
133.69050,-0.9314454012
133.69100,0.2893322296
133.69150,-0.9314454012
133.69200,-1.541834217
133.69250,0.5945266373
133.69300,3.646470714
133.69350,4.562053937
133.69400,3.646470714
133.69450,2.730887491
133.69500,2.120498676
133.69550,1.51010986
133.69600,1.51010986
133.69650,3.036081899
133.69700,4.25685953
133.69750,1.204915453
133.69800,-4.288583886
133.69850,-8.866500001
133.69900,-9.171694409
133.69950,-6.730139148
133.70000,-5.509361517
133.70050,-5.814555924
133.70100,-6.119750332
133.70150,-4.898972701
133.70200,-1.541834217
133.70250,2.730887491
133.70300,6.393220384
133.70350,7.308803607
133.70400,6.088025976
133.70450,4.562053937
133.70500,3.036081899
133.70550,1.51010986
133.70600,-0.01586217811
133.70650,-0.6262509935
133.70700,-0.01586217811
133.70750,1.815304268
133.70800,2.730887491
133.70850,2.425693084
133.70900,0.899721045
133.70950,-0.3210565858
133.71000,-1.236639809
133.71050,-0.9314454012
133.71100,0.5945266373
133.71150,3.036081899
133.71200,4.25685953
133.71250,2.730887491
133.71300,0.899721045
133.71350,2.120498676
133.71400,6.088025976
133.71450,9.139970053
133.71500,7.919192422
133.71550,3.341276307
133.71600,-0.01586217811
133.71650,-1.236639809
133.71700,-0.6262509935
133.71750,0.2893322296
133.71800,1.51010986
133.71850,1.51010986
133.71900,0.2893322296
133.71950,-0.01586217811
133.72000,0.899721045
133.72050,0.899721045
133.72100,-3.983389478
133.72150,-12.8340273
133.72200,-18.63272105
133.72250,-18.02233223
133.72300,-13.13922171
133.72350,-9.476888817
133.72400,-8.256111186
133.72450,-6.42494474
133.72500,-0.6262509935
133.72550,8.22438683
133.72600,16.15944143
133.72650,18.60099669
133.72700,17.38021906
133.72750,14.9386638
133.72800,10.36074768
133.72850,-0.6262509935
133.72900,-14.35999934
133.72950,-19.24310986
133.73000,-9.782083225
133.73050,3.036081899
133.73100,7.613998014
133.73150,3.646470714
133.73200,-1.236639809
133.73250,-7.645722371
133.73300,-18.32752664
133.73350,-26.26258124
133.73400,-23.51583157
133.73450,-17.41194342
133.73500,-19.24310986
133.73550,-21.98985953
133.73600,-3.373000663
133.73650,35.38668912
133.73700,63.46457462
133.73750,57.66588088
133.73800,31.41916182
133.73850,12.80230295
133.73900,8.529581238
133.73950,5.477637161
133.74000,-0.6262509935
133.74050,-1.541834217
133.74100,3.646470714
133.74150,6.698414791
133.74200,2.730887491
133.74250,-0.9314454012
133.74300,-0.3210565858
133.74350,0.5945266373
133.74400,-2.45741744
133.74450,-7.035333555
133.74500,-7.645722371
133.74550,-5.204167109
133.74600,-3.067806255
133.74650,-2.45741744
133.74700,-1.847028624
133.74750,-0.3210565858
133.74800,0.899721045
133.74850,2.425693084
133.74900,2.730887491
133.74950,2.120498676
133.75000,0.899721045
133.75050,-0.01586217811
133.75100,-0.3210565858
133.75150,-0.3210565858
133.75200,0.5945266373
133.75250,2.425693084
133.75300,4.25685953
133.75350,4.25685953
133.75400,0.899721045
133.75450,-4.898972701
133.75500,-9.782083225
133.75550,-10.69766645
133.75600,-8.866500001
133.75650,-8.561305594
133.75700,-10.08727763
133.75750,-9.171694409
133.75800,-3.067806255
133.75850,4.562053937
133.75900,9.445164461
133.75950,9.750358868
133.76000,7.308803607
133.76050,3.341276307
133.76100,-1.541834217
133.76150,-7.340527963
133.76200,-12.22363849
133.76250,-15.58077697
133.76300,-16.19116579
133.76350,-15.27558256
133.76400,-14.97038816
133.76450,-16.49636019
133.76500,-13.74961052
133.76550,-3.373000663
133.76600,8.22438683
133.76650,12.19191413
133.76700,9.139970053
133.76750,9.445164461
133.76800,13.41269176
133.76850,10.66594209
133.76900,-1.847028624
133.76950,-10.69766645
133.77000,-4.288583886
133.77050,8.834775645
133.77100,14.02308058
133.77150,8.834775645
133.77200,1.51010986
133.77250,-2.762611847
133.77300,-4.898972701
133.77350,-3.678195071
133.77400,0.899721045
133.77450,4.25685953
133.77500,2.120498676
133.77550,-1.541834217
133.77600,-1.236639809
133.77650,1.815304268
133.77700,1.51010986
133.77750,-2.45741744
133.77800,-7.035333555
133.77850,-10.69766645
133.77900,-13.44441612
133.77950,-13.44441612
133.78000,-7.950916778
133.78050,-0.01586217811
133.78100,6.088025976
133.78150,11.27633091
133.78200,15.54905261
133.78250,12.49710854
133.78300,-2.762611847
133.78350,-23.51583157
133.78400,-32.97685821
133.78450,-25.34699802
133.78500,-10.69766645
133.78550,-1.541834217
133.78600,-0.01586217811
133.78650,-0.01586217811
133.78700,3.341276307
133.78750,7.308803607
133.78800,8.529581238
133.78850,6.393220384
133.78900,2.730887491
133.78950,0.2893322296
133.79000,-0.01586217811
133.79050,-0.3210565858
133.79100,-1.847028624
133.79150,-4.288583886
133.79200,-4.898972701
133.79250,-3.373000663
133.79300,-2.45741744
133.79350,-3.678195071
133.79400,-4.898972701
133.79450,-2.45741744
133.79500,2.730887491
133.79550,4.867248345
133.79600,1.204915453
133.79650,-4.593778294
133.79700,-8.256111186
133.79750,-10.39247204
133.79800,-12.8340273
133.79850,-13.13922171
133.79900,-7.950916778
133.79950,1.204915453
133.80000,8.529581238
133.80050,10.05555328
133.80100,8.834775645
133.80150,8.834775645
133.80200,11.88671972
133.80250,14.32827498
133.80300,13.41269176
133.80350,6.698414791
133.80400,-2.152223032
133.80450,-7.645722371
133.80500,-4.593778294
133.80550,3.646470714
133.80600,9.750358868
133.80650,9.445164461
133.80700,6.393220384
133.80750,4.25685953
133.80800,3.341276307
133.80850,2.120498676
133.80900,1.204915453
133.80950,2.120498676
133.81000,3.646470714
133.81050,2.730887491
133.81100,-0.01586217811
133.81150,-1.541834217
133.81200,-0.01586217811
133.81250,1.815304268
133.81300,2.425693084
133.81350,2.120498676
133.81400,3.951665122
133.81450,7.003609199
133.81500,8.529581238
133.81550,4.867248345
133.81600,-1.847028624
133.81650,-7.645722371
133.81700,-8.256111186
133.81750,-4.898972701
133.81800,-1.847028624
133.81850,-1.541834217
133.81900,-2.152223032
133.81950,-1.847028624
133.82000,-0.01586217811
133.82050,2.120498676
133.82100,4.562053937
133.82150,6.698414791
133.82200,7.308803607
133.82250,6.393220384
133.82300,6.088025976
133.82350,6.698414791
133.82400,6.393220384
133.82450,4.25685953
133.82500,2.425693084
133.82550,2.425693084
133.82600,2.120498676
133.82650,2.425693084
133.82700,5.172442753
133.82750,7.003609199
133.82800,-0.3210565858
133.82850,-15.58077697
133.82900,-23.51583157
133.82950,-20.15869309
133.83000,-22.29505394
133.83050,-39.69113518
133.83100,-48.23657859
133.83150,-18.32752664
133.83200,38.7438276
133.83250,75.06196212
133.83300,63.46457462
133.83350,26.8412457
133.83400,2.120498676
133.83450,-0.6262509935
133.83500,3.036081899
133.83550,5.782831568
133.83600,7.919192422
133.83650,8.529581238
133.83700,6.088025976
133.83750,3.646470714
133.83800,3.646470714
133.83850,0.899721045
133.83900,-8.256111186
133.83950,-17.10674901
133.84000,-15.88597138
133.84050,-6.42494474
133.84100,0.2893322296
133.84150,-0.01586217811
133.84200,-4.288583886
133.84250,-7.035333555
133.84300,-7.340527963
133.84350,-6.42494474
133.84400,-3.678195071
133.84450,-0.3210565858
133.84500,0.899721045
133.84550,1.204915453
133.84600,2.425693084
133.84650,6.393220384
133.84700,11.58152531
133.84750,14.9386638
133.84800,12.49710854
133.84850,4.25685953
133.84900,-3.678195071
133.84950,-6.730139148
133.85000,-5.814555924
133.85050,-5.509361517
133.85100,-6.119750332
133.85150,-4.593778294
133.85200,-1.847028624
133.85250,-2.152223032
133.85300,-6.730139148
133.85350,-8.561305594
133.85400,-2.45741744
133.85450,6.393220384
133.85500,10.9711365
133.85550,9.750358868
133.85600,6.088025976
133.85650,2.730887491
133.85700,0.899721045
133.85750,1.204915453
133.85800,3.341276307
133.85850,5.782831568
133.85900,6.698414791
133.85950,7.613998014
133.86000,7.308803607
133.86050,3.951665122
133.86100,-1.236639809
133.86150,-4.288583886
133.86200,-2.152223032
133.86250,-0.3210565858
133.86300,-4.898972701
133.86350,-13.13922171
133.86400,-17.41194342
133.86450,-13.44441612
133.86500,-6.42494474
133.86550,-1.541834217
133.86600,-0.01586217811
133.86650,0.2893322296
133.86700,-0.6262509935
133.86750,-4.593778294
133.86800,-8.256111186
133.86850,-8.256111186
133.86900,-5.204167109
133.86950,-3.373000663
133.87000,-5.509361517
133.87050,-9.476888817
133.87100,-10.08727763
133.87150,-7.645722371
133.87200,-5.509361517
133.87250,-5.204167109
133.87300,-3.067806255
133.87350,1.51010986
133.87400,5.782831568
133.87450,4.562053937
133.87500,-0.01586217811
133.87550,-3.067806255
133.87600,-1.541834217
133.87650,3.036081899
133.87700,9.445164461
133.87750,13.71788617
133.87800,12.19191413
133.87850,4.25685953
133.87900,-4.898972701
133.87950,-9.171694409
133.88000,-7.645722371
133.88050,-5.509361517
133.88100,-5.814555924
133.88150,-7.645722371
133.88200,-9.476888817
133.88250,-9.782083225
133.88300,-6.119750332
133.88350,1.51010986
133.88400,8.529581238
133.88450,8.22438683
133.88500,3.036081899
133.88550,0.5945266373
133.88600,3.646470714
133.88650,7.308803607
133.88700,9.139970053
133.88750,12.19191413
133.88800,16.46463584
133.88850,17.38021906
133.88900,11.88671972
133.88950,3.951665122
133.89000,-0.01586217811
133.89050,-0.3210565858
133.89100,0.5945266373
133.89150,3.341276307
133.89200,6.698414791
133.89250,8.529581238
133.89300,9.139970053
133.89350,11.88671972
133.89400,16.76983025
133.89450,15.54905261
133.89500,4.867248345
133.89550,-7.340527963
133.89600,-11.91844408
133.89650,-10.39247204
133.89700,-12.22363849
133.89750,-20.15869309
133.89800,-28.39894209
133.89850,-31.75608058
133.89900,-28.09374769
133.89950,-17.71713782
133.90000,-1.541834217
133.90050,12.19191413
133.90100,15.54905261
133.90150,7.919192422
133.90200,-0.01586217811
133.90250,-0.9314454012
133.90300,1.815304268
133.90350,-0.01586217811
133.90400,-8.256111186
133.90450,-14.66519375
133.90500,-13.74961052
133.90550,-7.340527963
133.90600,-1.847028624
133.90650,0.2893322296
133.90700,1.204915453
133.90750,2.425693084
133.90800,2.120498676
133.90850,0.2893322296
133.90900,-0.9314454012
133.90950,-1.541834217
133.91000,-1.847028624
133.91050,-1.236639809
133.91100,1.51010986
133.91150,6.698414791
133.91200,10.66594209
133.91250,11.27633091
133.91300,9.445164461
133.91350,4.867248345
133.91400,-3.678195071
133.91450,-14.05480493
133.91500,-17.71713782
133.91550,-10.39247204
133.91600,2.120498676
133.91650,9.750358868
133.91700,6.088025976
133.91750,-4.288583886
133.91800,-12.52883289
133.91850,-14.05480493
133.91900,-11.91844408
133.91950,-12.22363849
133.92000,-15.27558256
133.92050,-14.97038816
133.92100,-7.035333555
133.92150,4.562053937
133.92200,13.71788617
133.92250,15.54905261
133.92300,11.27633091
133.92350,4.867248345
133.92400,0.899721045
133.92450,2.730887491
133.92500,6.698414791
133.92550,6.698414791
133.92600,3.951665122
133.92650,5.477637161
133.92700,10.9711365
133.92750,10.05555328
133.92800,1.204915453
133.92850,-3.678195071
133.92900,-1.847028624
133.92950,-8.866500001
133.93000,-31.45088617
133.93050,-44.26905129
133.93100,-18.32752664
133.93150,32.94513385
133.93200,66.82171311
133.93250,61.63340818
133.93300,37.21785556
133.93350,17.99060788
133.93400,6.393220384
133.93450,-3.678195071
133.93500,-8.256111186
133.93550,-2.762611847
133.93600,3.646470714
133.93650,2.120498676
133.93700,-3.678195071
133.93750,-6.119750332
133.93800,-4.593778294
133.93850,-4.593778294
133.93900,-7.340527963
133.93950,-7.645722371
133.94000,-5.204167109
133.94050,-2.45741744
133.94100,-2.762611847
133.94150,-6.730139148
133.94200,-10.39247204
133.94250,-7.645722371
133.94300,0.5945266373
133.94350,7.003609199
133.94400,5.782831568
133.94450,2.425693084
133.94500,4.25685953
133.94550,6.088025976
133.94600,-1.847028624
133.94650,-16.19116579
133.94700,-20.7690819
133.94750,-10.69766645
133.94800,0.5945266373
133.94850,3.951665122
133.94900,3.036081899
133.94950,4.562053937
133.95000,6.698414791
133.95050,6.088025976
133.95100,3.951665122
133.95150,3.341276307
133.95200,1.815304268
133.95250,-1.541834217
133.95300,-5.204167109
133.95350,-6.42494474
133.95400,-5.509361517
133.95450,-2.152223032
133.95500,3.646470714
133.95550,9.445164461
133.95600,7.003609199
133.95650,-1.847028624
133.95700,-7.645722371
133.95750,-5.509361517
133.95800,-3.983389478
133.95850,-13.44441612
133.95900,-30.23010854
133.95950,-41.21710722
133.96000,-38.47035755
133.96050,-26.26258124
133.96100,-13.44441612
133.96150,-7.340527963
133.96200,-7.950916778
133.96250,-8.561305594
133.96300,-3.678195071
133.96350,3.341276307
133.96400,5.172442753
133.96450,1.815304268
133.96500,2.730887491
133.96550,12.49710854
133.96600,22.56852399
133.96650,24.09449603
133.96700,20.73735755
133.96750,19.82177432
133.96800,20.43216314
133.96850,15.24385821
133.96900,7.613998014
133.96950,6.393220384
133.97000,11.58152531
133.97050,14.02308058
133.97100,10.05555328
133.97150,6.088025976
133.97200,6.393220384
133.97250,6.088025976
133.97300,1.815304268
133.97350,-2.152223032
133.97400,-0.9314454012
133.97450,2.425693084
133.97500,3.646470714
133.97550,1.815304268
133.97600,-0.01586217811
133.97650,-3.373000663
133.97700,-8.256111186
133.97750,-11.91844408
133.97800,-11.61324967
133.97850,-8.256111186
133.97900,-4.288583886
133.97950,-0.9314454012
133.98000,2.120498676
133.98050,4.562053937
133.98100,6.698414791
133.98150,9.750358868
133.98200,11.27633091
133.98250,6.088025976
133.98300,-4.593778294
133.98350,-12.8340273
133.98400,-13.74961052
133.98450,-10.69766645
133.98500,-9.782083225
133.98550,-9.171694409
133.98600,-5.509361517
133.98650,-0.01586217811
133.98700,4.562053937
133.98750,10.36074768
133.98800,20.12696873
133.98850,28.36721774
133.98900,25.62046807
133.98950,13.41269176
133.99000,2.425693084
133.99050,-0.3210565858
133.99100,-0.01586217811
133.99150,-1.541834217
133.99200,-3.983389478
133.99250,-4.593778294
133.99300,-4.898972701
133.99350,-7.950916778
133.99400,-12.22363849
133.99450,-14.35999934
133.99500,-12.8340273
133.99550,-9.782083225
133.99600,-7.340527963
133.99650,-7.035333555
133.99700,-7.340527963
133.99750,-4.288583886
133.99800,3.341276307
133.99850,12.49710854
133.99900,16.46463584
133.99950,13.71788617
134.00000,7.308803607
134.00050,0.5945266373
134.00100,-3.678195071
134.00150,-4.593778294
134.00200,-2.762611847
134.00250,-2.152223032
134.00300,-4.288583886
134.00350,-7.035333555
134.00400,-7.645722371
134.00450,-6.730139148
134.00500,-6.119750332
134.00550,-5.509361517
134.00600,-2.762611847
134.00650,2.120498676
134.00700,8.529581238
134.00750,13.10749735
134.00800,13.41269176
134.00850,9.445164461
134.00900,5.782831568
134.00950,6.088025976
134.01000,8.22438683
134.01050,6.088025976
134.01100,-0.01586217811
134.01150,-4.593778294
134.01200,-3.983389478
134.01250,-2.152223032
134.01300,-2.762611847
134.01350,-3.678195071
134.01400,-2.762611847
134.01450,-3.373000663
134.01500,-7.950916778
134.01550,-13.13922171
134.01600,-16.49636019
134.01650,-18.02233223
134.01700,-19.54830427
134.01750,-17.71713782
134.01800,-8.561305594
134.01850,7.613998014
134.01900,26.53605129
134.01950,39.65941082
134.02000,41.79577168
134.02050,37.52304997
134.02100,37.52304997
134.02150,42.10096608
134.02200,38.13343878
134.02250,14.9386638
134.02300,-14.97038816
134.02350,-29.31452532
134.02400,-22.90544276
134.02450,-14.97038816
134.02500,-22.29505394
134.02550,-35.11321906
134.02600,-34.80802466
134.02650,-20.15869309
134.02700,-9.476888817
134.02750,-15.27558256
134.02800,-28.39894209
134.02850,-34.80802466
134.02900,-34.19763584
134.02950,-37.55477433
134.03000,-43.65866248
134.03050,-32.6716638
134.03100,4.562053937
134.03150,47.59446542
134.03200,64.68535225
134.03250,50.34121509
134.03300,27.45163452
134.03350,14.9386638
134.03400,10.36074768
134.03450,5.172442753
134.03500,1.815304268
134.03550,4.867248345
134.03600,8.529581238
134.03650,5.477637161
134.03700,-0.6262509935
134.03750,-3.373000663
134.03800,-2.45741744
134.03850,-3.067806255
134.03900,-4.288583886
134.03950,-1.236639809
134.04000,3.646470714
134.04050,5.477637161
134.04100,3.646470714
134.04150,3.036081899
134.04200,3.951665122
134.04250,2.730887491
134.04300,-0.3210565858
134.04350,-3.373000663
134.04400,-4.288583886
134.04450,-5.204167109
134.04500,-5.509361517
134.04550,-3.983389478
134.04600,-2.152223032
134.04650,-3.678195071
134.04700,-7.645722371
134.04750,-9.171694409
134.04800,-4.898972701
134.04850,3.341276307
134.04900,11.58152531
134.04950,15.85424702
134.05000,14.63346939
134.05050,10.66594209
134.05100,6.393220384
134.05150,2.120498676
134.05200,-3.373000663
134.05250,-9.476888817
134.05300,-13.13922171
134.05350,-14.66519375
134.05400,-15.88597138
134.05450,-15.88597138
134.05500,-10.69766645
134.05550,0.2893322296
134.05600,12.19191413
134.05650,17.99060788
134.05700,16.76983025
134.05750,13.71788617
134.05800,13.41269176
134.05850,15.85424702
134.05900,17.38021906
134.05950,16.15944143
134.06000,13.41269176
134.06050,12.19191413
134.06100,10.66594209
134.06150,3.951665122
134.06200,-7.035333555
134.06250,-15.58077697
134.06300,-14.66519375
134.06350,-8.256111186
134.06400,-4.593778294
134.06450,-5.814555924
134.06500,-4.898972701
134.06550,-0.01586217811
134.06600,3.951665122
134.06650,0.5945266373
134.06700,-5.814555924
134.06750,-9.782083225
134.06800,-10.39247204
134.06850,-10.08727763
134.06900,-9.476888817
134.06950,-6.42494474
134.07000,-0.01586217811
134.07050,7.613998014
134.07100,13.10749735
134.07150,13.41269176
134.07200,7.003609199
134.07250,-2.152223032
134.07300,-9.782083225
134.07350,-14.66519375
134.07400,-20.15869309
134.07450,-24.7366092
134.07500,-21.37947072
134.07550,-8.256111186
134.07600,4.25685953
134.07650,7.308803607
134.07700,2.730887491
134.07750,-0.01586217811
134.07800,-0.01586217811
134.07850,-1.236639809
134.07900,-4.898972701
134.07950,-4.898972701
134.08000,0.5945266373
134.08050,6.393220384
134.08100,7.613998014
134.08150,5.477637161
134.08200,3.951665122
134.08250,4.562053937
134.08300,6.698414791
134.08350,9.445164461
134.08400,9.445164461
134.08450,3.646470714
134.08500,-4.898972701
134.08550,-9.782083225
134.08600,-7.950916778
134.08650,-4.898972701
134.08700,-6.119750332
134.08750,-9.171694409
134.08800,-8.561305594
134.08850,-4.593778294
134.08900,-2.762611847
134.08950,-3.983389478
134.09000,-4.288583886
134.09050,-1.541834217
134.09100,0.2893322296
134.09150,-0.9314454012
134.09200,-3.373000663
134.09250,-2.152223032
134.09300,1.815304268
134.09350,4.867248345
134.09400,5.477637161
134.09450,7.308803607
134.09500,11.58152531
134.09550,14.63346939
134.09600,12.19191413
134.09650,5.172442753
134.09700,-0.6262509935
134.09750,-3.678195071
134.09800,-3.067806255
134.09850,-0.9314454012
134.09900,-0.9314454012
134.09950,-4.593778294
134.10000,-10.39247204
134.10050,-13.13922171
134.10100,-10.08727763
134.10150,-3.678195071
134.10200,1.815304268
134.10250,7.613998014
134.10300,14.02308058
134.10350,18.9061911
134.10400,19.82177432
134.10450,16.76983025
134.10500,10.66594209
134.10550,-0.01586217811
134.10600,-13.44441612
134.10650,-20.15869309
134.10700,-11.91844408
134.10750,5.782831568
134.10800,20.73735755
134.10850,25.62046807
134.10900,24.39969044
134.10950,21.65294077
134.11000,17.07502465
134.11050,11.27633091
134.11100,7.919192422
134.11150,6.698414791
134.11200,0.899721045
134.11250,-13.44441612
134.11300,-31.75608058
134.11350,-43.65866248
134.11400,-43.96385689
134.11450,-34.80802466
134.11500,-22.60024835
134.11550,-13.13922171
134.11600,-6.42494474
134.11650,3.036081899
134.11700,16.15944143
134.11750,20.12696873
134.11800,4.867248345
134.11850,-17.71713782
134.11900,-28.39894209
134.11950,-26.87297006
134.12000,-31.14569176
134.12050,-43.96385689
134.12100,-39.69113518
134.12150,-2.762611847
134.12200,42.7113549
134.12250,59.49704732
134.12300,43.01654931
134.12350,22.8737184
134.12400,18.9061911
134.12450,21.95813518
134.12500,17.68541347
134.12550,7.613998014
134.12600,1.815304268
134.12650,2.425693084
134.12700,3.951665122
134.12750,4.25685953
134.12800,4.562053937
134.12850,7.003609199
134.12900,10.05555328
134.12950,10.05555328
134.13000,5.172442753
134.13050,-0.01586217811
134.13100,-0.01586217811
134.13150,1.204915453
134.13200,-2.762611847
134.13250,-14.05480493
134.13300,-22.29505394
134.13350,-21.68466512
134.13400,-16.19116579
134.13450,-9.476888817
134.13500,3.341276307
134.13550,22.26332958
134.13600,32.02955063
134.13650,22.8737184
134.13700,6.088025976
134.13750,-0.01586217811
134.13800,4.562053937
134.13850,7.003609199
134.13900,3.646470714
134.13950,2.425693084
134.14000,6.393220384
134.14050,8.22438683
134.14100,4.25685953
134.14150,-0.3210565858
134.14200,-3.983389478
134.14250,-8.866500001
134.14300,-14.97038816
134.14350,-16.8015546
134.14400,-11.91844408
134.14450,-5.509361517
134.14500,-1.541834217
134.14550,-0.01586217811
134.14600,0.899721045
134.14650,-0.01586217811
134.14700,-2.152223032
134.14750,-1.847028624
134.14800,2.120498676
134.14850,5.172442753
134.14900,3.951665122
134.14950,0.5945266373
134.15000,-0.3210565858
134.15050,0.2893322296
134.15100,0.5945266373
134.15150,-0.9314454012
134.15200,-4.288583886
134.15250,-7.950916778
134.15300,-9.782083225
134.15350,-8.866500001
134.15400,-7.340527963
134.15450,-7.035333555
134.15500,-7.035333555
134.15550,-3.983389478
134.15600,2.120498676
134.15650,5.782831568
134.15700,3.646470714
134.15750,-0.9314454012
134.15800,-4.288583886
134.15850,-4.898972701
134.15900,-4.593778294
134.15950,-3.678195071
134.16000,-1.847028624
134.16050,-2.45741744
134.16100,-6.730139148
134.16150,-9.782083225
134.16200,-7.645722371
134.16250,-4.898972701
134.16300,-9.476888817
134.16350,-17.10674901
134.16400,-16.49636019
134.16450,-5.204167109
134.16500,4.25685953
134.16550,2.730887491
134.16600,-4.288583886
134.16650,-6.42494474
134.16700,-2.45741744
134.16750,-0.9314454012
134.16800,-2.152223032
134.16850,-1.236639809
134.16900,3.951665122
134.16950,9.445164461
134.17000,10.66594209
134.17050,8.834775645
134.17100,6.088025976
134.17150,3.036081899
134.17200,-0.6262509935
134.17250,-3.678195071
134.17300,-3.983389478
134.17350,-1.847028624
134.17400,0.2893322296
134.17450,1.204915453
134.17500,1.51010986
134.17550,4.562053937
134.17600,10.36074768
134.17650,14.02308058
134.17700,11.27633091
134.17750,6.393220384
134.17800,5.477637161
134.17850,6.088025976
134.17900,-1.236639809
134.17950,-17.71713782
134.18000,-29.00933091
134.18050,-21.98985953
134.18100,-0.6262509935
134.18150,19.51657991
134.18200,27.75682892
134.18250,25.01007925
134.18300,16.15944143
134.18350,4.867248345
134.18400,-4.288583886
134.18450,-8.561305594
134.18500,-7.645722371
134.18550,-4.898972701
134.18600,-2.45741744
134.18650,0.899721045
134.18700,6.698414791
134.18750,14.63346939
134.18800,19.82177432
134.18850,17.99060788
134.18900,7.308803607
134.18950,-7.035333555
134.19000,-17.41194342
134.19050,-19.85349868
134.19100,-17.10674901
134.19150,-12.8340273
134.19200,-6.42494474
134.19250,1.204915453
134.19300,8.22438683
134.19350,11.27633091
134.19400,11.27633091
134.19450,10.66594209
134.19500,8.834775645
134.19550,3.036081899
134.19600,-4.593778294
134.19650,-10.39247204
134.19700,-10.39247204
134.19750,-5.814555924
134.19800,0.899721045
134.19850,6.393220384
134.19900,7.308803607
134.19950,3.646470714
134.20000,0.899721045
134.20050,2.120498676
134.20100,1.51010986
134.20150,-7.340527963
134.20200,-20.15869309
134.20250,-23.82102598
134.20300,-14.05480493
134.20350,-0.3210565858
134.20400,7.003609199
134.20450,7.003609199
134.20500,2.120498676
134.20550,-3.983389478
134.20600,-7.035333555
134.20650,-2.152223032
134.20700,3.646470714
134.20750,-1.236639809
134.20800,-19.54830427
134.20850,-32.6716638
134.20900,-27.17816446
134.20950,-15.27558256
134.21000,-17.41194342
134.21050,-27.17816446
134.21100,-17.10674901
134.21150,21.65294077
134.21200,60.71782495
134.21250,64.99054666
134.21300,35.08149471
134.21350,2.730887491
134.21400,-7.950916778
134.21450,-2.152223032
134.21500,5.477637161
134.21550,9.445164461
134.21600,11.27633091
134.21650,10.36074768
134.21700,4.867248345
134.21750,-0.9314454012
134.21800,-0.6262509935
134.21850,3.951665122
134.21900,4.867248345
134.21950,0.899721045
134.22000,-1.236639809
134.22050,1.204915453
134.22100,2.120498676
134.22150,-3.373000663
134.22200,-9.782083225
134.22250,-8.866500001
134.22300,-1.847028624
134.22350,3.341276307
134.22400,5.477637161
134.22450,7.003609199
134.22500,10.05555328
134.22550,11.58152531
134.22600,10.66594209
134.22650,6.698414791
134.22700,-0.01586217811
134.22750,-7.645722371
134.22800,-9.171694409
134.22850,-3.067806255
134.22900,-0.01586217811
134.22950,-7.950916778
134.23000,-21.37947072
134.23050,-25.34699802
134.23100,-17.10674901
134.23150,-9.476888817
134.23200,-11.91844408
134.23250,-17.71713782
134.23300,-16.8015546
134.23350,-7.645722371
134.23400,2.730887491
134.23450,11.27633091
134.23500,18.29580228
134.23550,23.17891281
134.23600,23.17891281
134.23650,19.21138551
134.23700,15.24385821
134.23750,14.32827498
134.23800,14.02308058
134.23850,11.27633091
134.23900,6.088025976
134.23950,1.51010986
134.24000,0.2893322296
134.24050,0.899721045
134.24100,0.5945266373
134.24150,-2.45741744
134.24200,-6.730139148
134.24250,-8.256111186
134.24300,-7.035333555
134.24350,-4.898972701
134.24400,-4.593778294
134.24450,-5.204167109
134.24500,-4.898972701
134.24550,-3.983389478
134.24600,-3.983389478
134.24650,-5.204167109
134.24700,-5.204167109
134.24750,-2.45741744
134.24800,1.51010986
134.24850,2.730887491
134.24900,0.5945266373
134.24950,-2.45741744
134.25000,-3.373000663
134.25050,-0.9314454012
134.25100,5.172442753
134.25150,13.10749735
134.25200,18.29580228
134.25250,20.12696873
134.25300,20.73735755
134.25350,21.65294077
134.25400,19.51657991
134.25450,13.10749735
134.25500,5.782831568
134.25550,0.899721045
134.25600,-7.035333555
134.25650,-25.04180361
134.25700,-45.48982893
134.25750,-53.11968912
134.25800,-42.43788485
134.25850,-25.04180361
134.25900,-13.74961052
134.25950,-8.866500001
134.26000,-5.204167109
134.26050,-2.152223032
134.26100,-1.847028624
134.26150,-1.236639809
134.26200,3.036081899
134.26250,9.139970053
134.26300,10.05555328
134.26350,5.782831568
134.26400,5.172442753
134.26450,12.80230295
134.26500,24.39969044
134.26550,31.11396741
134.26600,28.36721774
134.26650,20.73735755
134.26700,17.38021906
134.26750,21.34774636
134.26800,25.01007925
134.26850,16.76983025
134.26900,-3.067806255
134.26950,-21.07427631
134.27000,-24.12622039
134.27050,-14.35999934
134.27100,-4.288583886
134.27150,-1.847028624
134.27200,-3.373000663
134.27250,-3.373000663
134.27300,-1.847028624
134.27350,-1.847028624
134.27400,-3.983389478
134.27450,-5.509361517
134.27500,-5.814555924
134.27550,-5.204167109
134.27600,-4.593778294
134.27650,-3.067806255
134.27700,-1.847028624
134.27750,-2.45741744
134.27800,-3.983389478
134.27850,-4.593778294
134.27900,-2.152223032
134.27950,1.204915453
134.28000,3.646470714
134.28050,4.867248345
134.28100,4.867248345
134.28150,4.25685953
134.28200,2.425693084
134.28250,-0.01586217811
134.28300,-0.9314454012
134.28350,-0.3210565858
134.28400,-0.01586217811
134.28450,0.2893322296
134.28500,2.425693084
134.28550,6.393220384
134.28600,8.834775645
134.28650,5.172442753
134.28700,-1.541834217
134.28750,-6.119750332
134.28800,-5.509361517
134.28850,-2.45741744
134.28900,-0.9314454012
134.28950,-0.3210565858
134.29000,-0.01586217811
134.29050,0.2893322296
134.29100,-0.01586217811
134.29150,-1.236639809
134.29200,-2.762611847
134.29250,-2.152223032
134.29300,0.899721045
134.29350,5.782831568
134.29400,7.613998014
134.29450,6.088025976
134.29500,5.172442753
134.29550,6.698414791
134.29600,5.782831568
134.29650,-2.45741744
134.29700,-14.97038816
134.29750,-21.98985953
134.29800,-21.37947072
134.29850,-18.63272105
134.29900,-17.41194342
134.29950,-15.88597138
134.30000,-13.74961052
134.30050,-12.52883289
134.30100,-12.8340273
134.30150,-12.22363849
134.30200,-11.30805526
134.30250,-10.08727763
134.30300,-5.814555924
134.30350,4.25685953
134.30400,11.88671972
134.30450,6.088025976
134.30500,-8.866500001
134.30550,-16.49636019
134.30600,-9.782083225
134.30650,-0.01586217811
134.30700,3.341276307
134.30750,5.782831568
134.30800,14.63346939
134.30850,23.48410721
134.30900,22.8737184
134.30950,14.9386638
134.31000,8.529581238
134.31050,2.730887491
134.31100,-8.256111186
134.31150,-21.07427631
134.31200,-25.65219243
134.31250,-22.60024835
134.31300,-20.15869309
134.31350,-17.41194342
134.31400,-2.762611847
134.31450,26.8412457
134.31500,55.83471443
134.31550,64.68535225
134.31600,49.12043746
134.31650,21.04255195
134.31700,-4.288583886
134.31750,-17.10674901
134.31800,-14.97038816
134.31850,-5.814555924
134.31900,-0.3210565858
134.31950,-3.067806255
134.32000,-8.256111186
134.32050,-9.171694409
134.32100,-5.814555924
134.32150,-2.45741744
134.32200,-1.236639809
134.32250,-2.45741744
134.32300,-3.983389478
134.32350,-4.593778294
134.32400,-4.288583886
134.32450,-4.288583886
134.32500,-4.288583886
134.32550,-3.678195071
134.32600,-2.45741744
134.32650,-2.45741744
134.32700,-2.762611847
134.32750,-0.01586217811
134.32800,4.867248345
134.32850,6.393220384
134.32900,2.730887491
134.32950,-0.01586217811
134.33000,3.036081899
134.33050,6.698414791
134.33100,3.341276307
134.33150,-3.373000663
134.33200,-6.119750332
134.33250,-3.983389478
134.33300,-4.898972701
134.33350,-11.30805526
134.33400,-14.66519375
134.33450,-10.08727763
134.33500,-1.541834217
134.33550,3.341276307
134.33600,5.477637161
134.33650,7.613998014
134.33700,8.529581238
134.33750,5.477637161
134.33800,0.5945266373
134.33850,-1.847028624
134.33900,-1.236639809
134.33950,-0.01586217811
134.34000,0.2893322296
134.34050,3.951665122
134.34100,10.66594209
134.34150,15.85424702
134.34200,13.71788617
134.34250,6.393220384
134.34300,-0.3210565858
134.34350,-3.678195071
134.34400,-5.509361517
134.34450,-5.509361517
134.34500,-1.847028624
134.34550,3.646470714
134.34600,5.172442753
134.34650,-0.01586217811
134.34700,-5.509361517
134.34750,-4.288583886
134.34800,1.51010986
134.34850,5.477637161
134.34900,7.308803607
134.34950,10.9711365
134.35000,16.15944143
134.35050,16.76983025
134.35100,12.19191413
134.35150,6.393220384
134.35200,3.036081899
134.35250,1.204915453
134.35300,0.5945266373
134.35350,3.646470714
134.35400,6.393220384
134.35450,2.120498676
134.35500,-7.340527963
134.35550,-11.91844408
134.35600,-6.730139148
134.35650,-0.6262509935
134.35700,-3.373000663
134.35750,-10.39247204
134.35800,-11.00286086
134.35850,-2.762611847
134.35900,5.782831568
134.35950,7.003609199
134.36000,2.120498676
134.36050,-4.288583886
134.36100,-8.561305594
134.36150,-7.950916778
134.36200,-2.45741744
134.36250,3.951665122
134.36300,7.613998014
134.36350,6.088025976
134.36400,3.036081899
134.36450,2.730887491
134.36500,4.867248345
134.36550,4.867248345
134.36600,-2.45741744
134.36650,-14.97038816
134.36700,-21.68466512
134.36750,-17.41194342
134.36800,-8.561305594
134.36850,-5.204167109
134.36900,-8.866500001
134.36950,-11.00286086
134.37000,-7.645722371
134.37050,-2.762611847
134.37100,-1.847028624
134.37150,-4.288583886
134.37200,-5.814555924
134.37250,-3.678195071
134.37300,1.815304268
134.37350,8.529581238
134.37400,11.27633091
134.37450,9.139970053
134.37500,6.088025976
134.37550,5.782831568
134.37600,3.646470714
134.37650,-1.847028624
134.37700,-5.509361517
134.37750,-0.6262509935
134.37800,7.003609199
134.37850,7.919192422
134.37900,0.899721045
134.37950,-4.898972701
134.38000,-6.42494474
134.38050,-8.561305594
134.38100,-11.30805526
134.38150,-7.035333555
134.38200,3.646470714
134.38250,10.66594209
134.38300,7.308803607
134.38350,1.204915453
134.38400,3.646470714
134.38450,11.88671972
134.38500,12.49710854
134.38550,-2.762611847
134.38600,-23.51583157
134.38650,-29.92491413
134.38700,-12.22363849
134.38750,16.76983025
134.38800,33.55552267
134.38850,27.14644011
134.38900,9.750358868
134.38950,-0.6262509935
134.39000,-0.9314454012
134.39050,0.2893322296
134.39100,-2.152223032
134.39150,-7.035333555
134.39200,-9.476888817
134.39250,-7.035333555
134.39300,0.899721045
134.39350,11.58152531
134.39400,17.68541347
134.39450,14.63346939
134.39500,5.477637161
134.39550,-1.847028624
134.39600,-4.593778294
134.39650,-5.204167109
134.39700,-6.42494474
134.39750,-7.340527963
134.39800,-6.730139148
134.39850,-5.204167109
134.39900,-4.593778294
134.39950,-4.898972701
134.40000,-3.983389478
134.40050,-1.847028624
134.40100,-3.983389478
134.40150,-14.05480493
134.40200,-25.95738683
134.40250,-29.31452532
134.40300,-24.43141479
134.40350,-22.60024835
134.40400,-24.12622039
134.40450,-12.8340273
134.40500,20.73735755
134.40550,57.05549206
134.40600,65.90612989
134.40650,44.54252135
134.40700,18.29580228
134.40750,8.529581238
134.40800,10.66594209
134.40850,11.27633091
134.40900,7.613998014
134.40950,5.172442753
134.41000,3.951665122
134.41050,-0.01586217811
134.41100,-5.814555924
134.41150,-7.340527963
134.41200,-3.983389478
134.41250,0.899721045
134.41300,6.393220384
134.41350,11.88671972
134.41400,12.80230295
134.41450,5.782831568
134.41500,-3.983389478
134.41550,-4.288583886
134.41600,6.698414791
134.41650,13.71788617
134.41700,2.730887491
134.41750,-16.19116579
134.41800,-23.21063716
134.41850,-14.05480493
134.41900,-9.476888817
134.41950,-22.29505394
134.42000,-39.99632959
134.42050,-42.43788485
134.42100,-29.31452532
134.42150,-16.8015546
134.42200,-14.35999934
134.42250,-15.88597138
134.42300,-14.05480493
134.42350,-7.035333555
134.42400,2.730887491
134.42450,13.71788617
134.42500,21.34774636
134.42550,21.95813518
134.42600,18.29580228
134.42650,16.46463584
134.42700,14.9386638
134.42750,9.445164461
134.42800,1.51010986
134.42850,0.2893322296
134.42900,7.919192422
134.42950,14.32827498
134.43000,9.750358868
134.43050,-1.541834217
134.43100,-9.476888817
134.43150,-8.561305594
134.43200,-3.373000663
134.43250,0.2893322296
134.43300,1.204915453
134.43350,0.899721045
134.43400,-0.6262509935
134.43450,-4.288583886
134.43500,-7.035333555
134.43550,-5.509361517
134.43600,-0.01586217811
134.43650,4.25685953
134.43700,4.25685953
134.43750,1.51010986
134.43800,-0.9314454012
134.43850,-2.762611847
134.43900,-3.983389478
134.43950,-4.898972701
134.44000,-3.983389478
134.44050,-2.762611847
134.44100,-2.45741744
134.44150,-3.373000663
134.44200,-2.45741744
134.44250,1.204915453
134.44300,5.172442753
134.44350,6.393220384
134.44400,5.172442753
134.44450,3.646470714
134.44500,2.730887491
134.44550,3.036081899
134.44600,3.646470714
134.44650,3.951665122
134.44700,3.646470714
134.44750,4.25685953
134.44800,5.172442753
134.44850,5.172442753
134.44900,3.341276307
134.44950,0.2893322296
134.45000,-1.236639809
134.45050,-2.762611847
134.45100,-6.42494474
134.45150,-11.00286086
134.45200,-11.91844408
134.45250,-5.814555924
134.45300,2.730887491
134.45350,6.698414791
134.45400,4.25685953
134.45450,2.425693084
134.45500,7.308803607
134.45550,15.85424702
134.45600,18.29580228
134.45650,10.66594209
134.45700,-0.01586217811
134.45750,-5.814555924
134.45800,-5.204167109
134.45850,-2.45741744
134.45900,-1.847028624
134.45950,-2.762611847
134.46000,-2.152223032
134.46050,0.899721045
134.46100,4.25685953
134.46150,4.867248345
134.46200,0.899721045
134.46250,-4.593778294
134.46300,-7.035333555
134.46350,-3.067806255
134.46400,2.730887491
134.46450,5.477637161
134.46500,2.730887491
134.46550,-0.6262509935
134.46600,-0.9314454012
134.46650,0.899721045
134.46700,2.120498676
134.46750,2.120498676
134.46800,1.815304268
134.46850,1.51010986
134.46900,1.51010986
134.46950,1.815304268
134.47000,1.815304268
134.47050,0.5945266373
134.47100,-1.541834217
134.47150,-3.983389478
134.47200,-5.814555924
134.47250,-7.035333555
134.47300,-6.730139148
134.47350,-3.983389478
134.47400,-0.01586217811
134.47450,2.730887491
134.47500,3.036081899
134.47550,2.425693084
134.47600,-1.236639809
134.47650,-13.74961052
134.47700,-34.19763584
134.47750,-50.98332826
134.47800,-52.5093003
134.47850,-38.16516314
134.47900,-17.10674901
134.47950,3.951665122
134.48000,23.48410721
134.48050,36.60746675
134.48100,37.82824438
134.48150,27.75682892
134.48200,15.24385821
134.48250,9.139970053
134.48300,9.445164461
134.48350,9.139970053
134.48400,3.036081899
134.48450,-6.119750332
134.48500,-12.22363849
134.48550,-9.782083225
134.48600,-0.01586217811
134.48650,10.36074768
134.48700,14.02308058
134.48750,8.834775645
134.48800,-0.01586217811
134.48850,-6.730139148
134.48900,-10.69766645
134.48950,-12.52883289
134.49000,-11.91844408
134.49050,-6.730139148
134.49100,0.899721045
134.49150,7.308803607
134.49200,10.05555328
134.49250,11.27633091
134.49300,11.88671972
134.49350,10.36074768
134.49400,6.088025976
134.49450,3.341276307
134.49500,5.172442753
134.49550,7.308803607
134.49600,1.815304268
134.49650,-9.476888817
134.49700,-17.71713782
134.49750,-16.19116579
134.49800,-10.69766645
134.49850,-7.645722371
134.49900,-5.814555924
134.49950,-1.847028624
134.50000,1.204915453
134.50050,-0.9314454012
134.50100,-6.42494474
134.50150,-7.645722371
134.50200,-3.373000663
134.50250,-0.3210565858
134.50300,-0.9314454012
134.50350,-1.541834217
134.50400,-0.9314454012
134.50450,-2.45741744
134.50500,-7.340527963
134.50550,-8.561305594
134.50600,-1.541834217
134.50650,7.003609199
134.50700,8.529581238
134.50750,3.646470714
134.50800,2.120498676
134.50850,8.22438683
134.50900,15.24385821
134.50950,14.63346939
134.51000,7.003609199
134.51050,-0.01586217811
134.51100,-1.847028624
134.51150,0.2893322296
134.51200,3.036081899
134.51250,4.562053937
134.51300,5.782831568
134.51350,7.613998014
134.51400,8.834775645
134.51450,7.308803607
134.51500,3.646470714
134.51550,-0.01586217811
134.51600,-1.236639809
134.51650,-0.6262509935
134.51700,-0.6262509935
134.51750,-1.847028624
134.51800,-3.067806255
134.51850,-3.983389478
134.51900,-5.204167109
134.51950,-7.340527963
134.52000,-7.950916778
134.52050,-5.204167109
134.52100,-0.3210565858
134.52150,3.951665122
134.52200,6.698414791
134.52250,7.613998014
134.52300,5.172442753
134.52350,1.815304268
134.52400,1.204915453
134.52450,1.815304268
134.52500,-4.288583886
134.52550,-19.54830427
134.52600,-31.75608058
134.52650,-31.14569176
134.52700,-25.95738683
134.52750,-27.48335887
134.52800,-27.78855328
134.52850,-6.730139148
134.52900,34.47110589
134.52950,65.90612989
134.53000,63.46457462
134.53050,38.13343878
134.53100,17.38021906
134.53150,12.19191413
134.53200,12.19191413
134.53250,8.22438683
134.53300,3.036081899
134.53350,1.51010986
134.53400,2.425693084
134.53450,4.25685953
134.53500,7.003609199
134.53550,8.834775645
134.53600,7.003609199
134.53650,1.815304268
134.53700,-1.847028624
134.53750,-2.762611847
134.53800,-2.45741744
134.53850,-2.762611847
134.53900,-3.373000663
134.53950,-5.814555924
134.54000,-10.08727763
134.54050,-12.52883289
134.54100,-10.39247204
134.54150,-5.814555924
134.54200,-3.678195071
134.54250,-4.593778294
134.54300,-5.509361517
134.54350,-4.593778294
134.54400,-3.678195071
134.54450,-3.983389478
134.54500,-4.593778294
134.54550,-5.204167109
134.54600,-6.119750332
134.54650,-7.950916778
134.54700,-8.866500001
134.54750,-7.645722371
134.54800,-4.898972701
134.54850,-3.067806255
134.54900,-2.45741744
134.54950,-2.45741744
134.55000,-2.152223032
134.55050,-1.847028624
134.55100,-1.541834217
134.55150,-0.6262509935
134.55200,-0.3210565858
134.55250,-1.847028624
134.55300,-4.593778294
134.55350,-6.119750332
134.55400,-4.288583886
134.55450,-1.847028624
134.55500,-1.847028624
134.55550,-3.678195071
134.55600,-2.762611847
134.55650,1.51010986
134.55700,5.477637161
134.55750,5.172442753
134.55800,2.120498676
134.55850,1.51010986
134.55900,3.341276307
134.55950,4.25685953
134.56000,2.120498676
134.56050,-0.01586217811
134.56100,0.2893322296
134.56150,2.120498676
134.56200,1.51010986
134.56250,-1.541834217
134.56300,-2.152223032
134.56350,0.5945266373
134.56400,1.51010986
134.56450,-3.678195071
134.56500,-8.866500001
134.56550,-3.678195071
134.56600,7.613998014
134.56650,10.66594209
134.56700,-0.3210565858
134.56750,-13.74961052
134.56800,-16.19116579
134.56850,-9.782083225
134.56900,-5.204167109
134.56950,-4.898972701
134.57000,-2.45741744
134.57050,3.036081899
134.57100,7.613998014
134.57150,8.22438683
134.57200,7.308803607
134.57250,6.393220384
134.57300,7.919192422
134.57350,12.80230295
134.57400,17.99060788
134.57450,14.9386638
134.57500,0.899721045
134.57550,-14.05480493
134.57600,-19.54830427
134.57650,-17.10674901
134.57700,-14.66519375
134.57750,-12.8340273
134.57800,-8.256111186
134.57850,-3.983389478
134.57900,-5.814555924
134.57950,-10.69766645
134.58000,-9.782083225
134.58050,-1.847028624
134.58100,5.782831568
134.58150,8.529581238
134.58200,8.22438683
134.58250,7.308803607
134.58300,6.698414791
134.58350,6.698414791
134.58400,7.308803607
134.58450,6.393220384
134.58500,5.477637161
134.58550,7.919192422
134.58600,10.66594209
134.58650,5.172442753
134.58700,-7.645722371
134.58750,-11.91844408
134.58800,0.2893322296
134.58850,15.24385821
134.58900,15.54905261
134.58950,5.477637161
134.59000,0.5945266373
134.59050,1.51010986
134.59100,-1.847028624
134.59150,-9.171694409
134.59200,-9.782083225
134.59250,-3.678195071
134.59300,-0.01586217811
134.59350,0.5945266373
134.59400,5.477637161
134.59450,11.88671972
134.59500,12.19191413
134.59550,8.529581238
134.59600,11.88671972
134.59650,22.26332958
134.59700,26.53605129
134.59750,17.68541347
134.59800,1.815304268
134.59850,-11.61324967
134.59900,-19.85349868
134.59950,-21.07427631
134.60000,-15.58077697
134.60050,-8.561305594
134.60100,-6.730139148
134.60150,-8.561305594
134.60200,-6.42494474
134.60250,0.5945266373
134.60300,8.529581238
134.60350,13.41269176
134.60400,15.24385821
134.60450,13.41269176
134.60500,7.308803607
134.60550,1.815304268
134.60600,0.899721045
134.60650,1.204915453
134.60700,-1.847028624
134.60750,-5.204167109
134.60800,-2.45741744
134.60850,3.341276307
134.60900,5.782831568
134.60950,4.562053937
134.61000,5.782831568
134.61050,9.139970053
134.61100,8.834775645
134.61150,4.867248345
134.61200,2.120498676
134.61250,1.815304268
134.61300,-0.6262509935
134.61350,-5.509361517
134.61400,-7.340527963
134.61450,-4.898972701
134.61500,-3.067806255
134.61550,-3.983389478
134.61600,-4.898972701
134.61650,-5.204167109
134.61700,-7.035333555
134.61750,-9.782083225
134.61800,-6.730139148
134.61850,3.341276307
134.61900,13.41269176
134.61950,17.07502465
134.62000,14.63346939
134.62050,11.27633091
134.62100,7.613998014
134.62150,3.341276307
134.62200,-0.6262509935
134.62250,-3.067806255
134.62300,-4.593778294
134.62350,-6.42494474
134.62400,-7.645722371
134.62450,-6.730139148
134.62500,-6.119750332
134.62550,-8.256111186
134.62600,-9.476888817
134.62650,-6.730139148
134.62700,-1.541834217
134.62750,1.815304268
134.62800,2.120498676
134.62850,0.5945266373
134.62900,-1.541834217
134.62950,-4.898972701
134.63000,-6.730139148
134.63050,-5.509361517
134.63100,-3.373000663
134.63150,-4.288583886
134.63200,-6.730139148
134.63250,-7.645722371
134.63300,-8.256111186
134.63350,-14.05480493
