"type","name","time_units","begin_time","frequency","count","units"
"signal","Ultium EMG-EXT.CARP.ULN. RT","s",21.92000,2000,22000,"uV"

"time","value"
21.92000,-12.73961684
21.92050,-13.35000565
21.92100,-13.04481125
21.92150,-11.51883921
21.92200,-9.687672761
21.92250,-8.161700722
21.92300,-7.551311907
21.92350,-6.330534276
21.92400,-4.804562237
21.92450,-2.973395791
21.92500,-1.75261816
21.92550,-0.5318405296
21.92600,1.299325917
21.92650,4.046075586
21.92700,5.572047624
21.92750,4.961658809
21.92800,4.046075586
21.92850,4.656464401
21.92900,5.877242032
21.92950,6.487630848
21.93000,6.487630848
21.93050,6.18243644
21.93100,5.266853217
21.93150,3.740881178
21.93200,2.825297955
21.93250,2.825297955
21.93300,2.21490914
21.93350,0.07854828584
21.93400,-2.973395791
21.93450,-4.804562237
21.93500,-5.414951053
21.93550,-6.025339868
21.93600,-6.330534276
21.93650,-6.025339868
21.93700,-5.414951053
21.93750,-6.330534276
21.93800,-8.46689513
21.93850,-10.29806158
21.93900,-10.29806158
21.93950,-9.382478353
21.94000,-8.46689513
21.94050,-8.161700722
21.94100,-8.161700722
21.94150,-8.772089538
21.94200,-8.772089538
21.94250,-7.246117499
21.94300,-4.804562237
21.94350,-3.278590199
21.94400,-2.057812568
21.94450,0.07854828584
21.94500,2.520103547
21.94550,3.740881178
21.94600,3.435686771
21.94650,3.435686771
21.94700,4.961658809
21.94750,6.18243644
21.94800,5.877242032
21.94850,4.656464401
21.94900,4.656464401
21.94950,4.961658809
21.95000,4.656464401
21.95050,3.130492363
21.95100,2.520103547
21.95150,3.740881178
21.95200,5.266853217
21.95250,4.961658809
21.95300,3.130492363
21.95350,0.9941315089
21.95400,-0.8370349373
21.95450,-2.973395791
21.95500,-4.804562237
21.95550,-4.804562237
21.95600,-3.583784607
21.95650,-3.583784607
21.95700,-5.72014546
21.95750,-8.772089538
21.95800,-10.60325598
21.95850,-10.90845039
21.95900,-10.60325598
21.95950,-9.382478353
21.96000,-7.246117499
21.96050,-5.109756645
21.96100,-3.888979014
21.96150,-3.278590199
21.96200,-2.363006976
21.96250,-0.5318405296
21.96300,0.9941315089
21.96350,2.825297955
21.96400,4.656464401
21.96450,6.487630848
21.96500,7.403214071
21.96550,8.929186109
21.96600,10.45515815
21.96650,11.98113019
21.96700,12.591519
21.96750,13.20190782
21.96800,15.03307426
21.96850,17.77982393
21.96900,19.30579597
21.96950,19.00060156
21.97000,18.08501834
21.97050,16.5590463
21.97100,13.81229663
21.97150,9.844769332
21.97200,7.403214071
21.97250,7.098019663
21.97300,7.708408478
21.97350,6.792825255
21.97400,4.961658809
21.97450,3.740881178
21.97500,3.130492363
21.97550,1.909714732
21.97600,-0.5318405296
21.97650,-3.278590199
21.97700,-4.804562237
21.97750,-5.109756645
21.97800,-4.804562237
21.97850,-3.888979014
21.97900,-2.668201383
21.97950,-2.668201383
21.98000,-4.49936783
21.98050,-7.246117499
21.98100,-8.46689513
21.98150,-7.856506314
21.98200,-6.330534276
21.98250,-4.49936783
21.98300,-1.75261816
21.98350,1.604520324
21.98400,4.656464401
21.98450,5.266853217
21.98500,5.572047624
21.98550,6.18243644
21.98600,7.403214071
21.98650,8.318797294
21.98700,8.929186109
21.98750,10.45515815
21.98800,11.98113019
21.98850,11.98113019
21.98900,10.76035256
21.98950,8.929186109
21.99000,7.098019663
21.99050,4.656464401
21.99100,1.909714732
21.99150,0.6889371012
21.99200,0.3837426935
21.99250,0.07854828584
21.99300,-1.142229345
21.99350,-2.057812568
21.99400,-2.363006976
21.99450,-2.668201383
21.99500,-4.49936783
21.99550,-6.635728684
21.99600,-7.551311907
21.99650,-6.940923091
21.99700,-6.635728684
21.99750,-7.856506314
21.99800,-9.382478353
21.99850,-9.992867168
21.99900,-8.772089538
21.99950,-8.161700722
22.00000,-8.772089538
22.00050,-9.077283945
22.00100,-6.025339868
22.00150,-1.142229345
22.00200,1.604520324
22.00250,2.21490914
22.00300,3.740881178
22.00350,7.403214071
22.00400,10.45515815
22.00450,8.929186109
22.00500,6.18243644
22.00550,5.877242032
22.00600,8.013602886
22.00650,7.708408478
22.00700,5.266853217
22.00750,3.740881178
22.00800,4.961658809
22.00850,5.266853217
22.00900,3.435686771
22.00950,2.21490914
22.01000,3.435686771
22.01050,4.961658809
22.01100,4.351269994
22.01150,2.21490914
22.01200,0.6889371012
22.01250,0.07854828584
22.01300,0.07854828584
22.01350,0.07854828584
22.01400,0.07854828584
22.01450,-1.75261816
22.01500,-4.804562237
22.01550,-6.635728684
22.01600,-7.246117499
22.01650,-7.856506314
22.01700,-9.077283945
22.01750,-9.687672761
22.01800,-9.687672761
22.01850,-9.687672761
22.01900,-10.60325598
22.01950,-10.90845039
22.02000,-10.29806158
22.02050,-9.077283945
22.02100,-7.856506314
22.02150,-6.025339868
22.02200,-3.583784607
22.02250,-1.75261816
22.02300,-1.447423753
22.02350,-1.142229345
22.02400,0.07854828584
22.02450,2.21490914
22.02500,4.046075586
22.02550,4.656464401
22.02600,5.572047624
22.02650,6.792825255
22.02700,8.318797294
22.02750,8.929186109
22.02800,8.929186109
22.02850,9.234380517
22.02900,10.14996374
22.02950,11.06554696
22.03000,11.06554696
22.03050,10.14996374
22.03100,9.234380517
22.03150,8.623991701
22.03200,7.098019663
22.03250,4.656464401
22.03300,2.520103547
22.03350,0.9941315089
22.03400,-0.5318405296
22.03450,-2.057812568
22.03500,-1.75261816
22.03550,-0.2266461219
22.03600,-0.5318405296
22.03650,-3.583784607
22.03700,-6.330534276
22.03750,-6.330534276
22.03800,-5.72014546
22.03850,-6.330534276
22.03900,-7.551311907
22.03950,-7.246117499
22.04000,-5.72014546
22.04050,-4.804562237
22.04100,-5.109756645
22.04150,-4.804562237
22.04200,-2.668201383
22.04250,-0.5318405296
22.04300,1.299325917
22.04350,3.130492363
22.04400,5.266853217
22.04450,6.792825255
22.04500,7.403214071
22.04550,7.403214071
22.04600,7.098019663
22.04650,7.403214071
22.04700,8.013602886
22.04750,8.623991701
22.04800,9.234380517
22.04850,9.539574925
22.04900,10.76035256
22.04950,12.591519
22.05000,13.20190782
22.05050,12.28632459
22.05100,10.45515815
22.05150,8.623991701
22.05200,7.098019663
22.05250,5.266853217
22.05300,3.130492363
22.05350,0.9941315089
22.05400,-0.8370349373
22.05450,-3.278590199
22.05500,-4.49936783
22.05550,-4.804562237
22.05600,-5.72014546
22.05650,-7.551311907
22.05700,-9.687672761
22.05750,-10.29806158
22.05800,-9.687672761
22.05850,-9.687672761
22.05900,-10.29806158
22.05950,-10.60325598
22.06000,-9.992867168
22.06050,-9.077283945
22.06100,-7.856506314
22.06150,-6.635728684
22.06200,-6.025339868
22.06250,-6.025339868
22.06300,-5.414951053
22.06350,-3.583784607
22.06400,-1.75261816
22.06450,-0.5318405296
22.06500,-0.5318405296
22.06550,0.07854828584
22.06600,1.604520324
22.06650,4.046075586
22.06700,6.18243644
22.06750,6.792825255
22.06800,5.877242032
22.06850,4.961658809
22.06900,4.961658809
22.06950,5.266853217
22.07000,4.961658809
22.07050,4.046075586
22.07100,3.740881178
22.07150,3.740881178
22.07200,3.435686771
22.07250,2.21490914
22.07300,0.3837426935
22.07350,-0.8370349373
22.07400,-1.75261816
22.07450,-2.668201383
22.07500,-4.194173422
22.07550,-6.635728684
22.07600,-9.077283945
22.07650,-9.992867168
22.07700,-10.90845039
22.07750,-11.51883921
22.07800,-11.51883921
22.07850,-9.992867168
22.07900,-8.161700722
22.07950,-7.856506314
22.08000,-9.382478353
22.08050,-11.2136448
22.08100,-11.82403361
22.08150,-11.51883921
22.08200,-11.2136448
22.08250,-10.60325598
22.08300,-9.077283945
22.08350,-6.940923091
22.08400,-4.49936783
22.08450,-2.057812568
22.08500,0.07854828584
22.08550,1.604520324
22.08600,3.130492363
22.08650,5.572047624
22.08700,7.403214071
22.08750,8.013602886
22.08800,7.708408478
22.08850,7.708408478
22.08900,8.623991701
22.08950,8.318797294
22.09000,6.792825255
22.09050,5.266853217
22.09100,4.656464401
22.09150,4.961658809
22.09200,4.046075586
22.09250,2.520103547
22.09300,1.604520324
22.09350,1.299325917
22.09400,0.3837426935
22.09450,-1.142229345
22.09500,-2.363006976
22.09550,-2.668201383
22.09600,-3.278590199
22.09650,-4.804562237
22.09700,-5.72014546
22.09750,-5.414951053
22.09800,-4.804562237
22.09850,-5.109756645
22.09900,-6.025339868
22.09950,-5.109756645
22.10000,-2.668201383
22.10050,-1.142229345
22.10100,-1.142229345
22.10150,-1.142229345
22.10200,0.6889371012
22.10250,3.130492363
22.10300,3.435686771
22.10350,3.130492363
22.10400,3.435686771
22.10450,5.572047624
22.10500,7.403214071
22.10550,8.013602886
22.10600,8.013602886
22.10650,7.403214071
22.10700,6.487630848
22.10750,6.487630848
22.10800,6.792825255
22.10850,7.403214071
22.10900,7.403214071
22.10950,8.318797294
22.11000,9.234380517
22.11050,8.929186109
22.11100,6.792825255
22.11150,4.961658809
22.11200,4.961658809
22.11250,5.572047624
22.11300,4.656464401
22.11350,2.825297955
22.11400,1.299325917
22.11450,0.3837426935
22.11500,-1.142229345
22.11550,-3.888979014
22.11600,-6.330534276
22.11650,-7.551311907
22.11700,-8.161700722
22.11750,-9.687672761
22.11800,-10.90845039
22.11850,-10.90845039
22.11900,-10.29806158
22.11950,-9.992867168
22.12000,-10.29806158
22.12050,-9.687672761
22.12100,-8.161700722
22.12150,-7.246117499
22.12200,-7.856506314
22.12250,-8.46689513
22.12300,-7.246117499
22.12350,-4.194173422
22.12400,-0.8370349373
22.12450,0.3837426935
22.12500,0.6889371012
22.12550,1.604520324
22.12600,3.130492363
22.12650,4.961658809
22.12700,6.18243644
22.12750,6.487630848
22.12800,6.18243644
22.12850,5.572047624
22.12900,5.266853217
22.12950,5.572047624
22.13000,5.572047624
22.13050,5.572047624
22.13100,5.572047624
22.13150,5.572047624
22.13200,5.572047624
22.13250,4.656464401
22.13300,3.130492363
22.13350,0.9941315089
22.13400,-0.8370349373
22.13450,-2.363006976
22.13500,-2.973395791
22.13550,-2.973395791
22.13600,-4.49936783
22.13650,-6.940923091
22.13700,-8.46689513
22.13750,-8.161700722
22.13800,-7.551311907
22.13850,-7.856506314
22.13900,-9.077283945
22.13950,-8.46689513
22.14000,-6.025339868
22.14050,-3.278590199
22.14100,-1.75261816
22.14150,-0.8370349373
22.14200,0.07854828584
22.14250,1.909714732
22.14300,2.825297955
22.14350,2.21490914
22.14400,0.6889371012
22.14450,0.07854828584
22.14500,0.07854828584
22.14550,0.6889371012
22.14600,1.604520324
22.14650,3.130492363
22.14700,4.961658809
22.14750,5.877242032
22.14800,5.266853217
22.14850,4.046075586
22.14900,4.046075586
22.14950,4.961658809
22.15000,5.572047624
22.15050,4.961658809
22.15100,4.351269994
22.15150,4.656464401
22.15200,5.572047624
22.15250,5.877242032
22.15300,4.961658809
22.15350,4.046075586
22.15400,2.825297955
22.15450,1.299325917
22.15500,0.07854828584
22.15550,0.07854828584
22.15600,0.3837426935
22.15650,0.6889371012
22.15700,0.07854828584
22.15750,-2.363006976
22.15800,-4.804562237
22.15850,-6.330534276
22.15900,-6.940923091
22.15950,-6.940923091
22.16000,-6.635728684
22.16050,-6.330534276
22.16100,-5.414951053
22.16150,-3.888979014
22.16200,-2.668201383
22.16250,-1.447423753
22.16300,0.07854828584
22.16350,2.21490914
22.16400,4.046075586
22.16450,4.656464401
22.16500,4.961658809
22.16550,5.877242032
22.16600,7.403214071
22.16650,8.318797294
22.16700,8.623991701
22.16750,8.623991701
22.16800,8.929186109
22.16850,8.623991701
22.16900,8.318797294
22.16950,8.929186109
22.17000,10.76035256
22.17050,11.67593578
22.17100,10.45515815
22.17150,7.708408478
22.17200,5.572047624
22.17250,4.961658809
22.17300,4.656464401
22.17350,3.130492363
22.17400,0.3837426935
22.17450,-1.447423753
22.17500,-1.447423753
22.17550,-0.8370349373
22.17600,-1.75261816
22.17650,-4.49936783
22.17700,-6.940923091
22.17750,-7.551311907
22.17800,-7.246117499
22.17850,-8.46689513
22.17900,-11.2136448
22.17950,-12.73961684
22.18000,-12.12922802
22.18050,-11.2136448
22.18100,-10.90845039
22.18150,-10.60325598
22.18200,-9.077283945
22.18250,-7.246117499
22.18300,-6.330534276
22.18350,-6.635728684
22.18400,-6.330534276
22.18450,-4.804562237
22.18500,-2.668201383
22.18550,-0.8370349373
22.18600,0.9941315089
22.18650,4.046075586
22.18700,6.487630848
22.18750,7.403214071
22.18800,7.403214071
22.18850,8.318797294
22.18900,9.539574925
22.18950,9.539574925
22.19000,7.708408478
22.19050,5.266853217
22.19100,4.046075586
22.19150,3.740881178
22.19200,3.740881178
22.19250,3.130492363
22.19300,2.520103547
22.19350,1.299325917
22.19400,0.07854828584
22.19450,-1.75261816
22.19500,-3.583784607
22.19550,-5.109756645
22.19600,-6.025339868
22.19650,-6.940923091
22.19700,-7.856506314
22.19750,-9.077283945
22.19800,-9.992867168
22.19850,-10.29806158
22.19900,-10.29806158
22.19950,-9.992867168
22.20000,-9.687672761
22.20050,-9.077283945
22.20100,-8.46689513
22.20150,-7.856506314
22.20200,-7.246117499
22.20250,-5.72014546
22.20300,-4.194173422
22.20350,-2.973395791
22.20400,-2.668201383
22.20450,-1.142229345
22.20500,0.9941315089
22.20550,2.825297955
22.20600,3.740881178
22.20650,4.351269994
22.20700,4.961658809
22.20750,5.266853217
22.20800,5.266853217
22.20850,5.266853217
22.20900,5.572047624
22.20950,6.18243644
22.21000,6.792825255
22.21050,8.318797294
22.21100,10.45515815
22.21150,11.06554696
22.21200,9.234380517
22.21250,6.487630848
22.21300,4.656464401
22.21350,3.435686771
22.21400,0.9941315089
22.21450,-1.75261816
22.21500,-3.888979014
22.21550,-4.804562237
22.21600,-5.72014546
22.21650,-7.551311907
22.21700,-9.077283945
22.21750,-8.46689513
22.21800,-6.940923091
22.21850,-6.940923091
22.21900,-7.551311907
22.21950,-7.246117499
22.22000,-5.414951053
22.22050,-4.194173422
22.22100,-4.804562237
22.22150,-5.109756645
22.22200,-4.194173422
22.22250,-1.75261816
22.22300,0.07854828584
22.22350,1.604520324
22.22400,2.825297955
22.22450,4.351269994
22.22500,6.487630848
22.22550,8.623991701
22.22600,9.844769332
22.22650,9.539574925
22.22700,6.792825255
22.22750,4.656464401
22.22800,5.266853217
22.22850,6.792825255
22.22900,7.403214071
22.22950,7.098019663
22.23000,7.098019663
22.23050,8.318797294
22.23100,8.318797294
22.23150,6.792825255
22.23200,5.572047624
22.23250,5.266853217
22.23300,5.266853217
22.23350,3.435686771
22.23400,1.299325917
22.23450,0.3837426935
22.23500,0.6889371012
22.23550,0.3837426935
22.23600,-0.2266461219
22.23650,-0.5318405296
22.23700,-0.5318405296
22.23750,-2.973395791
22.23800,-7.551311907
22.23850,-11.82403361
22.23900,-13.04481125
22.23950,-11.82403361
22.24000,-10.60325598
22.24050,-9.992867168
22.24100,-8.46689513
22.24150,-6.025339868
22.24200,-3.888979014
22.24250,-3.278590199
22.24300,-2.668201383
22.24350,-1.142229345
22.24400,1.604520324
22.24450,4.961658809
22.24500,7.403214071
22.24550,8.013602886
22.24600,7.098019663
22.24650,6.487630848
22.24700,6.792825255
22.24750,8.013602886
22.24800,8.623991701
22.24850,8.318797294
22.24900,8.318797294
22.24950,9.234380517
22.25000,9.844769332
22.25050,9.234380517
22.25100,8.013602886
22.25150,7.098019663
22.25200,6.487630848
22.25250,5.572047624
22.25300,4.351269994
22.25350,4.046075586
22.25400,4.046075586
22.25450,2.825297955
22.25500,0.07854828584
22.25550,-2.668201383
22.25600,-3.583784607
22.25650,-3.888979014
22.25700,-5.109756645
22.25750,-7.246117499
22.25800,-9.077283945
22.25850,-9.382478353
22.25900,-9.077283945
22.25950,-8.46689513
22.26000,-7.246117499
22.26050,-4.804562237
22.26100,-2.668201383
22.26150,-2.668201383
22.26200,-3.888979014
22.26250,-4.49936783
22.26300,-3.583784607
22.26350,-1.447423753
22.26400,0.07854828584
22.26450,1.604520324
22.26500,3.435686771
22.26550,6.18243644
22.26600,10.14996374
22.26650,13.50710222
22.26700,15.03307426
22.26750,14.42268545
22.26800,12.591519
22.26850,11.67593578
22.26900,11.67593578
22.26950,11.67593578
22.27000,11.06554696
22.27050,11.06554696
22.27100,10.14996374
22.27150,7.403214071
22.27200,2.520103547
22.27250,-0.2266461219
22.27300,0.07854828584
22.27350,2.21490914
22.27400,2.520103547
22.27450,0.07854828584
22.27500,-4.194173422
22.27550,-7.551311907
22.27600,-10.60325598
22.27650,-13.04481125
22.27700,-14.26558888
22.27750,-13.96039447
22.27800,-13.65520006
22.27850,-13.96039447
22.27900,-14.26558888
22.27950,-13.04481125
22.28000,-11.2136448
22.28050,-10.29806158
22.28100,-9.992867168
22.28150,-9.382478353
22.28200,-8.46689513
22.28250,-7.246117499
22.28300,-6.635728684
22.28350,-5.72014546
22.28400,-5.109756645
22.28450,-6.025339868
22.28500,-6.940923091
22.28550,-6.330534276
22.28600,-3.888979014
22.28650,-1.447423753
22.28700,-1.447423753
22.28750,-2.057812568
22.28800,-1.142229345
22.28850,0.6889371012
22.28900,2.520103547
22.28950,2.825297955
22.29000,2.520103547
22.29050,2.825297955
22.29100,3.740881178
22.29150,3.740881178
22.29200,2.21490914
22.29250,0.07854828584
22.29300,-1.447423753
22.29350,-1.447423753
22.29400,-1.142229345
22.29450,-2.363006976
22.29500,-4.49936783
22.29550,-6.330534276
22.29600,-7.551311907
22.29650,-8.46689513
22.29700,-9.687672761
22.29750,-9.382478353
22.29800,-7.856506314
22.29850,-6.940923091
22.29900,-8.161700722
22.29950,-9.382478353
22.30000,-8.46689513
22.30050,-6.330534276
22.30100,-4.804562237
22.30150,-4.194173422
22.30200,-3.278590199
22.30250,-1.142229345
22.30300,0.3837426935
22.30350,1.909714732
22.30400,4.046075586
22.30450,6.792825255
22.30500,8.623991701
22.30550,8.929186109
22.30600,8.623991701
22.30650,9.539574925
22.30700,11.06554696
22.30750,11.67593578
22.30800,11.67593578
22.30850,11.98113019
22.30900,11.98113019
22.30950,11.67593578
22.31000,10.45515815
22.31050,9.539574925
22.31100,8.013602886
22.31150,5.572047624
22.31200,3.435686771
22.31250,2.825297955
22.31300,2.825297955
22.31350,2.21490914
22.31400,0.07854828584
22.31450,-0.8370349373
22.31500,-1.142229345
22.31550,-0.8370349373
22.31600,-1.447423753
22.31650,-2.057812568
22.31700,-2.057812568
22.31750,-2.668201383
22.31800,-4.194173422
22.31850,-5.414951053
22.31900,-4.804562237
22.31950,-3.278590199
22.32000,-2.668201383
22.32050,-3.278590199
22.32100,-3.278590199
22.32150,-2.363006976
22.32200,-1.75261816
22.32250,-1.142229345
22.32300,0.07854828584
22.32350,2.520103547
22.32400,4.351269994
22.32450,4.961658809
22.32500,5.266853217
22.32550,6.792825255
22.32600,9.234380517
22.32650,11.06554696
22.32700,12.28632459
22.32750,13.81229663
22.32800,14.11749104
22.32850,13.20190782
22.32900,12.591519
22.32950,12.89671341
22.33000,13.50710222
22.33050,12.28632459
22.33100,9.539574925
22.33150,7.403214071
22.33200,7.098019663
22.33250,7.098019663
22.33300,5.877242032
22.33350,4.046075586
22.33400,3.130492363
22.33450,2.825297955
22.33500,1.604520324
22.33550,0.6889371012
22.33600,0.3837426935
22.33650,-0.2266461219
22.33700,-2.363006976
22.33750,-4.804562237
22.33800,-5.72014546
22.33850,-5.109756645
22.33900,-4.49936783
22.33950,-5.109756645
22.34000,-6.025339868
22.34050,-6.025339868
22.34100,-5.72014546
22.34150,-5.109756645
22.34200,-3.888979014
22.34250,-2.363006976
22.34300,-1.142229345
22.34350,-0.8370349373
22.34400,0.07854828584
22.34450,1.909714732
22.34500,4.046075586
22.34550,5.572047624
22.34600,6.18243644
22.34650,7.098019663
22.34700,7.708408478
22.34750,6.792825255
22.34800,5.572047624
22.34850,4.961658809
22.34900,5.266853217
22.34950,5.266853217
22.35000,4.351269994
22.35050,3.435686771
22.35100,3.130492363
22.35150,2.21490914
22.35200,0.3837426935
22.35250,-1.75261816
22.35300,-3.888979014
22.35350,-5.72014546
22.35400,-6.635728684
22.35450,-7.246117499
22.35500,-7.856506314
22.35550,-9.077283945
22.35600,-9.687672761
22.35650,-9.992867168
22.35700,-10.60325598
22.35750,-11.82403361
22.35800,-12.12922802
22.35850,-10.29806158
22.35900,-8.46689513
22.35950,-8.161700722
22.36000,-9.077283945
22.36050,-9.077283945
22.36100,-7.551311907
22.36150,-6.025339868
22.36200,-5.72014546
22.36250,-5.72014546
22.36300,-5.109756645
22.36350,-4.49936783
22.36400,-3.888979014
22.36450,-1.75261816
22.36500,1.299325917
22.36550,3.740881178
22.36600,4.351269994
22.36650,4.656464401
22.36700,6.487630848
22.36750,8.013602886
22.36800,8.318797294
22.36850,8.623991701
22.36900,8.929186109
22.36950,8.318797294
22.37000,5.266853217
22.37050,0.6889371012
22.37100,-1.75261816
22.37150,-1.447423753
22.37200,0.07854828584
22.37250,1.604520324
22.37300,2.520103547
22.37350,1.909714732
22.37400,0.07854828584
22.37450,-2.363006976
22.37500,-5.109756645
22.37550,-6.330534276
22.37600,-6.635728684
22.37650,-6.635728684
22.37700,-6.635728684
22.37750,-6.635728684
22.37800,-7.246117499
22.37850,-8.46689513
22.37900,-8.772089538
22.37950,-8.161700722
22.38000,-7.551311907
22.38050,-7.551311907
22.38100,-7.551311907
22.38150,-6.940923091
22.38200,-5.72014546
22.38250,-4.49936783
22.38300,-3.278590199
22.38350,-1.447423753
22.38400,-0.2266461219
22.38450,-0.2266461219
22.38500,-0.5318405296
22.38550,0.07854828584
22.38600,2.21490914
22.38650,5.266853217
22.38700,6.792825255
22.38750,5.572047624
22.38800,4.046075586
22.38850,3.740881178
22.38900,5.266853217
22.38950,6.18243644
22.39000,5.572047624
22.39050,4.656464401
22.39100,5.266853217
22.39150,6.487630848
22.39200,6.792825255
22.39250,5.266853217
22.39300,3.740881178
22.39350,2.520103547
22.39400,1.604520324
22.39450,1.299325917
22.39500,0.9941315089
22.39550,0.3837426935
22.39600,-1.142229345
22.39650,-3.278590199
22.39700,-5.414951053
22.39750,-6.635728684
22.39800,-7.246117499
22.39850,-6.940923091
22.39900,-5.72014546
22.39950,-4.194173422
22.40000,-3.888979014
22.40050,-5.109756645
22.40100,-7.551311907
22.40150,-9.382478353
22.40200,-9.687672761
22.40250,-7.856506314
22.40300,-5.72014546
22.40350,-4.194173422
22.40400,-3.583784607
22.40450,-3.278590199
22.40500,-2.057812568
22.40550,0.07854828584
22.40600,3.130492363
22.40650,5.877242032
22.40700,8.013602886
22.40750,10.14996374
22.40800,12.28632459
22.40850,13.20190782
22.40900,12.89671341
22.40950,11.67593578
22.41000,10.76035256
22.41050,11.06554696
22.41100,11.37074137
22.41150,11.06554696
22.41200,10.14996374
22.41250,9.234380517
22.41300,7.708408478
22.41350,5.877242032
22.41400,4.351269994
22.41450,3.130492363
22.41500,0.9941315089
22.41550,-2.057812568
22.41600,-5.109756645
22.41650,-5.72014546
22.41700,-5.72014546
22.41750,-6.940923091
22.41800,-8.772089538
22.41850,-9.382478353
22.41900,-8.161700722
22.41950,-8.161700722
22.42000,-9.077283945
22.42050,-9.992867168
22.42100,-9.077283945
22.42150,-7.551311907
22.42200,-6.635728684
22.42250,-5.72014546
22.42300,-4.194173422
22.42350,-2.668201383
22.42400,-1.142229345
22.42450,-0.2266461219
22.42500,0.3837426935
22.42550,1.604520324
22.42600,3.130492363
22.42650,4.656464401
22.42700,5.877242032
22.42750,6.18243644
22.42800,5.572047624
22.42850,5.877242032
22.42900,7.098019663
22.42950,8.013602886
22.43000,8.318797294
22.43050,8.318797294
22.43100,8.623991701
22.43150,8.013602886
22.43200,6.18243644
22.43250,3.435686771
22.43300,1.909714732
22.43350,1.909714732
22.43400,2.21490914
22.43450,2.21490914
22.43500,1.299325917
22.43550,-0.2266461219
22.43600,-2.668201383
22.43650,-4.49936783
22.43700,-4.804562237
22.43750,-4.804562237
22.43800,-6.025339868
22.43850,-8.161700722
22.43900,-9.382478353
22.43950,-8.46689513
22.44000,-6.330534276
22.44050,-5.109756645
22.44100,-4.804562237
22.44150,-5.414951053
22.44200,-5.109756645
22.44250,-4.194173422
22.44300,-2.973395791
22.44350,-2.363006976
22.44400,-2.363006976
22.44450,-2.363006976
22.44500,-0.8370349373
22.44550,2.21490914
22.44600,5.266853217
22.44650,6.487630848
22.44700,6.792825255
22.44750,6.18243644
22.44800,5.572047624
22.44850,5.266853217
22.44900,5.266853217
22.44950,6.18243644
22.45000,7.708408478
22.45050,8.929186109
22.45100,9.234380517
22.45150,9.234380517
22.45200,8.623991701
22.45250,7.403214071
22.45300,4.961658809
22.45350,2.21490914
22.45400,0.07854828584
22.45450,-1.142229345
22.45500,-1.75261816
22.45550,-2.973395791
22.45600,-4.804562237
22.45650,-6.635728684
22.45700,-6.635728684
22.45750,-5.72014546
22.45800,-5.414951053
22.45850,-5.72014546
22.45900,-6.025339868
22.45950,-5.414951053
22.46000,-5.109756645
22.46050,-5.414951053
22.46100,-5.72014546
22.46150,-6.025339868
22.46200,-6.635728684
22.46250,-7.246117499
22.46300,-6.635728684
22.46350,-5.414951053
22.46400,-4.804562237
22.46450,-5.109756645
22.46500,-4.194173422
22.46550,-2.057812568
22.46600,0.3837426935
22.46650,1.909714732
22.46700,3.130492363
22.46750,4.656464401
22.46800,6.487630848
22.46850,7.708408478
22.46900,8.623991701
22.46950,9.234380517
22.47000,8.623991701
22.47050,6.487630848
22.47100,5.266853217
22.47150,5.266853217
22.47200,4.961658809
22.47250,3.740881178
22.47300,2.520103547
22.47350,2.520103547
22.47400,1.604520324
22.47450,0.07854828584
22.47500,-1.75261816
22.47550,-2.363006976
22.47600,-2.057812568
22.47650,-2.363006976
22.47700,-2.363006976
22.47750,-2.363006976
22.47800,-3.278590199
22.47850,-4.49936783
22.47900,-5.109756645
22.47950,-5.109756645
22.48000,-5.72014546
22.48050,-8.161700722
22.48100,-9.382478353
22.48150,-8.46689513
22.48200,-6.635728684
22.48250,-6.330534276
22.48300,-6.330534276
22.48350,-4.804562237
22.48400,-2.057812568
22.48450,-0.8370349373
22.48500,-0.5318405296
22.48550,-0.5318405296
22.48600,0.07854828584
22.48650,0.07854828584
22.48700,0.07854828584
22.48750,0.9941315089
22.48800,2.825297955
22.48850,4.351269994
22.48900,4.656464401
22.48950,4.961658809
22.49000,5.572047624
22.49050,5.266853217
22.49100,3.740881178
22.49150,2.520103547
22.49200,2.21490914
22.49250,2.825297955
22.49300,3.130492363
22.49350,2.21490914
22.49400,1.299325917
22.49450,0.3837426935
22.49500,-0.5318405296
22.49550,-2.363006976
22.49600,-3.888979014
22.49650,-5.109756645
22.49700,-6.330534276
22.49750,-7.856506314
22.49800,-8.772089538
22.49850,-7.551311907
22.49900,-5.72014546
22.49950,-5.414951053
22.50000,-6.940923091
22.50050,-8.161700722
22.50100,-8.161700722
22.50150,-7.246117499
22.50200,-6.635728684
22.50250,-5.72014546
22.50300,-4.194173422
22.50350,-2.363006976
22.50400,-1.142229345
22.50450,-0.5318405296
22.50500,-0.2266461219
22.50550,0.6889371012
22.50600,2.520103547
22.50650,4.961658809
22.50700,7.098019663
22.50750,8.318797294
22.50800,8.929186109
22.50850,9.844769332
22.50900,11.67593578
22.50950,13.20190782
22.51000,13.20190782
22.51050,11.98113019
22.51100,11.37074137
22.51150,11.67593578
22.51200,11.98113019
22.51250,11.06554696
22.51300,9.234380517
22.51350,6.487630848
22.51400,4.046075586
22.51450,1.604520324
22.51500,0.07854828584
22.51550,-0.5318405296
22.51600,-2.057812568
22.51650,-4.49936783
22.51700,-6.940923091
22.51750,-7.246117499
22.51800,-6.025339868
22.51850,-4.804562237
22.51900,-4.804562237
22.51950,-5.414951053
22.52000,-5.414951053
22.52050,-4.49936783
22.52100,-3.583784607
22.52150,-2.973395791
22.52200,-1.75261816
22.52250,-0.2266461219
22.52300,1.299325917
22.52350,2.21490914
22.52400,3.130492363
22.52450,4.656464401
22.52500,5.877242032
22.52550,5.877242032
22.52600,6.18243644
22.52650,8.929186109
22.52700,12.89671341
22.52750,14.42268545
22.52800,12.89671341
22.52850,11.06554696
22.52900,12.28632459
22.52950,15.03307426
22.53000,15.64346308
22.53050,13.81229663
22.53100,12.28632459
22.53150,12.591519
22.53200,11.98113019
22.53250,9.539574925
22.53300,7.098019663
22.53350,5.266853217
22.53400,3.740881178
22.53450,1.604520324
22.53500,-0.2266461219
22.53550,-1.447423753
22.53600,-2.363006976
22.53650,-4.804562237
22.53700,-7.551311907
22.53750,-9.382478353
22.53800,-9.992867168
22.53850,-9.992867168
22.53900,-9.992867168
22.53950,-9.382478353
22.54000,-9.077283945
22.54050,-9.992867168
22.54100,-10.60325598
22.54150,-9.382478353
22.54200,-7.246117499
22.54250,-5.72014546
22.54300,-4.194173422
22.54350,-1.447423753
22.54400,0.9941315089
22.54450,2.21490914
22.54500,2.520103547
22.54550,3.740881178
22.54600,5.266853217
22.54650,5.877242032
22.54700,4.961658809
22.54750,4.961658809
22.54800,5.572047624
22.54850,6.487630848
22.54900,7.098019663
22.54950,7.403214071
22.55000,7.403214071
22.55050,7.403214071
22.55100,7.403214071
22.55150,7.403214071
22.55200,7.098019663
22.55250,5.572047624
22.55300,4.351269994
22.55350,4.046075586
22.55400,3.740881178
22.55450,1.604520324
22.55500,-2.057812568
22.55550,-4.804562237
22.55600,-5.414951053
22.55650,-4.804562237
22.55700,-4.804562237
22.55750,-5.414951053
22.55800,-6.025339868
22.55850,-6.330534276
22.55900,-6.940923091
22.55950,-7.246117499
22.56000,-7.551311907
22.56050,-7.246117499
22.56100,-6.940923091
22.56150,-6.635728684
22.56200,-5.414951053
22.56250,-3.888979014
22.56300,-2.668201383
22.56350,-2.057812568
22.56400,-2.057812568
22.56450,-2.363006976
22.56500,-1.75261816
22.56550,-0.5318405296
22.56600,0.3837426935
22.56650,1.299325917
22.56700,0.9941315089
22.56750,0.6889371012
22.56800,1.299325917
22.56850,3.130492363
22.56900,4.961658809
22.56950,5.877242032
22.57000,4.961658809
22.57050,4.046075586
22.57100,4.046075586
22.57150,4.351269994
22.57200,3.740881178
22.57250,2.21490914
22.57300,0.3837426935
22.57350,-0.8370349373
22.57400,-2.363006976
22.57450,-3.888979014
22.57500,-4.804562237
22.57550,-5.72014546
22.57600,-6.940923091
22.57650,-8.46689513
22.57700,-9.077283945
22.57750,-9.382478353
22.57800,-9.992867168
22.57850,-10.60325598
22.57900,-11.2136448
22.57950,-10.90845039
22.58000,-10.60325598
22.58050,-9.687672761
22.58100,-8.772089538
22.58150,-8.46689513
22.58200,-8.772089538
22.58250,-8.772089538
22.58300,-6.940923091
22.58350,-4.194173422
22.58400,-2.668201383
22.58450,-3.278590199
22.58500,-2.973395791
22.58550,-1.142229345
22.58600,0.6889371012
22.58650,1.909714732
22.58700,2.21490914
22.58750,3.130492363
22.58800,4.351269994
22.58850,4.046075586
22.58900,3.740881178
22.58950,4.046075586
22.59000,4.656464401
22.59050,3.435686771
22.59100,1.604520324
22.59150,1.604520324
22.59200,2.520103547
22.59250,1.604520324
22.59300,-2.057812568
22.59350,-5.414951053
22.59400,-5.109756645
22.59450,-2.668201383
22.59500,-1.142229345
22.59550,-1.75261816
22.59600,-3.278590199
22.59650,-5.109756645
22.59700,-7.246117499
22.59750,-8.772089538
22.59800,-8.46689513
22.59850,-7.551311907
22.59900,-7.551311907
22.59950,-8.46689513
22.60000,-9.382478353
22.60050,-9.077283945
22.60100,-8.46689513
22.60150,-7.856506314
22.60200,-7.551311907
22.60250,-7.246117499
22.60300,-6.940923091
22.60350,-5.72014546
22.60400,-3.888979014
22.60450,-2.668201383
22.60500,-2.057812568
22.60550,0.07854828584
22.60600,3.740881178
22.60650,6.792825255
22.60700,7.098019663
22.60750,6.487630848
22.60800,7.098019663
22.60850,8.623991701
22.60900,9.844769332
22.60950,10.45515815
22.61000,10.45515815
22.61050,10.45515815
22.61100,9.234380517
22.61150,6.792825255
22.61200,4.656464401
22.61250,3.435686771
22.61300,3.130492363
22.61350,3.435686771
22.61400,3.740881178
22.61450,2.825297955
22.61500,1.299325917
22.61550,0.07854828584
22.61600,0.07854828584
22.61650,0.07854828584
22.61700,-0.5318405296
22.61750,-1.447423753
22.61800,-1.75261816
22.61850,-2.057812568
22.61900,-2.973395791
22.61950,-4.194173422
22.62000,-4.49936783
22.62050,-3.583784607
22.62100,-2.057812568
22.62150,-0.2266461219
22.62200,0.6889371012
22.62250,1.299325917
22.62300,1.604520324
22.62350,3.435686771
22.62400,6.18243644
22.62450,8.318797294
22.62500,8.623991701
22.62550,8.318797294
22.62600,7.708408478
22.62650,7.403214071
22.62700,7.098019663
22.62750,7.708408478
22.62800,9.234380517
22.62850,10.45515815
22.62900,11.06554696
22.62950,11.37074137
22.63000,11.06554696
22.63050,9.844769332
22.63100,8.929186109
22.63150,8.929186109
22.63200,10.14996374
22.63250,10.14996374
22.63300,8.623991701
22.63350,7.098019663
22.63400,5.877242032
22.63450,4.656464401
22.63500,2.825297955
22.63550,0.6889371012
22.63600,-0.5318405296
22.63650,-2.057812568
22.63700,-2.973395791
22.63750,-4.194173422
22.63800,-5.414951053
22.63850,-6.940923091
22.63900,-7.856506314
22.63950,-6.635728684
22.64000,-4.804562237
22.64050,-4.804562237
22.64100,-6.940923091
22.64150,-8.772089538
22.64200,-8.161700722
22.64250,-6.940923091
22.64300,-6.025339868
22.64350,-5.109756645
22.64400,-2.363006976
22.64450,0.6889371012
22.64500,1.604520324
22.64550,1.604520324
22.64600,3.130492363
22.64650,7.708408478
22.64700,11.06554696
22.64750,10.76035256
22.64800,8.318797294
22.64850,7.708408478
22.64900,9.539574925
22.64950,11.67593578
22.65000,12.591519
22.65050,12.591519
22.65100,12.28632459
22.65150,10.14996374
22.65200,6.18243644
22.65250,1.909714732
22.65300,0.07854828584
22.65350,-0.2266461219
22.65400,-0.5318405296
22.65450,-1.447423753
22.65500,-2.668201383
22.65550,-3.888979014
22.65600,-4.804562237
22.65650,-4.804562237
22.65700,-4.804562237
22.65750,-5.109756645
22.65800,-6.025339868
22.65850,-6.940923091
22.65900,-7.551311907
22.65950,-7.246117499
22.66000,-6.940923091
22.66050,-6.025339868
22.66100,-5.72014546
22.66150,-5.109756645
22.66200,-4.194173422
22.66250,-2.668201383
22.66300,-0.8370349373
22.66350,-0.2266461219
22.66400,-0.2266461219
22.66450,0.07854828584
22.66500,0.6889371012
22.66550,0.9941315089
22.66600,1.299325917
22.66650,3.130492363
22.66700,6.487630848
22.66750,8.929186109
22.66800,8.318797294
22.66850,6.792825255
22.66900,6.792825255
22.66950,7.708408478
22.67000,7.403214071
22.67050,6.18243644
22.67100,5.572047624
22.67150,5.266853217
22.67200,4.046075586
22.67250,2.21490914
22.67300,1.604520324
22.67350,1.604520324
22.67400,0.3837426935
22.67450,-2.057812568
22.67500,-4.194173422
22.67550,-4.49936783
22.67600,-4.49936783
22.67650,-6.330534276
22.67700,-8.161700722
22.67750,-8.772089538
22.67800,-9.382478353
22.67850,-12.12922802
22.67900,-15.1811721
22.67950,-15.79156091
22.68000,-13.96039447
22.68050,-12.73961684
22.68100,-12.73961684
22.68150,-12.43442243
22.68200,-10.90845039
22.68250,-9.382478353
22.68300,-8.46689513
22.68350,-6.635728684
22.68400,-2.363006976
22.68450,0.3837426935
22.68500,0.07854828584
22.68550,-1.447423753
22.68600,-0.8370349373
22.68650,1.299325917
22.68700,3.130492363
22.68750,3.130492363
22.68800,3.740881178
22.68850,5.877242032
22.68900,8.013602886
22.68950,7.098019663
22.69000,4.656464401
22.69050,3.130492363
22.69100,4.046075586
22.69150,4.656464401
22.69200,2.825297955
22.69250,0.3837426935
22.69300,-0.5318405296
22.69350,-0.2266461219
22.69400,-0.8370349373
22.69450,-2.973395791
22.69500,-5.414951053
22.69550,-6.635728684
22.69600,-7.246117499
22.69650,-8.46689513
22.69700,-9.992867168
22.69750,-10.60325598
22.69800,-10.60325598
22.69850,-10.60325598
22.69900,-10.60325598
22.69950,-10.29806158
22.70000,-9.687672761
22.70050,-9.992867168
22.70100,-9.992867168
22.70150,-8.46689513
22.70200,-5.414951053
22.70250,-2.973395791
22.70300,-1.447423753
22.70350,-0.5318405296
22.70400,0.3837426935
22.70450,1.299325917
22.70500,2.520103547
22.70550,3.435686771
22.70600,4.046075586
22.70650,4.351269994
22.70700,4.656464401
22.70750,6.18243644
22.70800,8.929186109
22.70850,11.06554696
22.70900,11.06554696
22.70950,10.14996374
22.71000,9.539574925
22.71050,9.844769332
22.71100,9.844769332
22.71150,9.539574925
22.71200,8.929186109
22.71250,8.318797294
22.71300,7.403214071
22.71350,6.487630848
22.71400,4.656464401
22.71450,1.909714732
22.71500,-1.447423753
22.71550,-4.49936783
22.71600,-4.49936783
22.71650,-2.668201383
22.71700,-2.057812568
22.71750,-3.888979014
22.71800,-6.025339868
22.71850,-6.635728684
22.71900,-6.330534276
22.71950,-6.940923091
22.72000,-7.856506314
22.72050,-7.551311907
22.72100,-6.635728684
22.72150,-6.330534276
22.72200,-6.940923091
22.72250,-6.635728684
22.72300,-5.109756645
22.72350,-2.973395791
22.72400,-1.447423753
22.72450,-0.5318405296
22.72500,0.07854828584
22.72550,0.9941315089
22.72600,3.435686771
22.72650,6.18243644
22.72700,8.013602886
22.72750,8.013602886
22.72800,7.098019663
22.72850,7.098019663
22.72900,8.013602886
22.72950,8.623991701
22.73000,8.318797294
22.73050,7.708408478
22.73100,6.792825255
22.73150,5.572047624
22.73200,4.351269994
22.73250,4.046075586
22.73300,4.351269994
22.73350,3.740881178
22.73400,2.21490914
22.73450,1.299325917
22.73500,1.604520324
22.73550,0.6889371012
22.73600,-2.057812568
22.73650,-4.49936783
22.73700,-3.583784607
22.73750,-1.447423753
22.73800,-1.447423753
22.73850,-3.278590199
22.73900,-4.49936783
22.73950,-3.888979014
22.74000,-2.668201383
22.74050,-1.75261816
22.74100,-1.447423753
22.74150,-1.447423753
22.74200,-1.75261816
22.74250,-2.363006976
22.74300,-2.057812568
22.74350,-0.2266461219
22.74400,2.21490914
22.74450,4.046075586
22.74500,5.572047624
22.74550,6.487630848
22.74600,7.098019663
22.74650,7.403214071
22.74700,7.708408478
22.74750,8.623991701
22.74800,9.234380517
22.74850,9.844769332
22.74900,9.844769332
22.74950,10.45515815
22.75000,10.76035256
22.75050,10.45515815
22.75100,8.929186109
22.75150,6.792825255
22.75200,5.572047624
22.75250,5.572047624
22.75300,5.572047624
22.75350,4.046075586
22.75400,1.299325917
22.75450,0.07854828584
22.75500,-0.5318405296
22.75550,-1.75261816
22.75600,-4.194173422
22.75650,-6.330534276
22.75700,-6.330534276
22.75750,-5.109756645
22.75800,-5.109756645
22.75850,-6.635728684
22.75900,-7.551311907
22.75950,-7.551311907
22.76000,-7.246117499
22.76050,-7.551311907
22.76100,-7.551311907
22.76150,-6.025339868
22.76200,-3.278590199
22.76250,-1.142229345
22.76300,-1.142229345
22.76350,-2.057812568
22.76400,-2.057812568
22.76450,-0.8370349373
22.76500,0.6889371012
22.76550,1.909714732
22.76600,3.130492363
22.76650,4.656464401
22.76700,5.572047624
22.76750,5.572047624
22.76800,5.266853217
22.76850,6.487630848
22.76900,8.929186109
22.76950,10.14996374
22.77000,9.234380517
22.77050,7.403214071
22.77100,6.792825255
22.77150,6.792825255
22.77200,5.266853217
22.77250,3.130492363
22.77300,1.299325917
22.77350,0.6889371012
22.77400,0.07854828584
22.77450,-0.8370349373
22.77500,-2.363006976
22.77550,-3.583784607
22.77600,-3.888979014
22.77650,-3.583784607
22.77700,-2.363006976
22.77750,-2.057812568
22.77800,-2.973395791
22.77850,-5.109756645
22.77900,-6.635728684
22.77950,-6.635728684
22.78000,-6.025339868
22.78050,-6.025339868
22.78100,-6.940923091
22.78150,-6.940923091
22.78200,-6.635728684
22.78250,-6.025339868
22.78300,-5.72014546
22.78350,-4.804562237
22.78400,-2.973395791
22.78450,-0.5318405296
22.78500,0.3837426935
22.78550,0.07854828584
22.78600,0.07854828584
22.78650,0.3837426935
22.78700,1.299325917
22.78750,2.21490914
22.78800,3.740881178
22.78850,5.572047624
22.78900,7.403214071
22.78950,8.013602886
22.79000,7.708408478
22.79050,7.098019663
22.79100,7.098019663
22.79150,7.098019663
22.79200,7.098019663
22.79250,6.487630848
22.79300,5.572047624
22.79350,4.351269994
22.79400,2.520103547
22.79450,0.3837426935
22.79500,-0.8370349373
22.79550,-1.75261816
22.79600,-2.973395791
22.79650,-4.49936783
22.79700,-5.72014546
22.79750,-6.025339868
22.79800,-6.025339868
22.79850,-6.330534276
22.79900,-6.940923091
22.79950,-7.551311907
22.80000,-8.161700722
22.80050,-8.772089538
22.80100,-9.077283945
22.80150,-8.46689513
22.80200,-6.330534276
22.80250,-4.194173422
22.80300,-2.973395791
22.80350,-2.363006976
22.80400,-2.363006976
22.80450,-1.447423753
22.80500,-0.2266461219
22.80550,1.299325917
22.80600,2.825297955
22.80650,4.046075586
22.80700,4.656464401
22.80750,4.656464401
22.80800,4.656464401
22.80850,4.961658809
22.80900,6.18243644
22.80950,6.487630848
22.81000,4.046075586
22.81050,0.6889371012
22.81100,-0.5318405296
22.81150,0.3837426935
22.81200,2.21490914
22.81250,2.21490914
22.81300,0.9941315089
22.81350,0.07854828584
22.81400,-0.5318405296
22.81450,-1.75261816
22.81500,-3.583784607
22.81550,-5.72014546
22.81600,-7.246117499
22.81650,-7.551311907
22.81700,-6.635728684
22.81750,-5.109756645
22.81800,-5.109756645
22.81850,-6.940923091
22.81900,-9.382478353
22.81950,-10.60325598
22.82000,-11.51883921
22.82050,-12.12922802
22.82100,-11.82403361
22.82150,-9.687672761
22.82200,-7.856506314
22.82250,-6.940923091
22.82300,-6.940923091
22.82350,-6.025339868
22.82400,-4.194173422
22.82450,-2.668201383
22.82500,-1.447423753
22.82550,0.07854828584
22.82600,1.909714732
22.82650,3.740881178
22.82700,4.656464401
22.82750,4.351269994
22.82800,4.046075586
22.82850,4.961658809
22.82900,6.792825255
22.82950,7.708408478
22.83000,7.098019663
22.83050,6.18243644
22.83100,6.792825255
22.83150,7.403214071
22.83200,7.098019663
22.83250,5.877242032
22.83300,4.656464401
22.83350,3.435686771
22.83400,1.299325917
22.83450,-0.2266461219
22.83500,-0.5318405296
22.83550,-0.2266461219
22.83600,-1.142229345
22.83650,-2.973395791
22.83700,-4.194173422
22.83750,-4.49936783
22.83800,-5.72014546
22.83850,-6.940923091
22.83900,-6.940923091
22.83950,-5.414951053
22.84000,-5.109756645
22.84050,-6.330534276
22.84100,-6.940923091
22.84150,-6.330534276
22.84200,-5.72014546
22.84250,-6.025339868
22.84300,-6.025339868
22.84350,-3.583784607
22.84400,-1.142229345
22.84450,0.07854828584
22.84500,0.6889371012
22.84550,2.520103547
22.84600,4.961658809
22.84650,5.877242032
22.84700,6.792825255
22.84750,8.013602886
22.84800,9.539574925
22.84850,9.844769332
22.84900,9.844769332
22.84950,10.76035256
22.85000,11.98113019
22.85050,11.67593578
22.85100,9.844769332
22.85150,8.318797294
22.85200,7.708408478
22.85250,7.098019663
22.85300,6.18243644
22.85350,4.656464401
22.85400,2.825297955
22.85450,0.6889371012
22.85500,-1.447423753
22.85550,-2.363006976
22.85600,-2.363006976
22.85650,-2.973395791
22.85700,-5.414951053
22.85750,-7.551311907
22.85800,-8.772089538
22.85850,-9.382478353
22.85900,-10.90845039
22.85950,-12.73961684
22.86000,-13.35000565
22.86050,-11.51883921
22.86100,-8.46689513
22.86150,-5.72014546
22.86200,-3.583784607
22.86250,-1.75261816
22.86300,-0.5318405296
22.86350,-0.2266461219
22.86400,0.07854828584
22.86450,0.9941315089
22.86500,3.130492363
22.86550,4.961658809
22.86600,6.792825255
22.86650,8.013602886
22.86700,8.623991701
22.86750,8.318797294
22.86800,7.708408478
22.86850,8.013602886
22.86900,8.623991701
22.86950,9.539574925
22.87000,9.844769332
22.87050,9.844769332
22.87100,8.623991701
22.87150,7.098019663
22.87200,5.877242032
22.87250,6.18243644
22.87300,6.18243644
22.87350,4.046075586
22.87400,1.299325917
22.87450,0.07854828584
22.87500,-0.5318405296
22.87550,-2.057812568
22.87600,-4.49936783
22.87650,-5.414951053
22.87700,-5.109756645
22.87750,-6.025339868
22.87800,-7.856506314
22.87850,-8.772089538
22.87900,-8.161700722
22.87950,-8.161700722
22.88000,-9.992867168
22.88050,-11.2136448
22.88100,-9.687672761
22.88150,-7.246117499
22.88200,-6.330534276
22.88250,-5.72014546
22.88300,-3.583784607
22.88350,-1.142229345
22.88400,-0.2266461219
22.88450,-0.8370349373
22.88500,-0.2266461219
22.88550,1.604520324
22.88600,3.435686771
22.88650,4.961658809
22.88700,6.792825255
22.88750,9.539574925
22.88800,10.76035256
22.88850,10.45515815
22.88900,10.45515815
22.88950,11.67593578
22.89000,12.591519
22.89050,11.98113019
22.89100,11.06554696
22.89150,10.45515815
22.89200,9.539574925
22.89250,7.708408478
22.89300,6.487630848
22.89350,6.18243644
22.89400,5.572047624
22.89450,3.435686771
22.89500,1.604520324
22.89550,0.6889371012
22.89600,0.07854828584
22.89650,-1.75261816
22.89700,-4.194173422
22.89750,-4.49936783
22.89800,-3.888979014
22.89850,-4.804562237
22.89900,-7.246117499
22.89950,-9.382478353
22.90000,-10.29806158
22.90050,-10.90845039
22.90100,-11.82403361
22.90150,-12.12922802
22.90200,-11.2136448
22.90250,-9.992867168
22.90300,-8.161700722
22.90350,-4.804562237
22.90400,-2.057812568
22.90450,-1.75261816
22.90500,-2.668201383
22.90550,-2.363006976
22.90600,-0.2266461219
22.90650,1.604520324
22.90700,2.520103547
22.90750,3.435686771
22.90800,5.266853217
22.90850,6.792825255
22.90900,7.403214071
22.90950,8.318797294
22.91000,9.844769332
22.91050,10.45515815
22.91100,10.14996374
22.91150,8.929186109
22.91200,8.013602886
22.91250,6.792825255
22.91300,4.961658809
22.91350,2.825297955
22.91400,0.9941315089
22.91450,0.07854828584
22.91500,-0.5318405296
22.91550,-0.2266461219
22.91600,-0.5318405296
22.91650,-2.668201383
22.91700,-5.72014546
22.91750,-6.940923091
22.91800,-6.635728684
22.91850,-6.330534276
22.91900,-7.551311907
22.91950,-8.772089538
22.92000,-8.46689513
22.92050,-7.551311907
22.92100,-6.635728684
22.92150,-5.414951053
22.92200,-3.888979014
22.92250,-2.668201383
22.92300,-2.057812568
22.92350,-1.142229345
22.92400,0.3837426935
22.92450,1.604520324
22.92500,2.21490914
22.92550,3.740881178
22.92600,7.098019663
22.92650,9.844769332
22.92700,9.844769332
22.92750,8.929186109
22.92800,8.623991701
22.92850,9.539574925
22.92900,9.844769332
22.92950,9.539574925
22.93000,9.844769332
22.93050,10.45515815
22.93100,9.539574925
22.93150,7.098019663
22.93200,5.266853217
22.93250,4.656464401
22.93300,3.435686771
22.93350,1.604520324
22.93400,0.3837426935
22.93450,0.3837426935
22.93500,0.6889371012
22.93550,-0.8370349373
22.93600,-4.194173422
22.93650,-7.246117499
22.93700,-8.161700722
22.93750,-7.551311907
22.93800,-6.025339868
22.93850,-5.414951053
22.93900,-5.414951053
22.93950,-5.72014546
22.94000,-6.025339868
22.94050,-6.330534276
22.94100,-6.330534276
22.94150,-5.72014546
22.94200,-5.109756645
22.94250,-4.49936783
22.94300,-2.668201383
22.94350,0.07854828584
22.94400,2.520103547
22.94450,3.130492363
22.94500,2.21490914
22.94550,1.909714732
22.94600,3.130492363
22.94650,4.961658809
22.94700,5.266853217
22.94750,5.266853217
22.94800,5.877242032
22.94850,7.403214071
22.94900,9.234380517
22.94950,11.06554696
22.95000,11.98113019
22.95050,11.67593578
22.95100,9.539574925
22.95150,6.487630848
22.95200,4.656464401
22.95250,4.961658809
22.95300,5.572047624
22.95350,4.351269994
22.95400,1.604520324
22.95450,-0.2266461219
22.95500,-1.447423753
22.95550,-2.973395791
22.95600,-5.414951053
22.95650,-7.551311907
22.95700,-8.161700722
22.95750,-8.772089538
22.95800,-9.687672761
22.95850,-10.60325598
22.95900,-10.60325598
22.95950,-10.29806158
22.96000,-11.51883921
22.96050,-12.43442243
22.96100,-11.82403361
22.96150,-10.29806158
22.96200,-10.60325598
22.96250,-11.51883921
22.96300,-10.60325598
22.96350,-7.246117499
22.96400,-4.194173422
22.96450,-3.888979014
22.96500,-3.888979014
22.96550,-2.363006976
22.96600,-0.8370349373
22.96650,-1.142229345
22.96700,-2.363006976
22.96750,-1.447423753
22.96800,1.299325917
22.96850,3.740881178
22.96900,4.046075586
22.96950,3.740881178
22.97000,3.435686771
22.97050,3.435686771
22.97100,3.130492363
22.97150,3.435686771
22.97200,4.046075586
22.97250,4.351269994
22.97300,3.130492363
22.97350,1.299325917
22.97400,0.6889371012
22.97450,0.6889371012
22.97500,0.07854828584
22.97550,-1.447423753
22.97600,-3.278590199
22.97650,-4.49936783
22.97700,-5.109756645
22.97750,-6.025339868
22.97800,-7.246117499
22.97850,-8.46689513
22.97900,-8.772089538
22.97950,-9.077283945
22.98000,-9.687672761
22.98050,-10.29806158
22.98100,-10.29806158
22.98150,-8.772089538
22.98200,-6.635728684
22.98250,-4.804562237
22.98300,-4.194173422
22.98350,-4.194173422
22.98400,-3.278590199
22.98450,-1.75261816
22.98500,0.07854828584
22.98550,1.604520324
22.98600,3.435686771
22.98650,4.656464401
22.98700,5.877242032
22.98750,7.708408478
22.98800,9.234380517
22.98850,9.539574925
22.98900,8.929186109
22.98950,9.234380517
22.99000,10.45515815
22.99050,11.98113019
22.99100,11.98113019
22.99150,11.06554696
22.99200,9.539574925
22.99250,8.013602886
22.99300,6.18243644
22.99350,5.266853217
22.99400,4.961658809
22.99450,4.656464401
22.99500,2.520103547
22.99550,0.6889371012
22.99600,0.07854828584
22.99650,-0.2266461219
22.99700,-1.447423753
22.99750,-3.583784607
22.99800,-5.414951053
22.99850,-6.025339868
22.99900,-6.635728684
22.99950,-7.246117499
23.00000,-7.856506314
23.00050,-7.856506314
23.00100,-7.551311907
23.00150,-7.551311907
23.00200,-7.551311907
23.00250,-6.940923091
23.00300,-5.414951053
23.00350,-3.278590199
23.00400,-1.447423753
23.00450,-0.8370349373
23.00500,-0.2266461219
23.00550,0.9941315089
23.00600,3.130492363
23.00650,4.046075586
23.00700,4.351269994
23.00750,5.572047624
23.00800,8.013602886
23.00850,8.623991701
23.00900,7.098019663
23.00950,5.266853217
23.01000,5.877242032
23.01050,7.708408478
23.01100,8.623991701
23.01150,8.929186109
23.01200,8.623991701
23.01250,7.098019663
23.01300,4.351269994
23.01350,2.21490914
23.01400,1.299325917
23.01450,0.6889371012
23.01500,-0.2266461219
23.01550,-0.8370349373
23.01600,-0.2266461219
23.01650,-0.8370349373
23.01700,-3.888979014
23.01750,-6.940923091
23.01800,-7.246117499
23.01850,-5.72014546
23.01900,-5.414951053
23.01950,-6.635728684
23.02000,-6.330534276
23.02050,-4.804562237
23.02100,-4.194173422
23.02150,-5.109756645
23.02200,-5.72014546
23.02250,-4.49936783
23.02300,-2.363006976
23.02350,-1.447423753
23.02400,-1.142229345
23.02450,-0.5318405296
23.02500,0.6889371012
23.02550,3.130492363
23.02600,5.266853217
23.02650,6.487630848
23.02700,6.792825255
23.02750,7.403214071
23.02800,8.623991701
23.02850,10.14996374
23.02900,10.76035256
23.02950,10.14996374
23.03000,9.844769332
23.03050,10.14996374
23.03100,10.45515815
23.03150,9.844769332
23.03200,9.234380517
23.03250,8.318797294
23.03300,7.098019663
23.03350,6.18243644
23.03400,5.877242032
23.03450,5.266853217
23.03500,3.435686771
23.03550,0.9941315089
23.03600,-1.142229345
23.03650,-2.668201383
23.03700,-3.888979014
23.03750,-5.72014546
23.03800,-8.161700722
23.03850,-9.687672761
23.03900,-9.687672761
23.03950,-9.077283945
23.04000,-9.382478353
23.04050,-10.29806158
23.04100,-9.992867168
23.04150,-8.772089538
23.04200,-7.551311907
23.04250,-7.856506314
23.04300,-6.940923091
23.04350,-3.583784607
23.04400,0.07854828584
23.04450,0.9941315089
23.04500,-0.2266461219
23.04550,-0.8370349373
23.04600,1.299325917
23.04650,4.046075586
23.04700,4.961658809
23.04750,4.656464401
23.04800,5.266853217
23.04850,7.098019663
23.04900,8.929186109
23.04950,9.234380517
23.05000,8.623991701
23.05050,7.708408478
23.05100,6.18243644
23.05150,4.351269994
23.05200,3.740881178
23.05250,4.656464401
23.05300,5.877242032
23.05350,5.572047624
23.05400,3.435686771
23.05450,1.299325917
23.05500,0.07854828584
23.05550,-1.142229345
23.05600,-4.49936783
23.05650,-7.551311907
23.05700,-7.551311907
23.05750,-6.025339868
23.05800,-5.72014546
23.05850,-7.856506314
23.05900,-9.382478353
23.05950,-9.382478353
23.06000,-9.687672761
23.06050,-11.2136448
23.06100,-12.43442243
23.06150,-10.90845039
23.06200,-8.46689513
23.06250,-6.940923091
23.06300,-6.635728684
23.06350,-5.414951053
23.06400,-4.194173422
23.06450,-3.278590199
23.06500,-1.75261816
23.06550,1.299325917
23.06600,4.656464401
23.06650,5.572047624
23.06700,4.656464401
23.06750,5.266853217
23.06800,7.403214071
23.06850,8.013602886
23.06900,6.792825255
23.06950,5.877242032
23.07000,7.098019663
23.07050,8.929186109
23.07100,9.234380517
23.07150,8.623991701
23.07200,7.403214071
23.07250,6.18243644
23.07300,4.656464401
23.07350,3.435686771
23.07400,2.21490914
23.07450,0.6889371012
23.07500,-1.142229345
23.07550,-2.057812568
23.07600,-2.057812568
23.07650,-1.75261816
23.07700,-2.973395791
23.07750,-4.804562237
23.07800,-6.635728684
23.07850,-7.551311907
23.07900,-8.161700722
23.07950,-7.551311907
23.08000,-6.330534276
23.08050,-5.72014546
23.08100,-6.025339868
23.08150,-6.025339868
23.08200,-5.72014546
23.08250,-5.109756645
23.08300,-4.804562237
23.08350,-4.194173422
23.08400,-2.668201383
23.08450,-1.75261816
23.08500,-0.8370349373
23.08550,0.07854828584
23.08600,1.909714732
23.08650,3.435686771
23.08700,4.046075586
23.08750,4.351269994
23.08800,5.572047624
23.08850,6.792825255
23.08900,7.098019663
23.08950,7.098019663
23.09000,7.708408478
23.09050,8.318797294
23.09100,7.098019663
23.09150,4.351269994
23.09200,2.21490914
23.09250,1.299325917
23.09300,0.9941315089
23.09350,0.6889371012
23.09400,-0.5318405296
23.09450,-2.668201383
23.09500,-4.49936783
23.09550,-5.414951053
23.09600,-6.025339868
23.09650,-6.940923091
23.09700,-8.161700722
23.09750,-7.551311907
23.09800,-6.330534276
23.09850,-6.635728684
23.09900,-9.077283945
23.09950,-11.2136448
23.10000,-11.2136448
23.10050,-10.29806158
23.10100,-9.687672761
23.10150,-9.687672761
23.10200,-8.772089538
23.10250,-6.635728684
23.10300,-4.194173422
23.10350,-2.973395791
23.10400,-2.057812568
23.10450,-1.75261816
23.10500,-1.447423753
23.10550,0.07854828584
23.10600,2.21490914
23.10650,4.656464401
23.10700,5.266853217
23.10750,5.266853217
23.10800,5.877242032
23.10850,7.708408478
23.10900,9.539574925
23.10950,10.45515815
23.11000,10.76035256
23.11050,10.45515815
23.11100,9.844769332
23.11150,8.929186109
23.11200,8.623991701
23.11250,8.929186109
23.11300,8.318797294
23.11350,6.487630848
23.11400,4.351269994
23.11450,2.825297955
23.11500,0.9941315089
23.11550,0.07854828584
23.11600,0.07854828584
23.11650,0.07854828584
23.11700,-0.2266461219
23.11750,-2.973395791
23.11800,-5.414951053
23.11850,-6.025339868
23.11900,-5.109756645
23.11950,-5.414951053
23.12000,-7.246117499
23.12050,-9.077283945
23.12100,-8.46689513
23.12150,-6.330534276
23.12200,-3.583784607
23.12250,-1.447423753
23.12300,0.07854828584
23.12350,0.9941315089
23.12400,1.299325917
23.12450,2.520103547
23.12500,4.351269994
23.12550,6.487630848
23.12600,7.098019663
23.12650,7.098019663
23.12700,7.708408478
23.12750,9.844769332
23.12800,12.28632459
23.12850,13.20190782
23.12900,12.591519
23.12950,11.06554696
23.13000,10.45515815
23.13050,10.45515815
23.13100,10.76035256
23.13150,10.14996374
23.13200,8.929186109
23.13250,7.098019663
23.13300,5.877242032
23.13350,4.961658809
23.13400,3.435686771
23.13450,1.909714732
23.13500,0.6889371012
23.13550,-0.2266461219
23.13600,-1.142229345
23.13650,-2.668201383
23.13700,-3.888979014
23.13750,-4.804562237
23.13800,-5.109756645
23.13850,-5.72014546
23.13900,-6.330534276
23.13950,-6.330534276
23.14000,-5.72014546
23.14050,-5.414951053
23.14100,-6.025339868
23.14150,-6.940923091
23.14200,-6.940923091
23.14250,-6.330534276
23.14300,-5.414951053
23.14350,-4.804562237
23.14400,-3.888979014
23.14450,-2.973395791
23.14500,-2.057812568
23.14550,-1.447423753
23.14600,0.3837426935
23.14650,2.520103547
23.14700,4.046075586
23.14750,4.351269994
23.14800,5.572047624
23.14850,8.318797294
23.14900,10.14996374
23.14950,8.623991701
23.15000,5.572047624
23.15050,4.656464401
23.15100,5.572047624
23.15150,4.961658809
23.15200,2.21490914
23.15250,0.3837426935
23.15300,0.07854828584
23.15350,0.3837426935
23.15400,-0.8370349373
23.15450,-2.668201383
23.15500,-3.583784607
23.15550,-4.194173422
23.15600,-5.72014546
23.15650,-7.551311907
23.15700,-8.46689513
23.15750,-10.29806158
23.15800,-13.04481125
23.15850,-15.1811721
23.15900,-15.48636651
23.15950,-13.96039447
23.16000,-13.35000565
23.16050,-13.65520006
23.16100,-13.96039447
23.16150,-12.73961684
23.16200,-10.60325598
23.16250,-8.772089538
23.16300,-7.551311907
23.16350,-5.414951053
23.16400,-2.363006976
23.16450,0.07854828584
23.16500,1.299325917
23.16550,2.21490914
23.16600,3.130492363
23.16650,4.656464401
23.16700,6.792825255
23.16750,8.623991701
23.16800,9.844769332
23.16850,10.14996374
23.16900,9.844769332
23.16950,9.844769332
23.17000,9.539574925
23.17050,8.318797294
23.17100,5.877242032
23.17150,3.740881178
23.17200,2.520103547
23.17250,2.21490914
23.17300,2.21490914
23.17350,1.604520324
23.17400,0.9941315089
23.17450,-0.2266461219
23.17500,-1.75261816
23.17550,-2.363006976
23.17600,-2.363006976
23.17650,-2.668201383
23.17700,-3.278590199
23.17750,-3.888979014
23.17800,-4.49936783
23.17850,-5.414951053
23.17900,-6.940923091
23.17950,-7.856506314
23.18000,-7.551311907
23.18050,-6.635728684
23.18100,-6.940923091
23.18150,-7.246117499
23.18200,-6.025339868
23.18250,-4.194173422
23.18300,-2.973395791
23.18350,-2.668201383
23.18400,-1.447423753
23.18450,0.6889371012
23.18500,3.130492363
23.18550,4.046075586
23.18600,4.656464401
23.18650,5.572047624
23.18700,6.792825255
23.18750,7.403214071
23.18800,8.013602886
23.18850,8.318797294
23.18900,8.318797294
23.18950,7.403214071
23.19000,7.098019663
23.19050,8.318797294
23.19100,8.929186109
23.19150,8.318797294
23.19200,6.487630848
23.19250,6.18243644
23.19300,6.487630848
23.19350,5.266853217
23.19400,2.825297955
23.19450,0.3837426935
23.19500,-0.8370349373
23.19550,-3.583784607
23.19600,-7.246117499
23.19650,-9.382478353
23.19700,-8.161700722
23.19750,-6.940923091
23.19800,-7.551311907
23.19850,-9.382478353
23.19900,-9.992867168
23.19950,-9.382478353
23.20000,-10.29806158
23.20050,-12.12922802
23.20100,-12.73961684
23.20150,-11.82403361
23.20200,-11.2136448
23.20250,-11.2136448
23.20300,-9.687672761
23.20350,-6.635728684
23.20400,-4.194173422
23.20450,-3.583784607
23.20500,-3.278590199
23.20550,-1.447423753
23.20600,0.6889371012
23.20650,2.520103547
23.20700,4.046075586
23.20750,6.18243644
23.20800,8.013602886
23.20850,8.623991701
23.20900,8.013602886
23.20950,7.708408478
23.21000,8.318797294
23.21050,8.929186109
23.21100,9.234380517
23.21150,9.234380517
23.21200,8.929186109
23.21250,8.013602886
23.21300,6.792825255
23.21350,5.877242032
23.21400,4.961658809
23.21450,2.825297955
23.21500,0.3837426935
23.21550,-0.5318405296
23.21600,0.07854828584
23.21650,0.6889371012
23.21700,0.3837426935
23.21750,-0.8370349373
23.21800,-1.75261816
23.21850,-2.057812568
23.21900,-1.75261816
23.21950,-2.057812568
23.22000,-2.668201383
23.22050,-4.194173422
23.22100,-4.804562237
23.22150,-4.804562237
23.22200,-5.109756645
23.22250,-5.414951053
23.22300,-4.194173422
23.22350,-1.142229345
23.22400,2.520103547
23.22450,4.351269994
23.22500,3.740881178
23.22550,3.130492363
23.22600,4.351269994
23.22650,6.487630848
23.22700,6.792825255
23.22750,5.572047624
23.22800,4.656464401
23.22850,5.572047624
23.22900,7.098019663
23.22950,7.708408478
23.23000,6.487630848
23.23050,5.572047624
23.23100,5.572047624
23.23150,6.792825255
23.23200,7.403214071
23.23250,5.877242032
23.23300,4.046075586
23.23350,3.435686771
23.23400,4.656464401
23.23450,5.572047624
23.23500,4.351269994
23.23550,1.909714732
23.23600,0.6889371012
23.23650,0.6889371012
23.23700,0.3837426935
23.23750,-1.142229345
23.23800,-4.194173422
23.23850,-6.025339868
23.23900,-6.025339868
23.23950,-5.72014546
23.24000,-6.025339868
23.24050,-6.330534276
23.24100,-6.025339868
23.24150,-4.49936783
23.24200,-3.278590199
23.24250,-3.278590199
23.24300,-3.583784607
23.24350,-2.668201383
23.24400,-1.142229345
23.24450,0.07854828584
23.24500,0.07854828584
23.24550,0.07854828584
23.24600,1.604520324
23.24650,3.740881178
23.24700,5.572047624
23.24750,6.487630848
23.24800,6.487630848
23.24850,6.487630848
23.24900,6.18243644
23.24950,6.18243644
23.25000,7.403214071
23.25050,8.623991701
23.25100,9.234380517
23.25150,8.013602886
23.25200,6.18243644
23.25250,5.877242032
23.25300,5.877242032
23.25350,4.961658809
23.25400,2.520103547
23.25450,-0.2266461219
23.25500,-2.973395791
23.25550,-4.49936783
23.25600,-5.109756645
23.25650,-5.414951053
23.25700,-5.72014546
23.25750,-6.635728684
23.25800,-8.161700722
23.25850,-9.382478353
23.25900,-9.992867168
23.25950,-9.992867168
23.26000,-10.90845039
23.26050,-11.82403361
23.26100,-12.73961684
23.26150,-11.82403361
23.26200,-9.077283945
23.26250,-6.330534276
23.26300,-5.109756645
23.26350,-4.804562237
23.26400,-3.888979014
23.26450,-1.75261816
23.26500,-0.5318405296
23.26550,-0.2266461219
23.26600,0.3837426935
23.26650,2.825297955
23.26700,5.877242032
23.26750,7.708408478
23.26800,8.623991701
23.26850,10.14996374
23.26900,11.37074137
23.26950,11.06554696
23.27000,9.539574925
23.27050,9.539574925
23.27100,10.76035256
23.27150,10.76035256
23.27200,9.234380517
23.27250,7.708408478
23.27300,8.318797294
23.27350,9.844769332
23.27400,9.539574925
23.27450,7.403214071
23.27500,4.961658809
23.27550,3.130492363
23.27600,1.604520324
23.27650,-0.2266461219
23.27700,-1.75261816
23.27750,-2.363006976
23.27800,-2.668201383
23.27850,-3.583784607
23.27900,-5.109756645
23.27950,-7.246117499
23.28000,-8.46689513
23.28050,-8.772089538
23.28100,-7.856506314
23.28150,-7.246117499
23.28200,-6.635728684
23.28250,-6.025339868
23.28300,-4.49936783
23.28350,-2.668201383
23.28400,-0.5318405296
23.28450,0.07854828584
23.28500,0.3837426935
23.28550,1.299325917
23.28600,3.130492363
23.28650,4.961658809
23.28700,5.572047624
23.28750,5.877242032
23.28800,6.792825255
23.28850,8.623991701
23.28900,10.14996374
23.28950,10.76035256
23.29000,10.45515815
23.29050,10.14996374
23.29100,9.234380517
23.29150,8.013602886
23.29200,6.792825255
23.29250,6.487630848
23.29300,7.098019663
23.29350,7.708408478
23.29400,6.487630848
23.29450,3.435686771
23.29500,0.07854828584
23.29550,-2.363006976
23.29600,-3.583784607
23.29650,-5.414951053
23.29700,-7.856506314
23.29750,-9.382478353
23.29800,-9.077283945
23.29850,-8.772089538
23.29900,-9.687672761
23.29950,-11.2136448
23.30000,-11.2136448
23.30050,-9.687672761
23.30100,-8.46689513
23.30150,-7.551311907
23.30200,-6.635728684
23.30250,-6.025339868
23.30300,-5.72014546
23.30350,-5.72014546
23.30400,-4.194173422
23.30450,-2.057812568
23.30500,-0.8370349373
23.30550,-0.2266461219
23.30600,0.9941315089
23.30650,3.435686771
23.30700,5.877242032
23.30750,6.487630848
23.30800,6.487630848
23.30850,7.098019663
23.30900,8.013602886
23.30950,8.623991701
23.31000,8.623991701
23.31050,8.318797294
23.31100,7.708408478
23.31150,7.708408478
23.31200,8.013602886
23.31250,7.708408478
23.31300,5.572047624
23.31350,2.825297955
23.31400,0.3837426935
23.31450,-0.2266461219
23.31500,-1.142229345
23.31550,-2.973395791
23.31600,-4.194173422
23.31650,-4.49936783
23.31700,-4.49936783
23.31750,-5.72014546
23.31800,-7.856506314
23.31850,-9.382478353
23.31900,-9.687672761
23.31950,-9.687672761
23.32000,-10.29806158
23.32050,-11.2136448
23.32100,-11.51883921
23.32150,-10.90845039
23.32200,-9.992867168
23.32250,-9.687672761
23.32300,-9.382478353
23.32350,-8.772089538
23.32400,-7.551311907
23.32450,-6.025339868
23.32500,-3.888979014
23.32550,-1.75261816
23.32600,-0.2266461219
23.32650,0.3837426935
23.32700,0.9941315089
23.32750,1.604520324
23.32800,2.520103547
23.32850,3.435686771
23.32900,4.351269994
23.32950,4.656464401
23.33000,4.046075586
23.33050,2.825297955
23.33100,2.520103547
23.33150,2.825297955
23.33200,2.21490914
23.33250,0.3837426935
23.33300,-1.447423753
23.33350,-2.668201383
23.33400,-4.49936783
23.33450,-6.635728684
23.33500,-7.856506314
23.33550,-7.551311907
23.33600,-7.246117499
23.33650,-8.161700722
23.33700,-9.992867168
23.33750,-10.29806158
23.33800,-9.382478353
23.33850,-9.077283945
23.33900,-8.772089538
23.33950,-7.856506314
23.34000,-7.551311907
23.34050,-8.46689513
23.34100,-9.687672761
23.34150,-9.077283945
23.34200,-7.246117499
23.34250,-5.414951053
23.34300,-4.194173422
23.34350,-1.75261816
23.34400,0.9941315089
23.34450,2.520103547
23.34500,1.604520324
23.34550,1.299325917
23.34600,2.21490914
23.34650,4.046075586
23.34700,4.351269994
23.34750,3.740881178
23.34800,4.046075586
23.34850,5.877242032
23.34900,8.929186109
23.34950,11.37074137
23.35000,11.37074137
23.35050,9.539574925
23.35100,7.708408478
23.35150,7.098019663
23.35200,7.708408478
23.35250,8.013602886
23.35300,7.708408478
23.35350,6.487630848
23.35400,4.351269994
23.35450,1.604520324
23.35500,-0.2266461219
23.35550,-1.142229345
23.35600,-2.057812568
23.35650,-4.194173422
23.35700,-6.635728684
23.35750,-7.856506314
23.35800,-7.551311907
23.35850,-7.856506314
23.35900,-9.687672761
23.35950,-11.2136448
23.36000,-11.51883921
23.36050,-11.2136448
23.36100,-11.2136448
23.36150,-10.90845039
23.36200,-9.687672761
23.36250,-6.940923091
23.36300,-4.49936783
23.36350,-3.583784607
23.36400,-4.194173422
23.36450,-4.804562237
23.36500,-3.583784607
23.36550,-0.8370349373
23.36600,1.604520324
23.36650,3.435686771
23.36700,4.351269994
23.36750,5.877242032
23.36800,8.013602886
23.36850,9.234380517
23.36900,10.14996374
23.36950,10.76035256
23.37000,11.67593578
23.37050,11.06554696
23.37100,8.623991701
23.37150,5.877242032
23.37200,4.351269994
23.37250,4.656464401
23.37300,4.656464401
23.37350,3.130492363
23.37400,1.299325917
23.37450,0.9941315089
23.37500,1.909714732
23.37550,1.909714732
23.37600,-0.2266461219
23.37650,-2.668201383
23.37700,-2.973395791
23.37750,-2.057812568
23.37800,-2.973395791
23.37850,-6.025339868
23.37900,-8.46689513
23.37950,-8.46689513
23.38000,-6.635728684
23.38050,-5.414951053
23.38100,-4.804562237
23.38150,-3.888979014
23.38200,-2.057812568
23.38250,-0.5318405296
23.38300,0.6889371012
23.38350,1.909714732
23.38400,3.130492363
23.38450,4.046075586
23.38500,4.656464401
23.38550,5.877242032
23.38600,6.792825255
23.38650,8.013602886
23.38700,8.929186109
23.38750,10.14996374
23.38800,11.06554696
23.38850,11.37074137
23.38900,11.06554696
23.38950,11.06554696
23.39000,10.14996374
23.39050,9.539574925
23.39100,9.539574925
23.39150,10.14996374
23.39200,10.14996374
23.39250,9.234380517
23.39300,7.708408478
23.39350,5.877242032
23.39400,4.351269994
23.39450,2.825297955
23.39500,1.604520324
23.39550,0.3837426935
23.39600,-1.142229345
23.39650,-3.278590199
23.39700,-4.194173422
23.39750,-3.278590199
23.39800,-2.668201383
23.39850,-3.888979014
23.39900,-5.72014546
23.39950,-7.246117499
23.40000,-7.856506314
23.40050,-8.161700722
23.40100,-7.856506314
23.40150,-6.635728684
23.40200,-5.414951053
23.40250,-4.804562237
23.40300,-4.49936783
23.40350,-3.583784607
23.40400,-2.363006976
23.40450,-1.142229345
23.40500,0.07854828584
23.40550,1.604520324
23.40600,3.740881178
23.40650,5.266853217
23.40700,6.18243644
23.40750,7.403214071
23.40800,8.318797294
23.40850,9.234380517
23.40900,9.234380517
23.40950,9.234380517
23.41000,9.844769332
23.41050,10.14996374
23.41100,10.14996374
23.41150,8.929186109
23.41200,7.708408478
23.41250,6.792825255
23.41300,6.18243644
23.41350,5.266853217
23.41400,4.351269994
23.41450,3.130492363
23.41500,1.299325917
23.41550,0.07854828584
23.41600,-0.8370349373
23.41650,-0.8370349373
23.41700,-1.75261816
23.41750,-4.194173422
23.41800,-6.940923091
23.41850,-8.46689513
23.41900,-8.46689513
23.41950,-8.161700722
23.42000,-8.46689513
23.42050,-8.772089538
23.42100,-7.856506314
23.42150,-6.330534276
23.42200,-5.414951053
23.42250,-4.804562237
23.42300,-3.583784607
23.42350,-1.447423753
23.42400,0.07854828584
23.42450,1.299325917
23.42500,1.909714732
23.42550,3.130492363
23.42600,5.266853217
23.42650,7.403214071
23.42700,8.013602886
23.42750,7.708408478
23.42800,7.708408478
23.42850,8.929186109
23.42900,9.539574925
23.42950,9.539574925
23.43000,9.234380517
23.43050,9.539574925
23.43100,9.539574925
23.43150,8.623991701
23.43200,7.403214071
23.43250,7.403214071
23.43300,7.708408478
23.43350,6.792825255
23.43400,5.266853217
23.43450,4.046075586
23.43500,3.435686771
23.43550,1.299325917
23.43600,-2.363006976
23.43650,-6.025339868
23.43700,-7.551311907
23.43750,-7.551311907
23.43800,-8.772089538
23.43850,-10.29806158
23.43900,-10.60325598
23.43950,-8.46689513
23.44000,-4.804562237
23.44050,-1.447423753
23.44100,0.07854828584
23.44150,0.07854828584
23.44200,-1.142229345
23.44250,-2.363006976
23.44300,-2.668201383
23.44350,-2.057812568
23.44400,-1.447423753
23.44450,-0.5318405296
23.44500,0.07854828584
23.44550,0.9941315089
23.44600,2.21490914
23.44650,3.740881178
23.44700,4.961658809
23.44750,5.877242032
23.44800,5.877242032
23.44850,5.266853217
23.44900,4.351269994
23.44950,4.046075586
23.45000,4.656464401
23.45050,5.877242032
23.45100,8.013602886
23.45150,9.234380517
23.45200,8.623991701
23.45250,6.487630848
23.45300,4.046075586
23.45350,1.909714732
23.45400,0.3837426935
23.45450,-0.2266461219
23.45500,-0.2266461219
23.45550,-0.5318405296
23.45600,-1.75261816
23.45650,-2.973395791
23.45700,-3.278590199
23.45750,-3.583784607
23.45800,-5.72014546
23.45850,-10.29806158
23.45900,-13.65520006
23.45950,-14.57078328
23.46000,-13.65520006
23.46050,-13.04481125
23.46100,-12.73961684
23.46150,-11.82403361
23.46200,-11.2136448
23.46250,-11.2136448
23.46300,-11.2136448
23.46350,-9.077283945
23.46400,-5.414951053
23.46450,-2.363006976
23.46500,-0.2266461219
23.46550,1.909714732
23.46600,5.266853217
23.46650,7.403214071
23.46700,8.013602886
23.46750,8.929186109
23.46800,11.37074137
23.46850,13.50710222
23.46900,13.81229663
23.46950,12.89671341
23.47000,12.28632459
23.47050,10.45515815
23.47100,4.961658809
23.47150,-2.363006976
23.47200,-8.46689513
23.47250,-10.60325598
23.47300,-10.90845039
23.47350,-11.82403361
23.47400,-13.35000565
23.47450,-14.87597769
23.47500,-15.1811721
23.47550,-14.57078328
23.47600,-13.65520006
23.47650,-13.65520006
23.47700,-13.65520006
23.47750,-13.35000565
23.47800,-12.43442243
23.47850,-11.82403361
23.47900,-11.51883921
23.47950,-11.2136448
23.48000,-10.29806158
23.48050,-9.687672761
23.48100,-9.992867168
23.48150,-9.992867168
23.48200,-9.382478353
23.48250,-8.46689513
23.48300,-7.856506314
23.48350,-6.940923091
23.48400,-4.804562237
23.48450,-2.363006976
23.48500,-1.447423753
23.48550,-1.75261816
23.48600,-1.142229345
23.48650,0.6889371012
23.48700,2.21490914
23.48750,3.740881178
23.48800,5.877242032
23.48850,9.539574925
23.48900,11.98113019
23.48950,12.591519
23.49000,11.98113019
23.49050,12.28632459
23.49100,13.81229663
23.49150,14.72787986
23.49200,14.72787986
23.49250,13.81229663
23.49300,12.89671341
23.49350,11.67593578
23.49400,10.14996374
23.49450,8.013602886
23.49500,5.572047624
23.49550,3.435686771
23.49600,2.21490914
23.49650,1.604520324
23.49700,0.9941315089
23.49750,-0.2266461219
23.49800,-1.447423753
23.49850,-2.668201383
23.49900,-4.194173422
23.49950,-5.72014546
23.50000,-6.940923091
23.50050,-7.246117499
23.50100,-8.161700722
23.50150,-10.90845039
23.50200,-14.26558888
23.50250,-16.40194973
23.50300,-17.31753295
23.50350,-16.40194973
23.50400,-13.96039447
23.50450,-10.90845039
23.50500,-7.856506314
23.50550,-5.109756645
23.50600,-2.057812568
23.50650,1.299325917
23.50700,3.740881178
23.50750,4.656464401
23.50800,4.656464401
23.50850,5.572047624
23.50900,6.792825255
23.50950,8.013602886
23.51000,8.623991701
23.51050,9.539574925
23.51100,11.67593578
23.51150,14.72787986
23.51200,17.77982393
23.51250,18.69540716
23.51300,17.47462952
23.51350,16.86424071
23.51400,20.22137919
23.51450,26.32526735
23.51500,30.59798906
23.51550,30.59798906
23.51600,29.37721143
23.51650,29.37721143
23.51700,30.59798906
23.51750,30.90318346
23.51800,29.37721143
23.51850,26.02007294
23.51900,21.13696242
23.51950,16.25385189
23.52000,12.591519
23.52050,9.234380517
23.52100,4.656464401
23.52150,-0.5318405296
23.52200,-5.109756645
23.52250,-8.46689513
23.52300,-12.73961684
23.52350,-19.1486994
23.52400,-29.52530926
23.52450,-43.25905761
23.52500,-58.21358359
23.52550,-70.42135989
23.52600,-78.35641449
23.52650,-83.84991383
23.52700,-88.12263554
23.52750,-87.20705232
23.52800,-76.83044245
23.52850,-60.96033325
23.52900,-47.22658491
23.52950,-37.46036386
23.53000,-26.16817078
23.53050,-10.90845039
23.53100,2.21490914
23.53150,7.708408478
23.53200,7.403214071
23.53250,7.403214071
23.53300,9.539574925
23.53350,11.06554696
23.53400,10.45515815
23.53450,9.539574925
23.53500,9.234380517
23.53550,9.234380517
23.53600,9.234380517
23.53650,9.844769332
23.53700,11.06554696
23.53750,10.76035256
23.53800,8.929186109
23.53850,6.792825255
23.53900,6.18243644
23.53950,6.487630848
23.54000,6.792825255
23.54050,6.487630848
23.54100,6.487630848
23.54150,6.792825255
23.54200,7.708408478
23.54250,8.013602886
23.54300,8.013602886
23.54350,8.623991701
23.54400,10.76035256
23.54450,13.50710222
23.54500,14.72787986
23.54550,14.72787986
23.54600,14.72787986
23.54650,16.25385189
23.54700,18.08501834
23.54750,19.00060156
23.54800,19.00060156
23.54850,19.61099038
23.54900,19.91618479
23.54950,19.30579597
23.55000,18.08501834
23.55050,17.77982393
23.55100,17.47462952
23.55150,16.86424071
23.55200,16.25385189
23.55250,15.94865749
23.55300,15.64346308
23.55350,13.50710222
23.55400,11.06554696
23.55450,10.76035256
23.55500,12.28632459
23.55550,12.28632459
23.55600,9.844769332
23.55650,7.098019663
23.55700,6.18243644
23.55750,5.877242032
23.55800,3.740881178
23.55850,1.604520324
23.55900,1.299325917
23.55950,0.9941315089
23.56000,-0.2266461219
23.56050,-2.057812568
23.56100,-1.75261816
23.56150,0.07854828584
23.56200,0.3837426935
23.56250,0.07854828584
23.56300,0.07854828584
23.56350,0.9941315089
23.56400,0.9941315089
23.56450,0.3837426935
23.56500,1.909714732
23.56550,5.266853217
23.56600,7.708408478
23.56650,7.098019663
23.56700,6.18243644
23.56750,7.403214071
23.56800,9.539574925
23.56850,10.76035256
23.56900,10.14996374
23.56950,9.234380517
23.57000,9.539574925
23.57050,10.14996374
23.57100,9.844769332
23.57150,8.318797294
23.57200,5.877242032
23.57250,4.046075586
23.57300,2.825297955
23.57350,1.604520324
23.57400,0.07854828584
23.57450,-2.057812568
23.57500,-3.278590199
23.57550,-4.194173422
23.57600,-5.109756645
23.57650,-6.635728684
23.57700,-8.772089538
23.57750,-10.60325598
23.57800,-11.82403361
23.57850,-12.12922802
23.57900,-12.73961684
23.57950,-13.35000565
23.58000,-13.96039447
23.58050,-14.26558888
23.58100,-13.35000565
23.58150,-12.12922802
23.58200,-10.90845039
23.58250,-10.29806158
23.58300,-9.382478353
23.58350,-8.161700722
23.58400,-6.330534276
23.58450,-5.109756645
23.58500,-3.888979014
23.58550,-2.668201383
23.58600,-1.75261816
23.58650,-1.142229345
23.58700,-0.2266461219
23.58750,0.9941315089
23.58800,2.825297955
23.58850,4.046075586
23.58900,4.046075586
23.58950,3.435686771
23.59000,3.740881178
23.59050,4.351269994
23.59100,4.656464401
23.59150,4.656464401
23.59200,5.572047624
23.59250,6.792825255
23.59300,6.487630848
23.59350,4.046075586
23.59400,1.299325917
23.59450,-0.2266461219
23.59500,-1.447423753
23.59550,-2.668201383
23.59600,-3.888979014
23.59650,-5.414951053
23.59700,-8.161700722
23.59750,-10.29806158
23.59800,-10.29806158
23.59850,-8.772089538
23.59900,-8.46689513
23.59950,-9.992867168
23.60000,-11.51883921
23.60050,-11.51883921
23.60100,-10.29806158
23.60150,-8.772089538
23.60200,-7.856506314
23.60250,-6.940923091
23.60300,-6.025339868
23.60350,-5.109756645
23.60400,-3.583784607
23.60450,-1.75261816
23.60500,-0.5318405296
23.60550,0.07854828584
23.60600,0.9941315089
23.60650,2.21490914
23.60700,2.825297955
23.60750,3.130492363
23.60800,4.351269994
23.60850,5.572047624
23.60900,6.487630848
23.60950,6.18243644
23.61000,6.18243644
23.61050,7.098019663
23.61100,7.098019663
23.61150,5.266853217
23.61200,3.130492363
23.61250,1.299325917
23.61300,0.3837426935
23.61350,0.3837426935
23.61400,0.9941315089
23.61450,1.909714732
23.61500,2.520103547
23.61550,1.909714732
23.61600,0.07854828584
23.61650,-2.057812568
23.61700,-3.583784607
23.61750,-3.583784607
23.61800,-4.194173422
23.61850,-6.330534276
23.61900,-9.992867168
23.61950,-11.51883921
23.62000,-9.992867168
23.62050,-8.161700722
23.62100,-9.077283945
23.62150,-10.90845039
23.62200,-10.60325598
23.62250,-8.161700722
23.62300,-6.025339868
23.62350,-6.025339868
23.62400,-6.330534276
23.62450,-6.635728684
23.62500,-6.025339868
23.62550,-4.804562237
23.62600,-2.668201383
23.62650,0.07854828584
23.62700,1.299325917
23.62750,2.520103547
23.62800,4.656464401
23.62850,7.403214071
23.62900,8.623991701
23.62950,8.318797294
23.63000,8.623991701
23.63050,9.844769332
23.63100,9.844769332
23.63150,8.318797294
23.63200,7.098019663
23.63250,7.708408478
23.63300,7.708408478
23.63350,6.18243644
23.63400,4.046075586
23.63450,3.740881178
23.63500,4.656464401
23.63550,4.656464401
23.63600,3.130492363
23.63650,1.299325917
23.63700,0.3837426935
23.63750,0.07854828584
23.63800,-1.142229345
23.63850,-2.363006976
23.63900,-3.278590199
23.63950,-4.194173422
23.64000,-5.414951053
23.64050,-6.940923091
23.64100,-7.856506314
23.64150,-7.551311907
23.64200,-6.025339868
23.64250,-4.49936783
23.64300,-2.973395791
23.64350,-1.142229345
23.64400,0.3837426935
23.64450,1.299325917
23.64500,0.9941315089
23.64550,1.299325917
23.64600,4.046075586
23.64650,6.792825255
23.64700,8.013602886
23.64750,7.708408478
23.64800,7.708408478
23.64850,8.623991701
23.64900,8.929186109
23.64950,8.623991701
23.65000,8.623991701
23.65050,9.539574925
23.65100,9.844769332
23.65150,9.539574925
23.65200,9.539574925
23.65250,9.844769332
23.65300,8.318797294
23.65350,4.961658809
23.65400,1.909714732
23.65450,0.07854828584
23.65500,-1.142229345
23.65550,-3.278590199
23.65600,-5.414951053
23.65650,-6.330534276
23.65700,-6.025339868
23.65750,-6.025339868
23.65800,-7.246117499
23.65850,-9.077283945
23.65900,-10.60325598
23.65950,-10.60325598
23.66000,-9.077283945
23.66050,-7.246117499
23.66100,-6.940923091
23.66150,-7.856506314
23.66200,-8.772089538
23.66250,-8.772089538
23.66300,-7.551311907
23.66350,-5.72014546
23.66400,-3.888979014
23.66450,-2.668201383
23.66500,-1.142229345
23.66550,0.3837426935
23.66600,2.520103547
23.66650,3.435686771
23.66700,2.825297955
23.66750,2.520103547
23.66800,4.046075586
23.66850,5.877242032
23.66900,6.18243644
23.66950,4.656464401
23.67000,3.740881178
23.67050,4.351269994
23.67100,5.266853217
23.67150,5.572047624
23.67200,5.266853217
23.67250,4.046075586
23.67300,1.909714732
23.67350,0.07854828584
23.67400,-0.2266461219
23.67450,-0.5318405296
23.67500,-1.142229345
23.67550,-2.057812568
23.67600,-2.057812568
23.67650,-2.668201383
23.67700,-4.804562237
23.67750,-7.246117499
23.67800,-9.077283945
23.67850,-9.687672761
23.67900,-10.90845039
23.67950,-12.43442243
23.68000,-12.43442243
23.68050,-11.51883921
23.68100,-11.2136448
23.68150,-11.51883921
23.68200,-10.90845039
23.68250,-9.077283945
23.68300,-8.772089538
23.68350,-9.382478353
23.68400,-8.161700722
23.68450,-4.194173422
23.68500,-0.8370349373
23.68550,0.07854828584
23.68600,0.3837426935
23.68650,2.520103547
23.68700,5.266853217
23.68750,6.487630848
23.68800,6.487630848
23.68850,7.403214071
23.68900,8.929186109
23.68950,9.234380517
23.69000,8.318797294
23.69050,8.623991701
23.69100,10.45515815
23.69150,11.37074137
23.69200,10.14996374
23.69250,7.708408478
23.69300,6.792825255
23.69350,7.403214071
23.69400,7.708408478
23.69450,6.18243644
23.69500,4.656464401
23.69550,3.435686771
23.69600,2.21490914
23.69650,0.07854828584
23.69700,-2.363006976
23.69750,-4.49936783
23.69800,-5.414951053
23.69850,-5.109756645
23.69900,-5.414951053
23.69950,-6.025339868
23.70000,-6.025339868
23.70050,-5.72014546
23.70100,-5.414951053
23.70150,-5.72014546
23.70200,-6.025339868
23.70250,-5.109756645
23.70300,-3.583784607
23.70350,-2.363006976
23.70400,-1.75261816
23.70450,-0.5318405296
23.70500,0.9941315089
23.70550,2.520103547
23.70600,3.130492363
23.70650,3.740881178
23.70700,5.572047624
23.70750,7.403214071
23.70800,8.318797294
23.70850,8.318797294
23.70900,8.623991701
23.70950,9.539574925
23.71000,10.45515815
23.71050,11.06554696
23.71100,11.67593578
23.71150,11.67593578
23.71200,10.45515815
23.71250,8.013602886
23.71300,6.487630848
23.71350,6.18243644
23.71400,6.18243644
23.71450,4.961658809
23.71500,3.435686771
23.71550,2.21490914
23.71600,1.604520324
23.71650,0.3837426935
23.71700,-0.5318405296
23.71750,-1.75261816
23.71800,-2.363006976
23.71850,-3.278590199
23.71900,-4.49936783
23.71950,-5.414951053
23.72000,-6.025339868
23.72050,-6.025339868
23.72100,-5.414951053
23.72150,-4.804562237
23.72200,-5.414951053
23.72250,-6.025339868
23.72300,-5.414951053
23.72350,-3.278590199
23.72400,-0.8370349373
23.72450,0.07854828584
23.72500,0.9941315089
23.72550,2.520103547
23.72600,4.961658809
23.72650,6.487630848
23.72700,7.098019663
23.72750,7.708408478
23.72800,8.929186109
23.72850,10.14996374
23.72900,10.76035256
23.72950,10.45515815
23.73000,9.539574925
23.73050,8.318797294
23.73100,7.708408478
23.73150,7.403214071
23.73200,6.487630848
23.73250,5.877242032
23.73300,6.18243644
23.73350,6.18243644
23.73400,4.656464401
23.73450,2.21490914
23.73500,0.07854828584
23.73550,-0.5318405296
23.73600,-1.447423753
23.73650,-3.278590199
23.73700,-5.109756645
23.73750,-6.025339868
23.73800,-6.025339868
23.73850,-6.025339868
23.73900,-6.940923091
23.73950,-8.46689513
23.74000,-9.992867168
23.74050,-10.60325598
23.74100,-9.992867168
23.74150,-9.382478353
23.74200,-9.382478353
23.74250,-9.382478353
23.74300,-8.46689513
23.74350,-5.72014546
23.74400,-2.363006976
23.74450,-0.2266461219
23.74500,0.3837426935
23.74550,0.6889371012
23.74600,1.299325917
23.74650,2.825297955
23.74700,4.046075586
23.74750,4.656464401
23.74800,4.656464401
23.74850,5.266853217
23.74900,5.877242032
23.74950,5.877242032
23.75000,5.572047624
23.75050,5.266853217
23.75100,5.572047624
23.75150,4.961658809
23.75200,3.740881178
23.75250,2.21490914
23.75300,1.299325917
23.75350,0.9941315089
23.75400,0.3837426935
23.75450,0.07854828584
23.75500,-1.447423753
23.75550,-2.973395791
23.75600,-4.49936783
23.75650,-5.72014546
23.75700,-7.551311907
23.75750,-9.382478353
23.75800,-9.992867168
23.75850,-9.077283945
23.75900,-8.161700722
23.75950,-9.077283945
23.76000,-10.90845039
23.76050,-10.90845039
23.76100,-9.077283945
23.76150,-7.856506314
23.76200,-7.246117499
23.76250,-6.330534276
23.76300,-4.49936783
23.76350,-2.973395791
23.76400,-2.057812568
23.76450,-0.8370349373
23.76500,0.6889371012
23.76550,1.909714732
23.76600,2.520103547
23.76650,4.046075586
23.76700,6.18243644
23.76750,8.318797294
23.76800,9.234380517
23.76850,9.539574925
23.76900,9.539574925
23.76950,8.929186109
23.77000,7.708408478
23.77050,7.708408478
23.77100,8.623991701
23.77150,8.623991701
23.77200,6.18243644
23.77250,4.046075586
23.77300,3.130492363
23.77350,2.520103547
23.77400,1.299325917
23.77450,0.07854828584
23.77500,-0.2266461219
23.77550,-0.2266461219
23.77600,-0.8370349373
23.77650,-2.363006976
23.77700,-3.888979014
23.77750,-5.109756645
23.77800,-6.330534276
23.77850,-6.330534276
23.77900,-4.804562237
23.77950,-2.973395791
23.78000,-2.973395791
23.78050,-5.109756645
23.78100,-7.551311907
23.78150,-8.161700722
23.78200,-6.635728684
23.78250,-5.109756645
23.78300,-5.109756645
23.78350,-5.72014546
23.78400,-6.025339868
23.78450,-4.49936783
23.78500,-2.057812568
23.78550,0.07854828584
23.78600,1.909714732
23.78650,2.825297955
23.78700,2.825297955
23.78750,2.520103547
23.78800,2.825297955
23.78850,3.740881178
23.78900,4.961658809
23.78950,5.572047624
23.79000,6.487630848
23.79050,6.487630848
23.79100,5.266853217
23.79150,2.520103547
23.79200,0.3837426935
23.79250,0.07854828584
23.79300,0.07854828584
23.79350,-1.142229345
23.79400,-3.583784607
23.79450,-5.109756645
23.79500,-5.414951053
23.79550,-5.109756645
23.79600,-5.414951053
23.79650,-6.330534276
23.79700,-7.246117499
23.79750,-8.772089538
23.79800,-10.29806158
23.79850,-10.90845039
23.79900,-10.60325598
23.79950,-9.992867168
23.80000,-9.382478353
23.80050,-8.772089538
23.80100,-7.856506314
23.80150,-7.246117499
23.80200,-7.551311907
23.80250,-7.246117499
23.80300,-6.025339868
23.80350,-4.49936783
23.80400,-3.888979014
23.80450,-3.583784607
23.80500,-2.973395791
23.80550,-1.75261816
23.80600,-0.2266461219
23.80650,1.299325917
23.80700,3.435686771
23.80750,5.572047624
23.80800,6.792825255
23.80850,6.792825255
23.80900,6.792825255
23.80950,7.098019663
23.81000,8.318797294
23.81050,9.539574925
23.81100,10.76035256
23.81150,11.06554696
23.81200,10.45515815
23.81250,8.929186109
23.81300,7.098019663
23.81350,5.877242032
23.81400,4.656464401
23.81450,3.130492363
23.81500,1.299325917
23.81550,0.07854828584
23.81600,-0.8370349373
23.81650,-1.75261816
23.81700,-2.973395791
23.81750,-3.888979014
23.81800,-4.804562237
23.81850,-6.025339868
23.81900,-6.940923091
23.81950,-7.246117499
23.82000,-7.551311907
23.82050,-8.161700722
23.82100,-8.772089538
23.82150,-7.856506314
23.82200,-6.025339868
23.82250,-4.804562237
23.82300,-4.194173422
23.82350,-2.973395791
23.82400,-1.142229345
23.82450,0.6889371012
23.82500,1.604520324
23.82550,1.909714732
23.82600,2.520103547
23.82650,3.130492363
23.82700,4.046075586
23.82750,5.572047624
23.82800,8.318797294
23.82850,11.06554696
23.82900,12.89671341
23.82950,12.28632459
23.83000,11.06554696
23.83050,10.76035256
23.83100,11.67593578
23.83150,11.98113019
23.83200,11.06554696
23.83250,9.539574925
23.83300,8.929186109
23.83350,8.623991701
23.83400,7.403214071
23.83450,5.266853217
23.83500,2.825297955
23.83550,1.909714732
23.83600,1.604520324
23.83650,0.6889371012
23.83700,-0.2266461219
23.83750,-1.142229345
23.83800,-2.363006976
23.83850,-3.888979014
23.83900,-4.804562237
23.83950,-5.109756645
23.84000,-5.109756645
23.84050,-5.72014546
23.84100,-6.025339868
23.84150,-5.72014546
23.84200,-5.414951053
23.84250,-5.72014546
23.84300,-6.330534276
23.84350,-5.414951053
23.84400,-3.278590199
23.84450,-1.447423753
23.84500,-0.2266461219
23.84550,0.6889371012
23.84600,2.520103547
23.84650,3.435686771
23.84700,2.825297955
23.84750,0.9941315089
23.84800,0.9941315089
23.84850,2.825297955
23.84900,6.18243644
23.84950,8.318797294
23.85000,8.623991701
23.85050,8.013602886
23.85100,6.792825255
23.85150,6.487630848
23.85200,6.18243644
23.85250,6.18243644
23.85300,5.572047624
23.85350,4.656464401
23.85400,3.130492363
23.85450,1.604520324
23.85500,0.3837426935
23.85550,-0.5318405296
23.85600,-1.447423753
23.85650,-2.363006976
23.85700,-2.973395791
23.85750,-3.583784607
23.85800,-4.194173422
23.85850,-5.109756645
23.85900,-5.414951053
23.85950,-5.414951053
23.86000,-5.109756645
23.86050,-4.804562237
23.86100,-4.804562237
23.86150,-4.49936783
23.86200,-4.194173422
23.86250,-4.194173422
23.86300,-4.194173422
23.86350,-3.888979014
23.86400,-3.583784607
23.86450,-3.888979014
23.86500,-3.583784607
23.86550,-1.447423753
23.86600,0.9941315089
23.86650,2.825297955
23.86700,4.046075586
23.86750,5.266853217
23.86800,6.792825255
23.86850,8.013602886
23.86900,8.013602886
23.86950,8.318797294
23.87000,8.318797294
23.87050,7.708408478
23.87100,6.792825255
23.87150,7.098019663
23.87200,7.708408478
23.87250,7.403214071
23.87300,5.877242032
23.87350,4.351269994
23.87400,2.825297955
23.87450,0.9941315089
23.87500,-0.5318405296
23.87550,-0.8370349373
23.87600,-1.142229345
23.87650,-2.668201383
23.87700,-5.72014546
23.87750,-7.856506314
23.87800,-8.46689513
23.87850,-9.687672761
23.87900,-12.43442243
23.87950,-13.96039447
23.88000,-13.04481125
23.88050,-10.60325598
23.88100,-10.29806158
23.88150,-11.51883921
23.88200,-11.82403361
23.88250,-11.2136448
23.88300,-10.60325598
23.88350,-10.60325598
23.88400,-9.992867168
23.88450,-7.856506314
23.88500,-4.49936783
23.88550,-2.057812568
23.88600,-0.8370349373
23.88650,-1.142229345
23.88700,-1.447423753
23.88750,-0.2266461219
23.88800,0.9941315089
23.88850,2.520103547
23.88900,3.740881178
23.88950,5.572047624
23.89000,8.318797294
23.89050,10.76035256
23.89100,11.37074137
23.89150,9.844769332
23.89200,7.098019663
23.89250,5.266853217
23.89300,5.266853217
23.89350,5.877242032
23.89400,5.266853217
23.89450,3.130492363
23.89500,0.3837426935
23.89550,-0.5318405296
23.89600,-0.5318405296
23.89650,-1.142229345
23.89700,-2.668201383
23.89750,-4.49936783
23.89800,-6.025339868
23.89850,-7.246117499
23.89900,-7.856506314
23.89950,-8.161700722
23.90000,-8.46689513
23.90050,-8.161700722
23.90100,-7.856506314
23.90150,-6.635728684
23.90200,-4.804562237
23.90250,-3.278590199
23.90300,-2.363006976
23.90350,-2.363006976
23.90400,-2.057812568
23.90450,-1.142229345
23.90500,0.3837426935
23.90550,2.520103547
23.90600,4.656464401
23.90650,7.098019663
23.90700,8.929186109
23.90750,9.844769332
23.90800,10.45515815
23.90850,11.67593578
23.90900,12.89671341
23.90950,13.50710222
23.91000,13.50710222
23.91050,13.20190782
23.91100,12.89671341
23.91150,11.98113019
23.91200,10.45515815
23.91250,9.539574925
23.91300,9.234380517
23.91350,8.929186109
23.91400,8.318797294
23.91450,7.098019663
23.91500,5.266853217
23.91550,2.825297955
23.91600,0.6889371012
23.91650,-0.5318405296
23.91700,-1.447423753
23.91750,-2.363006976
23.91800,-3.583784607
23.91850,-3.888979014
23.91900,-3.888979014
23.91950,-4.194173422
23.92000,-4.804562237
23.92050,-5.109756645
23.92100,-5.414951053
23.92150,-5.72014546
23.92200,-6.330534276
23.92250,-6.025339868
23.92300,-5.109756645
23.92350,-4.49936783
23.92400,-4.49936783
23.92450,-3.583784607
23.92500,-1.447423753
23.92550,0.07854828584
23.92600,1.299325917
23.92650,2.520103547
23.92700,3.435686771
23.92750,4.046075586
23.92800,4.046075586
23.92850,4.656464401
23.92900,6.18243644
23.92950,7.098019663
23.93000,6.18243644
23.93050,5.572047624
23.93100,7.403214071
23.93150,9.539574925
23.93200,10.14996374
23.93250,8.013602886
23.93300,5.572047624
23.93350,4.046075586
23.93400,2.21490914
23.93450,0.07854828584
23.93500,-2.057812568
23.93550,-3.583784607
23.93600,-4.804562237
23.93650,-5.72014546
23.93700,-6.635728684
23.93750,-7.856506314
23.93800,-9.687672761
23.93850,-10.90845039
23.93900,-11.2136448
23.93950,-10.29806158
23.94000,-9.687672761
23.94050,-10.60325598
23.94100,-11.51883921
23.94150,-10.90845039
23.94200,-8.772089538
23.94250,-6.330534276
23.94300,-4.804562237
23.94350,-4.49936783
23.94400,-4.49936783
23.94450,-3.278590199
23.94500,-1.447423753
23.94550,-0.5318405296
23.94600,-0.5318405296
23.94650,0.3837426935
23.94700,3.435686771
23.94750,6.18243644
23.94800,6.487630848
23.94850,5.877242032
23.94900,6.487630848
23.94950,8.013602886
23.95000,8.623991701
23.95050,8.013602886
23.95100,6.487630848
23.95150,5.266853217
23.95200,4.046075586
23.95250,2.520103547
23.95300,1.299325917
23.95350,0.07854828584
23.95400,-0.8370349373
23.95450,-1.142229345
23.95500,-0.2266461219
23.95550,0.3837426935
23.95600,-0.5318405296
23.95650,-3.278590199
23.95700,-5.72014546
23.95750,-6.940923091
23.95800,-7.551311907
23.95850,-8.161700722
23.95900,-8.772089538
23.95950,-9.077283945
23.96000,-9.077283945
23.96050,-8.772089538
23.96100,-8.161700722
23.96150,-7.246117499
23.96200,-6.330534276
23.96250,-5.414951053
23.96300,-3.583784607
23.96350,-1.75261816
23.96400,0.07854828584
23.96450,0.9941315089
23.96500,1.604520324
23.96550,2.21490914
23.96600,2.825297955
23.96650,4.046075586
23.96700,5.266853217
23.96750,6.18243644
23.96800,6.792825255
23.96850,7.708408478
23.96900,8.623991701
23.96950,9.234380517
23.97000,9.234380517
23.97050,9.539574925
23.97100,10.45515815
23.97150,11.37074137
23.97200,10.76035256
23.97250,9.234380517
23.97300,7.708408478
23.97350,6.487630848
23.97400,5.266853217
23.97450,3.740881178
23.97500,1.604520324
23.97550,0.07854828584
23.97600,-1.142229345
23.97650,-2.668201383
23.97700,-3.888979014
23.97750,-4.804562237
23.97800,-5.109756645
23.97850,-5.414951053
23.97900,-6.635728684
23.97950,-7.856506314
23.98000,-8.772089538
23.98050,-9.382478353
23.98100,-9.382478353
23.98150,-9.382478353
23.98200,-8.46689513
23.98250,-7.246117499
23.98300,-6.025339868
23.98350,-5.109756645
23.98400,-4.194173422
23.98450,-2.363006976
23.98500,-0.2266461219
23.98550,0.6889371012
23.98600,0.6889371012
23.98650,0.6889371012
23.98700,1.604520324
23.98750,3.130492363
23.98800,4.961658809
23.98850,5.877242032
23.98900,5.572047624
23.98950,5.572047624
23.99000,5.877242032
23.99050,6.18243644
23.99100,5.572047624
23.99150,4.351269994
23.99200,3.740881178
23.99250,4.046075586
23.99300,4.046075586
23.99350,2.21490914
23.99400,-0.5318405296
23.99450,-2.057812568
23.99500,-2.363006976
23.99550,-2.668201383
23.99600,-4.49936783
23.99650,-6.940923091
23.99700,-8.161700722
23.99750,-8.161700722
23.99800,-8.161700722
23.99850,-9.687672761
23.99900,-11.82403361
23.99950,-12.43442243
24.00000,-11.51883921
24.00050,-9.382478353
24.00100,-8.161700722
24.00150,-7.856506314
24.00200,-7.246117499
24.00250,-5.414951053
24.00300,-3.278590199
24.00350,-1.75261816
24.00400,-0.5318405296
24.00450,0.3837426935
24.00500,1.299325917
24.00550,2.21490914
24.00600,3.130492363
24.00650,5.266853217
24.00700,7.708408478
24.00750,9.844769332
24.00800,11.06554696
24.00850,11.67593578
24.00900,11.98113019
24.00950,11.06554696
24.01000,10.14996374
24.01050,10.45515815
24.01100,11.98113019
24.01150,12.591519
24.01200,11.67593578
24.01250,10.45515815
24.01300,9.234380517
24.01350,8.013602886
24.01400,6.18243644
24.01450,3.740881178
24.01500,1.604520324
24.01550,0.07854828584
24.01600,-0.5318405296
24.01650,-0.5318405296
24.01700,-0.5318405296
24.01750,-1.447423753
24.01800,-1.75261816
24.01850,-1.447423753
24.01900,-1.447423753
24.01950,-3.583784607
24.02000,-6.025339868
24.02050,-6.635728684
24.02100,-5.109756645
24.02150,-4.49936783
24.02200,-5.414951053
24.02250,-5.414951053
24.02300,-2.973395791
24.02350,-0.8370349373
24.02400,-0.2266461219
24.02450,-0.8370349373
24.02500,-0.8370349373
24.02550,0.07854828584
24.02600,1.299325917
24.02650,3.130492363
24.02700,5.266853217
24.02750,6.18243644
24.02800,5.877242032
24.02850,6.18243644
24.02900,7.708408478
24.02950,9.234380517
24.03000,10.14996374
24.03050,10.76035256
24.03100,11.37074137
24.03150,11.37074137
24.03200,9.539574925
24.03250,7.708408478
24.03300,6.792825255
24.03350,5.266853217
24.03400,2.21490914
24.03450,0.07854828584
24.03500,-0.2266461219
24.03550,-1.142229345
24.03600,-4.194173422
24.03650,-7.246117499
24.03700,-7.551311907
24.03750,-5.414951053
24.03800,-5.109756645
24.03850,-7.551311907
24.03900,-9.687672761
24.03950,-9.992867168
24.04000,-9.992867168
24.04050,-10.60325598
24.04100,-10.60325598
24.04150,-9.687672761
24.04200,-8.46689513
24.04250,-8.161700722
24.04300,-6.940923091
24.04350,-5.414951053
24.04400,-4.49936783
24.04450,-4.49936783
24.04500,-3.888979014
24.04550,-1.142229345
24.04600,1.299325917
24.04650,2.825297955
24.04700,3.740881178
24.04750,5.266853217
24.04800,6.18243644
24.04850,6.18243644
24.04900,5.877242032
24.04950,7.098019663
24.05000,8.623991701
24.05050,8.013602886
24.05100,6.18243644
24.05150,6.487630848
24.05200,8.013602886
24.05250,8.013602886
24.05300,5.266853217
24.05350,3.130492363
24.05400,3.130492363
24.05450,3.435686771
24.05500,2.21490914
24.05550,-0.2266461219
24.05600,-1.447423753
24.05650,-1.142229345
24.05700,-1.142229345
24.05750,-2.668201383
24.05800,-4.194173422
24.05850,-5.414951053
24.05900,-6.330534276
24.05950,-7.551311907
24.06000,-7.551311907
24.06050,-6.330534276
24.06100,-4.49936783
24.06150,-3.583784607
24.06200,-3.278590199
24.06250,-2.973395791
24.06300,-3.583784607
24.06350,-4.49936783
24.06400,-4.49936783
24.06450,-2.363006976
24.06500,0.07854828584
24.06550,0.3837426935
24.06600,0.3837426935
24.06650,0.9941315089
24.06700,2.825297955
24.06750,4.351269994
24.06800,5.877242032
24.06850,7.098019663
24.06900,7.708408478
24.06950,7.403214071
24.07000,7.403214071
24.07050,8.013602886
24.07100,8.929186109
24.07150,8.318797294
24.07200,7.098019663
24.07250,6.792825255
24.07300,6.18243644
24.07350,3.740881178
24.07400,0.6889371012
24.07450,0.07854828584
24.07500,0.9941315089
24.07550,0.9941315089
24.07600,-0.5318405296
24.07650,-2.057812568
24.07700,-2.668201383
24.07750,-3.888979014
24.07800,-6.330534276
24.07850,-8.772089538
24.07900,-9.992867168
24.07950,-10.90845039
24.08000,-11.82403361
24.08050,-12.43442243
24.08100,-12.43442243
24.08150,-12.43442243
24.08200,-12.73961684
24.08250,-12.43442243
24.08300,-10.60325598
24.08350,-8.46689513
24.08400,-7.551311907
24.08450,-6.940923091
24.08500,-5.414951053
24.08550,-3.583784607
24.08600,-2.668201383
24.08650,-1.447423753
24.08700,0.3837426935
24.08750,2.520103547
24.08800,3.740881178
24.08850,3.435686771
24.08900,3.130492363
24.08950,4.046075586
24.09000,5.266853217
24.09050,6.18243644
24.09100,6.18243644
24.09150,5.877242032
24.09200,5.572047624
24.09250,4.961658809
24.09300,3.740881178
24.09350,2.825297955
24.09400,2.21490914
24.09450,2.21490914
24.09500,1.299325917
24.09550,0.07854828584
24.09600,-0.5318405296
24.09650,-1.447423753
24.09700,-2.363006976
24.09750,-4.49936783
24.09800,-7.246117499
24.09850,-9.992867168
24.09900,-11.82403361
24.09950,-12.73961684
24.10000,-12.43442243
24.10050,-12.12922802
24.10100,-13.35000565
24.10150,-14.87597769
24.10200,-14.57078328
24.10250,-11.82403361
24.10300,-10.29806158
24.10350,-10.90845039
24.10400,-11.2136448
24.10450,-8.46689513
24.10500,-5.109756645
24.10550,-3.278590199
24.10600,-2.057812568
24.10650,0.3837426935
24.10700,4.351269994
24.10750,5.572047624
24.10800,4.351269994
24.10850,3.435686771
24.10900,4.656464401
24.10950,5.572047624
24.11000,5.266853217
24.11050,4.961658809
24.11100,6.18243644
24.11150,8.013602886
24.11200,9.234380517
24.11250,9.539574925
24.11300,10.14996374
24.11350,9.844769332
24.11400,7.708408478
24.11450,4.961658809
24.11500,3.130492363
24.11550,2.825297955
24.11600,1.909714732
24.11650,-0.2266461219
24.11700,-2.363006976
24.11750,-3.278590199
24.11800,-3.583784607
24.11850,-3.888979014
24.11900,-4.804562237
24.11950,-5.72014546
24.12000,-6.635728684
24.12050,-6.940923091
24.12100,-6.635728684
24.12150,-5.72014546
24.12200,-5.414951053
24.12250,-5.72014546
24.12300,-6.025339868
24.12350,-5.414951053
24.12400,-3.888979014
24.12450,-2.363006976
24.12500,-0.2266461219
24.12550,2.520103547
24.12600,5.266853217
24.12650,6.792825255
24.12700,7.098019663
24.12750,8.013602886
24.12800,9.234380517
24.12850,10.14996374
24.12900,9.844769332
24.12950,9.844769332
24.13000,10.76035256
24.13050,11.98113019
24.13100,12.591519
24.13150,12.591519
24.13200,12.28632459
24.13250,12.591519
24.13300,12.591519
24.13350,12.28632459
24.13400,10.76035256
24.13450,8.623991701
24.13500,6.792825255
24.13550,5.877242032
24.13600,5.572047624
24.13650,4.961658809
24.13700,3.740881178
24.13750,2.520103547
24.13800,1.604520324
24.13850,1.299325917
24.13900,0.9941315089
24.13950,0.3837426935
24.14000,-0.5318405296
24.14050,-1.75261816
24.14100,-2.668201383
24.14150,-2.057812568
24.14200,-1.447423753
24.14250,-1.447423753
24.14300,-1.447423753
24.14350,-0.8370349373
24.14400,0.07854828584
24.14450,0.3837426935
24.14500,1.299325917
24.14550,2.825297955
24.14600,4.046075586
24.14650,3.740881178
24.14700,2.825297955
24.14750,3.740881178
24.14800,6.487630848
24.14850,8.623991701
24.14900,8.929186109
24.14950,8.623991701
24.15000,9.234380517
24.15050,9.844769332
24.15100,9.234380517
24.15150,8.013602886
24.15200,7.403214071
24.15250,7.098019663
24.15300,6.18243644
24.15350,5.572047624
24.15400,5.266853217
24.15450,4.351269994
24.15500,2.825297955
24.15550,1.299325917
24.15600,0.07854828584
24.15650,-0.8370349373
24.15700,-2.973395791
24.15750,-5.414951053
24.15800,-7.246117499
24.15850,-8.46689513
24.15900,-9.992867168
24.15950,-11.82403361
24.16000,-13.04481125
24.16050,-13.35000565
24.16100,-12.73961684
24.16150,-11.51883921
24.16200,-10.60325598
24.16250,-9.992867168
24.16300,-9.077283945
24.16350,-7.246117499
24.16400,-5.72014546
24.16450,-5.109756645
24.16500,-5.72014546
24.16550,-5.414951053
24.16600,-4.194173422
24.16650,-3.278590199
24.16700,-2.363006976
24.16750,-1.142229345
24.16800,0.07854828584
24.16850,1.299325917
24.16900,2.21490914
24.16950,3.130492363
24.17000,4.656464401
24.17050,5.266853217
24.17100,4.961658809
24.17150,5.572047624
24.17200,7.098019663
24.17250,8.929186109
24.17300,10.45515815
24.17350,11.37074137
24.17400,10.45515815
24.17450,7.403214071
24.17500,4.351269994
24.17550,3.435686771
24.17600,4.351269994
24.17650,3.435686771
24.17700,0.07854828584
24.17750,-3.888979014
24.17800,-5.72014546
24.17850,-6.940923091
24.17900,-8.161700722
24.17950,-8.772089538
24.18000,-8.161700722
24.18050,-7.856506314
24.18100,-9.077283945
24.18150,-9.687672761
24.18200,-8.46689513
24.18250,-5.72014546
24.18300,-3.583784607
24.18350,-2.668201383
24.18400,-2.057812568
24.18450,-1.75261816
24.18500,-0.8370349373
24.18550,0.6889371012
24.18600,3.435686771
24.18650,4.656464401
24.18700,4.046075586
24.18750,3.130492363
24.18800,3.740881178
24.18850,6.18243644
24.18900,7.708408478
24.18950,8.318797294
24.19000,7.708408478
24.19050,7.098019663
24.19100,6.18243644
24.19150,5.877242032
24.19200,6.792825255
24.19250,7.098019663
24.19300,5.877242032
24.19350,3.740881178
24.19400,2.825297955
24.19450,1.909714732
24.19500,0.07854828584
24.19550,-2.057812568
24.19600,-3.583784607
24.19650,-3.583784607
24.19700,-4.194173422
24.19750,-6.025339868
24.19800,-7.246117499
24.19850,-7.246117499
24.19900,-7.856506314
24.19950,-9.382478353
24.20000,-11.51883921
24.20050,-11.82403361
24.20100,-10.60325598
24.20150,-10.29806158
24.20200,-10.60325598
24.20250,-10.60325598
24.20300,-8.46689513
24.20350,-6.330534276
24.20400,-5.109756645
24.20450,-5.109756645
24.20500,-4.804562237
24.20550,-3.888979014
24.20600,-2.363006976
24.20650,-0.5318405296
24.20700,1.299325917
24.20750,2.825297955
24.20800,2.825297955
24.20850,2.21490914
24.20900,3.130492363
24.20950,6.18243644
24.21000,8.623991701
24.21050,9.234380517
24.21100,9.539574925
24.21150,10.76035256
24.21200,11.67593578
24.21250,11.06554696
24.21300,8.623991701
24.21350,6.487630848
24.21400,4.961658809
24.21450,4.046075586
24.21500,2.21490914
24.21550,0.07854828584
24.21600,-1.75261816
24.21650,-2.973395791
24.21700,-3.583784607
24.21750,-4.194173422
24.21800,-5.414951053
24.21850,-6.635728684
24.21900,-7.856506314
24.21950,-8.161700722
24.22000,-9.077283945
24.22050,-10.29806158
24.22100,-11.51883921
24.22150,-11.2136448
24.22200,-9.992867168
24.22250,-8.772089538
24.22300,-8.161700722
24.22350,-7.856506314
24.22400,-6.940923091
24.22450,-5.109756645
24.22500,-2.668201383
24.22550,-0.5318405296
24.22600,0.9941315089
24.22650,2.21490914
24.22700,2.825297955
24.22750,3.130492363
24.22800,3.740881178
24.22850,5.572047624
24.22900,8.013602886
24.22950,9.234380517
24.23000,8.623991701
24.23050,7.403214071
24.23100,7.403214071
24.23150,8.013602886
24.23200,7.708408478
24.23250,6.18243644
24.23300,4.961658809
24.23350,4.656464401
24.23400,3.740881178
24.23450,1.604520324
24.23500,-0.8370349373
24.23550,-3.278590199
24.23600,-4.194173422
24.23650,-4.804562237
24.23700,-5.414951053
24.23750,-6.940923091
24.23800,-9.382478353
24.23850,-12.12922802
24.23900,-13.96039447
24.23950,-13.65520006
24.24000,-12.12922802
24.24050,-9.687672761
24.24100,-7.551311907
24.24150,-6.025339868
24.24200,-5.109756645
24.24250,-5.414951053
24.24300,-6.330534276
24.24350,-6.940923091
24.24400,-6.635728684
24.24450,-5.414951053
24.24500,-4.49936783
24.24550,-3.583784607
24.24600,-1.447423753
24.24650,0.6889371012
24.24700,2.21490914
24.24750,2.21490914
24.24800,3.740881178
24.24850,7.403214071
24.24900,11.06554696
24.24950,11.98113019
24.25000,10.45515815
24.25050,9.844769332
24.25100,10.45515815
24.25150,11.06554696
24.25200,10.14996374
24.25250,8.013602886
24.25300,6.18243644
24.25350,5.266853217
24.25400,4.656464401
24.25450,3.435686771
24.25500,1.604520324
24.25550,-0.5318405296
24.25600,-2.973395791
24.25650,-3.888979014
24.25700,-3.583784607
24.25750,-2.668201383
24.25800,-2.973395791
24.25850,-4.804562237
24.25900,-6.635728684
24.25950,-7.551311907
24.26000,-7.856506314
24.26050,-8.161700722
24.26100,-8.772089538
24.26150,-9.382478353
24.26200,-8.772089538
24.26250,-7.856506314
24.26300,-6.940923091
24.26350,-5.414951053
24.26400,-3.888979014
24.26450,-2.668201383
24.26500,-0.8370349373
24.26550,1.604520324
24.26600,5.266853217
24.26650,7.098019663
24.26700,7.098019663
24.26750,6.792825255
24.26800,7.403214071
24.26850,8.318797294
24.26900,8.623991701
24.26950,8.013602886
24.27000,7.708408478
24.27050,7.708408478
24.27100,8.623991701
24.27150,10.14996374
24.27200,11.37074137
24.27250,11.67593578
24.27300,10.45515815
24.27350,8.929186109
24.27400,7.403214071
24.27450,5.266853217
24.27500,2.21490914
24.27550,0.07854828584
24.27600,-0.2266461219
24.27650,-0.2266461219
24.27700,-1.142229345
24.27750,-2.363006976
24.27800,-2.668201383
24.27850,-3.278590199
24.27900,-5.109756645
24.27950,-6.635728684
24.28000,-6.940923091
24.28050,-5.414951053
24.28100,-4.194173422
24.28150,-3.888979014
24.28200,-3.583784607
24.28250,-3.278590199
24.28300,-2.973395791
24.28350,-2.057812568
24.28400,-0.5318405296
24.28450,2.21490914
24.28500,4.961658809
24.28550,6.792825255
24.28600,7.403214071
24.28650,7.403214071
24.28700,7.708408478
24.28750,8.318797294
24.28800,8.929186109
24.28850,8.929186109
24.28900,8.929186109
24.28950,9.234380517
24.29000,9.539574925
24.29050,8.929186109
24.29100,7.708408478
24.29150,6.792825255
24.29200,6.487630848
24.29250,6.18243644
24.29300,5.572047624
24.29350,4.351269994
24.29400,2.520103547
24.29450,0.3837426935
24.29500,-0.2266461219
24.29550,-0.2266461219
24.29600,-0.2266461219
24.29650,-2.057812568
24.29700,-4.804562237
24.29750,-5.414951053
24.29800,-3.888979014
24.29850,-3.278590199
24.29900,-4.194173422
24.29950,-5.72014546
24.30000,-5.72014546
24.30050,-5.109756645
24.30100,-5.109756645
24.30150,-5.72014546
24.30200,-5.72014546
24.30250,-4.49936783
24.30300,-3.278590199
24.30350,-2.668201383
24.30400,-2.363006976
24.30450,-2.057812568
24.30500,-1.447423753
24.30550,-0.2266461219
24.30600,0.9941315089
24.30650,2.21490914
24.30700,3.130492363
24.30750,4.046075586
24.30800,4.961658809
24.30850,6.18243644
24.30900,7.098019663
24.30950,8.623991701
24.31000,9.844769332
24.31050,10.14996374
24.31100,9.844769332
24.31150,9.234380517
24.31200,8.318797294
24.31250,7.403214071
24.31300,6.792825255
24.31350,6.18243644
24.31400,4.961658809
24.31450,3.130492363
24.31500,1.299325917
24.31550,0.07854828584
24.31600,-1.142229345
24.31650,-2.057812568
24.31700,-2.057812568
24.31750,-1.447423753
24.31800,-1.447423753
24.31850,-2.668201383
24.31900,-4.194173422
24.31950,-5.72014546
24.32000,-6.940923091
24.32050,-8.46689513
24.32100,-9.077283945
24.32150,-8.46689513
24.32200,-7.246117499
24.32250,-6.635728684
24.32300,-6.635728684
24.32350,-6.025339868
24.32400,-4.804562237
24.32450,-2.668201383
24.32500,-0.5318405296
24.32550,0.07854828584
24.32600,0.6889371012
24.32650,1.299325917
24.32700,3.435686771
24.32750,6.487630848
24.32800,8.318797294
24.32850,8.929186109
24.32900,8.929186109
24.32950,9.539574925
24.33000,10.14996374
24.33050,9.539574925
24.33100,7.708408478
24.33150,6.487630848
24.33200,6.18243644
24.33250,6.487630848
24.33300,6.487630848
24.33350,5.877242032
24.33400,4.046075586
24.33450,1.909714732
24.33500,0.6889371012
24.33550,-0.2266461219
24.33600,-2.057812568
24.33650,-4.49936783
24.33700,-6.330534276
24.33750,-6.940923091
24.33800,-7.856506314
24.33850,-9.077283945
24.33900,-10.60325598
24.33950,-11.2136448
24.34000,-11.51883921
24.34050,-12.12922802
24.34100,-12.43442243
24.34150,-12.12922802
24.34200,-10.60325598
24.34250,-9.077283945
24.34300,-7.856506314
24.34350,-6.940923091
24.34400,-6.635728684
24.34450,-6.940923091
24.34500,-6.330534276
24.34550,-4.804562237
24.34600,-2.668201383
24.34650,-0.8370349373
24.34700,0.07854828584
24.34750,0.9941315089
24.34800,0.6889371012
24.34850,0.07854828584
24.34900,-0.5318405296
24.34950,0.3837426935
24.35000,2.21490914
24.35050,3.435686771
24.35100,3.130492363
24.35150,1.909714732
24.35200,0.9941315089
24.35250,1.299325917
24.35300,1.604520324
24.35350,1.604520324
24.35400,0.07854828584
24.35450,-1.142229345
24.35500,-2.057812568
24.35550,-2.363006976
24.35600,-2.668201383
24.35650,-3.888979014
24.35700,-6.025339868
24.35750,-6.940923091
24.35800,-6.940923091
24.35850,-6.635728684
24.35900,-7.246117499
24.35950,-8.161700722
24.36000,-8.46689513
24.36050,-7.856506314
24.36100,-6.940923091
24.36150,-6.940923091
24.36200,-6.940923091
24.36250,-6.635728684
24.36300,-6.330534276
24.36350,-6.330534276
24.36400,-6.025339868
24.36450,-4.49936783
24.36500,-2.973395791
24.36550,-1.75261816
24.36600,-1.142229345
24.36650,0.07854828584
24.36700,2.21490914
24.36750,4.656464401
24.36800,6.18243644
24.36850,7.098019663
24.36900,7.708408478
24.36950,7.708408478
24.37000,7.403214071
24.37050,7.098019663
24.37100,6.792825255
24.37150,7.098019663
24.37200,7.708408478
24.37250,8.013602886
24.37300,7.403214071
24.37350,5.572047624
24.37400,3.740881178
24.37450,3.435686771
24.37500,4.046075586
24.37550,4.351269994
24.37600,2.825297955
24.37650,0.6889371012
24.37700,-0.2266461219
24.37750,-1.142229345
24.37800,-2.668201383
24.37850,-4.194173422
24.37900,-4.194173422
24.37950,-3.583784607
24.38000,-4.49936783
24.38050,-7.551311907
24.38100,-10.29806158
24.38150,-11.2136448
24.38200,-10.29806158
24.38250,-9.077283945
24.38300,-7.246117499
24.38350,-4.804562237
24.38400,-2.973395791
24.38450,-2.363006976
24.38500,-1.75261816
24.38550,0.07854828584
24.38600,1.604520324
24.38650,0.6889371012
24.38700,-0.5318405296
24.38750,0.07854828584
24.38800,2.520103547
24.38850,3.740881178
24.38900,3.740881178
24.38950,4.351269994
24.39000,6.487630848
24.39050,7.098019663
24.39100,5.877242032
24.39150,4.656464401
24.39200,5.266853217
24.39250,6.18243644
24.39300,5.266853217
24.39350,4.046075586
24.39400,3.435686771
24.39450,2.825297955
24.39500,1.299325917
24.39550,0.07854828584
24.39600,-0.2266461219
24.39650,-0.8370349373
24.39700,-2.363006976
24.39750,-4.49936783
24.39800,-6.025339868
24.39850,-6.635728684
24.39900,-6.635728684
24.39950,-6.330534276
24.40000,-6.940923091
24.40050,-8.46689513
24.40100,-10.29806158
24.40150,-9.687672761
24.40200,-7.246117499
24.40250,-5.414951053
24.40300,-5.109756645
24.40350,-5.109756645
24.40400,-3.888979014
24.40450,-2.057812568
24.40500,-0.2266461219
24.40550,1.909714732
24.40600,4.961658809
24.40650,8.013602886
24.40700,9.539574925
24.40750,9.234380517
24.40800,8.623991701
24.40850,8.318797294
24.40900,8.623991701
24.40950,8.929186109
24.41000,10.14996374
24.41050,11.98113019
24.41100,13.81229663
24.41150,14.42268545
24.41200,13.20190782
24.41250,11.06554696
24.41300,9.539574925
24.41350,8.623991701
24.41400,7.708408478
24.41450,6.18243644
24.41500,5.572047624
24.41550,5.266853217
24.41600,4.046075586
24.41650,1.299325917
24.41700,-0.5318405296
24.41750,-0.8370349373
24.41800,-0.5318405296
24.41850,-1.447423753
24.41900,-3.583784607
24.41950,-5.109756645
24.42000,-5.109756645
24.42050,-5.109756645
24.42100,-5.414951053
24.42150,-5.72014546
24.42200,-5.414951053
24.42250,-4.804562237
24.42300,-4.804562237
24.42350,-4.804562237
24.42400,-4.804562237
24.42450,-4.49936783
24.42500,-3.583784607
24.42550,-1.447423753
24.42600,1.604520324
24.42650,4.656464401
24.42700,5.572047624
24.42750,4.961658809
24.42800,4.656464401
24.42850,6.18243644
24.42900,8.013602886
24.42950,8.929186109
24.43000,9.234380517
24.43050,9.539574925
24.43100,11.06554696
24.43150,11.67593578
24.43200,11.06554696
24.43250,9.539574925
24.43300,9.234380517
24.43350,9.234380517
24.43400,8.623991701
24.43450,7.403214071
24.43500,5.877242032
24.43550,4.656464401
24.43600,2.825297955
24.43650,0.07854828584
24.43700,-2.057812568
24.43750,-3.278590199
24.43800,-4.194173422
24.43850,-5.414951053
24.43900,-6.025339868
24.43950,-5.414951053
24.44000,-4.804562237
24.44050,-5.109756645
24.44100,-5.72014546
24.44150,-5.414951053
24.44200,-4.49936783
24.44250,-4.49936783
24.44300,-5.109756645
24.44350,-5.414951053
24.44400,-5.414951053
24.44450,-5.414951053
24.44500,-5.109756645
24.44550,-2.973395791
24.44600,0.07854828584
24.44650,2.825297955
24.44700,4.046075586
24.44750,4.961658809
24.44800,5.877242032
24.44850,6.487630848
24.44900,5.877242032
24.44950,5.266853217
24.45000,6.18243644
24.45050,8.013602886
24.45100,10.14996374
24.45150,10.76035256
24.45200,10.14996374
24.45250,8.929186109
24.45300,8.318797294
24.45350,7.708408478
24.45400,5.572047624
24.45450,2.825297955
24.45500,0.6889371012
24.45550,0.3837426935
24.45600,0.07854828584
24.45650,-1.447423753
24.45700,-3.278590199
24.45750,-4.194173422
24.45800,-5.109756645
24.45850,-6.635728684
24.45900,-8.772089538
24.45950,-9.077283945
24.46000,-8.772089538
24.46050,-8.772089538
24.46100,-9.382478353
24.46150,-9.687672761
24.46200,-9.992867168
24.46250,-10.29806158
24.46300,-10.29806158
24.46350,-8.772089538
24.46400,-6.635728684
24.46450,-6.025339868
24.46500,-6.940923091
24.46550,-6.635728684
24.46600,-4.804562237
24.46650,-2.057812568
24.46700,0.07854828584
24.46750,2.21490914
24.46800,4.961658809
24.46850,6.18243644
24.46900,5.877242032
24.46950,5.877242032
24.47000,6.792825255
24.47050,7.708408478
24.47100,7.403214071
24.47150,6.792825255
24.47200,7.403214071
24.47250,7.403214071
24.47300,5.266853217
24.47350,2.21490914
24.47400,0.6889371012
24.47450,0.3837426935
24.47500,0.07854828584
24.47550,-1.142229345
24.47600,-2.057812568
24.47650,-2.668201383
24.47700,-3.888979014
24.47750,-6.025339868
24.47800,-7.856506314
24.47850,-8.772089538
24.47900,-9.077283945
24.47950,-9.992867168
24.48000,-10.90845039
24.48050,-10.60325598
24.48100,-9.992867168
24.48150,-9.992867168
24.48200,-9.992867168
24.48250,-9.382478353
24.48300,-7.551311907
24.48350,-5.109756645
24.48400,-3.278590199
24.48450,-2.668201383
24.48500,-2.057812568
24.48550,-1.75261816
24.48600,-0.2266461219
24.48650,2.21490914
24.48700,5.572047624
24.48750,7.708408478
24.48800,7.403214071
24.48850,6.18243644
24.48900,6.18243644
24.48950,6.792825255
24.49000,6.487630848
24.49050,4.961658809
24.49100,4.046075586
24.49150,4.656464401
24.49200,6.18243644
24.49250,6.487630848
24.49300,6.18243644
24.49350,5.266853217
24.49400,3.740881178
24.49450,0.9941315089
24.49500,-1.447423753
24.49550,-2.973395791
24.49600,-3.583784607
24.49650,-4.49936783
24.49700,-5.109756645
24.49750,-5.109756645
24.49800,-4.804562237
24.49850,-5.109756645
24.49900,-6.025339868
24.49950,-6.635728684
24.50000,-6.940923091
24.50050,-7.856506314
24.50100,-9.077283945
24.50150,-9.992867168
24.50200,-10.29806158
24.50250,-10.60325598
24.50300,-10.90845039
24.50350,-9.687672761
24.50400,-8.46689513
24.50450,-6.940923091
24.50500,-4.804562237
24.50550,-1.142229345
24.50600,2.21490914
24.50650,3.740881178
24.50700,3.130492363
24.50750,3.130492363
24.50800,4.046075586
24.50850,4.961658809
24.50900,4.961658809
24.50950,4.961658809
24.51000,5.877242032
24.51050,5.877242032
24.51100,4.961658809
24.51150,5.266853217
24.51200,7.098019663
24.51250,8.318797294
24.51300,7.403214071
24.51350,4.961658809
24.51400,4.046075586
24.51450,4.046075586
24.51500,2.825297955
24.51550,0.3837426935
24.51600,-0.8370349373
24.51650,-1.447423753
24.51700,-2.057812568
24.51750,-4.194173422
24.51800,-6.940923091
24.51850,-9.077283945
24.51900,-9.687672761
24.51950,-10.29806158
24.52000,-11.2136448
24.52050,-11.82403361
24.52100,-11.82403361
24.52150,-11.51883921
24.52200,-11.2136448
24.52250,-10.29806158
24.52300,-8.161700722
24.52350,-5.414951053
24.52400,-3.278590199
24.52450,-2.363006976
24.52500,-2.668201383
24.52550,-2.363006976
24.52600,-0.2266461219
24.52650,2.825297955
24.52700,5.572047624
24.52750,7.403214071
24.52800,8.318797294
24.52850,8.623991701
24.52900,8.318797294
24.52950,8.623991701
24.53000,9.539574925
24.53050,10.45515815
24.53100,9.844769332
24.53150,8.013602886
24.53200,6.487630848
24.53250,6.18243644
24.53300,5.572047624
24.53350,4.351269994
24.53400,2.825297955
24.53450,1.909714732
24.53500,0.9941315089
24.53550,-0.5318405296
24.53600,-2.363006976
24.53650,-3.583784607
24.53700,-4.194173422
24.53750,-4.804562237
24.53800,-5.109756645
24.53850,-5.414951053
24.53900,-6.330534276
24.53950,-7.551311907
24.54000,-7.856506314
24.54050,-7.551311907
24.54100,-6.940923091
24.54150,-6.940923091
24.54200,-6.940923091
24.54250,-6.025339868
24.54300,-3.888979014
24.54350,-2.363006976
24.54400,-2.057812568
24.54450,-2.057812568
24.54500,-0.5318405296
24.54550,2.520103547
24.54600,5.877242032
24.54650,7.403214071
24.54700,7.403214071
24.54750,7.403214071
24.54800,8.013602886
24.54850,8.929186109
24.54900,9.539574925
24.54950,9.844769332
24.55000,10.14996374
24.55050,10.45515815
24.55100,10.14996374
24.55150,9.844769332
24.55200,9.844769332
24.55250,9.539574925
24.55300,8.013602886
24.55350,5.266853217
24.55400,3.740881178
24.55450,3.740881178
24.55500,3.435686771
24.55550,1.604520324
24.55600,-0.5318405296
24.55650,-1.142229345
24.55700,-0.8370349373
24.55750,-1.75261816
24.55800,-4.49936783
24.55850,-6.635728684
24.55900,-7.856506314
24.55950,-8.772089538
24.56000,-9.992867168
24.56050,-10.29806158
24.56100,-9.077283945
24.56150,-7.551311907
24.56200,-7.246117499
24.56250,-6.940923091
24.56300,-4.804562237
24.56350,-2.363006976
24.56400,-0.8370349373
24.56450,-0.8370349373
24.56500,0.07854828584
24.56550,1.299325917
24.56600,2.520103547
24.56650,3.130492363
24.56700,4.656464401
24.56750,7.708408478
24.56800,9.844769332
24.56850,9.539574925
24.56900,8.623991701
24.56950,8.929186109
24.57000,9.844769332
24.57050,10.76035256
24.57100,11.37074137
24.57150,11.67593578
24.57200,10.76035256
24.57250,8.623991701
24.57300,6.792825255
24.57350,6.487630848
24.57400,6.18243644
24.57450,4.961658809
24.57500,4.046075586
24.57550,3.435686771
24.57600,2.520103547
24.57650,0.9941315089
24.57700,0.07854828584
24.57750,0.3837426935
24.57800,0.3837426935
24.57850,-0.8370349373
24.57900,-2.057812568
24.57950,-2.668201383
24.58000,-3.583784607
24.58050,-5.414951053
24.58100,-6.025339868
24.58150,-4.194173422
24.58200,-3.278590199
24.58250,-4.804562237
24.58300,-6.025339868
24.58350,-4.49936783
24.58400,-1.75261816
24.58450,-0.2266461219
24.58500,-0.2266461219
24.58550,0.3837426935
24.58600,1.909714732
24.58650,2.825297955
24.58700,3.435686771
24.58750,4.961658809
24.58800,7.098019663
24.58850,8.623991701
24.58900,9.234380517
24.58950,10.45515815
24.59000,11.67593578
24.59050,11.98113019
24.59100,10.45515815
24.59150,8.318797294
24.59200,6.792825255
24.59250,5.877242032
24.59300,5.572047624
24.59350,5.266853217
24.59400,3.740881178
24.59450,2.21490914
24.59500,1.299325917
24.59550,0.9941315089
24.59600,-0.2266461219
24.59650,-3.278590199
24.59700,-6.025339868
24.59750,-6.635728684
24.59800,-6.330534276
24.59850,-7.246117499
24.59900,-9.382478353
24.59950,-11.2136448
24.60000,-11.82403361
24.60050,-11.51883921
24.60100,-10.60325598
24.60150,-9.992867168
24.60200,-9.077283945
24.60250,-8.161700722
24.60300,-6.635728684
24.60350,-5.109756645
24.60400,-5.109756645
24.60450,-6.025339868
24.60500,-5.414951053
24.60550,-2.973395791
24.60600,0.07854828584
24.60650,2.21490914
24.60700,4.656464401
24.60750,7.708408478
24.60800,9.539574925
24.60850,9.539574925
24.60900,9.234380517
24.60950,10.14996374
24.61000,11.06554696
24.61050,9.844769332
24.61100,8.013602886
24.61150,7.098019663
24.61200,7.403214071
24.61250,7.098019663
24.61300,6.18243644
24.61350,5.877242032
24.61400,5.877242032
24.61450,4.961658809
24.61500,2.21490914
24.61550,0.07854828584
24.61600,-0.8370349373
24.61650,-0.5318405296
24.61700,-1.142229345
24.61750,-2.973395791
24.61800,-5.109756645
24.61850,-7.551311907
24.61900,-9.687672761
24.61950,-11.2136448
24.62000,-12.43442243
24.62050,-13.04481125
24.62100,-13.65520006
24.62150,-13.96039447
24.62200,-13.96039447
24.62250,-14.57078328
24.62300,-14.57078328
24.62350,-13.96039447
24.62400,-12.43442243
24.62450,-10.90845039
24.62500,-9.077283945
24.62550,-6.635728684
24.62600,-3.888979014
24.62650,-2.668201383
24.62700,-1.75261816
24.62750,-0.5318405296
24.62800,0.9941315089
24.62850,2.825297955
24.62900,4.351269994
24.62950,5.266853217
24.63000,6.487630848
24.63050,6.487630848
24.63100,5.572047624
24.63150,4.656464401
24.63200,4.046075586
24.63250,3.435686771
24.63300,3.435686771
24.63350,4.351269994
24.63400,5.572047624
24.63450,5.572047624
24.63500,3.740881178
24.63550,1.909714732
24.63600,0.6889371012
24.63650,-0.5318405296
24.63700,-2.363006976
24.63750,-3.888979014
24.63800,-4.194173422
24.63850,-4.194173422
24.63900,-6.025339868
24.63950,-9.077283945
24.64000,-10.60325598
24.64050,-10.29806158
24.64100,-9.992867168
24.64150,-10.60325598
24.64200,-11.82403361
24.64250,-11.82403361
24.64300,-9.992867168
24.64350,-8.161700722
24.64400,-6.940923091
24.64450,-6.025339868
24.64500,-4.194173422
24.64550,-1.142229345
24.64600,1.299325917
24.64650,2.825297955
24.64700,3.435686771
24.64750,4.351269994
24.64800,5.572047624
24.64850,6.792825255
24.64900,8.318797294
24.64950,9.844769332
24.65000,10.45515815
24.65050,9.539574925
24.65100,8.318797294
24.65150,8.318797294
24.65200,8.929186109
24.65250,8.318797294
24.65300,6.792825255
24.65350,5.877242032
24.65400,6.487630848
24.65450,6.487630848
24.65500,4.656464401
24.65550,2.520103547
24.65600,1.604520324
24.65650,1.604520324
24.65700,0.3837426935
24.65750,-1.447423753
24.65800,-3.278590199
24.65850,-4.49936783
24.65900,-5.414951053
24.65950,-6.330534276
24.66000,-7.551311907
24.66050,-8.46689513
24.66100,-8.161700722
24.66150,-6.940923091
24.66200,-5.414951053
24.66250,-6.330534276
24.66300,-8.46689513
24.66350,-9.382478353
24.66400,-8.46689513
24.66450,-6.635728684
24.66500,-6.025339868
24.66550,-5.109756645
24.66600,-2.668201383
24.66650,-0.2266461219
24.66700,0.3837426935
24.66750,0.07854828584
24.66800,1.299325917
24.66850,4.656464401
24.66900,8.318797294
24.66950,9.844769332
24.67000,9.844769332
24.67050,8.623991701
24.67100,8.013602886
24.67150,8.318797294
24.67200,8.929186109
24.67250,9.234380517
24.67300,8.929186109
24.67350,8.318797294
24.67400,7.708408478
24.67450,7.098019663
24.67500,6.487630848
24.67550,6.18243644
24.67600,4.961658809
24.67650,3.130492363
24.67700,0.6889371012
24.67750,-1.447423753
24.67800,-3.888979014
24.67850,-5.72014546
24.67900,-6.330534276
24.67950,-5.414951053
24.68000,-4.804562237
24.68050,-6.025339868
24.68100,-8.46689513
24.68150,-9.687672761
24.68200,-8.772089538
24.68250,-7.246117499
24.68300,-6.330534276
24.68350,-5.414951053
24.68400,-2.973395791
24.68450,-1.142229345
24.68500,-0.8370349373
24.68550,-1.447423753
24.68600,-0.5318405296
24.68650,1.604520324
24.68700,3.435686771
24.68750,4.046075586
24.68800,5.266853217
24.68850,7.098019663
24.68900,8.623991701
24.68950,8.623991701
24.69000,8.623991701
24.69050,9.539574925
24.69100,10.45515815
24.69150,10.14996374
24.69200,9.234380517
24.69250,8.623991701
24.69300,8.929186109
24.69350,8.318797294
24.69400,7.403214071
24.69450,6.792825255
24.69500,6.487630848
24.69550,5.266853217
24.69600,2.825297955
24.69650,0.9941315089
24.69700,0.3837426935
24.69750,-0.2266461219
24.69800,-2.363006976
24.69850,-5.109756645
24.69900,-6.635728684
24.69950,-6.940923091
24.70000,-7.246117499
24.70050,-8.46689513
24.70100,-9.382478353
24.70150,-9.382478353
24.70200,-8.161700722
24.70250,-7.246117499
24.70300,-6.330534276
24.70350,-5.109756645
24.70400,-2.973395791
24.70450,-1.75261816
