"type","name","time_units","begin_time","frequency","count","units"
"signal","Ultium EMG-FLEX.CAPR.U RT","s",296.98000,2000,22000,"uV"

"time","value"
296.98000,-3.642047607
296.98050,-5.168019645
296.98100,-6.388797276
296.98150,-7.304380499
296.98200,-7.609574907
296.98250,-6.999186092
296.98300,-6.693991684
296.98350,-6.388797276
296.98400,-5.778408461
296.98450,-3.336853199
296.98500,-0.5901035299
296.98550,0.9358685086
296.98600,1.851451732
296.98650,3.987812586
296.98700,6.429367847
296.98750,7.955339886
296.98800,7.34495107
296.98850,5.513784624
296.98900,3.682618178
296.98950,2.767034955
296.99000,2.767034955
296.99050,4.293006993
296.99100,6.734562255
296.99150,7.955339886
296.99200,7.039756663
296.99250,5.208590216
296.99300,5.208590216
296.99350,7.650145478
296.99400,10.39689515
296.99450,11.61767278
296.99500,11.00728396
296.99550,9.176117517
296.99600,7.650145478
296.99650,6.429367847
296.99700,6.124173439
296.99750,5.818979032
296.99800,4.293006993
296.99850,2.156646139
296.99900,-0.2849091222
296.99950,-3.642047607
297.00000,-7.609574907
297.00050,-9.440741353
297.00100,-7.609574907
297.00150,-3.031658792
297.00200,0.3254796932
297.00250,2.156646139
297.00300,3.072229362
297.00350,4.903395809
297.00400,5.513784624
297.00450,3.072229362
297.00500,-0.2849091222
297.00550,-3.031658792
297.00600,-3.947242015
297.00650,-3.336853199
297.00700,-2.726464384
297.00750,-2.421269976
297.00800,-3.336853199
297.00850,-4.55763083
297.00900,-5.168019645
297.00950,-4.252436422
297.01000,-3.336853199
297.01050,-2.726464384
297.01100,-2.421269976
297.01150,-3.031658792
297.01200,-4.55763083
297.01250,-6.388797276
297.01300,-5.778408461
297.01350,-3.031658792
297.01400,-1.200492345
297.01450,-2.421269976
297.01500,-4.55763083
297.01550,-4.862825238
297.01600,-3.642047607
297.01650,-4.252436422
297.01700,-7.304380499
297.01750,-10.35632458
297.01800,-11.88229661
297.01850,-13.10307425
297.01900,-15.2394351
297.01950,-15.84982392
297.02000,-14.01865747
297.02050,-10.96671339
297.02100,-8.52515813
297.02150,-6.083602869
297.02200,-1.810881161
297.02250,2.156646139
297.02300,4.293006993
297.02350,6.734562255
297.02400,11.61767278
297.02450,18.02675534
297.02500,21.68908823
297.02550,20.16311619
297.02600,17.41636652
297.02650,15.58520008
297.02700,14.66961686
297.02750,11.92286719
297.02800,7.650145478
297.02850,3.682618178
297.02900,0.02028528547
297.02950,-3.031658792
297.03000,-4.862825238
297.03050,-4.862825238
297.03100,-4.862825238
297.03150,-6.999186092
297.03200,-10.66151898
297.03250,-13.71346306
297.03300,-13.71346306
297.03350,-11.2719078
297.03400,-6.388797276
297.03450,-1.200492345
297.03500,2.461840547
297.03550,5.513784624
297.03600,9.481311924
297.03650,13.44883922
297.03700,14.66961686
297.03750,11.61767278
297.03800,7.039756663
297.03850,4.903395809
297.03900,4.903395809
297.03950,4.598201401
297.04000,3.682618178
297.04050,2.461840547
297.04100,1.546257324
297.04150,0.02028528547
297.04200,-1.200492345
297.04250,-0.8952979376
297.04300,0.3254796932
297.04350,0.9358685086
297.04400,0.02028528547
297.04450,-1.200492345
297.04500,-1.505686753
297.04550,-1.200492345
297.04600,-0.2849091222
297.04650,2.156646139
297.04700,5.818979032
297.04750,7.039756663
297.04800,5.208590216
297.04850,2.767034955
297.04900,3.37742377
297.04950,6.124173439
297.05000,7.650145478
297.05050,6.124173439
297.05100,4.293006993
297.05150,3.987812586
297.05200,3.682618178
297.05250,2.156646139
297.05300,0.3254796932
297.05350,0.02028528547
297.05400,1.241062916
297.05450,1.241062916
297.05500,-0.8952979376
297.05550,-3.947242015
297.05600,-5.473214053
297.05650,-5.168019645
297.05700,-4.55763083
297.05750,-4.55763083
297.05800,-4.252436422
297.05850,-4.252436422
297.05900,-4.55763083
297.05950,-5.168019645
297.06000,-5.778408461
297.06050,-6.083602869
297.06100,-6.083602869
297.06150,-5.778408461
297.06200,-4.862825238
297.06250,-4.55763083
297.06300,-4.252436422
297.06350,-3.336853199
297.06400,-1.810881161
297.06450,-0.5901035299
297.06500,-0.5901035299
297.06550,-0.8952979376
297.06600,0.02028528547
297.06650,1.546257324
297.06700,1.851451732
297.06750,0.9358685086
297.06800,0.3254796932
297.06850,1.546257324
297.06900,2.461840547
297.06950,2.156646139
297.07000,0.9358685086
297.07050,0.02028528547
297.07100,0.02028528547
297.07150,-0.2849091222
297.07200,-0.5901035299
297.07250,-1.200492345
297.07300,-3.031658792
297.07350,-6.083602869
297.07400,-7.609574907
297.07450,-6.388797276
297.07500,-3.947242015
297.07550,-2.421269976
297.07600,-1.505686753
297.07650,-0.2849091222
297.07700,1.546257324
297.07750,2.767034955
297.07800,3.072229362
297.07850,3.072229362
297.07900,2.461840547
297.07950,2.156646139
297.08000,3.37742377
297.08050,5.818979032
297.08100,6.124173439
297.08150,1.851451732
297.08200,-3.642047607
297.08250,-6.388797276
297.08300,-4.55763083
297.08350,-1.200492345
297.08400,0.9358685086
297.08450,1.546257324
297.08500,0.02028528547
297.08550,-3.031658792
297.08600,-5.778408461
297.08650,-6.693991684
297.08700,-6.083602869
297.08750,-6.083602869
297.08800,-6.388797276
297.08850,-5.473214053
297.08900,-3.947242015
297.08950,-2.421269976
297.09000,0.02028528547
297.09050,3.682618178
297.09100,7.039756663
297.09150,6.124173439
297.09200,2.461840547
297.09250,0.02028528547
297.09300,0.02028528547
297.09350,-0.2849091222
297.09400,-1.200492345
297.09450,-0.8952979376
297.09500,0.02028528547
297.09550,0.9358685086
297.09600,0.6306741009
297.09650,0.3254796932
297.09700,0.6306741009
297.09750,1.241062916
297.09800,1.241062916
297.09850,0.9358685086
297.09900,-0.2849091222
297.09950,-3.031658792
297.10000,-4.862825238
297.10050,-3.642047607
297.10100,-0.5901035299
297.10150,0.3254796932
297.10200,-0.8952979376
297.10250,-2.116075568
297.10300,-1.200492345
297.10350,0.3254796932
297.10400,1.546257324
297.10450,1.851451732
297.10500,2.156646139
297.10550,2.156646139
297.10600,0.9358685086
297.10650,-0.8952979376
297.10700,-3.947242015
297.10750,-7.914769315
297.10800,-10.66151898
297.10850,-10.66151898
297.10900,-8.52515813
297.10950,-5.778408461
297.11000,-1.810881161
297.11050,3.37742377
297.11100,7.650145478
297.11150,7.34495107
297.11200,4.903395809
297.11250,6.429367847
297.11300,12.83845041
297.11350,18.02675534
297.11400,16.80597771
297.11450,11.92286719
297.11500,8.565728701
297.11550,7.039756663
297.11600,4.598201401
297.11650,1.241062916
297.11700,0.02028528547
297.11750,0.6306741009
297.11800,1.241062916
297.11850,0.02028528547
297.11900,-0.5901035299
297.11950,0.02028528547
297.12000,0.6306741009
297.12050,0.3254796932
297.12100,0.02028528547
297.12150,0.02028528547
297.12200,0.6306741009
297.12250,0.9358685086
297.12300,0.9358685086
297.12350,0.6306741009
297.12400,0.6306741009
297.12450,1.241062916
297.12500,2.461840547
297.12550,2.767034955
297.12600,0.9358685086
297.12650,-0.5901035299
297.12700,-0.8952979376
297.12750,0.02028528547
297.12800,0.02028528547
297.12850,-0.8952979376
297.12900,-1.505686753
297.12950,0.02028528547
297.13000,0.9358685086
297.13050,-0.5901035299
297.13100,-4.252436422
297.13150,-6.083602869
297.13200,-5.473214053
297.13250,-4.55763083
297.13300,-5.168019645
297.13350,-6.999186092
297.13400,-6.999186092
297.13450,-4.55763083
297.13500,-0.8952979376
297.13550,1.546257324
297.13600,1.546257324
297.13650,0.02028528547
297.13700,-1.810881161
297.13750,-3.336853199
297.13800,-4.55763083
297.13850,-4.862825238
297.13900,-3.031658792
297.13950,-0.2849091222
297.14000,0.6306741009
297.14050,0.02028528547
297.14100,-0.2849091222
297.14150,1.851451732
297.14200,3.682618178
297.14250,2.156646139
297.14300,-1.505686753
297.14350,-5.473214053
297.14400,-8.830352538
297.14450,-11.88229661
297.14500,-11.57710221
297.14550,-6.388797276
297.14600,0.9358685086
297.14650,4.598201401
297.14700,4.293006993
297.14750,3.682618178
297.14800,4.598201401
297.14850,5.208590216
297.14900,3.37742377
297.14950,0.6306741009
297.15000,0.02028528547
297.15050,0.02028528547
297.15100,1.546257324
297.15150,3.37742377
297.15200,4.903395809
297.15250,4.293006993
297.15300,2.156646139
297.15350,0.3254796932
297.15400,-1.810881161
297.15450,-5.778408461
297.15500,-9.745935761
297.15550,-10.35632458
297.15600,-6.083602869
297.15650,-0.5901035299
297.15700,1.851451732
297.15750,1.241062916
297.15800,-0.8952979376
297.15850,-4.55763083
297.15900,-7.914769315
297.15950,-8.830352538
297.16000,-6.388797276
297.16050,-2.116075568
297.16100,0.02028528547
297.16150,-0.5901035299
297.16200,-2.726464384
297.16250,-2.726464384
297.16300,-0.5901035299
297.16350,2.156646139
297.16400,4.903395809
297.16450,6.429367847
297.16500,7.34495107
297.16550,7.955339886
297.16600,7.039756663
297.16650,5.513784624
297.16700,3.682618178
297.16750,2.767034955
297.16800,2.461840547
297.16850,1.851451732
297.16900,0.9358685086
297.16950,1.241062916
297.17000,2.767034955
297.17050,4.598201401
297.17100,4.903395809
297.17150,3.987812586
297.17200,3.682618178
297.17250,6.429367847
297.17300,8.870923109
297.17350,7.650145478
297.17400,1.851451732
297.17450,-3.642047607
297.17500,-5.168019645
297.17550,-3.642047607
297.17600,-3.031658792
297.17650,-5.473214053
297.17700,-8.830352538
297.17750,-10.66151898
297.17800,-10.05113017
297.17850,-7.304380499
297.17900,-3.642047607
297.17950,-0.5901035299
297.18000,0.6306741009
297.18050,2.156646139
297.18100,5.513784624
297.18150,8.565728701
297.18200,9.176117517
297.18250,7.955339886
297.18300,7.650145478
297.18350,8.565728701
297.18400,9.176117517
297.18450,7.955339886
297.18500,7.039756663
297.18550,7.650145478
297.18600,8.870923109
297.18650,8.870923109
297.18700,9.176117517
297.18750,10.09170074
297.18800,10.39689515
297.18850,8.870923109
297.18900,6.429367847
297.18950,3.987812586
297.19000,-0.2849091222
297.19050,-7.304380499
297.19100,-14.32385188
297.19150,-18.90176799
297.19200,-21.95371207
297.19250,-24.39526733
297.19300,-24.70046174
297.19350,-21.95371207
297.19400,-17.68099036
297.19450,-15.2394351
297.19500,-13.10307425
297.19550,-8.219963722
297.19600,-1.505686753
297.19650,1.546257324
297.19700,2.156646139
297.19750,5.208590216
297.19800,13.44883922
297.19850,23.21506027
297.19900,28.09817079
297.19950,26.26700435
297.20000,20.4683106
297.20050,14.36442245
297.20100,9.786506332
297.20150,7.650145478
297.20200,6.734562255
297.20250,6.124173439
297.20300,6.429367847
297.20350,7.34495107
297.20400,7.34495107
297.20450,5.208590216
297.20500,2.156646139
297.20550,1.546257324
297.20600,3.072229362
297.20650,2.767034955
297.20700,-0.5901035299
297.20750,-3.031658792
297.20800,-1.200492345
297.20850,3.072229362
297.20900,4.903395809
297.20950,2.461840547
297.21000,-1.505686753
297.21050,-4.55763083
297.21100,-6.083602869
297.21150,-6.693991684
297.21200,-6.388797276
297.21250,-5.778408461
297.21300,-5.473214053
297.21350,-5.778408461
297.21400,-6.388797276
297.21450,-6.693991684
297.21500,-6.999186092
297.21550,-6.999186092
297.21600,-5.778408461
297.21650,-3.947242015
297.21700,-2.421269976
297.21750,-2.421269976
297.21800,-3.031658792
297.21850,-3.642047607
297.21900,-2.421269976
297.21950,0.3254796932
297.22000,4.598201401
297.22050,7.650145478
297.22100,7.34495107
297.22150,5.208590216
297.22200,3.682618178
297.22250,5.513784624
297.22300,8.870923109
297.22350,9.481311924
297.22400,5.818979032
297.22450,0.3254796932
297.22500,-2.726464384
297.22550,-3.336853199
297.22600,-2.726464384
297.22650,-2.421269976
297.22700,-1.505686753
297.22750,-1.200492345
297.22800,-2.421269976
297.22850,-4.55763083
297.22900,-5.473214053
297.22950,-4.862825238
297.23000,-4.55763083
297.23050,-5.473214053
297.23100,-5.168019645
297.23150,-3.642047607
297.23200,-3.336853199
297.23250,-5.168019645
297.23300,-6.388797276
297.23350,-5.473214053
297.23400,-4.252436422
297.23450,-5.473214053
297.23500,-7.304380499
297.23550,-6.388797276
297.23600,-4.252436422
297.23650,-3.031658792
297.23700,-2.726464384
297.23750,-2.421269976
297.23800,-2.421269976
297.23850,-3.336853199
297.23900,-3.336853199
297.23950,-1.810881161
297.24000,-0.5901035299
297.24050,-0.8952979376
297.24100,-1.810881161
297.24150,-1.200492345
297.24200,0.02028528547
297.24250,0.02028528547
297.24300,-0.2849091222
297.24350,-0.5901035299
297.24400,-1.200492345
297.24450,-3.336853199
297.24500,-5.168019645
297.24550,-3.336853199
297.24600,0.9358685086
297.24650,4.293006993
297.24700,4.903395809
297.24750,4.293006993
297.24800,4.598201401
297.24850,5.818979032
297.24900,7.34495107
297.24950,7.650145478
297.25000,5.208590216
297.25050,1.241062916
297.25100,-1.200492345
297.25150,-1.200492345
297.25200,0.02028528547
297.25250,0.3254796932
297.25300,0.02028528547
297.25350,-1.505686753
297.25400,-4.252436422
297.25450,-6.388797276
297.25500,-5.473214053
297.25550,-2.116075568
297.25600,-2.116075568
297.25650,-6.999186092
297.25700,-11.57710221
297.25750,-10.66151898
297.25800,-6.388797276
297.25850,-4.55763083
297.25900,-5.473214053
297.25950,-4.252436422
297.26000,-0.5901035299
297.26050,0.6306741009
297.26100,-0.8952979376
297.26150,-0.8952979376
297.26200,3.682618178
297.26250,10.39689515
297.26300,12.83845041
297.26350,10.70208956
297.26400,7.955339886
297.26450,7.34495107
297.26500,7.34495107
297.26550,7.34495107
297.26600,7.039756663
297.26650,6.734562255
297.26700,5.513784624
297.26750,4.598201401
297.26800,5.208590216
297.26850,7.34495107
297.26900,7.955339886
297.26950,4.903395809
297.27000,0.3254796932
297.27050,-1.505686753
297.27100,-0.2849091222
297.27150,1.851451732
297.27200,2.767034955
297.27250,1.851451732
297.27300,0.6306741009
297.27350,-0.8952979376
297.27400,-3.031658792
297.27450,-4.55763083
297.27500,-4.55763083
297.27550,-3.336853199
297.27600,-3.031658792
297.27650,-4.862825238
297.27700,-6.999186092
297.27750,-6.999186092
297.27800,-4.862825238
297.27850,-3.947242015
297.27900,-6.693991684
297.27950,-9.135546946
297.28000,-7.609574907
297.28050,-2.726464384
297.28100,2.156646139
297.28150,4.903395809
297.28200,5.208590216
297.28250,3.987812586
297.28300,2.461840547
297.28350,1.851451732
297.28400,1.851451732
297.28450,0.02028528547
297.28500,-3.642047607
297.28550,-7.304380499
297.28600,-7.914769315
297.28650,-6.999186092
297.28700,-7.304380499
297.28750,-9.135546946
297.28800,-10.05113017
297.28850,-8.830352538
297.28900,-5.168019645
297.28950,0.02028528547
297.29000,4.293006993
297.29050,6.734562255
297.29100,7.039756663
297.29150,9.176117517
297.29200,14.66961686
297.29250,20.16311619
297.29300,21.38389382
297.29350,18.33194975
297.29400,14.97481126
297.29450,12.22806159
297.29500,9.176117517
297.29550,6.124173439
297.29600,4.293006993
297.29650,3.072229362
297.29700,1.546257324
297.29750,-0.2849091222
297.29800,-2.116075568
297.29850,-3.947242015
297.29900,-5.473214053
297.29950,-4.862825238
297.30000,-2.116075568
297.30050,0.9358685086
297.30100,0.9358685086
297.30150,-0.8952979376
297.30200,-2.116075568
297.30250,-0.2849091222
297.30300,1.546257324
297.30350,1.851451732
297.30400,0.02028528547
297.30450,-1.505686753
297.30500,-3.336853199
297.30550,-3.642047607
297.30600,-3.031658792
297.30650,-1.810881161
297.30700,-0.5901035299
297.30750,0.9358685086
297.30800,2.767034955
297.30850,3.072229362
297.30900,0.9358685086
297.30950,-1.200492345
297.31000,-2.116075568
297.31050,-1.505686753
297.31100,-2.116075568
297.31150,-4.252436422
297.31200,-5.168019645
297.31250,-3.947242015
297.31300,-3.336853199
297.31350,-4.55763083
297.31400,-6.999186092
297.31450,-8.219963722
297.31500,-8.219963722
297.31550,-8.52515813
297.31600,-8.52515813
297.31650,-6.999186092
297.31700,-5.473214053
297.31750,-4.862825238
297.31800,-5.778408461
297.31850,-6.083602869
297.31900,-5.168019645
297.31950,-4.252436422
297.32000,-3.031658792
297.32050,-1.505686753
297.32100,0.02028528547
297.32150,0.9358685086
297.32200,0.6306741009
297.32250,1.241062916
297.32300,3.682618178
297.32350,5.208590216
297.32400,3.987812586
297.32450,1.241062916
297.32500,0.02028528547
297.32550,1.241062916
297.32600,2.461840547
297.32650,1.546257324
297.32700,0.02028528547
297.32750,0.02028528547
297.32800,0.3254796932
297.32850,0.6306741009
297.32900,0.3254796932
297.32950,1.241062916
297.33000,2.767034955
297.33050,2.767034955
297.33100,1.851451732
297.33150,1.546257324
297.33200,3.37742377
297.33250,4.293006993
297.33300,3.072229362
297.33350,0.3254796932
297.33400,-1.200492345
297.33450,-1.810881161
297.33500,-2.421269976
297.33550,-2.421269976
297.33600,-0.8952979376
297.33650,0.3254796932
297.33700,1.241062916
297.33750,1.241062916
297.33800,1.546257324
297.33850,2.156646139
297.33900,3.072229362
297.33950,4.598201401
297.34000,6.124173439
297.34050,5.818979032
297.34100,4.293006993
297.34150,4.293006993
297.34200,5.818979032
297.34250,6.124173439
297.34300,3.682618178
297.34350,1.241062916
297.34400,1.851451732
297.34450,3.072229362
297.34500,2.156646139
297.34550,-0.2849091222
297.34600,-0.8952979376
297.34650,0.6306741009
297.34700,2.156646139
297.34750,1.546257324
297.34800,0.02028528547
297.34850,-1.200492345
297.34900,-2.726464384
297.34950,-4.55763083
297.35000,-5.778408461
297.35050,-6.083602869
297.35100,-5.778408461
297.35150,-4.55763083
297.35200,-2.726464384
297.35250,-0.8952979376
297.35300,-0.5901035299
297.35350,-0.8952979376
297.35400,-0.5901035299
297.35450,0.6306741009
297.35500,1.241062916
297.35550,1.241062916
297.35600,0.3254796932
297.35650,-1.505686753
297.35700,-4.252436422
297.35750,-5.168019645
297.35800,-2.421269976
297.35850,0.9358685086
297.35900,2.461840547
297.35950,2.156646139
297.36000,1.851451732
297.36050,2.461840547
297.36100,2.461840547
297.36150,2.461840547
297.36200,2.461840547
297.36250,2.461840547
297.36300,2.156646139
297.36350,2.461840547
297.36400,2.156646139
297.36450,-0.5901035299
297.36500,-5.778408461
297.36550,-8.52515813
297.36600,-6.693991684
297.36650,-2.726464384
297.36700,-0.8952979376
297.36750,-0.5901035299
297.36800,0.02028528547
297.36850,1.241062916
297.36900,1.241062916
297.36950,0.6306741009
297.37000,0.9358685086
297.37050,1.546257324
297.37100,-0.5901035299
297.37150,-5.168019645
297.37200,-7.914769315
297.37250,-8.219963722
297.37300,-8.830352538
297.37350,-12.49268543
297.37400,-16.15501832
297.37450,-16.76540714
297.37500,-12.79787984
297.37550,-7.304380499
297.37600,-1.505686753
297.37650,4.903395809
297.37700,14.05922804
297.37750,23.21506027
297.37800,27.79297639
297.37850,25.35142112
297.37900,19.24753297
297.37950,14.66961686
297.38000,13.44883922
297.38050,12.533256
297.38100,9.786506332
297.38150,7.34495107
297.38200,5.818979032
297.38250,3.682618178
297.38300,-0.5901035299
297.38350,-5.168019645
297.38400,-4.862825238
297.38450,-0.5901035299
297.38500,1.851451732
297.38550,1.241062916
297.38600,0.3254796932
297.38650,1.546257324
297.38700,2.767034955
297.38750,1.241062916
297.38800,-1.200492345
297.38850,-2.421269976
297.38900,-2.726464384
297.38950,-4.252436422
297.39000,-7.304380499
297.39050,-10.35632458
297.39100,-10.66151898
297.39150,-8.52515813
297.39200,-5.473214053
297.39250,-3.031658792
297.39300,-2.421269976
297.39350,-2.421269976
297.39400,-2.116075568
297.39450,0.02028528547
297.39500,2.461840547
297.39550,3.987812586
297.39600,3.37742377
297.39650,0.02028528547
297.39700,-3.947242015
297.39750,-6.999186092
297.39800,-6.693991684
297.39850,-5.168019645
297.39900,-4.862825238
297.39950,-6.388797276
297.40000,-6.693991684
297.40050,-3.336853199
297.40100,0.3254796932
297.40150,1.851451732
297.40200,1.851451732
297.40250,3.37742377
297.40300,5.513784624
297.40350,5.513784624
297.40400,3.37742377
297.40450,2.156646139
297.40500,3.682618178
297.40550,5.513784624
297.40600,5.513784624
297.40650,4.903395809
297.40700,4.598201401
297.40750,4.903395809
297.40800,3.682618178
297.40850,1.546257324
297.40900,0.02028528547
297.40950,0.02028528547
297.41000,1.241062916
297.41050,0.6306741009
297.41100,-1.200492345
297.41150,-3.031658792
297.41200,-2.726464384
297.41250,-0.8952979376
297.41300,-0.5901035299
297.41350,-1.810881161
297.41400,-3.031658792
297.41450,-4.252436422
297.41500,-6.083602869
297.41550,-7.914769315
297.41600,-8.219963722
297.41650,-6.693991684
297.41700,-6.083602869
297.41750,-6.388797276
297.41800,-6.083602869
297.41850,-4.862825238
297.41900,-4.252436422
297.41950,-4.55763083
297.42000,-5.168019645
297.42050,-5.168019645
297.42100,-4.862825238
297.42150,-5.473214053
297.42200,-6.083602869
297.42250,-4.862825238
297.42300,-1.810881161
297.42350,2.461840547
297.42400,6.124173439
297.42450,7.039756663
297.42500,5.208590216
297.42550,3.072229362
297.42600,3.682618178
297.42650,5.818979032
297.42700,7.039756663
297.42750,6.734562255
297.42800,6.734562255
297.42850,7.34495107
297.42900,7.34495107
297.42950,6.124173439
297.43000,4.293006993
297.43050,2.767034955
297.43100,1.851451732
297.43150,2.156646139
297.43200,3.37742377
297.43250,3.37742377
297.43300,0.9358685086
297.43350,-0.5901035299
297.43400,1.241062916
297.43450,5.818979032
297.43500,7.955339886
297.43550,5.818979032
297.43600,2.156646139
297.43650,0.02028528547
297.43700,-1.200492345
297.43750,-2.421269976
297.43800,-2.726464384
297.43850,-1.200492345
297.43900,0.02028528547
297.43950,0.02028528547
297.44000,-0.5901035299
297.44050,-0.5901035299
297.44100,0.6306741009
297.44150,2.461840547
297.44200,3.987812586
297.44250,3.987812586
297.44300,2.461840547
297.44350,0.3254796932
297.44400,0.3254796932
297.44450,2.767034955
297.44500,5.818979032
297.44550,6.429367847
297.44600,4.598201401
297.44650,1.546257324
297.44700,-0.5901035299
297.44750,-0.8952979376
297.44800,0.9358685086
297.44850,3.682618178
297.44900,5.208590216
297.44950,3.682618178
297.45000,0.6306741009
297.45050,-2.116075568
297.45100,-4.252436422
297.45150,-6.999186092
297.45200,-10.96671339
297.45250,-14.01865747
297.45300,-14.93424069
297.45350,-14.32385188
297.45400,-14.32385188
297.45450,-14.01865747
297.45500,-11.88229661
297.45550,-7.914769315
297.45600,-4.862825238
297.45650,-3.947242015
297.45700,-2.421269976
297.45750,0.02028528547
297.45800,1.241062916
297.45850,0.02028528547
297.45900,0.3254796932
297.45950,6.429367847
297.46000,14.36442245
297.46050,17.11117212
297.46100,14.36442245
297.46150,11.61767278
297.46200,11.31247837
297.46250,10.09170074
297.46300,5.513784624
297.46350,0.02028528547
297.46400,-2.421269976
297.46450,-2.421269976
297.46500,-2.116075568
297.46550,-0.8952979376
297.46600,1.241062916
297.46650,3.987812586
297.46700,5.513784624
297.46750,7.039756663
297.46800,9.481311924
297.46850,10.39689515
297.46900,7.34495107
297.46950,1.241062916
297.47000,-3.642047607
297.47050,-5.778408461
297.47100,-7.304380499
297.47150,-9.440741353
297.47200,-10.66151898
297.47250,-10.05113017
297.47300,-8.830352538
297.47350,-8.830352538
297.47400,-8.830352538
297.47450,-6.388797276
297.47500,-0.8952979376
297.47550,4.903395809
297.47600,8.260534293
297.47650,8.260534293
297.47700,5.818979032
297.47750,2.461840547
297.47800,0.02028528547
297.47850,-0.8952979376
297.47900,-1.200492345
297.47950,-2.116075568
297.48000,-3.947242015
297.48050,-5.168019645
297.48100,-4.55763083
297.48150,-3.336853199
297.48200,-3.642047607
297.48250,-4.55763083
297.48300,-3.336853199
297.48350,0.02028528547
297.48400,2.461840547
297.48450,0.6306741009
297.48500,-2.421269976
297.48550,-3.642047607
297.48600,-3.031658792
297.48650,-2.726464384
297.48700,-3.642047607
297.48750,-3.947242015
297.48800,-2.726464384
297.48850,-2.726464384
297.48900,-4.862825238
297.48950,-7.609574907
297.49000,-9.440741353
297.49050,-10.35632458
297.49100,-11.57710221
297.49150,-11.88229661
297.49200,-11.2719078
297.49250,-9.745935761
297.49300,-8.52515813
297.49350,-7.914769315
297.49400,-7.304380499
297.49450,-6.999186092
297.49500,-5.778408461
297.49550,-3.031658792
297.49600,0.3254796932
297.49650,2.461840547
297.49700,2.767034955
297.49750,3.682618178
297.49800,5.818979032
297.49850,7.955339886
297.49900,7.34495107
297.49950,4.903395809
297.50000,3.682618178
297.50050,3.682618178
297.50100,4.293006993
297.50150,4.293006993
297.50200,4.903395809
297.50250,5.818979032
297.50300,6.124173439
297.50350,5.208590216
297.50400,4.903395809
297.50450,4.598201401
297.50500,4.598201401
297.50550,4.903395809
297.50600,5.513784624
297.50650,5.818979032
297.50700,4.598201401
297.50750,3.682618178
297.50800,3.987812586
297.50850,4.293006993
297.50900,3.072229362
297.50950,1.241062916
297.51000,0.6306741009
297.51050,0.6306741009
297.51100,-0.2849091222
297.51150,-1.200492345
297.51200,-0.5901035299
297.51250,0.3254796932
297.51300,-0.5901035299
297.51350,-3.642047607
297.51400,-5.778408461
297.51450,-5.168019645
297.51500,-3.642047607
297.51550,-3.336853199
297.51600,-3.336853199
297.51650,-3.031658792
297.51700,-3.031658792
297.51750,-3.336853199
297.51800,-3.031658792
297.51850,-2.726464384
297.51900,-2.726464384
297.51950,-3.336853199
297.52000,-3.336853199
297.52050,-1.810881161
297.52100,0.02028528547
297.52150,2.461840547
297.52200,4.293006993
297.52250,4.598201401
297.52300,2.461840547
297.52350,-0.2849091222
297.52400,0.3254796932
297.52450,6.429367847
297.52500,13.75403363
297.52550,16.5007833
297.52600,14.05922804
297.52650,10.39689515
297.52700,8.260534293
297.52750,7.039756663
297.52800,6.124173439
297.52850,5.208590216
297.52900,3.987812586
297.52950,1.851451732
297.53000,0.3254796932
297.53050,0.9358685086
297.53100,3.37742377
297.53150,5.513784624
297.53200,6.429367847
297.53250,6.429367847
297.53300,4.903395809
297.53350,1.851451732
297.53400,-0.5901035299
297.53450,-0.8952979376
297.53500,0.6306741009
297.53550,0.6306741009
297.53600,-1.200492345
297.53650,-2.726464384
297.53700,-1.200492345
297.53750,0.3254796932
297.53800,0.3254796932
297.53850,1.546257324
297.53900,5.818979032
297.53950,10.09170074
297.54000,10.09170074
297.54050,7.34495107
297.54100,6.124173439
297.54150,5.208590216
297.54200,1.241062916
297.54250,-5.778408461
297.54300,-10.66151898
297.54350,-12.18749102
297.54400,-13.40826865
297.54450,-16.76540714
297.54500,-18.29137918
297.54550,-15.54462951
297.54600,-11.57710221
297.54650,-8.52515813
297.54700,-4.55763083
297.54750,0.6306741009
297.54800,4.598201401
297.54850,4.598201401
297.54900,3.37742377
297.54950,6.429367847
297.55000,11.92286719
297.55050,14.05922804
297.55100,10.09170074
297.55150,4.598201401
297.55200,1.241062916
297.55250,-0.5901035299
297.55300,-4.252436422
297.55350,-8.52515813
297.55400,-10.05113017
297.55450,-7.914769315
297.55500,-4.252436422
297.55550,-1.810881161
297.55600,-0.8952979376
297.55650,-0.5901035299
297.55700,-0.5901035299
297.55750,-0.2849091222
297.55800,0.02028528547
297.55850,0.02028528547
297.55900,0.3254796932
297.55950,0.6306741009
297.56000,1.241062916
297.56050,1.546257324
297.56100,2.156646139
297.56150,3.682618178
297.56200,6.124173439
297.56250,7.955339886
297.56300,7.34495107
297.56350,4.903395809
297.56400,3.682618178
297.56450,4.293006993
297.56500,5.208590216
297.56550,5.208590216
297.56600,5.513784624
297.56650,6.124173439
297.56700,4.903395809
297.56750,0.3254796932
297.56800,-3.336853199
297.56850,-2.726464384
297.56900,0.3254796932
297.56950,0.6306741009
297.57000,-4.252436422
297.57050,-8.830352538
297.57100,-7.304380499
297.57150,-2.726464384
297.57200,-0.5901035299
297.57250,-2.116075568
297.57300,-3.642047607
297.57350,-2.116075568
297.57400,-0.2849091222
297.57450,-0.5901035299
297.57500,-2.726464384
297.57550,-4.862825238
297.57600,-5.778408461
297.57650,-5.778408461
297.57700,-4.252436422
297.57750,-3.642047607
297.57800,-5.778408461
297.57850,-10.35632458
297.57900,-13.10307425
297.57950,-11.2719078
297.58000,-6.999186092
297.58050,-5.168019645
297.58100,-6.999186092
297.58150,-9.440741353
297.58200,-8.52515813
297.58250,-5.168019645
297.58300,-1.505686753
297.58350,0.02028528547
297.58400,0.6306741009
297.58450,1.546257324
297.58500,3.37742377
297.58550,6.124173439
297.58600,8.260534293
297.58650,8.565728701
297.58700,6.734562255
297.58750,3.682618178
297.58800,1.241062916
297.58850,0.3254796932
297.58900,1.241062916
297.58950,2.156646139
297.59000,2.156646139
297.59050,0.9358685086
297.59100,0.02028528547
297.59150,-0.5901035299
297.59200,-0.5901035299
297.59250,-0.5901035299
297.59300,-1.200492345
297.59350,-2.116075568
297.59400,-3.031658792
297.59450,-3.642047607
297.59500,-3.031658792
297.59550,-1.200492345
297.59600,0.3254796932
297.59650,0.3254796932
297.59700,-0.5901035299
297.59750,-1.200492345
297.59800,-0.5901035299
297.59850,0.02028528547
297.59900,-0.8952979376
297.59950,-2.116075568
297.60000,-2.421269976
297.60050,-2.116075568
297.60100,-2.421269976
297.60150,-2.726464384
297.60200,-2.726464384
297.60250,-2.726464384
297.60300,-4.252436422
297.60350,-6.083602869
297.60400,-5.473214053
297.60450,-1.505686753
297.60500,2.461840547
297.60550,4.903395809
297.60600,6.124173439
297.60650,8.260534293
297.60700,11.00728396
297.60750,11.31247837
297.60800,8.260534293
297.60850,3.987812586
297.60900,2.156646139
297.60950,2.156646139
297.61000,1.851451732
297.61050,0.02028528547
297.61100,-3.336853199
297.61150,-5.778408461
297.61200,-5.168019645
297.61250,-3.031658792
297.61300,-2.726464384
297.61350,-3.947242015
297.61400,-4.252436422
297.61450,-2.116075568
297.61500,-0.5901035299
297.61550,-1.810881161
297.61600,-2.726464384
297.61650,-0.2849091222
297.61700,3.37742377
297.61750,3.682618178
297.61800,-0.2849091222
297.61850,-4.862825238
297.61900,-7.304380499
297.61950,-9.440741353
297.62000,-10.96671339
297.62050,-7.914769315
297.62100,-0.5901035299
297.62150,4.598201401
297.62200,4.293006993
297.62250,3.682618178
297.62300,7.650145478
297.62350,12.533256
297.62400,11.61767278
297.62450,5.208590216
297.62500,2.767034955
297.62550,7.955339886
297.62600,13.75403363
297.62650,13.44883922
297.62700,10.09170074
297.62750,9.176117517
297.62800,10.09170074
297.62850,8.870923109
297.62900,5.208590216
297.62950,2.156646139
297.63000,0.3254796932
297.63050,-2.726464384
297.63100,-7.304380499
297.63150,-10.05113017
297.63200,-10.05113017
297.63250,-11.2719078
297.63300,-14.93424069
297.63350,-16.76540714
297.63400,-14.62904628
297.63450,-10.96671339
297.63500,-8.52515813
297.63550,-6.693991684
297.63600,-3.642047607
297.63650,-1.200492345
297.63700,-1.200492345
297.63750,0.02028528547
297.63800,6.429367847
297.63850,14.36442245
297.63900,17.72156093
297.63950,14.66961686
297.64000,10.39689515
297.64050,8.260534293
297.64100,6.734562255
297.64150,4.293006993
297.64200,2.461840547
297.64250,2.461840547
297.64300,3.072229362
297.64350,3.987812586
297.64400,6.429367847
297.64450,11.00728396
297.64500,14.66961686
297.64550,14.66961686
297.64600,11.92286719
297.64650,8.870923109
297.64700,6.734562255
297.64750,4.598201401
297.64800,3.072229362
297.64850,2.461840547
297.64900,2.156646139
297.64950,1.241062916
297.65000,-1.200492345
297.65050,-3.947242015
297.65100,-4.862825238
297.65150,-4.55763083
297.65200,-4.862825238
297.65250,-5.473214053
297.65300,-5.778408461
297.65350,-5.473214053
297.65400,-5.473214053
297.65450,-6.388797276
297.65500,-6.388797276
297.65550,-4.252436422
297.65600,-1.505686753
297.65650,-0.5901035299
297.65700,-1.200492345
297.65750,-2.421269976
297.65800,-3.336853199
297.65850,-4.252436422
297.65900,-4.55763083
297.65950,-2.116075568
297.66000,0.9358685086
297.66050,2.461840547
297.66100,0.6306741009
297.66150,-0.8952979376
297.66200,-0.8952979376
297.66250,0.3254796932
297.66300,1.546257324
297.66350,0.3254796932
297.66400,-2.421269976
297.66450,-6.388797276
297.66500,-8.219963722
297.66550,-7.304380499
297.66600,-5.473214053
297.66650,-4.862825238
297.66700,-5.168019645
297.66750,-5.473214053
297.66800,-4.55763083
297.66850,-3.336853199
297.66900,-2.116075568
297.66950,-0.8952979376
297.67000,0.02028528547
297.67050,1.241062916
297.67100,1.546257324
297.67150,1.851451732
297.67200,2.461840547
297.67250,3.37742377
297.67300,3.37742377
297.67350,1.546257324
297.67400,-1.200492345
297.67450,-2.726464384
297.67500,-0.8952979376
297.67550,2.156646139
297.67600,3.37742377
297.67650,1.851451732
297.67700,0.02028528547
297.67750,1.241062916
297.67800,3.072229362
297.67850,2.461840547
297.67900,0.02028528547
297.67950,0.02028528547
297.68000,2.461840547
297.68050,4.903395809
297.68100,4.293006993
297.68150,3.072229362
297.68200,2.767034955
297.68250,2.767034955
297.68300,2.461840547
297.68350,1.546257324
297.68400,1.546257324
297.68450,2.461840547
297.68500,2.767034955
297.68550,1.546257324
297.68600,0.02028528547
297.68650,-1.200492345
297.68700,-1.810881161
297.68750,-0.8952979376
297.68800,0.3254796932
297.68850,1.241062916
297.68900,0.9358685086
297.68950,0.02028528547
297.69000,0.9358685086
297.69050,2.461840547
297.69100,2.767034955
297.69150,0.9358685086
297.69200,-0.8952979376
297.69250,-1.810881161
297.69300,-2.116075568
297.69350,-4.252436422
297.69400,-8.219963722
297.69450,-11.88229661
297.69500,-13.40826865
297.69550,-11.57710221
297.69600,-8.52515813
297.69650,-6.388797276
297.69700,-6.693991684
297.69750,-7.304380499
297.69800,-6.693991684
297.69850,-5.168019645
297.69900,-4.55763083
297.69950,-4.252436422
297.70000,-2.421269976
297.70050,1.241062916
297.70100,4.293006993
297.70150,4.903395809
297.70200,4.293006993
297.70250,3.682618178
297.70300,3.072229362
297.70350,2.156646139
297.70400,1.546257324
297.70450,1.546257324
297.70500,1.546257324
297.70550,1.241062916
297.70600,2.156646139
297.70650,4.903395809
297.70700,7.650145478
297.70750,7.955339886
297.70800,6.734562255
297.70850,6.734562255
297.70900,7.955339886
297.70950,9.176117517
297.71000,8.565728701
297.71050,6.734562255
297.71100,4.598201401
297.71150,2.156646139
297.71200,0.02028528547
297.71250,-0.8952979376
297.71300,-1.810881161
297.71350,-3.947242015
297.71400,-6.999186092
297.71450,-10.66151898
297.71500,-13.40826865
297.71550,-14.62904628
297.71600,-14.32385188
297.71650,-10.96671339
297.71700,-5.168019645
297.71750,0.6306741009
297.71800,4.598201401
297.71850,6.429367847
297.71900,6.124173439
297.71950,2.461840547
297.72000,-3.336853199
297.72050,-8.830352538
297.72100,-10.66151898
297.72150,-10.05113017
297.72200,-8.52515813
297.72250,-6.999186092
297.72300,-4.252436422
297.72350,-1.810881161
297.72400,-1.505686753
297.72450,-1.505686753
297.72500,0.6306741009
297.72550,4.903395809
297.72600,6.734562255
297.72650,4.903395809
297.72700,5.208590216
297.72750,8.870923109
297.72800,12.22806159
297.72850,10.39689515
297.72900,6.734562255
297.72950,6.429367847
297.73000,8.565728701
297.73050,7.955339886
297.73100,5.513784624
297.73150,4.598201401
297.73200,6.429367847
297.73250,7.039756663
297.73300,4.903395809
297.73350,2.156646139
297.73400,0.6306741009
297.73450,0.02028528547
297.73500,-0.5901035299
297.73550,-1.200492345
297.73600,-2.116075568
297.73650,-3.642047607
297.73700,-4.55763083
297.73750,-3.947242015
297.73800,-2.421269976
297.73850,-2.726464384
297.73900,-4.55763083
297.73950,-5.473214053
297.74000,-4.252436422
297.74050,-3.336853199
297.74100,-3.947242015
297.74150,-4.252436422
297.74200,-3.642047607
297.74250,-2.726464384
297.74300,-3.031658792
297.74350,-3.947242015
297.74400,-4.252436422
297.74450,-3.336853199
297.74500,-1.200492345
297.74550,1.546257324
297.74600,3.987812586
297.74650,3.987812586
297.74700,1.851451732
297.74750,-0.2849091222
297.74800,-0.8952979376
297.74850,0.6306741009
297.74900,3.072229362
297.74950,4.598201401
297.75000,4.293006993
297.75050,2.156646139
297.75100,0.3254796932
297.75150,0.6306741009
297.75200,1.851451732
297.75250,0.9358685086
297.75300,-2.116075568
297.75350,-6.388797276
297.75400,-9.135546946
297.75450,-10.05113017
297.75500,-9.440741353
297.75550,-5.473214053
297.75600,-0.2849091222
297.75650,1.851451732
297.75700,-0.2849091222
297.75750,-5.168019645
297.75800,-7.304380499
297.75850,-6.388797276
297.75900,-4.862825238
297.75950,-4.252436422
297.76000,-4.55763083
297.76050,-5.168019645
297.76100,-5.778408461
297.76150,-5.778408461
297.76200,-4.55763083
297.76250,-2.421269976
297.76300,-0.5901035299
297.76350,0.3254796932
297.76400,1.546257324
297.76450,3.37742377
297.76500,5.208590216
297.76550,7.34495107
297.76600,8.870923109
297.76650,8.565728701
297.76700,6.124173439
297.76750,3.987812586
297.76800,4.598201401
297.76850,6.429367847
297.76900,5.208590216
297.76950,0.02028528547
297.77000,-5.168019645
297.77050,-6.388797276
297.77100,-4.862825238
297.77150,-4.55763083
297.77200,-6.388797276
297.77250,-6.999186092
297.77300,-5.168019645
297.77350,-3.642047607
297.77400,-4.252436422
297.77450,-5.168019645
297.77500,-3.642047607
297.77550,-0.5901035299
297.77600,0.02028528547
297.77650,-0.8952979376
297.77700,-1.200492345
297.77750,0.9358685086
297.77800,4.293006993
297.77850,6.429367847
297.77900,6.734562255
297.77950,6.124173439
297.78000,5.513784624
297.78050,4.903395809
297.78100,4.598201401
297.78150,3.987812586
297.78200,2.156646139
297.78250,-0.5901035299
297.78300,-1.505686753
297.78350,0.9358685086
297.78400,4.293006993
297.78450,4.293006993
297.78500,1.851451732
297.78550,0.9358685086
297.78600,2.767034955
297.78650,4.293006993
297.78700,3.987812586
297.78750,3.682618178
297.78800,3.987812586
297.78850,3.987812586
297.78900,2.461840547
297.78950,1.546257324
297.79000,3.072229362
297.79050,6.124173439
297.79100,6.429367847
297.79150,4.293006993
297.79200,1.241062916
297.79250,0.02028528547
297.79300,0.02028528547
297.79350,0.6306741009
297.79400,0.6306741009
297.79450,0.02028528547
297.79500,-1.810881161
297.79550,-3.336853199
297.79600,-3.031658792
297.79650,-1.200492345
297.79700,1.241062916
297.79750,3.987812586
297.79800,6.124173439
297.79850,6.429367847
297.79900,4.598201401
297.79950,3.072229362
297.80000,3.072229362
297.80050,4.598201401
297.80100,4.903395809
297.80150,3.37742377
297.80200,1.546257324
297.80250,-0.2849091222
297.80300,-2.726464384
297.80350,-4.862825238
297.80400,-6.083602869
297.80450,-6.388797276
297.80500,-6.083602869
297.80550,-5.168019645
297.80600,-3.642047607
297.80650,-3.031658792
297.80700,-3.642047607
297.80750,-2.726464384
297.80800,2.767034955
297.80850,11.00728396
297.80900,16.19558889
297.80950,16.5007833
297.81000,14.66961686
297.81050,13.75403363
297.81100,13.44883922
297.81150,12.22806159
297.81200,10.39689515
297.81250,9.176117517
297.81300,9.176117517
297.81350,9.176117517
297.81400,7.955339886
297.81450,5.513784624
297.81500,1.851451732
297.81550,-0.8952979376
297.81600,-1.505686753
297.81650,-0.2849091222
297.81700,-0.5901035299
297.81750,-3.031658792
297.81800,-5.168019645
297.81850,-4.862825238
297.81900,-3.336853199
297.81950,-3.031658792
297.82000,-4.55763083
297.82050,-6.083602869
297.82100,-5.778408461
297.82150,-4.55763083
297.82200,-3.642047607
297.82250,-3.336853199
297.82300,-3.336853199
297.82350,-2.726464384
297.82400,-1.200492345
297.82450,0.02028528547
297.82500,0.3254796932
297.82550,0.02028528547
297.82600,-0.2849091222
297.82650,-0.2849091222
297.82700,0.6306741009
297.82750,2.461840547
297.82800,3.682618178
297.82850,2.461840547
297.82900,0.02028528547
297.82950,-2.116075568
297.83000,-2.116075568
297.83050,-1.810881161
297.83100,-3.336853199
297.83150,-6.083602869
297.83200,-7.304380499
297.83250,-6.083602869
297.83300,-4.862825238
297.83350,-4.55763083
297.83400,-4.252436422
297.83450,-3.031658792
297.83500,-1.505686753
297.83550,-0.8952979376
297.83600,-1.200492345
297.83650,-2.116075568
297.83700,-3.336853199
297.83750,-4.252436422
297.83800,-3.031658792
297.83850,0.6306741009
297.83900,4.598201401
297.83950,4.903395809
297.84000,1.546257324
297.84050,-2.421269976
297.84100,-5.778408461
297.84150,-9.440741353
297.84200,-14.01865747
297.84250,-16.15501832
297.84300,-14.32385188
297.84350,-10.35632458
297.84400,-6.388797276
297.84450,-2.726464384
297.84500,1.851451732
297.84550,6.429367847
297.84600,8.565728701
297.84650,7.650145478
297.84700,4.903395809
297.84750,1.851451732
297.84800,-0.2849091222
297.84850,-0.8952979376
297.84900,-0.2849091222
297.84950,-0.2849091222
297.85000,-1.810881161
297.85050,-0.8952979376
297.85100,4.293006993
297.85150,9.481311924
297.85200,8.260534293
297.85250,1.546257324
297.85300,-2.421269976
297.85350,-0.8952979376
297.85400,2.156646139
297.85450,1.241062916
297.85500,-1.810881161
297.85550,-3.031658792
297.85600,-1.810881161
297.85650,-1.505686753
297.85700,-2.726464384
297.85750,-3.031658792
297.85800,-1.505686753
297.85850,0.02028528547
297.85900,0.02028528547
297.85950,-0.5901035299
297.86000,-1.200492345
297.86050,-1.200492345
297.86100,-1.505686753
297.86150,-2.116075568
297.86200,-2.116075568
297.86250,-1.200492345
297.86300,0.02028528547
297.86350,1.546257324
297.86400,2.767034955
297.86450,3.682618178
297.86500,3.682618178
297.86550,2.767034955
297.86600,1.546257324
297.86650,0.6306741009
297.86700,0.02028528547
297.86750,-0.5901035299
297.86800,-1.200492345
297.86850,-1.810881161
297.86900,-2.116075568
297.86950,-2.726464384
297.87000,-4.862825238
297.87050,-6.999186092
297.87100,-7.304380499
297.87150,-5.473214053
297.87200,-2.726464384
297.87250,-1.200492345
297.87300,-0.8952979376
297.87350,-1.200492345
297.87400,-0.5901035299
297.87450,1.241062916
297.87500,3.682618178
297.87550,4.598201401
297.87600,2.156646139
297.87650,-1.505686753
297.87700,-3.336853199
297.87750,-1.505686753
297.87800,1.851451732
297.87850,4.293006993
297.87900,4.598201401
297.87950,3.987812586
297.88000,3.37742377
297.88050,2.767034955
297.88100,1.241062916
297.88150,0.02028528547
297.88200,-0.5901035299
297.88250,0.02028528547
297.88300,0.6306741009
297.88350,0.02028528547
297.88400,-0.8952979376
297.88450,-1.505686753
297.88500,-0.8952979376
297.88550,0.3254796932
297.88600,1.851451732
297.88650,2.156646139
297.88700,1.546257324
297.88750,1.241062916
297.88800,1.851451732
297.88850,2.767034955
297.88900,2.156646139
297.88950,0.02028528547
297.89000,-1.505686753
297.89050,-3.031658792
297.89100,-4.55763083
297.89150,-6.083602869
297.89200,-7.914769315
297.89250,-11.2719078
297.89300,-16.15501832
297.89350,-19.51215681
297.89400,-18.90176799
297.89450,-14.93424069
297.89500,-10.35632458
297.89550,-5.778408461
297.89600,-1.505686753
297.89650,2.156646139
297.89700,3.072229362
297.89750,3.682618178
297.89800,6.734562255
297.89850,13.14364482
297.89900,17.41636652
297.89950,17.11117212
297.90000,14.97481126
297.90050,14.66961686
297.90100,14.97481126
297.90150,12.533256
297.90200,8.870923109
297.90250,6.429367847
297.90300,5.208590216
297.90350,3.37742377
297.90400,0.9358685086
297.90450,-0.2849091222
297.90500,-1.200492345
297.90550,-3.336853199
297.90600,-5.778408461
297.90650,-6.693991684
297.90700,-6.693991684
297.90750,-7.609574907
297.90800,-8.830352538
297.90850,-8.219963722
297.90900,-5.778408461
297.90950,-4.55763083
297.91000,-4.252436422
297.91050,-2.726464384
297.91100,0.6306741009
297.91150,3.987812586
297.91200,4.598201401
297.91250,3.072229362
297.91300,1.546257324
297.91350,0.02028528547
297.91400,-2.116075568
297.91450,-2.116075568
297.91500,0.3254796932
297.91550,3.37742377
297.91600,3.987812586
297.91650,2.156646139
297.91700,1.241062916
297.91750,1.241062916
297.91800,1.241062916
297.91850,0.02028528547
297.91900,-1.505686753
297.91950,-2.116075568
297.92000,-1.200492345
297.92050,0.6306741009
297.92100,2.461840547
297.92150,3.072229362
297.92200,2.461840547
297.92250,1.546257324
297.92300,0.9358685086
297.92350,0.02028528547
297.92400,-3.031658792
297.92450,-4.862825238
297.92500,-3.947242015
297.92550,-0.5901035299
297.92600,1.546257324
297.92650,1.546257324
297.92700,0.6306741009
297.92750,0.3254796932
297.92800,0.02028528547
297.92850,-1.810881161
297.92900,-4.55763083
297.92950,-5.473214053
297.93000,-4.252436422
297.93050,-1.200492345
297.93100,2.461840547
297.93150,4.293006993
297.93200,3.072229362
297.93250,-0.8952979376
297.93300,-5.168019645
297.93350,-7.914769315
297.93400,-8.219963722
297.93450,-7.914769315
297.93500,-6.999186092
297.93550,-5.778408461
297.93600,-4.55763083
297.93650,-4.252436422
297.93700,-3.642047607
297.93750,-0.8952979376
297.93800,3.987812586
297.93850,9.176117517
297.93900,12.533256
297.93950,13.44883922
297.94000,11.92286719
297.94050,10.09170074
297.94100,9.786506332
297.94150,11.00728396
297.94200,11.92286719
297.94250,11.00728396
297.94300,9.481311924
297.94350,9.481311924
297.94400,9.786506332
297.94450,7.039756663
297.94500,2.156646139
297.94550,-1.200492345
297.94600,-1.810881161
297.94650,-3.031658792
297.94700,-6.999186092
297.94750,-10.35632458
297.94800,-8.830352538
297.94850,-3.642047607
297.94900,0.6306741009
297.94950,3.682618178
297.95000,7.34495107
297.95050,10.39689515
297.95100,9.786506332
297.95150,6.734562255
297.95200,3.987812586
297.95250,1.851451732
297.95300,-0.8952979376
297.95350,-5.473214053
297.95400,-8.219963722
297.95450,-7.304380499
297.95500,-4.862825238
297.95550,-2.421269976
297.95600,-0.2849091222
297.95650,0.6306741009
297.95700,0.6306741009
297.95750,0.3254796932
297.95800,0.6306741009
297.95850,0.9358685086
297.95900,-0.5901035299
297.95950,-3.642047607
297.96000,-4.252436422
297.96050,-1.810881161
297.96100,-0.8952979376
297.96150,-4.252436422
297.96200,-9.135546946
297.96250,-10.35632458
297.96300,-7.914769315
297.96350,-4.862825238
297.96400,-3.031658792
297.96450,-1.810881161
297.96500,-2.421269976
297.96550,-5.168019645
297.96600,-8.219963722
297.96650,-7.609574907
297.96700,-3.031658792
297.96750,1.546257324
297.96800,3.987812586
297.96850,3.682618178
297.96900,3.37742377
297.96950,3.987812586
297.97000,4.293006993
297.97050,3.37742377
297.97100,1.241062916
297.97150,0.3254796932
297.97200,1.546257324
297.97250,4.293006993
297.97300,5.818979032
297.97350,4.903395809
297.97400,2.156646139
297.97450,-0.8952979376
297.97500,-2.726464384
297.97550,-3.031658792
297.97600,-2.421269976
297.97650,-2.116075568
297.97700,-1.810881161
297.97750,-2.421269976
297.97800,-3.031658792
297.97850,-3.031658792
297.97900,-1.200492345
297.97950,2.156646139
297.98000,3.987812586
297.98050,1.241062916
297.98100,-3.031658792
297.98150,-5.168019645
297.98200,-3.642047607
297.98250,-1.505686753
297.98300,-0.8952979376
297.98350,-2.116075568
297.98400,-4.55763083
297.98450,-7.609574907
297.98500,-10.35632458
297.98550,-9.745935761
297.98600,-5.778408461
297.98650,-1.505686753
297.98700,0.02028528547
297.98750,1.241062916
297.98800,2.461840547
297.98850,2.767034955
297.98900,2.156646139
297.98950,3.682618178
297.99000,9.481311924
297.99050,16.19558889
297.99100,18.33194975
297.99150,14.66961686
297.99200,9.481311924
297.99250,6.124173439
297.99300,5.208590216
297.99350,4.598201401
297.99400,2.767034955
297.99450,0.9358685086
297.99500,0.9358685086
297.99550,2.767034955
297.99600,3.987812586
297.99650,3.072229362
297.99700,0.9358685086
297.99750,0.02028528547
297.99800,0.02028528547
297.99850,0.02028528547
297.99900,-0.8952979376
297.99950,-0.8952979376
298.00000,0.02028528547
298.00050,0.3254796932
298.00100,-0.2849091222
298.00150,-1.200492345
298.00200,-0.8952979376
298.00250,0.6306741009
298.00300,3.682618178
298.00350,5.513784624
298.00400,5.208590216
298.00450,3.072229362
298.00500,1.241062916
298.00550,2.156646139
298.00600,3.37742377
298.00650,1.851451732
298.00700,-1.200492345
298.00750,-3.031658792
298.00800,-2.421269976
298.00850,-2.116075568
298.00900,-3.031658792
298.00950,-3.336853199
298.01000,-1.505686753
298.01050,-0.2849091222
298.01100,-1.200492345
298.01150,-3.642047607
298.01200,-4.252436422
298.01250,-2.726464384
298.01300,-1.505686753
298.01350,-3.336853199
298.01400,-7.304380499
298.01450,-9.745935761
298.01500,-8.830352538
298.01550,-5.168019645
298.01600,-2.421269976
298.01650,-2.116075568
298.01700,-3.642047607
298.01750,-4.55763083
298.01800,-4.862825238
298.01850,-5.473214053
298.01900,-5.778408461
298.01950,-6.083602869
298.02000,-5.473214053
298.02050,-3.947242015
298.02100,-1.200492345
298.02150,0.9358685086
298.02200,0.9358685086
298.02250,-0.2849091222
298.02300,-1.810881161
298.02350,-2.116075568
298.02400,-2.726464384
298.02450,-3.336853199
298.02500,-1.200492345
298.02550,3.682618178
298.02600,8.260534293
298.02650,9.176117517
298.02700,6.734562255
298.02750,3.987812586
298.02800,3.37742377
298.02850,5.818979032
298.02900,8.870923109
298.02950,9.786506332
298.03000,6.124173439
298.03050,0.02028528547
298.03100,-5.168019645
298.03150,-5.778408461
298.03200,-3.642047607
298.03250,-1.505686753
298.03300,0.02028528547
298.03350,2.156646139
298.03400,4.293006993
298.03450,4.903395809
298.03500,3.987812586
298.03550,2.767034955
298.03600,2.156646139
298.03650,2.156646139
298.03700,1.546257324
298.03750,0.6306741009
298.03800,0.02028528547
298.03850,0.02028528547
298.03900,-0.5901035299
298.03950,-1.505686753
298.04000,-1.505686753
298.04050,-0.5901035299
298.04100,0.3254796932
298.04150,1.851451732
298.04200,2.461840547
298.04250,2.461840547
298.04300,1.851451732
298.04350,1.546257324
298.04400,1.546257324
298.04450,1.546257324
298.04500,1.241062916
298.04550,0.9358685086
298.04600,2.156646139
298.04650,2.767034955
298.04700,1.241062916
298.04750,-0.8952979376
298.04800,-0.8952979376
298.04850,1.546257324
298.04900,2.767034955
298.04950,0.9358685086
298.05000,-0.8952979376
298.05050,-0.5901035299
298.05100,-0.2849091222
298.05150,-2.421269976
298.05200,-5.473214053
298.05250,-6.083602869
298.05300,-6.083602869
298.05350,-7.914769315
298.05400,-11.2719078
298.05450,-12.49268543
298.05500,-10.05113017
298.05550,-7.914769315
298.05600,-6.693991684
298.05650,-5.473214053
298.05700,-3.336853199
298.05750,-1.810881161
298.05800,-1.505686753
298.05850,-0.5901035299
298.05900,0.9358685086
298.05950,2.767034955
298.06000,4.293006993
298.06050,7.039756663
298.06100,11.00728396
298.06150,12.533256
298.06200,10.09170074
298.06250,8.260534293
298.06300,9.786506332
298.06350,13.14364482
298.06400,14.05922804
298.06450,11.61767278
298.06500,9.176117517
298.06550,7.039756663
298.06600,2.461840547
298.06650,-5.168019645
298.06700,-12.18749102
298.06750,-15.54462951
298.06800,-16.76540714
298.06850,-18.59657358
298.06900,-19.81735122
298.06950,-16.15501832
298.07000,-6.693991684
298.07050,2.461840547
298.07100,7.34495107
298.07150,9.176117517
298.07200,10.70208956
298.07250,9.481311924
298.07300,4.903395809
298.07350,0.6306741009
298.07400,2.461840547
298.07450,8.260534293
298.07500,10.39689515
298.07550,6.734562255
298.07600,2.461840547
298.07650,2.156646139
298.07700,4.293006993
298.07750,6.429367847
298.07800,8.260534293
298.07850,9.481311924
298.07900,8.565728701
298.07950,6.734562255
298.08000,6.429367847
298.08050,7.039756663
298.08100,4.293006993
298.08150,-1.200492345
298.08200,-4.862825238
298.08250,-3.947242015
298.08300,-2.116075568
298.08350,-2.421269976
298.08400,-2.726464384
298.08450,-1.200492345
298.08500,0.02028528547
298.08550,-0.5901035299
298.08600,-1.200492345
298.08650,-0.2849091222
298.08700,-0.2849091222
298.08750,-2.421269976
298.08800,-4.55763083
298.08850,-3.336853199
298.08900,-0.8952979376
298.08950,0.02028528547
298.09000,-0.5901035299
298.09050,-1.200492345
298.09100,-1.810881161
298.09150,-3.336853199
298.09200,-5.168019645
298.09250,-5.778408461
298.09300,-5.473214053
298.09350,-6.083602869
298.09400,-7.304380499
298.09450,-7.609574907
298.09500,-6.388797276
298.09550,-4.55763083
298.09600,-3.336853199
298.09650,-2.726464384
298.09700,-2.726464384
298.09750,-3.031658792
298.09800,-2.421269976
298.09850,-0.8952979376
298.09900,0.02028528547
298.09950,0.9358685086
298.10000,1.546257324
298.10050,2.156646139
298.10100,1.546257324
298.10150,-0.2849091222
298.10200,-1.200492345
298.10250,0.02028528547
298.10300,3.37742377
298.10350,5.208590216
298.10400,4.903395809
298.10450,3.37742377
298.10500,2.461840547
298.10550,1.546257324
298.10600,0.9358685086
298.10650,1.851451732
298.10700,3.37742377
298.10750,3.37742377
298.10800,1.241062916
298.10850,0.02028528547
298.10900,0.9358685086
298.10950,2.767034955
298.11000,0.9358685086
298.11050,-3.031658792
298.11100,-4.862825238
298.11150,-3.031658792
298.11200,-1.810881161
298.11250,-3.947242015
298.11300,-7.304380499
298.11350,-8.52515813
298.11400,-7.609574907
298.11450,-6.999186092
298.11500,-6.999186092
298.11550,-6.388797276
298.11600,-6.083602869
298.11650,-5.473214053
298.11700,-3.947242015
298.11750,-0.8952979376
298.11800,0.02028528547
298.11850,-3.031658792
298.11900,-7.304380499
298.11950,-7.609574907
298.12000,-3.642047607
298.12050,0.02028528547
298.12100,0.02028528547
298.12150,-1.505686753
298.12200,-2.421269976
298.12250,-1.200492345
298.12300,0.9358685086
298.12350,3.682618178
298.12400,4.903395809
298.12450,3.682618178
298.12500,0.9358685086
298.12550,0.6306741009
298.12600,3.072229362
298.12650,5.208590216
298.12700,5.513784624
298.12750,4.903395809
298.12800,4.293006993
298.12850,3.072229362
298.12900,1.546257324
298.12950,0.6306741009
298.13000,0.3254796932
298.13050,0.02028528547
298.13100,-0.5901035299
298.13150,-1.200492345
298.13200,-0.8952979376
298.13250,-1.505686753
298.13300,-2.726464384
298.13350,-3.336853199
298.13400,-2.421269976
298.13450,-0.8952979376
298.13500,0.02028528547
298.13550,-0.2849091222
298.13600,-1.505686753
298.13650,-3.031658792
298.13700,-3.031658792
298.13750,-0.2849091222
298.13800,2.461840547
298.13850,2.461840547
298.13900,-0.2849091222
298.13950,-2.726464384
298.14000,-2.421269976
298.14050,-1.810881161
298.14100,-2.726464384
298.14150,-3.031658792
298.14200,-1.505686753
298.14250,0.02028528547
298.14300,0.02028528547
298.14350,-0.5901035299
298.14400,0.02028528547
298.14450,2.767034955
298.14500,3.987812586
298.14550,3.682618178
298.14600,3.37742377
298.14650,5.208590216
298.14700,7.955339886
298.14750,9.176117517
298.14800,8.870923109
298.14850,7.650145478
298.14900,6.429367847
298.14950,4.598201401
298.15000,2.156646139
298.15050,-1.200492345
298.15100,-5.168019645
298.15150,-8.52515813
298.15200,-10.66151898
298.15250,-12.79787984
298.15300,-14.62904628
298.15350,-14.93424069
298.15400,-14.01865747
298.15450,-12.79787984
298.15500,-11.2719078
298.15550,-8.219963722
298.15600,-3.642047607
298.15650,0.02028528547
298.15700,0.6306741009
298.15750,2.156646139
298.15800,7.650145478
298.15850,15.28000567
298.15900,19.85792179
298.15950,19.24753297
298.16000,16.5007833
298.16050,15.58520008
298.16100,15.58520008
298.16150,14.05922804
298.16200,10.70208956
298.16250,7.34495107
298.16300,6.124173439
298.16350,7.039756663
298.16400,7.34495107
298.16450,5.818979032
298.16500,3.37742377
298.16550,1.241062916
298.16600,0.02028528547
298.16650,-1.200492345
298.16700,-3.336853199
298.16750,-5.778408461
298.16800,-6.693991684
298.16850,-5.473214053
298.16900,-2.116075568
298.16950,1.241062916
298.17000,3.682618178
298.17050,5.208590216
298.17100,6.429367847
298.17150,6.124173439
298.17200,3.072229362
298.17250,-1.810881161
298.17300,-6.388797276
298.17350,-7.609574907
298.17400,-7.609574907
298.17450,-9.135546946
298.17500,-11.57710221
298.17550,-12.49268543
298.17600,-11.2719078
298.17650,-9.440741353
298.17700,-8.52515813
298.17750,-7.304380499
298.17800,-4.252436422
298.17850,-0.5901035299
298.17900,2.156646139
298.17950,3.37742377
298.18000,2.156646139
298.18050,0.02028528547
298.18100,-1.810881161
298.18150,-1.505686753
298.18200,-0.5901035299
298.18250,0.02028528547
298.18300,0.02028528547
298.18350,0.9358685086
298.18400,3.987812586
298.18450,6.734562255
298.18500,7.955339886
298.18550,7.34495107
298.18600,4.598201401
298.18650,1.241062916
298.18700,0.3254796932
298.18750,3.072229362
298.18800,7.650145478
298.18850,8.565728701
298.18900,3.987812586
298.18950,-2.116075568
298.19000,-6.083602869
298.19050,-6.388797276
298.19100,-5.778408461
298.19150,-4.862825238
298.19200,-3.947242015
298.19250,-3.031658792
298.19300,-3.031658792
298.19350,-2.421269976
298.19400,-1.200492345
298.19450,0.02028528547
298.19500,0.02028528547
298.19550,-1.505686753
298.19600,-2.116075568
298.19650,-1.810881161
298.19700,-1.505686753
298.19750,-2.726464384
298.19800,-3.642047607
298.19850,-3.336853199
298.19900,-2.421269976
298.19950,-2.421269976
298.20000,-3.642047607
298.20050,-4.252436422
298.20100,-3.947242015
298.20150,-3.031658792
298.20200,-2.421269976
298.20250,-2.116075568
298.20300,-1.505686753
298.20350,-0.8952979376
298.20400,0.02028528547
298.20450,1.546257324
298.20500,2.767034955
298.20550,3.37742377
298.20600,2.767034955
298.20650,2.767034955
298.20700,3.987812586
298.20750,5.208590216
298.20800,5.208590216
298.20850,3.987812586
298.20900,2.767034955
298.20950,1.851451732
298.21000,1.241062916
298.21050,0.02028528547
298.21100,-1.200492345
298.21150,-1.200492345
298.21200,0.02028528547
298.21250,1.851451732
298.21300,3.37742377
298.21350,3.37742377
298.21400,1.851451732
298.21450,-1.200492345
298.21500,-3.947242015
298.21550,-4.55763083
298.21600,-2.116075568
298.21650,0.3254796932
298.21700,2.156646139
298.21750,1.851451732
298.21800,0.9358685086
298.21850,-0.5901035299
298.21900,-3.642047607
298.21950,-5.473214053
298.22000,-3.947242015
298.22050,1.546257324
298.22100,9.176117517
298.22150,15.28000567
298.22200,17.41636652
298.22250,14.97481126
298.22300,11.00728396
298.22350,7.34495107
298.22400,5.208590216
298.22450,3.072229362
298.22500,0.3254796932
298.22550,-2.116075568
298.22600,-3.642047607
298.22650,-5.473214053
298.22700,-9.440741353
298.22750,-14.01865747
298.22800,-15.54462951
298.22850,-12.79787984
298.22900,-9.135546946
298.22950,-6.999186092
298.23000,-6.083602869
298.23050,-5.168019645
298.23100,-3.642047607
298.23150,-2.116075568
298.23200,1.241062916
298.23250,7.34495107
298.23300,14.05922804
298.23350,16.80597771
298.23400,13.75403363
298.23450,8.870923109
298.23500,6.124173439
298.23550,5.818979032
298.23600,5.208590216
298.23650,4.293006993
298.23700,4.903395809
298.23750,8.260534293
298.23800,11.31247837
298.23850,10.70208956
298.23900,7.34495107
298.23950,4.903395809
298.24000,5.513784624
298.24050,6.124173439
298.24100,5.208590216
298.24150,3.987812586
298.24200,3.37742377
298.24250,2.156646139
298.24300,0.02028528547
298.24350,-2.116075568
298.24400,-0.8952979376
298.24450,1.546257324
298.24500,2.461840547
298.24550,1.546257324
298.24600,0.6306741009
298.24650,0.9358685086
298.24700,0.9358685086
298.24750,0.02028528547
298.24800,-0.8952979376
298.24850,-0.5901035299
298.24900,-0.8952979376
298.24950,-2.421269976
298.25000,-4.252436422
298.25050,-4.862825238
298.25100,-4.55763083
298.25150,-5.168019645
298.25200,-6.388797276
298.25250,-6.999186092
298.25300,-6.999186092
298.25350,-6.693991684
298.25400,-5.473214053
298.25450,-3.642047607
298.25500,-1.810881161
298.25550,-1.810881161
298.25600,-3.336853199
298.25650,-6.083602869
298.25700,-8.219963722
298.25750,-9.135546946
298.25800,-7.914769315
298.25850,-5.473214053
298.25900,-3.947242015
298.25950,-5.168019645
298.26000,-7.914769315
298.26050,-10.35632458
298.26100,-11.2719078
298.26150,-10.35632458
298.26200,-8.219963722
298.26250,-4.862825238
298.26300,-1.810881161
298.26350,0.6306741009
298.26400,2.767034955
298.26450,4.903395809
298.26500,6.734562255
298.26550,8.565728701
298.26600,10.09170074
298.26650,11.00728396
298.26700,9.786506332
298.26750,7.34495107
298.26800,5.208590216
298.26850,3.987812586
298.26900,2.156646139
298.26950,-0.5901035299
298.27000,-3.336853199
298.27050,-3.642047607
298.27100,-2.726464384
298.27150,-3.031658792
298.27200,-5.168019645
298.27250,-7.304380499
298.27300,-7.609574907
298.27350,-6.693991684
298.27400,-6.083602869
298.27450,-5.778408461
298.27500,-5.473214053
298.27550,-3.947242015
298.27600,-2.116075568
298.27650,-0.2849091222
298.27700,0.3254796932
298.27750,0.3254796932
298.27800,0.02028528547
298.27850,0.02028528547
298.27900,0.3254796932
298.27950,0.6306741009
298.28000,1.546257324
298.28050,2.461840547
298.28100,2.461840547
298.28150,1.241062916
298.28200,1.241062916
298.28250,4.598201401
298.28300,10.09170074
298.28350,12.533256
298.28400,11.92286719
298.28450,11.00728396
298.28500,11.31247837
298.28550,9.786506332
298.28600,5.208590216
298.28650,2.156646139
298.28700,3.37742377
298.28750,5.208590216
298.28800,3.37742377
298.28850,-0.5901035299
298.28900,-1.505686753
298.28950,0.9358685086
298.29000,2.156646139
298.29050,0.02028528547
298.29100,-2.726464384
298.29150,-2.421269976
298.29200,-0.2849091222
298.29250,-0.2849091222
298.29300,-2.116075568
298.29350,-3.642047607
298.29400,-3.642047607
298.29450,-3.947242015
298.29500,-5.473214053
298.29550,-6.693991684
298.29600,-6.388797276
298.29650,-5.473214053
298.29700,-5.778408461
298.29750,-6.999186092
298.29800,-6.999186092
298.29850,-6.083602869
298.29900,-6.083602869
298.29950,-6.999186092
298.30000,-6.693991684
298.30050,-3.947242015
298.30100,-0.8952979376
298.30150,0.9358685086
298.30200,1.851451732
298.30250,3.072229362
298.30300,3.682618178
298.30350,2.767034955
298.30400,1.241062916
298.30450,1.546257324
298.30500,3.987812586
298.30550,6.124173439
298.30600,6.124173439
298.30650,5.208590216
298.30700,4.293006993
298.30750,2.767034955
298.30800,1.851451732
298.30850,3.072229362
298.30900,5.513784624
298.30950,6.124173439
298.31000,3.37742377
298.31050,-0.2849091222
298.31100,-1.505686753
298.31150,0.02028528547
298.31200,1.851451732
298.31250,2.156646139
298.31300,0.9358685086
298.31350,0.02028528547
298.31400,-1.200492345
298.31450,-2.726464384
298.31500,-4.252436422
298.31550,-5.473214053
298.31600,-5.168019645
298.31650,-4.252436422
298.31700,-3.642047607
298.31750,-3.336853199
298.31800,-3.947242015
298.31850,-4.55763083
298.31900,-4.252436422
298.31950,-2.726464384
298.32000,-0.8952979376
298.32050,-0.2849091222
298.32100,-1.810881161
298.32150,-4.55763083
298.32200,-5.778408461
298.32250,-4.862825238
298.32300,-2.726464384
298.32350,-0.2849091222
298.32400,2.156646139
298.32450,5.208590216
298.32500,8.260534293
298.32550,9.176117517
298.32600,7.34495107
298.32650,4.293006993
298.32700,2.156646139
298.32750,1.241062916
298.32800,-0.2849091222
298.32850,-4.252436422
298.32900,-8.830352538
298.32950,-12.79787984
298.33000,-14.93424069
298.33050,-16.15501832
298.33100,-15.84982392
298.33150,-14.32385188
298.33200,-11.57710221
298.33250,-8.219963722
298.33300,-4.55763083
298.33350,-1.505686753
298.33400,-0.2849091222
298.33450,0.02028528547
298.33500,3.072229362
298.33550,10.70208956
298.33600,18.94233856
298.33650,20.4683106
298.33700,15.58520008
298.33750,10.09170074
298.33800,9.481311924
298.33850,10.39689515
298.33900,7.34495107
298.33950,1.546257324
298.34000,-1.200492345
298.34050,0.02028528547
298.34100,2.461840547
298.34150,1.851451732
298.34200,0.02028528547
298.34250,-0.5901035299
298.34300,-1.505686753
298.34350,-3.336853199
298.34400,-4.862825238
298.34450,-4.252436422
298.34500,-2.421269976
298.34550,-2.116075568
298.34600,-2.116075568
298.34650,0.02028528547
298.34700,4.293006993
298.34750,6.734562255
298.34800,4.598201401
298.34850,1.546257324
298.34900,0.6306741009
298.34950,1.546257324
298.35000,0.9358685086
298.35050,-2.116075568
298.35100,-5.473214053
298.35150,-6.693991684
298.35200,-5.778408461
298.35250,-3.947242015
298.35300,-2.116075568
298.35350,-1.505686753
298.35400,-1.810881161
298.35450,-2.421269976
298.35500,-2.421269976
298.35550,-1.505686753
298.35600,-0.5901035299
298.35650,0.02028528547
298.35700,0.02028528547
298.35750,0.02028528547
298.35800,0.02028528547
298.35850,0.3254796932
298.35900,0.6306741009
298.35950,1.241062916
298.36000,1.546257324
298.36050,1.851451732
298.36100,1.241062916
298.36150,0.3254796932
298.36200,0.02028528547
298.36250,1.241062916
298.36300,3.37742377
298.36350,5.513784624
298.36400,7.039756663
298.36450,7.34495107
298.36500,6.429367847
298.36550,3.987812586
298.36600,1.546257324
298.36650,0.6306741009
298.36700,0.6306741009
298.36750,0.3254796932
298.36800,-1.200492345
298.36850,-2.726464384
298.36900,-3.642047607
298.36950,-4.862825238
298.37000,-6.693991684
298.37050,-7.609574907
298.37100,-6.693991684
298.37150,-4.862825238
298.37200,-3.031658792
298.37250,-1.505686753
298.37300,-0.5901035299
298.37350,0.02028528547
298.37400,1.546257324
298.37450,3.987812586
298.37500,6.124173439
298.37550,6.734562255
298.37600,5.513784624
298.37650,3.987812586
298.37700,2.767034955
298.37750,0.6306741009
298.37800,-1.200492345
298.37850,-1.810881161
298.37900,0.9358685086
298.37950,4.293006993
298.38000,6.429367847
298.38050,6.734562255
298.38100,6.734562255
298.38150,6.124173439
298.38200,3.987812586
298.38250,1.241062916
298.38300,0.02028528547
298.38350,0.02028528547
298.38400,0.02028528547
298.38450,-0.2849091222
298.38500,0.02028528547
298.38550,0.6306741009
298.38600,0.6306741009
298.38650,-0.2849091222
298.38700,-1.810881161
298.38750,-1.810881161
298.38800,-0.5901035299
298.38850,0.3254796932
298.38900,1.241062916
298.38950,2.461840547
298.39000,3.987812586
298.39050,4.293006993
298.39100,2.767034955
298.39150,1.851451732
298.39200,2.156646139
298.39250,1.546257324
298.39300,-2.116075568
298.39350,-6.388797276
298.39400,-5.778408461
298.39450,0.02028528547
298.39500,2.767034955
298.39550,-1.200492345
298.39600,-9.135546946
298.39650,-12.49268543
298.39700,-10.05113017
298.39750,-6.999186092
298.39800,-6.083602869
298.39850,-4.862825238
298.39900,-1.810881161
298.39950,0.6306741009
298.40000,1.546257324
298.40050,2.461840547
298.40100,4.598201401
298.40150,6.124173439
298.40200,5.513784624
298.40250,4.903395809
298.40300,5.818979032
298.40350,4.903395809
298.40400,-0.2849091222
298.40450,-6.999186092
298.40500,-10.96671339
298.40550,-13.10307425
298.40600,-17.37579595
298.40650,-21.64851766
298.40700,-21.34332325
298.40750,-15.54462951
298.40800,-8.52515813
298.40850,-3.336853199
298.40900,1.546257324
298.40950,7.039756663
298.41000,9.481311924
298.41050,7.039756663
298.41100,5.818979032
298.41150,10.39689515
298.41200,17.41636652
298.41250,19.85792179
298.41300,16.5007833
298.41350,11.92286719
298.41400,9.481311924
298.41450,8.565728701
298.41500,6.734562255
298.41550,4.293006993
298.41600,2.767034955
298.41650,2.156646139
298.41700,1.851451732
298.41750,1.241062916
298.41800,0.02028528547
298.41850,-1.200492345
298.41900,-2.116075568
298.41950,-2.116075568
298.42000,-1.810881161
298.42050,-2.421269976
298.42100,-2.726464384
298.42150,-2.116075568
298.42200,-1.810881161
298.42250,-3.031658792
298.42300,-5.473214053
298.42350,-6.083602869
298.42400,-3.642047607
298.42450,0.02028528547
298.42500,3.072229362
298.42550,5.818979032
298.42600,7.650145478
298.42650,6.429367847
298.42700,2.156646139
298.42750,-2.726464384
298.42800,-4.55763083
298.42850,-2.726464384
298.42900,0.02028528547
298.42950,1.851451732
298.43000,1.546257324
298.43050,0.3254796932
298.43100,-0.2849091222
298.43150,0.02028528547
298.43200,2.156646139
298.43250,3.682618178
298.43300,3.072229362
298.43350,0.9358685086
298.43400,-1.505686753
298.43450,-3.947242015
298.43500,-5.168019645
298.43550,-3.947242015
298.43600,-0.5901035299
298.43650,0.9358685086
298.43700,-0.2849091222
298.43750,-3.642047607
298.43800,-4.252436422
298.43850,-1.810881161
298.43900,0.3254796932
298.43950,0.3254796932
298.44000,-0.5901035299
298.44050,-0.8952979376
298.44100,0.02028528547
298.44150,0.9358685086
298.44200,2.156646139
298.44250,2.461840547
298.44300,1.851451732
298.44350,1.546257324
298.44400,1.851451732
298.44450,3.072229362
298.44500,4.293006993
298.44550,4.903395809
298.44600,4.293006993
298.44650,2.767034955
298.44700,2.461840547
298.44750,4.903395809
298.44800,8.565728701
298.44850,9.786506332
298.44900,7.955339886
298.44950,4.903395809
298.45000,3.072229362
298.45050,1.546257324
298.45100,-0.8952979376
298.45150,-3.642047607
298.45200,-5.778408461
298.45250,-6.999186092
298.45300,-9.440741353
298.45350,-11.57710221
298.45400,-12.79787984
298.45450,-13.40826865
298.45500,-14.01865747
298.45550,-13.71346306
298.45600,-10.66151898
298.45650,-6.388797276
298.45700,-2.421269976
298.45750,-0.2849091222
298.45800,1.851451732
298.45850,5.513784624
298.45900,9.176117517
298.45950,11.31247837
298.46000,10.39689515
298.46050,6.429367847
298.46100,3.072229362
298.46150,2.767034955
298.46200,5.513784624
298.46250,7.650145478
298.46300,6.734562255
298.46350,5.208590216
298.46400,4.598201401
298.46450,3.987812586
298.46500,2.156646139
298.46550,0.6306741009
298.46600,1.241062916
298.46650,3.37742377
298.46700,3.682618178
298.46750,2.156646139
298.46800,0.9358685086
298.46850,0.02028528547
298.46900,-0.5901035299
298.46950,-1.505686753
298.47000,-1.505686753
298.47050,-1.200492345
298.47100,-2.726464384
298.47150,-6.693991684
298.47200,-9.745935761
298.47250,-9.135546946
298.47300,-6.083602869
298.47350,-3.947242015
298.47400,-4.55763083
298.47450,-6.083602869
298.47500,-6.693991684
298.47550,-5.778408461
298.47600,-5.473214053
298.47650,-5.473214053
298.47700,-5.168019645
298.47750,-3.947242015
298.47800,-3.031658792
298.47850,-3.336853199
298.47900,-4.252436422
298.47950,-5.168019645
298.48000,-6.693991684
298.48050,-8.219963722
298.48100,-8.219963722
298.48150,-5.473214053
298.48200,-1.810881161
298.48250,-0.2849091222
298.48300,-0.2849091222
298.48350,0.02028528547
298.48400,0.9358685086
298.48450,2.156646139
298.48500,2.461840547
298.48550,2.767034955
298.48600,3.682618178
298.48650,5.513784624
298.48700,6.429367847
298.48750,5.208590216
298.48800,2.767034955
298.48850,1.546257324
298.48900,4.293006993
298.48950,8.870923109
298.49000,10.39689515
298.49050,7.34495107
298.49100,2.767034955
298.49150,0.3254796932
298.49200,-0.2849091222
298.49250,-2.116075568
298.49300,-5.168019645
298.49350,-6.693991684
298.49400,-5.778408461
298.49450,-4.862825238
298.49500,-6.388797276
298.49550,-10.96671339
298.49600,-17.37579595
298.49650,-21.64851766
298.49700,-19.2069624
298.49750,-11.57710221
298.49800,-4.55763083
298.49850,-2.116075568
298.49900,-2.726464384
298.49950,-1.505686753
298.50000,1.546257324
298.50050,4.293006993
298.50100,6.734562255
298.50150,11.31247837
298.50200,17.41636652
298.50250,21.07869942
298.50300,20.4683106
298.50350,18.33194975
298.50400,16.80597771
298.50450,15.58520008
298.50500,12.83845041
298.50550,9.176117517
298.50600,5.818979032
298.50650,3.987812586
298.50700,4.293006993
298.50750,5.513784624
298.50800,5.208590216
298.50850,1.851451732
298.50900,-3.336853199
298.50950,-7.609574907
298.51000,-9.440741353
298.51050,-10.66151898
298.51100,-12.79787984
298.51150,-13.71346306
298.51200,-11.57710221
298.51250,-6.388797276
298.51300,-0.5901035299
298.51350,3.37742377
298.51400,4.903395809
298.51450,3.682618178
298.51500,0.9358685086
298.51550,-0.8952979376
298.51600,-0.8952979376
298.51650,0.02028528547
298.51700,0.9358685086
298.51750,0.9358685086
298.51800,0.6306741009
298.51850,0.3254796932
298.51900,0.02028528547
298.51950,0.6306741009
298.52000,2.156646139
298.52050,3.072229362
298.52100,1.546257324
298.52150,0.3254796932
298.52200,1.241062916
298.52250,3.072229362
298.52300,2.767034955
298.52350,0.02028528547
298.52400,-1.200492345
298.52450,0.9358685086
298.52500,4.293006993
298.52550,4.598201401
298.52600,2.461840547
298.52650,0.6306741009
298.52700,0.6306741009
298.52750,0.3254796932
298.52800,-0.8952979376
298.52850,-2.116075568
298.52900,-1.200492345
298.52950,0.02028528547
298.53000,-0.2849091222
298.53050,-2.421269976
298.53100,-3.336853199
298.53150,-2.726464384
298.53200,-3.031658792
298.53250,-4.55763083
298.53300,-5.473214053
298.53350,-3.642047607
298.53400,-0.2849091222
298.53450,0.9358685086
298.53500,-0.2849091222
298.53550,-2.421269976
298.53600,-3.947242015
298.53650,-5.168019645
298.53700,-6.388797276
298.53750,-6.083602869
298.53800,-3.336853199
298.53850,0.02028528547
298.53900,0.6306741009
298.53950,-0.5901035299
298.54000,-2.116075568
298.54050,-1.505686753
298.54100,0.6306741009
298.54150,3.072229362
298.54200,4.903395809
298.54250,4.903395809
298.54300,3.987812586
298.54350,4.293006993
298.54400,5.513784624
298.54450,5.818979032
298.54500,3.072229362
298.54550,0.02028528547
298.54600,-1.505686753
298.54650,-1.200492345
298.54700,-1.200492345
298.54750,-1.200492345
298.54800,0.02028528547
298.54850,1.546257324
298.54900,2.767034955
298.54950,3.37742377
298.55000,4.598201401
298.55050,7.039756663
298.55100,7.650145478
298.55150,5.513784624
298.55200,2.461840547
298.55250,-0.2849091222
298.55300,-2.116075568
298.55350,-2.726464384
298.55400,-0.2849091222
298.55450,3.987812586
298.55500,6.429367847
298.55550,5.513784624
298.55600,2.461840547
298.55650,0.3254796932
298.55700,-0.8952979376
298.55750,-2.116075568
298.55800,-3.642047607
298.55850,-3.642047607
298.55900,-2.726464384
298.55950,-3.031658792
298.56000,-4.252436422
298.56050,-4.55763083
298.56100,-3.336853199
298.56150,-2.726464384
298.56200,-3.336853199
298.56250,-4.252436422
298.56300,-3.642047607
298.56350,-2.726464384
298.56400,-2.116075568
298.56450,-2.116075568
298.56500,-1.505686753
298.56550,0.02028528547
298.56600,2.156646139
298.56650,2.767034955
298.56700,2.461840547
298.56750,2.461840547
298.56800,3.37742377
298.56850,4.903395809
298.56900,4.598201401
298.56950,2.461840547
298.57000,0.3254796932
298.57050,0.02028528547
298.57100,0.9358685086
298.57150,1.546257324
298.57200,0.6306741009
298.57250,-0.5901035299
298.57300,-1.810881161
298.57350,-2.421269976
298.57400,-2.421269976
298.57450,-1.505686753
298.57500,-1.200492345
298.57550,-1.810881161
298.57600,-2.116075568
298.57650,-2.116075568
298.57700,-2.421269976
298.57750,-3.336853199
298.57800,-3.642047607
298.57850,-2.116075568
298.57900,-1.505686753
298.57950,-2.421269976
298.58000,-3.642047607
298.58050,-3.947242015
298.58100,-3.336853199
298.58150,-3.642047607
298.58200,-3.947242015
298.58250,-3.947242015
298.58300,-4.862825238
298.58350,-7.609574907
298.58400,-10.66151898
298.58450,-11.2719078
298.58500,-10.35632458
298.58550,-9.440741353
298.58600,-8.52515813
298.58650,-6.083602869
298.58700,-3.336853199
298.58750,-1.505686753
298.58800,0.02028528547
298.58850,2.156646139
298.58900,4.293006993
298.58950,4.293006993
298.59000,5.208590216
298.59050,10.39689515
298.59100,17.72156093
298.59150,21.07869942
298.59200,18.02675534
298.59250,13.44883922
298.59300,11.61767278
298.59350,11.61767278
298.59400,9.786506332
298.59450,4.598201401
298.59500,0.02028528547
298.59550,-1.200492345
298.59600,2.156646139
298.59650,7.650145478
298.59700,8.870923109
298.59750,3.987812586
298.59800,-1.810881161
298.59850,-2.726464384
298.59900,0.02028528547
298.59950,1.546257324
298.60000,-0.2849091222
298.60050,-2.116075568
298.60100,-2.116075568
298.60150,-1.505686753
298.60200,-1.810881161
298.60250,-1.810881161
298.60300,-0.5901035299
298.60350,-1.505686753
298.60400,-5.473214053
298.60450,-9.745935761
298.60500,-9.135546946
298.60550,-4.55763083
298.60600,-0.2849091222
298.60650,1.241062916
298.60700,2.767034955
298.60750,4.903395809
298.60800,7.34495107
298.60850,7.650145478
298.60900,5.818979032
298.60950,2.767034955
298.61000,-0.2849091222
298.61050,-2.421269976
298.61100,-3.031658792
298.61150,-2.726464384
298.61200,-2.421269976
298.61250,-2.421269976
298.61300,-3.031658792
298.61350,-4.252436422
298.61400,-5.168019645
298.61450,-4.862825238
298.61500,-3.336853199
298.61550,-1.810881161
298.61600,-0.8952979376
298.61650,0.3254796932
298.61700,3.072229362
298.61750,5.513784624
298.61800,5.513784624
298.61850,3.37742377
298.61900,0.6306741009
298.61950,-0.8952979376
298.62000,-3.336853199
298.62050,-6.999186092
298.62100,-11.2719078
298.62150,-14.32385188
298.62200,-15.2394351
298.62250,-13.71346306
298.62300,-10.96671339
298.62350,-6.999186092
298.62400,-1.810881161
298.62450,3.987812586
298.62500,8.870923109
298.62550,11.00728396
298.62600,10.39689515
298.62650,8.870923109
298.62700,6.124173439
298.62750,2.767034955
298.62800,-0.2849091222
298.62850,-0.8952979376
298.62900,0.9358685086
298.62950,4.293006993
298.63000,7.039756663
298.63050,8.565728701
298.63100,8.870923109
298.63150,7.34495107
298.63200,4.293006993
298.63250,0.6306741009
298.63300,-1.200492345
298.63350,-1.200492345
298.63400,-0.2849091222
298.63450,0.3254796932
298.63500,0.3254796932
298.63550,0.02028528547
298.63600,-0.5901035299
298.63650,-1.505686753
298.63700,-1.505686753
298.63750,0.02028528547
298.63800,1.851451732
298.63850,1.546257324
298.63900,-0.8952979376
298.63950,-3.642047607
298.64000,-3.947242015
298.64050,-1.200492345
298.64100,1.241062916
298.64150,1.851451732
298.64200,0.3254796932
298.64250,-2.116075568
298.64300,-3.336853199
298.64350,-2.116075568
298.64400,0.02028528547
298.64450,1.851451732
298.64500,2.767034955
298.64550,3.682618178
298.64600,3.987812586
298.64650,3.37742377
298.64700,1.241062916
298.64750,0.02028528547
298.64800,0.3254796932
298.64850,0.02028528547
298.64900,-1.505686753
298.64950,-3.031658792
298.65000,-3.031658792
298.65050,-2.421269976
298.65100,-4.252436422
298.65150,-6.999186092
298.65200,-6.999186092
298.65250,-4.252436422
298.65300,-0.5901035299
298.65350,1.546257324
298.65400,2.767034955
298.65450,2.461840547
298.65500,1.241062916
298.65550,0.6306741009
298.65600,0.6306741009
298.65650,0.02028528547
298.65700,-3.642047607
298.65750,-7.914769315
298.65800,-9.440741353
298.65850,-9.745935761
298.65900,-11.57710221
298.65950,-14.01865747
298.66000,-13.10307425
298.66050,-9.745935761
298.66100,-7.914769315
298.66150,-7.914769315
298.66200,-5.778408461
298.66250,0.02028528547
298.66300,6.124173439
298.66350,8.260534293
298.66400,8.565728701
298.66450,10.39689515
298.66500,13.75403363
298.66550,15.89039449
298.66600,15.58520008
298.66650,13.75403363
298.66700,12.22806159
298.66750,9.786506332
298.66800,6.734562255
298.66850,2.767034955
298.66900,-0.5901035299
298.66950,-2.726464384
298.67000,-2.726464384
298.67050,-2.116075568
298.67100,-2.116075568
298.67150,-3.031658792
298.67200,-4.252436422
298.67250,-4.252436422
298.67300,-3.336853199
298.67350,-2.726464384
298.67400,-2.726464384
298.67450,-3.031658792
298.67500,-3.642047607
298.67550,-4.252436422
298.67600,-3.642047607
298.67650,-2.116075568
298.67700,-0.5901035299
298.67750,0.02028528547
298.67800,0.9358685086
298.67850,3.37742377
298.67900,5.818979032
298.67950,5.818979032
298.68000,3.37742377
298.68050,1.546257324
298.68100,1.546257324
298.68150,2.461840547
298.68200,2.767034955
298.68250,3.37742377
298.68300,4.903395809
298.68350,6.734562255
298.68400,6.429367847
298.68450,3.987812586
298.68500,0.6306741009
298.68550,-0.8952979376
298.68600,-1.505686753
298.68650,-1.505686753
298.68700,-1.810881161
298.68750,-2.421269976
298.68800,-3.031658792
298.68850,-3.642047607
298.68900,-3.642047607
298.68950,-3.031658792
298.69000,-1.200492345
298.69050,1.241062916
298.69100,4.293006993
298.69150,4.903395809
298.69200,2.156646139
298.69250,-2.116075568
298.69300,-4.862825238
298.69350,-3.947242015
298.69400,-1.505686753
298.69450,-0.2849091222
298.69500,-0.2849091222
298.69550,0.02028528547
298.69600,0.9358685086
298.69650,0.02028528547
298.69700,-2.726464384
298.69750,-4.55763083
298.69800,-3.947242015
298.69850,-2.726464384
298.69900,-2.116075568
298.69950,-1.810881161
298.70000,-0.2849091222
298.70050,0.9358685086
298.70100,0.9358685086
298.70150,0.02028528547
298.70200,0.02028528547
298.70250,1.851451732
298.70300,3.682618178
298.70350,3.987812586
298.70400,3.682618178
298.70450,3.682618178
298.70500,4.293006993
298.70550,3.987812586
298.70600,1.851451732
298.70650,-0.2849091222
298.70700,-2.116075568
298.70750,-1.810881161
298.70800,-0.2849091222
298.70850,0.9358685086
298.70900,0.3254796932
298.70950,-1.810881161
298.71000,-3.947242015
298.71050,-3.947242015
298.71100,-0.5901035299
298.71150,3.37742377
298.71200,5.208590216
298.71250,3.072229362
298.71300,0.3254796932
298.71350,0.02028528547
298.71400,0.9358685086
298.71450,0.02028528547
298.71500,-3.947242015
298.71550,-7.304380499
298.71600,-6.999186092
298.71650,-3.947242015
298.71700,-2.116075568
298.71750,-1.810881161
298.71800,-0.8952979376
298.71850,0.3254796932
298.71900,1.546257324
298.71950,2.156646139
298.72000,3.072229362
298.72050,3.987812586
298.72100,3.987812586
298.72150,3.072229362
298.72200,3.37742377
298.72250,4.903395809
298.72300,7.039756663
298.72350,8.260534293
298.72400,8.565728701
298.72450,8.565728701
298.72500,8.565728701
298.72550,9.176117517
298.72600,8.870923109
298.72650,5.818979032
298.72700,0.3254796932
298.72750,-3.642047607
298.72800,-5.778408461
298.72850,-6.388797276
298.72900,-7.914769315
298.72950,-8.830352538
298.73000,-8.52515813
298.73050,-8.52515813
298.73100,-10.05113017
298.73150,-10.35632458
298.73200,-6.083602869
298.73250,1.546257324
298.73300,8.565728701
298.73350,13.14364482
298.73400,14.97481126
298.73450,14.97481126
298.73500,13.14364482
298.73550,11.31247837
298.73600,10.09170074
298.73650,8.870923109
298.73700,6.124173439
298.73750,3.37742377
298.73800,2.156646139
298.73850,1.851451732
298.73900,0.02028528547
298.73950,-2.726464384
298.74000,-5.473214053
298.74050,-7.609574907
298.74100,-10.05113017
298.74150,-11.88229661
298.74200,-11.88229661
298.74250,-9.135546946
298.74300,-4.862825238
298.74350,-0.2849091222
298.74400,2.156646139
298.74450,2.461840547
298.74500,2.156646139
298.74550,5.208590216
298.74600,11.31247837
298.74650,14.66961686
298.74700,11.92286719
298.74750,6.429367847
298.74800,5.208590216
298.74850,7.955339886
298.74900,8.260534293
298.74950,3.072229362
298.75000,-3.336853199
298.75050,-6.999186092
298.75100,-6.999186092
298.75150,-6.388797276
298.75200,-6.083602869
298.75250,-5.473214053
298.75300,-4.55763083
298.75350,-4.252436422
298.75400,-4.862825238
298.75450,-5.168019645
298.75500,-5.473214053
298.75550,-6.693991684
298.75600,-8.830352538
298.75650,-9.745935761
298.75700,-9.135546946
298.75750,-7.304380499
298.75800,-5.473214053
298.75850,-3.642047607
298.75900,-2.116075568
298.75950,-2.116075568
298.76000,-3.947242015
298.76050,-5.778408461
298.76100,-5.778408461
298.76150,-4.55763083
298.76200,-3.947242015
298.76250,-4.252436422
298.76300,-3.336853199
298.76350,-1.810881161
298.76400,-1.505686753
298.76450,-2.726464384
298.76500,-3.642047607
298.76550,-3.336853199
298.76600,-3.336853199
298.76650,-3.642047607
298.76700,-2.726464384
298.76750,0.02028528547
298.76800,2.767034955
298.76850,3.072229362
298.76900,1.241062916
298.76950,-0.2849091222
298.77000,-0.2849091222
298.77050,0.3254796932
298.77100,1.546257324
298.77150,1.241062916
298.77200,0.02028528547
298.77250,-1.810881161
298.77300,-3.336853199
298.77350,-3.947242015
298.77400,-4.55763083
298.77450,-5.168019645
298.77500,-4.55763083
298.77550,-2.726464384
298.77600,-0.2849091222
298.77650,0.6306741009
298.77700,0.6306741009
298.77750,0.02028528547
298.77800,-1.200492345
298.77850,-1.810881161
298.77900,-0.5901035299
298.77950,0.9358685086
298.78000,1.851451732
298.78050,1.546257324
298.78100,1.851451732
298.78150,2.156646139
298.78200,0.9358685086
298.78250,-0.5901035299
298.78300,-0.8952979376
298.78350,0.6306741009
298.78400,2.767034955
298.78450,3.072229362
298.78500,2.156646139
298.78550,1.546257324
298.78600,0.6306741009
298.78650,-0.5901035299
298.78700,-1.200492345
298.78750,0.6306741009
298.78800,3.987812586
298.78850,5.208590216
298.78900,3.37742377
298.78950,1.546257324
298.79000,1.546257324
298.79050,2.767034955
298.79100,2.461840547
298.79150,0.6306741009
298.79200,-1.200492345
298.79250,-2.116075568
298.79300,-2.116075568
298.79350,-1.810881161
298.79400,-1.810881161
298.79450,-1.810881161
298.79500,-2.116075568
298.79550,-2.421269976
298.79600,-2.421269976
298.79650,-2.116075568
298.79700,-2.421269976
298.79750,-3.642047607
298.79800,-5.473214053
298.79850,-6.083602869
298.79900,-5.778408461
298.79950,-5.778408461
298.80000,-6.083602869
298.80050,-5.473214053
298.80100,-3.336853199
298.80150,-0.2849091222
298.80200,2.461840547
298.80250,4.293006993
298.80300,4.903395809
298.80350,5.208590216
298.80400,5.208590216
298.80450,5.513784624
298.80500,5.208590216
298.80550,3.682618178
298.80600,0.6306741009
298.80650,-1.505686753
298.80700,-4.252436422
298.80750,-7.914769315
298.80800,-12.18749102
298.80850,-13.71346306
298.80900,-10.66151898
298.80950,-6.388797276
298.81000,-5.778408461
298.81050,-6.999186092
298.81100,-5.473214053
298.81150,0.6306741009
298.81200,7.039756663
298.81250,8.870923109
298.81300,7.34495107
298.81350,7.650145478
298.81400,11.31247837
298.81450,15.89039449
298.81500,18.63714416
298.81550,19.24753297
298.81600,18.63714416
298.81650,16.19558889
298.81700,12.22806159
298.81750,8.870923109
298.81800,7.039756663
298.81850,5.208590216
298.81900,3.682618178
298.81950,2.767034955
298.82000,3.682618178
298.82050,4.903395809
298.82100,5.208590216
298.82150,4.293006993
298.82200,1.851451732
298.82250,-0.5901035299
298.82300,-2.116075568
298.82350,0.02028528547
298.82400,3.682618178
298.82450,4.903395809
298.82500,2.156646139
298.82550,-0.8952979376
298.82600,-0.2849091222
298.82650,3.682618178
298.82700,6.734562255
298.82750,6.124173439
298.82800,3.682618178
298.82850,1.851451732
298.82900,1.546257324
298.82950,1.241062916
298.83000,0.3254796932
298.83050,-0.2849091222
298.83100,-0.2849091222
298.83150,0.3254796932
298.83200,0.9358685086
298.83250,0.6306741009
298.83300,-1.200492345
298.83350,-3.947242015
298.83400,-5.473214053
298.83450,-5.168019645
298.83500,-5.473214053
298.83550,-6.999186092
298.83600,-8.830352538
298.83650,-9.135546946
298.83700,-7.304380499
298.83750,-5.168019645
298.83800,-4.252436422
298.83850,-4.252436422
298.83900,-4.252436422
298.83950,-3.031658792
298.84000,-2.116075568
298.84050,-2.116075568
298.84100,-1.810881161
298.84150,-1.810881161
298.84200,-2.421269976
298.84250,-4.55763083
298.84300,-7.304380499
298.84350,-8.830352538
298.84400,-7.304380499
298.84450,-4.252436422
298.84500,-2.726464384
298.84550,-3.336853199
298.84600,-4.252436422
298.84650,-2.116075568
298.84700,2.767034955
298.84750,7.039756663
298.84800,7.650145478
298.84850,5.818979032
298.84900,3.987812586
298.84950,3.072229362
298.85000,2.156646139
298.85050,1.241062916
298.85100,0.3254796932
298.85150,-0.8952979376
298.85200,-3.336853199
298.85250,-5.168019645
298.85300,-5.168019645
298.85350,-4.862825238
298.85400,-5.168019645
298.85450,-6.388797276
298.85500,-6.999186092
298.85550,-6.999186092
298.85600,-6.999186092
298.85650,-6.388797276
298.85700,-5.473214053
298.85750,-4.862825238
298.85800,-5.168019645
298.85850,-5.168019645
298.85900,-3.336853199
298.85950,0.02028528547
298.86000,2.156646139
298.86050,2.156646139
298.86100,2.461840547
298.86150,3.987812586
298.86200,5.513784624
298.86250,4.598201401
298.86300,2.461840547
298.86350,0.9358685086
298.86400,0.6306741009
298.86450,1.241062916
298.86500,2.461840547
298.86550,4.598201401
298.86600,7.650145478
298.86650,9.786506332
298.86700,9.786506332
298.86750,7.955339886
298.86800,4.903395809
298.86850,2.767034955
298.86900,2.461840547
298.86950,2.461840547
298.87000,0.3254796932
298.87050,-3.031658792
298.87100,-5.473214053
298.87150,-5.778408461
298.87200,-6.388797276
298.87250,-10.05113017
298.87300,-14.01865747
298.87350,-13.40826865
298.87400,-7.609574907
298.87450,-0.2849091222
298.87500,4.598201401
298.87550,7.039756663
298.87600,8.565728701
298.87650,9.176117517
298.87700,8.870923109
298.87750,7.955339886
298.87800,6.734562255
298.87850,6.124173439
298.87900,6.734562255
298.87950,8.870923109
298.88000,10.70208956
298.88050,9.786506332
298.88100,6.124173439
298.88150,2.767034955
298.88200,1.546257324
298.88250,2.461840547
298.88300,2.767034955
298.88350,1.241062916
298.88400,-0.2849091222
298.88450,-0.8952979376
298.88500,-0.5901035299
298.88550,0.3254796932
298.88600,2.156646139
298.88650,4.293006993
298.88700,5.208590216
298.88750,4.293006993
298.88800,2.461840547
298.88850,1.546257324
298.88900,2.156646139
298.88950,2.156646139
298.89000,0.6306741009
298.89050,-1.200492345
298.89100,-2.726464384
298.89150,-3.947242015
298.89200,-6.083602869
298.89250,-8.219963722
298.89300,-10.05113017
298.89350,-11.2719078
298.89400,-12.18749102
298.89450,-11.57710221
298.89500,-9.440741353
298.89550,-6.693991684
298.89600,-2.726464384
298.89650,1.241062916
298.89700,4.598201401
298.89750,6.124173439
298.89800,6.429367847
298.89850,5.818979032
298.89900,4.903395809
298.89950,2.767034955
298.90000,0.6306741009
298.90050,0.02028528547
298.90100,-0.2849091222
298.90150,-2.116075568
298.90200,-4.55763083
298.90250,-5.473214053
298.90300,-3.642047607
298.90350,-2.116075568
298.90400,-1.810881161
298.90450,-0.8952979376
298.90500,1.851451732
298.90550,5.208590216
298.90600,5.818979032
298.90650,4.903395809
298.90700,6.124173439
298.90750,9.786506332
298.90800,12.533256
298.90850,11.31247837
298.90900,8.260534293
298.90950,5.818979032
298.91000,4.598201401
298.91050,3.072229362
298.91100,1.241062916
298.91150,0.9358685086
298.91200,3.37742377
298.91250,7.039756663
298.91300,9.481311924
298.91350,9.481311924
298.91400,7.34495107
298.91450,3.682618178
298.91500,-0.8952979376
298.91550,-4.862825238
298.91600,-6.388797276
298.91650,-5.473214053
298.91700,-3.642047607
298.91750,-2.726464384
298.91800,-2.421269976
298.91850,-3.336853199
298.91900,-4.252436422
298.91950,-4.252436422
298.92000,-3.642047607
298.92050,-3.031658792
298.92100,-3.031658792
298.92150,-3.031658792
298.92200,-2.116075568
298.92250,-1.505686753
298.92300,-1.505686753
298.92350,-1.810881161
298.92400,-1.810881161
298.92450,-1.810881161
298.92500,-2.116075568
298.92550,-3.336853199
298.92600,-4.55763083
298.92650,-6.083602869
298.92700,-7.914769315
298.92750,-8.219963722
298.92800,-6.999186092
298.92850,-5.168019645
298.92900,-4.252436422
298.92950,-4.252436422
298.93000,-3.336853199
298.93050,-1.200492345
298.93100,0.9358685086
298.93150,3.37742377
298.93200,4.903395809
298.93250,4.903395809
298.93300,3.072229362
298.93350,0.6306741009
298.93400,0.02028528547
298.93450,-0.5901035299
298.93500,-4.862825238
298.93550,-10.05113017
298.93600,-10.96671339
298.93650,-7.304380499
298.93700,-4.252436422
298.93750,-4.252436422
298.93800,-4.55763083
298.93850,-1.810881161
298.93900,1.241062916
298.93950,2.156646139
298.94000,0.6306741009
298.94050,0.3254796932
298.94100,1.851451732
298.94150,3.37742377
298.94200,2.767034955
298.94250,0.9358685086
298.94300,-0.5901035299
298.94350,-1.505686753
298.94400,-1.200492345
298.94450,0.02028528547
298.94500,1.241062916
298.94550,1.851451732
298.94600,1.241062916
298.94650,0.02028528547
298.94700,-1.200492345
298.94750,-2.421269976
298.94800,-2.116075568
298.94850,-0.5901035299
298.94900,0.02028528547
298.94950,0.6306741009
298.95000,3.682618178
298.95050,9.176117517
298.95100,12.22806159
298.95150,9.176117517
298.95200,2.461840547
298.95250,-0.8952979376
298.95300,-0.8952979376
298.95350,-1.200492345
298.95400,-3.947242015
298.95450,-6.388797276
298.95500,-6.693991684
298.95550,-6.388797276
298.95600,-6.388797276
298.95650,-5.168019645
298.95700,-1.810881161
298.95750,0.02028528547
298.95800,-0.8952979376
298.95850,-3.642047607
298.95900,-3.642047607
298.95950,-0.2849091222
298.96000,2.767034955
298.96050,4.293006993
298.96100,4.598201401
298.96150,4.598201401
298.96200,4.903395809
298.96250,4.903395809
298.96300,4.598201401
298.96350,3.072229362
298.96400,0.02028528547
298.96450,-2.726464384
298.96500,-3.336853199
298.96550,-1.505686753
298.96600,0.3254796932
298.96650,1.546257324
298.96700,2.156646139
298.96750,2.156646139
298.96800,1.546257324
298.96850,0.6306741009
298.96900,0.02028528547
298.96950,0.02028528547
298.97000,-0.2849091222
298.97050,-0.8952979376
298.97100,-1.200492345
298.97150,-0.8952979376
298.97200,-0.5901035299
298.97250,-1.200492345
298.97300,-1.810881161
298.97350,-2.421269976
298.97400,-2.726464384
298.97450,-2.421269976
298.97500,-2.726464384
298.97550,-4.252436422
298.97600,-6.693991684
298.97650,-8.52515813
298.97700,-8.52515813
298.97750,-6.693991684
298.97800,-3.947242015
298.97850,-0.8952979376
298.97900,2.156646139
298.97950,4.598201401
298.98000,5.818979032
298.98050,6.124173439
298.98100,7.650145478
298.98150,9.786506332
298.98200,10.70208956
298.98250,9.481311924
298.98300,8.260534293
298.98350,8.565728701
298.98400,8.260534293
298.98450,5.208590216
298.98500,0.3254796932
298.98550,-2.726464384
298.98600,-3.947242015
298.98650,-5.473214053
298.98700,-8.830352538
298.98750,-12.18749102
298.98800,-12.18749102
298.98850,-9.440741353
298.98900,-6.388797276
298.98950,-4.252436422
298.99000,-2.116075568
298.99050,0.02028528547
298.99100,0.6306741009
298.99150,0.6306741009
298.99200,3.37742377
298.99250,9.176117517
298.99300,14.97481126
298.99350,15.89039449
298.99400,12.533256
298.99450,8.260534293
298.99500,5.818979032
298.99550,4.903395809
298.99600,5.513784624
298.99650,6.124173439
298.99700,4.293006993
298.99750,0.02028528547
298.99800,-4.252436422
298.99850,-5.473214053
298.99900,-5.778408461
298.99950,-7.914769315
299.00000,-10.66151898
299.00050,-9.745935761
299.00100,-5.473214053
299.00150,-1.810881161
299.00200,-0.2849091222
299.00250,0.9358685086
299.00300,4.293006993
299.00350,7.650145478
299.00400,9.481311924
299.00450,8.870923109
299.00500,7.34495107
299.00550,4.598201401
299.00600,1.851451732
299.00650,0.3254796932
299.00700,0.3254796932
299.00750,0.6306741009
299.00800,0.02028528547
299.00850,-3.031658792
299.00900,-7.609574907
299.00950,-11.2719078
299.01000,-11.88229661
299.01050,-9.135546946
299.01100,-5.778408461
299.01150,-3.642047607
299.01200,0.02028528547
299.01250,6.124173439
299.01300,12.22806159
299.01350,14.66961686
299.01400,12.533256
299.01450,8.565728701
299.01500,4.293006993
299.01550,0.3254796932
299.01600,-3.031658792
299.01650,-4.862825238
299.01700,-4.55763083
299.01750,-3.947242015
299.01800,-3.642047607
299.01850,-3.642047607
299.01900,-3.947242015
299.01950,-3.642047607
299.02000,-2.421269976
299.02050,-0.2849091222
299.02100,0.6306741009
299.02150,1.546257324
299.02200,3.37742377
299.02250,5.513784624
299.02300,6.429367847
299.02350,5.208590216
299.02400,3.987812586
299.02450,3.987812586
299.02500,3.072229362
299.02550,0.3254796932
299.02600,-1.810881161
299.02650,-1.505686753
299.02700,-1.200492345
299.02750,-4.252436422
299.02800,-8.219963722
299.02850,-8.830352538
299.02900,-6.693991684
299.02950,-5.168019645
299.03000,-5.473214053
299.03050,-5.168019645
299.03100,-3.031658792
299.03150,-1.505686753
299.03200,-1.810881161
299.03250,-3.031658792
299.03300,-3.336853199
299.03350,-2.726464384
299.03400,-2.116075568
299.03450,-1.505686753
299.03500,-0.8952979376
299.03550,-0.5901035299
299.03600,-0.8952979376
299.03650,-1.505686753
299.03700,-2.421269976
299.03750,-3.336853199
299.03800,-4.55763083
299.03850,-4.862825238
299.03900,-3.336853199
299.03950,-1.810881161
299.04000,-1.810881161
299.04050,-2.116075568
299.04100,-1.810881161
299.04150,0.02028528547
299.04200,1.546257324
299.04250,1.546257324
299.04300,0.9358685086
299.04350,1.851451732
299.04400,3.987812586
299.04450,4.598201401
299.04500,3.072229362
299.04550,0.9358685086
299.04600,0.6306741009
299.04650,1.546257324
299.04700,0.9358685086
299.04750,-0.2849091222
299.04800,-1.505686753
299.04850,-0.2849091222
299.04900,1.546257324
299.04950,3.682618178
299.05000,5.208590216
299.05050,6.429367847
299.05100,6.429367847
299.05150,4.598201401
299.05200,1.851451732
299.05250,1.241062916
299.05300,3.072229362
299.05350,4.598201401
299.05400,3.072229362
299.05450,-1.200492345
299.05500,-4.55763083
299.05550,-5.168019645
299.05600,-3.947242015
299.05650,-3.336853199
299.05700,-3.947242015
299.05750,-3.947242015
299.05800,-3.336853199
299.05850,-2.726464384
299.05900,-2.421269976
299.05950,-1.505686753
299.06000,-0.2849091222
299.06050,-0.2849091222
299.06100,-0.5901035299
299.06150,0.3254796932
299.06200,3.072229362
299.06250,4.293006993
299.06300,2.156646139
299.06350,-0.5901035299
299.06400,-1.810881161
299.06450,-0.8952979376
299.06500,0.6306741009
299.06550,2.156646139
299.06600,3.37742377
299.06650,3.37742377
299.06700,1.851451732
299.06750,0.3254796932
299.06800,-0.5901035299
299.06850,-2.116075568
299.06900,-3.336853199
299.06950,-2.421269976
299.07000,0.02028528547
299.07050,1.241062916
299.07100,0.02028528547
299.07150,-2.726464384
299.07200,-2.726464384
299.07250,-0.5901035299
299.07300,0.9358685086
299.07350,1.241062916
299.07400,0.6306741009
299.07450,0.6306741009
299.07500,0.6306741009
299.07550,0.02028528547
299.07600,-1.505686753
299.07650,-1.810881161
299.07700,-1.200492345
299.07750,0.02028528547
299.07800,1.546257324
299.07850,2.461840547
299.07900,3.987812586
299.07950,5.818979032
299.08000,7.34495107
299.08050,7.955339886
299.08100,8.565728701
299.08150,9.176117517
299.08200,8.870923109
299.08250,6.429367847
299.08300,2.461840547
299.08350,-0.2849091222
299.08400,-2.726464384
299.08450,-6.388797276
299.08500,-11.57710221
299.08550,-14.01865747
299.08600,-13.10307425
299.08650,-10.66151898
299.08700,-8.52515813
299.08750,-5.778408461
299.08800,-1.505686753
299.08850,0.6306741009
299.08900,-0.2849091222
299.08950,-1.505686753
299.09000,2.767034955
299.09050,11.31247837
299.09100,18.02675534
299.09150,18.63714416
299.09200,16.19558889
299.09250,14.36442245
299.09300,12.533256
299.09350,9.786506332
299.09400,7.650145478
299.09450,7.039756663
299.09500,6.124173439
299.09550,3.37742377
299.09600,0.02028528547
299.09650,-1.505686753
299.09700,-1.505686753
299.09750,-1.505686753
299.09800,-1.505686753
299.09850,-1.200492345
299.09900,-0.5901035299
299.09950,-0.8952979376
299.10000,-1.200492345
299.10050,-0.2849091222
299.10100,0.3254796932
299.10150,0.3254796932
299.10200,-1.200492345
299.10250,-1.810881161
299.10300,-0.2849091222
299.10350,0.6306741009
299.10400,-0.2849091222
299.10450,-2.421269976
299.10500,-2.726464384
299.10550,-0.2849091222
299.10600,1.546257324
299.10650,1.546257324
299.10700,0.02028528547
299.10750,-4.252436422
299.10800,-9.745935761
299.10850,-14.62904628
299.10900,-16.15501832
299.10950,-14.01865747
299.11000,-10.05113017
299.11050,-5.778408461
299.11100,-1.505686753
299.11150,2.156646139
299.11200,3.37742377
299.11250,1.851451732
299.11300,0.02028528547
299.11350,1.241062916
299.11400,4.903395809
299.11450,8.870923109
299.11500,10.70208956
299.11550,9.786506332
299.11600,6.734562255
299.11650,3.072229362
299.11700,0.02028528547
299.11750,-0.8952979376
299.11800,-0.2849091222
299.11850,0.6306741009
299.11900,0.9358685086
299.11950,0.3254796932
299.12000,-0.5901035299
299.12050,-1.505686753
299.12100,-2.116075568
299.12150,-3.947242015
299.12200,-7.609574907
299.12250,-10.05113017
299.12300,-8.219963722
299.12350,-4.252436422
299.12400,-2.116075568
299.12450,-3.031658792
299.12500,-3.947242015
299.12550,-3.336853199
299.12600,-1.200492345
299.12650,0.3254796932
299.12700,1.851451732
299.12750,1.851451732
299.12800,0.02028528547
299.12850,0.02028528547
299.12900,3.072229362
299.12950,7.650145478
299.13000,7.650145478
299.13050,3.37742377
299.13100,0.6306741009
299.13150,2.156646139
299.13200,2.461840547
299.13250,-2.421269976
299.13300,-9.745935761
299.13350,-13.71346306
299.13400,-15.2394351
299.13450,-17.68099036
299.13500,-20.73293444
299.13550,-20.73293444
299.13600,-18.90176799
299.13650,-18.59657358
299.13700,-20.12254562
299.13750,-21.03812885
299.13800,-21.34332325
299.13850,-25.00565615
299.13900,-30.80434989
299.13950,-30.80434989
299.14000,-21.03812885
299.14050,-6.999186092
299.14100,2.156646139
299.14150,5.208590216
299.14200,6.124173439
299.14250,7.650145478
299.14300,7.955339886
299.14350,5.513784624
299.14400,1.241062916
299.14450,-3.642047607
299.14500,-5.778408461
299.14550,3.37742377
299.14600,31.15011487
299.14650,68.99422143
299.14700,97.07210693
299.14750,101.0396342
299.14800,84.25394181
299.14850,59.22800038
299.14900,33.89686454
299.14950,11.31247837
299.15000,-4.862825238
299.15050,-11.88229661
299.15100,-12.49268543
299.15150,-12.79787984
299.15200,-15.54462951
299.15250,-17.68099036
299.15300,-17.37579595
299.15350,-16.15501832
299.15400,-17.68099036
299.15450,-22.25890648
299.15500,-27.75240582
299.15550,-27.75240582
299.15600,-16.76540714
299.15650,3.682618178
299.15700,23.21506027
299.15750,30.53972606
299.15800,23.21506027
299.15850,7.955339886
299.15900,-6.388797276
299.15950,-17.68099036
299.16000,-27.44721141
299.16050,-38.43421008
299.16100,-48.50562554
299.16150,-51.55756962
299.16200,-43.31732061
299.16250,-27.44721141
299.16300,-12.18749102
299.16350,-2.116075568
299.16400,6.124173439
299.16450,17.41636652
299.16500,29.01375402
299.16550,37.86439184
299.16600,44.88386322
299.16650,52.208529
299.16700,57.70202834
299.16750,55.87086189
299.16800,44.57866881
299.16850,28.4033652
299.16900,15.89039449
299.16950,11.61767278
299.17000,11.92286719
299.17050,9.176117517
299.17100,1.851451732
299.17150,-3.031658792
299.17200,0.3254796932
299.17250,12.22806159
299.17300,27.18258757
299.17350,40.3059471
299.17400,45.49425203
299.17450,33.59167013
299.17500,5.818979032
299.17550,-22.56410088
299.17600,-39.0445989
299.17650,-44.23290383
299.17700,-47.89523672
299.17750,-51.25237521
299.17800,-50.64198639
299.17850,-50.03159758
299.17900,-56.44068014
299.17950,-64.37573474
299.18000,-60.40820744
299.18050,-41.79134857
299.18100,-20.42774003
299.18150,-3.642047607
299.18200,12.22806159
299.18250,28.70855961
299.18300,37.55919743
299.18350,33.28647572
299.18400,22.29947705
299.18450,10.70208956
299.18500,-2.116075568
299.18550,-17.07060155
299.18600,-22.25890648
299.18650,-6.083602869
299.18700,27.18258757
299.18750,59.83838919
299.18800,76.92927603
299.18850,76.92927603
299.18900,66.24747176
299.18950,49.76697374
299.19000,29.01375402
299.19050,6.124173439
299.19100,-15.84982392
299.19150,-32.94071075
299.19200,-43.92770942
299.19250,-51.55756962
299.19300,-60.10301303
299.19350,-70.47962289
299.19400,-79.94064953
299.19450,-86.34973209
299.19500,-87.87570413
299.19550,-85.73934328
299.19600,-80.85623276
299.19650,-73.83676138
299.19700,-63.76534592
299.19750,-50.64198639
299.19800,-37.51862686
299.19850,-29.58357226
299.19900,-26.22643378
299.19950,-20.42774003
299.20000,-6.083602869
299.20050,13.75403363
299.20100,33.28647572
299.20150,48.2410017
299.20200,59.53319479
299.20250,69.60461024
299.20300,78.15005366
299.20350,82.72796977
299.20400,80.89680333
299.20450,73.57213754
299.20500,65.63708294
299.20550,60.1435836
299.20600,54.65008426
299.20650,44.88386322
299.20700,32.98128132
299.20750,25.04622672
299.20800,22.90986586
299.20850,22.29947705
299.20900,21.07869942
299.20950,19.85792179
299.21000,18.94233856
299.21050,16.5007833
299.21100,11.61767278
299.21150,7.039756663
299.21200,3.072229362
299.21250,-2.726464384
299.21300,-9.745935761
299.21350,-13.40826865
299.21400,-12.49268543
299.21450,-9.745935761
299.21500,-8.52515813
299.21550,-9.440741353
299.21600,-10.96671339
299.21650,-14.01865747
299.21700,-18.59657358
299.21750,-23.1744897
299.21800,-26.53162818
299.21850,-29.88876667
299.21900,-33.24590515
299.21950,-36.29784923
299.22000,-39.65498772
299.22050,-43.62251502
299.22100,-47.89523672
299.22150,-51.86276402
299.22200,-56.13548573
299.22250,-59.18742981
299.22300,-58.57704099
299.22350,-53.99912488
299.22400,-48.50562554
299.22450,-45.75887587
299.22500,-42.70693179
299.22550,-37.51862686
299.22600,-31.41473871
299.22650,-25.61604496
299.22700,-17.68099036
299.22750,-4.55763083
299.22800,11.31247837
299.22850,28.4033652
299.22900,46.71502966
299.22950,65.94227735
299.23000,78.15005366
299.23050,77.84485925
299.23100,67.7734438
299.23150,54.65008426
299.23200,39.69555829
299.23250,20.16311619
299.23300,-0.8952979376
299.23350,-17.98618477
299.23400,-27.75240582
299.23450,-32.94071075
299.23500,-35.99265482
299.23550,-35.38226601
299.23600,-30.19396108
299.23650,-24.70046174
299.23700,-22.25890648
299.23750,-18.90176799
299.23800,-7.609574907
299.23850,13.44883922
299.23900,36.03322539
299.23950,50.07216815
299.24000,57.39683393
299.24050,69.90980465
299.24100,90.96821878
299.24150,108.6694944
299.24200,105.6175504
299.24250,80.89680333
299.24300,47.32541848
299.24350,18.33194975
299.24400,-2.116075568
299.24450,-15.84982392
299.24500,-23.47968411
299.24550,-26.83682259
299.24600,-28.36279463
299.24650,-24.70046174
299.24700,-10.96671339
299.24750,9.786506332
299.24800,27.18258757
299.24850,31.15011487
299.24900,24.74103231
299.24950,16.5007833
299.25000,10.09170074
299.25050,3.682618178
299.25100,-1.810881161
299.25150,-0.5901035299
299.25200,11.31247837
299.25250,29.31894842
299.25300,39.08516947
299.25350,32.06569809
299.25400,13.44883922
299.25450,-2.726464384
299.25500,-10.05113017
299.25550,-12.49268543
299.25600,-17.37579595
299.25650,-25.92123937
299.25700,-32.94071075
299.25750,-38.12901568
299.25800,-43.92770942
299.25850,-51.25237521
299.25900,-55.83029132
299.25950,-54.9147081
299.26000,-49.42120876
299.26050,-36.90823805
299.26100,-14.93424069
299.26150,12.83845041
299.26200,34.50725336
299.26250,41.22153033
299.26300,37.86439184
299.26350,33.28647572
299.26400,30.53972606
299.26450,28.09817079
299.26500,26.26700435
299.26550,26.26700435
299.26600,23.21506027
299.26650,11.61767278
299.26700,-2.421269976
299.26750,-5.168019645
299.26800,7.650145478
299.26850,23.52025468
299.26900,28.09817079
299.26950,21.38389382
299.27000,11.31247837
299.27050,3.682618178
299.27100,-3.642047607
299.27150,-14.62904628
299.27200,-28.97318345
299.27250,-43.31732061
299.27300,-53.38873606
299.27350,-56.13548573
299.27400,-52.47315284
299.27450,-44.53809824
299.27500,-34.46668278
299.27550,-22.56410088
299.27600,-10.35632458
299.27650,-0.2849091222
299.27700,5.513784624
299.27750,7.955339886
299.27800,6.734562255
299.27850,4.598201401
299.27900,4.293006993
299.27950,9.176117517
299.28000,17.72156093
299.28050,25.35142112
299.28100,27.48778198
299.28150,22.90986586
299.28200,12.533256
299.28250,0.9358685086
299.28300,-8.219963722
299.28350,-14.62904628
299.28400,-18.59657358
299.28450,-18.90176799
299.28500,-14.01865747
299.28550,-9.135546946
299.28600,-10.05113017
299.28650,-14.93424069
299.28700,-17.68099036
299.28750,-18.90176799
299.28800,-25.00565615
299.28850,-31.71993312
299.28900,-28.36279463
299.28950,-15.84982392
299.29000,-12.49268543
299.29050,-28.66798904
299.29100,-50.9471808
299.29150,-62.54456829
299.29200,-64.68092915
299.29250,-69.56403967
299.29300,-75.36273342
299.29350,-72.92117816
299.29400,-63.76534592
299.29450,-57.35626336
299.29500,-51.55756962
299.29550,-36.29784923
299.29600,-13.40826865
299.29650,5.513784624
299.29700,22.29947705
299.29750,47.93580729
299.29800,80.59160892
299.29850,102.2604119
299.29900,102.2604119
299.29950,90.66302437
299.30000,79.06563688
299.30050,65.02669413
299.30100,44.2734744
299.30150,23.21506027
299.30200,10.70208956
299.30250,5.208590216
299.30300,0.6306741009
299.30350,-2.116075568
299.30400,-2.726464384
299.30450,-5.473214053
299.30500,-10.35632458
299.30550,-4.252436422
299.30600,22.60467146
299.30650,60.44877801
299.30700,85.47471944
299.30750,87.6110803
299.30800,76.62408162
299.30850,64.1111109
299.30900,53.73450104
299.30950,41.83191914
299.31000,28.70855961
299.31050,14.36442245
299.31100,0.02028528547
299.31150,-11.2719078
299.31200,-17.37579595
299.31250,-17.37579595
299.31300,-15.54462951
299.31350,-14.62904628
299.31400,-15.2394351
299.31450,-16.76540714
299.31500,-17.98618477
299.31550,-17.68099036
299.31600,-14.62904628
299.31650,-11.88229661
299.31700,-12.18749102
299.31750,-15.2394351
299.31800,-17.37579595
299.31850,-16.15501832
299.31900,-13.10307425
299.31950,-11.57710221
299.32000,-11.88229661
299.32050,-12.49268543
299.32100,-12.18749102
299.32150,-10.66151898
299.32200,-8.52515813
299.32250,-6.083602869
299.32300,-3.336853199
299.32350,-0.5901035299
299.32400,0.6306741009
299.32450,2.156646139
299.32500,3.37742377
299.32550,3.37742377
299.32600,0.6306741009
299.32650,-4.252436422
299.32700,-9.440741353
299.32750,-12.49268543
299.32800,-13.71346306
299.32850,-14.32385188
299.32900,-14.01865747
299.32950,-12.49268543
299.33000,-10.66151898
299.33050,-10.35632458
299.33100,-11.2719078
299.33150,-11.88229661
299.33200,-10.66151898
299.33250,-9.440741353
299.33300,-9.440741353
299.33350,-10.05113017
299.33400,-10.66151898
299.33450,-9.745935761
299.33500,-7.609574907
299.33550,-5.168019645
299.33600,-3.642047607
299.33650,-3.947242015
299.33700,-5.168019645
299.33750,-4.862825238
299.33800,-3.336853199
299.33850,-2.726464384
299.33900,-4.252436422
299.33950,-6.083602869
299.34000,-5.778408461
299.34050,-2.726464384
299.34100,-0.2849091222
299.34150,-0.8952979376
299.34200,-3.031658792
299.34250,-3.031658792
299.34300,-0.5901035299
299.34350,1.546257324
299.34400,3.987812586
299.34450,7.34495107
299.34500,11.92286719
299.34550,15.89039449
299.34600,16.19558889
299.34650,13.14364482
299.34700,10.09170074
299.34750,11.00728396
299.34800,15.28000567
299.34850,19.24753297
299.34900,19.24753297
299.34950,15.58520008
299.35000,10.70208956
299.35050,6.734562255
299.35100,2.461840547
299.35150,-3.336853199
299.35200,-10.35632458
299.35250,-14.01865747
299.35300,-10.66151898
299.35350,-3.336853199
299.35400,1.241062916
299.35450,1.241062916
299.35500,-1.810881161
299.35550,-3.642047607
299.35600,-2.726464384
299.35650,-0.8952979376
299.35700,0.02028528547
299.35750,-0.2849091222
299.35800,-0.8952979376
299.35850,-1.200492345
299.35900,0.02028528547
299.35950,1.546257324
299.36000,3.072229362
299.36050,3.37742377
299.36100,2.767034955
299.36150,3.37742377
299.36200,6.429367847
299.36250,10.09170074
299.36300,11.00728396
299.36350,9.481311924
299.36400,9.481311924
299.36450,12.83845041
299.36500,15.58520008
299.36550,13.44883922
299.36600,7.955339886
299.36650,4.598201401
299.36700,5.513784624
299.36750,6.734562255
299.36800,5.818979032
299.36850,3.987812586
299.36900,3.682618178
299.36950,3.682618178
299.37000,1.851451732
299.37050,0.6306741009
299.37100,1.546257324
299.37150,3.37742377
299.37200,2.767034955
299.37250,0.3254796932
299.37300,0.02028528547
299.37350,0.6306741009
299.37400,0.6306741009
299.37450,-0.5901035299
299.37500,-0.5901035299
299.37550,1.241062916
299.37600,0.02028528547
299.37650,-6.083602869
299.37700,-12.49268543
299.37750,-13.10307425
299.37800,-9.135546946
299.37850,-6.999186092
299.37900,-8.219963722
299.37950,-10.05113017
299.38000,-9.745935761
299.38050,-7.914769315
299.38100,-6.388797276
299.38150,-6.083602869
299.38200,-6.693991684
299.38250,-7.609574907
299.38300,-6.693991684
299.38350,-2.116075568
299.38400,2.767034955
299.38450,4.903395809
299.38500,3.987812586
299.38550,5.513784624
299.38600,11.00728396
299.38650,15.89039449
299.38700,14.66961686
299.38750,9.786506332
299.38800,6.734562255
299.38850,7.650145478
299.38900,6.734562255
299.38950,1.546257324
299.39000,-3.947242015
299.39050,-5.473214053
299.39100,-3.336853199
299.39150,-3.031658792
299.39200,-5.778408461
299.39250,-7.914769315
299.39300,-6.388797276
299.39350,-2.726464384
299.39400,0.02028528547
299.39450,0.6306741009
299.39500,-0.5901035299
299.39550,-2.726464384
299.39600,-3.336853199
299.39650,-0.8952979376
299.39700,1.851451732
299.39750,2.461840547
299.39800,1.241062916
299.39850,0.3254796932
299.39900,-1.505686753
299.39950,-8.830352538
299.40000,-18.29137918
299.40050,-19.51215681
299.40100,-9.440741353
299.40150,0.6306741009
299.40200,2.767034955
299.40250,1.241062916
299.40300,3.072229362
299.40350,3.987812586
299.40400,-2.421269976
299.40450,-11.2719078
299.40500,-8.830352538
299.40550,4.598201401
299.40600,15.89039449
299.40650,14.97481126
299.40700,6.734562255
299.40750,0.6306741009
299.40800,-2.116075568
299.40850,-4.55763083
299.40900,-5.168019645
299.40950,-3.336853199
299.41000,-3.031658792
299.41050,-7.304380499
299.41100,-12.79787984
299.41150,-14.01865747
299.41200,-9.745935761
299.41250,-3.031658792
299.41300,3.37742377
299.41350,9.786506332
299.41400,14.66961686
299.41450,16.19558889
299.41500,13.14364482
299.41550,7.650145478
299.41600,1.241062916
299.41650,-2.726464384
299.41700,-6.083602869
299.41750,-9.440741353
299.41800,-12.49268543
299.41850,-12.79787984
299.41900,-8.830352538
299.41950,-3.947242015
299.42000,-2.421269976
299.42050,-3.336853199
299.42100,-3.642047607
299.42150,-1.505686753
299.42200,-0.2849091222
299.42250,-2.116075568
299.42300,-5.473214053
299.42350,-6.999186092
299.42400,-6.083602869
299.42450,-2.421269976
299.42500,2.156646139
299.42550,7.650145478
299.42600,12.22806159
299.42650,14.97481126
299.42700,16.19558889
299.42750,15.28000567
299.42800,11.31247837
299.42850,5.208590216
299.42900,-0.5901035299
299.42950,-4.252436422
299.43000,-5.168019645
299.43050,-5.473214053
299.43100,-5.778408461
299.43150,-6.083602869
299.43200,-6.999186092
299.43250,-7.914769315
299.43300,-9.135546946
299.43350,-10.35632458
299.43400,-11.88229661
299.43450,-12.49268543
299.43500,-10.96671339
299.43550,-8.219963722
299.43600,-6.083602869
299.43650,-5.778408461
299.43700,-7.914769315
299.43750,-10.35632458
299.43800,-10.66151898
299.43850,-7.914769315
299.43900,-4.252436422
299.43950,-2.116075568
299.44000,-2.726464384
299.44050,-4.252436422
299.44100,-4.862825238
299.44150,-5.168019645
299.44200,-6.083602869
299.44250,-7.304380499
299.44300,-7.609574907
299.44350,-7.914769315
299.44400,-9.745935761
299.44450,-13.40826865
299.44500,-17.68099036
299.44550,-21.95371207
299.44600,-24.39526733
299.44650,-21.64851766
299.44700,-12.18749102
299.44750,0.02028528547
299.44800,8.260534293
299.44850,10.70208956
299.44900,8.260534293
299.44950,1.546257324
299.45000,-7.609574907
299.45050,-16.15501832
299.45100,-19.2069624
299.45150,-17.37579595
299.45200,-16.15501832
299.45250,-17.07060155
299.45300,-17.98618477
299.45350,-17.68099036
299.45400,-17.37579595
299.45450,-14.32385188
299.45500,0.3254796932
299.45550,29.01375402
299.45600,60.1435836
299.45650,79.6760257
299.45700,84.55913622
299.45750,82.11758096
299.45800,78.15005366
299.45850,70.52019346
299.45900,56.78644512
299.45950,38.47478066
299.46000,19.24753297
299.46050,3.37742377
299.46100,-6.083602869
299.46150,-7.609574907
299.46200,-4.862825238
299.46250,-3.031658792
299.46300,-3.642047607
299.46350,-4.252436422
299.46400,-4.55763083
299.46450,-7.609574907
299.46500,-14.62904628
299.46550,-20.42774003
299.46600,-20.73293444
299.46650,-17.98618477
299.46700,-17.07060155
299.46750,-16.15501832
299.46800,-11.88229661
299.46850,-5.778408461
299.46900,-3.336853199
299.46950,-5.473214053
299.47000,-8.52515813
299.47050,-10.35632458
299.47100,-13.10307425
299.47150,-16.46021273
299.47200,-16.15501832
299.47250,-10.35632458
299.47300,-4.252436422
299.47350,-0.8952979376
299.47400,3.37742377
299.47450,12.83845041
299.47500,23.52025468
299.47550,27.48778198
299.47600,22.29947705
299.47650,13.14364482
299.47700,6.124173439
299.47750,3.37742377
299.47800,3.987812586
299.47850,3.682618178
299.47900,0.3254796932
299.47950,-4.55763083
299.48000,-6.693991684
299.48050,-3.642047607
299.48100,0.6306741009
299.48150,2.461840547
299.48200,1.546257324
299.48250,-0.5901035299
299.48300,-3.336853199
299.48350,-5.778408461
299.48400,-6.693991684
299.48450,-4.55763083
299.48500,-3.031658792
299.48550,-3.642047607
299.48600,-5.473214053
299.48650,-5.168019645
299.48700,-3.947242015
299.48750,-3.642047607
299.48800,-4.862825238
299.48850,-5.778408461
299.48900,-6.388797276
299.48950,-7.304380499
299.49000,-6.999186092
299.49050,-3.947242015
299.49100,-1.810881161
299.49150,-3.642047607
299.49200,-8.830352538
299.49250,-12.49268543
299.49300,-13.10307425
299.49350,-13.10307425
299.49400,-12.18749102
299.49450,-8.219963722
299.49500,-0.2849091222
299.49550,7.955339886
299.49600,13.44883922
299.49650,14.36442245
299.49700,11.92286719
299.49750,9.176117517
299.49800,7.955339886
299.49850,7.955339886
299.49900,6.734562255
299.49950,4.903395809
299.50000,5.513784624
299.50050,8.870923109
299.50100,11.00728396
299.50150,9.481311924
299.50200,7.34495107
299.50250,7.955339886
299.50300,9.481311924
299.50350,7.34495107
299.50400,2.767034955
299.50450,0.9358685086
299.50500,2.461840547
299.50550,2.767034955
299.50600,0.6306741009
299.50650,-0.2849091222
299.50700,0.3254796932
299.50750,0.3254796932
299.50800,-0.8952979376
299.50850,-0.5901035299
299.50900,1.851451732
299.50950,2.461840547
299.51000,0.02028528547
299.51050,-3.031658792
299.51100,-2.726464384
299.51150,-0.8952979376
299.51200,-1.200492345
299.51250,-3.031658792
299.51300,-3.336853199
299.51350,-2.116075568
299.51400,-0.5901035299
299.51450,0.02028528547
299.51500,-0.2849091222
299.51550,-2.421269976
299.51600,-4.55763083
299.51650,-4.252436422
299.51700,0.02028528547
299.51750,7.34495107
299.51800,13.14364482
299.51850,15.28000567
299.51900,13.75403363
299.51950,9.481311924
299.52000,4.293006993
299.52050,0.9358685086
299.52100,0.3254796932
299.52150,1.546257324
299.52200,2.461840547
299.52250,3.37742377
299.52300,4.903395809
299.52350,5.818979032
299.52400,4.903395809
299.52450,1.851451732
299.52500,0.02028528547
299.52550,0.3254796932
299.52600,2.461840547
299.52650,2.461840547
299.52700,0.02028528547
299.52750,-3.031658792
299.52800,-3.031658792
299.52850,0.02028528547
299.52900,2.461840547
299.52950,2.461840547
299.53000,0.3254796932
299.53050,-1.505686753
299.53100,-2.421269976
299.53150,-1.505686753
299.53200,-0.2849091222
299.53250,0.02028528547
299.53300,0.3254796932
299.53350,0.02028528547
299.53400,-1.200492345
299.53450,-2.421269976
299.53500,-3.336853199
299.53550,-3.642047607
299.53600,-2.421269976
299.53650,-0.8952979376
299.53700,0.02028528547
299.53750,0.3254796932
299.53800,0.3254796932
299.53850,0.9358685086
299.53900,1.851451732
299.53950,1.546257324
299.54000,-0.5901035299
299.54050,-2.726464384
299.54100,-3.031658792
299.54150,-1.810881161
299.54200,-1.200492345
299.54250,-1.810881161
299.54300,-1.200492345
299.54350,0.6306741009
299.54400,3.072229362
299.54450,2.461840547
299.54500,0.02028528547
299.54550,-1.810881161
299.54600,-2.726464384
299.54650,-2.726464384
299.54700,-2.421269976
299.54750,-1.505686753
299.54800,-0.5901035299
299.54850,-0.2849091222
299.54900,-0.5901035299
299.54950,-0.5901035299
299.55000,-0.2849091222
299.55050,0.02028528547
299.55100,0.6306741009
299.55150,0.9358685086
299.55200,1.546257324
299.55250,2.156646139
299.55300,2.156646139
299.55350,1.546257324
299.55400,0.02028528547
299.55450,-2.421269976
299.55500,-4.862825238
299.55550,-6.693991684
299.55600,-6.999186092
299.55650,-5.778408461
299.55700,-3.642047607
299.55750,-1.505686753
299.55800,0.3254796932
299.55850,1.241062916
299.55900,0.9358685086
299.55950,0.02028528547
299.56000,-1.505686753
299.56050,-3.031658792
299.56100,-3.947242015
299.56150,-3.947242015
299.56200,-3.947242015
299.56250,-4.55763083
299.56300,-4.55763083
299.56350,-1.200492345
299.56400,3.682618178
299.56450,7.039756663
299.56500,6.429367847
299.56550,4.598201401
299.56600,3.987812586
299.56650,3.37742377
299.56700,0.6306741009
299.56750,-1.810881161
299.56800,-1.505686753
299.56850,0.02028528547
299.56900,0.6306741009
299.56950,0.02028528547
299.57000,0.02028528547
299.57050,0.02028528547
299.57100,-4.252436422
299.57150,-10.96671339
299.57200,-13.10307425
299.57250,-8.52515813
299.57300,-3.336853199
299.57350,-2.421269976
299.57400,-3.947242015
299.57450,-3.947242015
299.57500,-1.810881161
299.57550,-0.5901035299
299.57600,-0.2849091222
299.57650,0.9358685086
299.57700,2.156646139
299.57750,2.156646139
299.57800,1.241062916
299.57850,0.9358685086
299.57900,1.241062916
299.57950,1.241062916
299.58000,1.546257324
299.58050,2.156646139
299.58100,2.767034955
299.58150,2.461840547
299.58200,2.461840547
299.58250,2.767034955
299.58300,2.767034955
299.58350,1.546257324
299.58400,1.241062916
299.58450,3.37742377
299.58500,6.734562255
299.58550,7.650145478
299.58600,5.818979032
299.58650,2.767034955
299.58700,0.9358685086
299.58750,0.6306741009
299.58800,1.241062916
299.58850,3.072229362
299.58900,4.903395809
299.58950,5.513784624
299.59000,4.293006993
299.59050,2.767034955
299.59100,2.461840547
299.59150,3.682618178
299.59200,3.37742377
299.59250,0.6306741009
299.59300,-2.421269976
299.59350,-3.947242015
299.59400,-3.031658792
299.59450,-1.810881161
299.59500,-2.421269976
299.59550,-5.168019645
299.59600,-6.693991684
299.59650,-4.252436422
299.59700,1.241062916
299.59750,4.293006993
299.59800,1.241062916
299.59850,-5.778408461
299.59900,-10.35632458
299.59950,-9.135546946
299.60000,-6.083602869
299.60050,-5.778408461
299.60100,-6.083602869
299.60150,-4.862825238
299.60200,-2.116075568
299.60250,-1.200492345
299.60300,-1.810881161
299.60350,-1.200492345
299.60400,-0.2849091222
299.60450,-0.8952979376
299.60500,-3.336853199
299.60550,-4.862825238
299.60600,-4.252436422
299.60650,-3.336853199
299.60700,-2.116075568
299.60750,0.3254796932
299.60800,3.37742377
299.60850,4.293006993
299.60900,1.546257324
299.60950,-1.810881161
299.61000,-3.031658792
299.61050,-2.726464384
299.61100,-2.421269976
299.61150,-3.031658792
299.61200,-3.642047607
299.61250,-3.336853199
299.61300,-1.505686753
299.61350,0.9358685086
299.61400,3.987812586
299.61450,5.208590216
299.61500,5.208590216
299.61550,5.208590216
299.61600,5.818979032
299.61650,5.818979032
299.61700,4.598201401
299.61750,3.072229362
299.61800,2.461840547
299.61850,2.156646139
299.61900,1.241062916
299.61950,0.3254796932
299.62000,-0.2849091222
299.62050,-0.2849091222
299.62100,0.02028528547
299.62150,1.241062916
299.62200,2.156646139
299.62250,1.241062916
299.62300,0.02028528547
299.62350,-0.5901035299
299.62400,0.3254796932
