"type","name","time_units","begin_time","frequency","count","units"
"signal","Ultium EMG-BRACHIORAD. RT","s",142.98000,2000,22000,"uV"

"time","value"
142.98000,-4.264638098
142.98050,3.670416502
142.98100,15.267804
142.98150,21.06649774
142.98200,17.70935926
142.98250,9.774304656
142.98300,0.9236668331
142.98350,-8.842554213
142.98400,-17.69319204
142.98450,-21.05033052
142.98500,-21.96591374
142.98550,-28.68019071
142.98600,-39.66718939
142.98650,-41.19316143
142.98700,-27.76460749
142.98750,-11.58930388
142.98800,-7.621776583
142.98850,-16.77760881
142.98900,-28.0698019
142.98950,-32.34252361
142.99000,-27.15421868
142.99050,-16.16722
142.99100,-5.180221321
142.99150,0.008083609999
142.99200,-0.2971107977
142.99250,-0.9074996131
142.99300,1.534055649
142.99350,5.196388541
142.99400,7.332749395
142.99450,7.637943803
142.99500,8.248332618
142.99550,9.774304656
142.99600,12.21585992
142.99650,14.96260959
142.99700,15.87819281
142.99750,14.04702636
142.99800,10.99508229
142.99850,7.637943803
142.99900,4.585999726
142.99950,1.228861241
143.00000,0.008083609999
143.00050,3.365222095
143.00100,8.248332618
143.00150,9.469110249
143.00200,6.722360579
143.00250,3.365222095
143.00300,1.839250056
143.00350,0.9236668331
143.00400,0.6184724254
143.00450,0.3132780177
143.00500,-0.2971107977
143.00550,-2.738666059
143.00600,-5.180221321
143.00650,-5.485415729
143.00700,-3.95944369
143.00750,-2.128277244
143.00800,0.6184724254
143.00850,5.196388541
143.00900,8.553527026
143.00950,8.858721433
143.01000,5.806777356
143.01050,2.144444464
143.01100,-1.212694021
143.01150,-5.790610136
143.01200,-7.92697099
143.01250,-3.349054875
143.01300,6.111971764
143.01350,13.43663755
143.01400,13.13144314
143.01450,9.469110249
143.01500,11.6054711
143.01550,20.45610893
143.01600,26.86519149
143.01650,23.2028586
143.01700,11.6054711
143.01750,0.6184724254
143.01800,-6.400998952
143.01850,-12.81008151
143.01900,-18.60877526
143.01950,-20.74513611
143.02000,-19.52435848
143.02050,-19.52435848
143.02100,-22.57630256
143.02150,-21.66071934
143.02200,-10.06333184
143.02250,9.163915841
143.02300,29.00155234
143.02350,44.56646713
143.02400,55.85866022
143.02450,61.96254837
143.02500,58.9106043
143.02550,44.87166154
143.02600,23.81324741
143.02650,1.228861241
143.02700,-15.25163678
143.02750,-23.18669138
143.02800,-26.84902427
143.02850,-34.78407887
143.02900,-45.46588314
143.02950,-46.38146636
143.03000,-28.98538512
143.03050,-6.400998952
143.03100,0.9236668331
143.03150,-8.842554213
143.03200,-18.30358085
143.03250,-13.11527592
143.03300,-0.2971107977
143.03350,5.501582949
143.03400,2.754833279
143.03450,0.008083609999
143.03500,1.534055649
143.03550,4.280805318
143.03600,5.196388541
143.03650,7.027554987
143.03700,8.553527026
143.03750,6.111971764
143.03800,-0.6023052054
143.03850,-5.485415729
143.03900,-3.95944369
143.03950,0.3132780177
143.04000,1.228861241
143.04050,-0.9074996131
143.04100,-1.212694021
143.04150,2.754833279
143.04200,6.111971764
143.04250,5.196388541
143.04300,2.144444464
143.04350,1.839250056
143.04400,3.97561091
143.04450,4.280805318
143.04500,1.839250056
143.04550,-0.2971107977
143.04600,-0.9074996131
143.04650,-1.517888429
143.04700,-3.654249282
143.04750,-5.790610136
143.04800,-6.400998952
143.04850,-5.180221321
143.04900,-3.349054875
143.04950,-2.128277244
143.05000,-2.128277244
143.05050,-3.349054875
143.05100,-5.180221321
143.05150,-5.485415729
143.05200,-5.180221321
143.05250,-5.485415729
143.05300,-5.790610136
143.05350,-4.569832506
143.05400,-0.9074996131
143.05450,1.228861241
143.05500,0.6184724254
143.05550,-0.9074996131
143.05600,-1.517888429
143.05650,-1.517888429
143.05700,-1.517888429
143.05750,-0.6023052054
143.05800,0.3132780177
143.05850,0.008083609999
143.05900,-1.823082836
143.05950,-3.349054875
143.06000,-2.738666059
143.06050,-1.212694021
143.06100,-1.517888429
143.06150,-2.738666059
143.06200,-3.043860467
143.06250,-2.433471652
143.06300,-4.264638098
143.06350,-8.537359806
143.06400,-10.67372066
143.06450,-7.011387767
143.06500,-1.823082836
143.06550,-0.9074996131
143.06600,-3.043860467
143.06650,-2.433471652
143.06700,2.144444464
143.06750,5.806777356
143.06800,5.196388541
143.06850,4.280805318
143.06900,6.722360579
143.06950,10.99508229
143.07000,12.52105433
143.07050,14.04702636
143.07100,19.2353313
143.07150,23.2028586
143.07200,18.93013689
143.07250,9.163915841
143.07300,4.891194133
143.07350,10.99508229
143.07400,19.5405257
143.07450,24.42363623
143.07500,25.94960826
143.07550,23.2028586
143.07600,9.469110249
143.07650,-15.55683118
143.07700,-40.58277261
143.07750,-50.65418807
143.07800,-45.16068873
143.07850,-35.08927328
143.07900,-26.84902427
143.07950,-19.21916408
143.08000,-10.67372066
143.08050,-2.433471652
143.08100,1.534055649
143.08150,1.534055649
143.08200,-0.9074996131
143.08250,-3.043860467
143.08300,-2.433471652
143.08350,-0.9074996131
143.08400,-1.517888429
143.08450,-4.264638098
143.08500,-5.180221321
143.08550,-3.349054875
143.08600,-1.517888429
143.08650,-2.128277244
143.08700,-4.875026913
143.08750,-7.92697099
143.08800,-9.147748621
143.08850,-7.011387767
143.08900,-1.517888429
143.08950,3.060027687
143.09000,3.365222095
143.09050,1.228861241
143.09100,1.534055649
143.09150,4.280805318
143.09200,5.501582949
143.09250,3.97561091
143.09300,2.754833279
143.09350,2.449638872
143.09400,1.228861241
143.09450,0.008083609999
143.09500,2.144444464
143.09550,7.94313821
143.09600,10.38469347
143.09650,6.417166172
143.09700,1.839250056
143.09750,2.449638872
143.09800,6.111971764
143.09850,6.417166172
143.09900,3.060027687
143.09950,1.228861241
143.10000,2.754833279
143.10050,4.585999726
143.10100,4.280805318
143.10150,3.97561091
143.10200,5.501582949
143.10250,7.027554987
143.10300,5.806777356
143.10350,2.754833279
143.10400,1.534055649
143.10450,2.754833279
143.10500,4.891194133
143.10550,6.417166172
143.10600,8.553527026
143.10650,9.774304656
143.10700,9.163915841
143.10750,7.027554987
143.10800,5.806777356
143.10850,4.891194133
143.10900,1.228861241
143.10950,-2.433471652
143.11000,-2.128277244
143.11050,2.144444464
143.11100,4.280805318
143.11150,0.3132780177
143.11200,-3.349054875
143.11250,-2.738666059
143.11300,0.3132780177
143.11350,1.228861241
143.11400,0.9236668331
143.11450,1.839250056
143.11500,4.585999726
143.11550,7.637943803
143.11600,11.6054711
143.11650,13.74183196
143.11700,7.332749395
143.11750,-5.485415729
143.11800,-15.25163678
143.11850,-15.25163678
143.11900,-10.67372066
143.11950,-7.316582175
143.12000,-4.569832506
143.12050,-1.823082836
143.12100,-4.264638098
143.12150,-11.58930388
143.12200,-14.03085914
143.12250,-6.400998952
143.12300,2.144444464
143.12350,3.97561091
143.12400,2.754833279
143.12450,4.280805318
143.12500,2.449638872
143.12550,-6.095804544
143.12600,-10.06333184
143.12650,0.3132780177
143.12700,13.74183196
143.12750,11.91066551
143.12800,-1.212694021
143.12850,-7.621776583
143.12900,-2.128277244
143.12950,1.228861241
143.13000,-3.043860467
143.13050,-4.569832506
143.13100,3.060027687
143.13150,12.82624873
143.13200,15.87819281
143.13250,14.35222077
143.13300,12.21585992
143.13350,8.858721433
143.13400,4.280805318
143.13450,0.9236668331
143.13500,-1.212694021
143.13550,-8.232165398
143.13600,-19.82955289
143.13650,-26.23863545
143.13700,-21.35552493
143.13750,-10.97891507
143.13800,-3.349054875
143.13850,0.008083609999
143.13900,2.449638872
143.13950,3.97561091
143.14000,3.365222095
143.14050,1.839250056
143.14100,0.9236668331
143.14150,0.6184724254
143.14200,1.534055649
143.14250,4.585999726
143.14300,8.248332618
143.14350,7.637943803
143.14400,1.839250056
143.14450,-4.569832506
143.14500,-7.316582175
143.14550,-6.095804544
143.14600,-3.043860467
143.14650,0.008083609999
143.14700,3.670416502
143.14750,6.111971764
143.14800,5.501582949
143.14850,2.144444464
143.14900,-0.9074996131
143.14950,-2.738666059
143.15000,-1.517888429
143.15050,3.670416502
143.15100,11.91066551
143.15150,16.18338722
143.15200,10.68988788
143.15250,0.008083609999
143.15300,-5.485415729
143.15350,-1.212694021
143.15400,3.365222095
143.15450,-0.6023052054
143.15500,-9.758137436
143.15550,-10.97891507
143.15600,0.008083609999
143.15650,14.96260959
143.15700,25.33921945
143.15750,28.08596912
143.15800,23.2028586
143.15850,10.99508229
143.15900,-4.569832506
143.15950,-18.91396967
143.16000,-27.76460749
143.16050,-31.12174598
143.16100,-26.54382986
143.16150,-12.1996927
143.16200,3.670416502
143.16250,8.858721433
143.16300,1.228861241
143.16350,-6.706193359
143.16400,-6.095804544
143.16450,-0.6023052054
143.16500,0.008083609999
143.16550,-4.875026913
143.16600,-9.758137436
143.16650,-11.58930388
143.16700,-12.50488711
143.16750,-13.42047033
143.16800,-14.64124796
143.16850,-18.30358085
143.16900,-23.79708019
143.16950,-25.62824664
143.17000,-19.52435848
143.17050,-8.842554213
143.17100,-1.517888429
143.17150,0.3132780177
143.17200,1.228861241
143.17250,2.449638872
143.17300,2.754833279
143.17350,1.534055649
143.17400,2.144444464
143.17450,4.585999726
143.17500,5.806777356
143.17550,4.585999726
143.17600,3.365222095
143.17650,3.670416502
143.17700,4.891194133
143.17750,7.027554987
143.17800,11.91066551
143.17850,18.31974807
143.17900,20.15091452
143.17950,15.87819281
143.18000,10.99508229
143.18050,11.6054711
143.18100,17.40416485
143.18150,21.98208096
143.18200,21.37169215
143.18250,16.79377603
143.18300,11.30027669
143.18350,6.722360579
143.18400,4.280805318
143.18450,2.754833279
143.18500,-1.517888429
143.18550,-10.36852625
143.18600,-18.91396967
143.18650,-22.27110815
143.18700,-19.52435848
143.18750,-16.16722
143.18800,-15.55683118
143.18850,-17.38799763
143.18900,-17.99838644
143.18950,-15.86202559
143.19000,-12.1996927
143.19050,-8.232165398
143.19100,-4.875026913
143.19150,-1.212694021
143.19200,1.839250056
143.19250,5.501582949
143.19300,10.07949906
143.19350,14.04702636
143.19400,13.43663755
143.19450,7.637943803
143.19500,1.839250056
143.19550,1.228861241
143.19600,3.670416502
143.19650,1.228861241
143.19700,-7.011387767
143.19750,-13.72566474
143.19800,-12.81008151
143.19850,-9.147748621
143.19900,-8.842554213
143.19950,-10.06333184
143.20000,-6.095804544
143.20050,0.9236668331
143.20100,5.806777356
143.20150,7.027554987
143.20200,7.94313821
143.20250,8.553527026
143.20300,5.196388541
143.20350,0.3132780177
143.20400,-0.6023052054
143.20450,3.365222095
143.20500,8.553527026
143.20550,11.30027669
143.20600,9.469110249
143.20650,1.534055649
143.20700,-11.28410947
143.20750,-21.35552493
143.20800,-19.21916408
143.20850,-6.095804544
143.20900,7.94313821
143.20950,14.96260959
143.21000,14.65741518
143.21050,12.52105433
143.21100,11.30027669
143.21150,11.6054711
143.21200,12.52105433
143.21250,12.21585992
143.21300,10.38469347
143.21350,7.332749395
143.21400,4.891194133
143.21450,3.060027687
143.21500,2.144444464
143.21550,1.534055649
143.21600,0.9236668331
143.21650,0.9236668331
143.21700,1.534055649
143.21750,3.060027687
143.21800,3.060027687
143.21850,1.228861241
143.21900,-0.6023052054
143.21950,-0.6023052054
143.22000,0.008083609999
143.22050,0.008083609999
143.22100,-0.6023052054
143.22150,0.008083609999
143.22200,2.144444464
143.22250,3.365222095
143.22300,3.060027687
143.22350,2.144444464
143.22400,0.008083609999
143.22450,-2.738666059
143.22500,-3.654249282
143.22550,-3.043860467
143.22600,-5.790610136
143.22650,-10.67372066
143.22700,-6.095804544
143.22750,10.99508229
143.22800,27.4755803
143.22850,31.1379132
143.22900,28.08596912
143.22950,27.1703859
143.23000,22.28727537
143.23050,5.196388541
143.23100,-8.842554213
143.23150,-1.517888429
143.23200,12.21585992
143.23250,-3.654249282
143.23300,-52.79054892
143.23350,-89.71907225
143.23400,-76.29051832
143.23450,-31.12174598
143.23500,0.008083609999
143.23550,0.3132780177
143.23600,-10.97891507
143.23650,-13.42047033
143.23700,-7.011387767
143.23750,-0.2971107977
143.23800,2.449638872
143.23850,2.449638872
143.23900,0.9236668331
143.23950,0.008083609999
143.24000,0.008083609999
143.24050,0.9236668331
143.24100,1.534055649
143.24150,3.365222095
143.24200,7.94313821
143.24250,12.82624873
143.24300,14.65741518
143.24350,14.65741518
143.24400,15.267804
143.24450,17.40416485
143.24500,18.31974807
143.24550,16.48858163
143.24600,12.52105433
143.24650,6.722360579
143.24700,-0.2971107977
143.24750,-9.452943029
143.24800,-18.60877526
143.24850,-24.40746901
143.24900,-23.18669138
143.24950,-14.64124796
143.25000,-3.95944369
143.25050,1.839250056
143.25100,3.365222095
143.25150,3.060027687
143.25200,2.449638872
143.25250,0.9236668331
143.25300,-2.738666059
143.25350,-8.537359806
143.25400,-14.03085914
143.25450,-16.77760881
143.25500,-16.47241441
143.25550,-14.94644237
143.25600,-13.42047033
143.25650,-10.06333184
143.25700,-2.738666059
143.25750,5.806777356
143.25800,10.99508229
143.25850,11.30027669
143.25900,11.30027669
143.25950,13.43663755
143.26000,13.43663755
143.26050,8.858721433
143.26100,5.196388541
143.26150,7.027554987
143.26200,13.74183196
143.26250,18.93013689
143.26300,18.31974807
143.26350,10.68988788
143.26400,-0.9074996131
143.26450,-10.67372066
143.26500,-10.67372066
143.26550,-0.9074996131
143.26600,7.332749395
143.26650,5.196388541
143.26700,-3.349054875
143.26750,-8.842554213
143.26800,-8.232165398
143.26850,-5.180221321
143.26900,-3.654249282
143.26950,-2.738666059
143.27000,-3.654249282
143.27050,-6.706193359
143.27100,-7.316582175
143.27150,0.008083609999
143.27200,13.43663755
143.27250,24.42363623
143.27300,28.69635793
143.27350,29.91713556
143.27400,30.83271879
143.27450,28.69635793
143.27500,24.72883063
143.27550,23.508053
143.27600,23.508053
143.27650,14.04702636
143.27700,-8.537359806
143.27750,-32.64771801
143.27800,-41.49835584
143.27850,-33.86849564
143.27900,-21.35552493
143.27950,-13.72566474
143.28000,-11.58930388
143.28050,-11.28410947
143.28100,-9.758137436
143.28150,-6.706193359
143.28200,-4.264638098
143.28250,-5.485415729
143.28300,-9.147748621
143.28350,-9.147748621
143.28400,-1.823082836
143.28450,7.94313821
143.28500,14.04702636
143.28550,15.87819281
143.28600,17.70935926
143.28650,18.93013689
143.28700,16.48858163
143.28750,8.248332618
143.28800,-5.180221321
143.28850,-21.05033052
143.28900,-33.86849564
143.28950,-37.22563413
143.29000,-32.0373292
143.29050,-24.71266341
143.29100,-17.38799763
143.29150,-5.790610136
143.29200,10.38469347
143.29250,21.98208096
143.29300,21.06649774
143.29350,13.74183196
143.29400,11.30027669
143.29450,15.267804
143.29500,19.2353313
143.29550,21.06649774
143.29600,22.59246978
143.29650,18.93013689
143.29700,5.196388541
143.29750,-13.42047033
143.29800,-24.1022746
143.29850,-22.88149697
143.29900,-17.99838644
143.29950,-16.77760881
143.30000,-15.86202559
143.30050,-10.36852625
143.30100,-2.738666059
143.30150,3.060027687
143.30200,6.722360579
143.30250,7.94313821
143.30300,5.806777356
143.30350,3.060027687
143.30400,4.585999726
143.30450,9.163915841
143.30500,12.21585992
143.30550,12.52105433
143.30600,15.5729984
143.30650,22.28727537
143.30700,23.81324741
143.30750,15.87819281
143.30800,4.891194133
143.30850,-2.128277244
143.30900,-8.537359806
143.30950,-18.91396967
143.31000,-28.37499631
143.31050,-27.15421868
143.31100,-15.86202559
143.31150,-5.790610136
143.31200,-5.180221321
143.31250,-10.36852625
143.31300,-12.50488711
143.31350,-7.621776583
143.31400,-0.2971107977
143.31450,3.365222095
143.31500,2.144444464
143.31550,0.008083609999
143.31600,0.3132780177
143.31650,4.280805318
143.31700,9.774304656
143.31750,14.65741518
143.31800,16.48858163
143.31850,11.6054711
143.31900,0.6184724254
143.31950,-9.758137436
143.32000,-13.72566474
143.32050,-11.89449829
143.32100,-11.58930388
143.32150,-13.72566474
143.32200,-11.89449829
143.32250,-3.654249282
143.32300,5.501582949
143.32350,10.99508229
143.32400,11.91066551
143.32450,10.38469347
143.32500,4.891194133
143.32550,-3.349054875
143.32600,-9.147748621
143.32650,-7.92697099
143.32700,-2.433471652
143.32750,-0.9074996131
143.32800,-8.537359806
143.32850,-22.27110815
143.32900,-31.42694038
143.32950,-28.37499631
143.33000,-14.03085914
143.33050,0.3132780177
143.33100,5.806777356
143.33150,3.365222095
143.33200,2.449638872
143.33250,8.858721433
143.33300,19.5405257
143.33350,27.1703859
143.33400,28.39116353
143.33450,23.81324741
143.33500,19.2353313
143.33550,21.37169215
143.33600,28.39116353
143.33650,29.61194116
143.33700,18.62494248
143.33750,2.144444464
143.33800,-5.790610136
143.33850,-4.569832506
143.33900,-4.875026913
143.33950,-12.50488711
143.34000,-21.05033052
143.34050,-21.35552493
143.34100,-14.64124796
143.34150,-7.92697099
143.34200,-5.790610136
143.34250,-7.011387767
143.34300,-7.92697099
143.34350,-4.875026913
143.34400,2.449638872
143.34450,10.99508229
143.34500,15.5729984
143.34550,16.18338722
143.34600,14.96260959
143.34650,10.68988788
143.34700,0.6184724254
143.34750,-9.452943029
143.34800,-11.28410947
143.34850,-4.264638098
143.34900,-0.6023052054
143.34950,-8.232165398
143.35000,-19.52435848
143.35050,-22.57630256
143.35100,-15.25163678
143.35150,-6.095804544
143.35200,-1.212694021
143.35250,-0.6023052054
143.35300,0.3132780177
143.35350,2.754833279
143.35400,4.891194133
143.35450,3.670416502
143.35500,0.3132780177
143.35550,-0.6023052054
143.35600,1.228861241
143.35650,1.839250056
143.35700,-3.95944369
143.35750,-12.50488711
143.35800,-16.77760881
143.35850,-14.64124796
143.35900,-9.147748621
143.35950,-0.6023052054
143.36000,13.13144314
143.36050,25.64441386
143.36100,26.86519149
143.36150,15.5729984
143.36200,5.196388541
143.36250,5.806777356
143.36300,12.82624873
143.36350,14.35222077
143.36400,7.637943803
143.36450,0.3132780177
143.36500,-0.9074996131
143.36550,1.228861241
143.36600,1.228861241
143.36650,0.3132780177
143.36700,3.97561091
143.36750,11.6054711
143.36800,14.04702636
143.36850,4.585999726
143.36900,-9.147748621
143.36950,-14.03085914
143.37000,-7.011387767
143.37050,1.534055649
143.37100,3.97561091
143.37150,1.534055649
143.37200,-1.823082836
143.37250,-6.095804544
143.37300,-9.147748621
143.37350,-8.842554213
143.37400,-6.095804544
143.37450,-5.790610136
143.37500,-7.92697099
143.37550,-8.232165398
143.37600,-5.485415729
143.37650,-1.823082836
143.37700,4.280805318
143.37750,16.18338722
143.37800,29.30674675
143.37850,35.4106349
143.37900,34.18985727
143.37950,32.05349642
143.38000,29.00155234
143.38050,18.31974807
143.38100,0.008083609999
143.38150,-16.16722
143.38200,-25.01785782
143.38250,-32.34252361
143.38300,-41.19316143
143.38350,-43.9399111
143.38400,-33.56330124
143.38450,-14.64124796
143.38500,0.9236668331
143.38550,5.501582949
143.38600,-1.517888429
143.38650,-13.11527592
143.38700,-17.38799763
143.38750,-9.452943029
143.38800,0.008083609999
143.38850,-3.349054875
143.38900,-18.30358085
143.38950,-27.45941308
143.39000,-22.88149697
143.39050,-13.72566474
143.39100,-10.06333184
143.39150,-7.011387767
143.39200,1.534055649
143.39250,10.68988788
143.39300,11.6054711
143.39350,6.722360579
143.39400,7.637943803
143.39450,14.96260959
143.39500,16.48858163
143.39550,7.332749395
143.39600,-2.128277244
143.39650,-0.6023052054
143.39700,10.38469347
143.39750,22.28727537
143.39800,29.00155234
143.39850,29.91713556
143.39900,25.33921945
143.39950,14.35222077
143.40000,2.144444464
143.40050,-3.043860467
143.40100,-3.043860467
143.40150,-8.232165398
143.40200,-24.40746901
143.40250,-40.88796702
143.40300,-41.49835584
143.40350,-24.40746901
143.40400,-5.180221321
143.40450,2.144444464
143.40500,0.008083609999
143.40550,-4.264638098
143.40600,-7.011387767
143.40650,-10.36852625
143.40700,-12.1996927
143.40750,-9.147748621
143.40800,-3.349054875
143.40850,-1.517888429
143.40900,-3.043860467
143.40950,0.008083609999
143.41000,9.469110249
143.41050,17.70935926
143.41100,19.2353313
143.41150,19.84572011
143.41200,25.94960826
143.41250,33.88466286
143.41300,36.32621813
143.41350,33.57946846
143.41400,29.30674675
143.41450,20.45610893
143.41500,2.144444464
143.41550,-21.05033052
143.41600,-36.0048565
143.41650,-34.78407887
143.41700,-23.79708019
143.41750,-12.1996927
143.41800,-4.569832506
143.41850,-0.2971107977
143.41900,2.449638872
143.41950,8.553527026
143.42000,17.09897044
143.42050,21.98208096
143.42100,18.31974807
143.42150,9.469110249
143.42200,2.144444464
143.42250,-3.043860467
143.42300,-7.621776583
143.42350,-7.92697099
143.42400,-0.2971107977
143.42450,7.637943803
143.42500,7.637943803
143.42550,2.449638872
143.42600,3.97561091
143.42650,12.52105433
143.42700,16.79377603
143.42750,10.68988788
143.42800,2.144444464
143.42850,-0.6023052054
143.42900,0.9236668331
143.42950,3.97561091
143.43000,6.722360579
143.43050,4.891194133
143.43100,-6.706193359
143.43150,-22.57630256
143.43200,-28.98538512
143.43250,-23.18669138
143.43300,-18.60877526
143.43350,-22.88149697
143.43400,-26.84902427
143.43450,-20.1347473
143.43500,-6.706193359
143.43550,5.196388541
143.43600,18.01455366
143.43650,32.66388523
143.43700,37.85219016
143.43750,20.15091452
143.43800,-9.452943029
143.43850,-26.84902427
143.43900,-21.66071934
143.43950,-6.706193359
143.44000,1.839250056
143.44050,3.97561091
143.44100,4.891194133
143.44150,3.670416502
143.44200,-3.349054875
143.44250,-13.72566474
143.44300,-19.21916408
143.44350,-15.86202559
143.44400,-8.537359806
143.44450,-3.349054875
143.44500,-3.043860467
143.44550,-5.790610136
143.44600,-9.147748621
143.44650,-10.67372066
143.44700,-10.36852625
143.44750,-8.537359806
143.44800,-6.095804544
143.44850,-4.569832506
143.44900,-6.095804544
143.44950,-10.36852625
143.45000,-12.81008151
143.45050,-7.621776583
143.45100,3.97561091
143.45150,16.79377603
143.45200,25.03402504
143.45250,27.4755803
143.45300,29.00155234
143.45350,32.66388523
143.45400,35.4106349
143.45450,29.91713556
143.45500,13.74183196
143.45550,-6.706193359
143.45600,-21.05033052
143.45650,-24.40746901
143.45700,-19.21916408
143.45750,-10.67372066
143.45800,-0.9074996131
143.45850,8.553527026
143.45900,15.267804
143.45950,18.62494248
143.46000,20.45610893
143.46050,21.06649774
143.46100,17.70935926
143.46150,8.553527026
143.46200,-1.212694021
143.46250,-6.706193359
143.46300,-7.011387767
143.46350,-5.485415729
143.46400,-3.349054875
143.46450,0.008083609999
143.46500,4.280805318
143.46550,5.806777356
143.46600,2.754833279
143.46650,-2.433471652
143.46700,-8.232165398
143.46750,-10.97891507
143.46800,-9.147748621
143.46850,-2.433471652
143.46900,4.891194133
143.46950,9.163915841
143.47000,10.07949906
143.47050,9.774304656
143.47100,9.774304656
143.47150,8.553527026
143.47200,5.501582949
143.47250,1.534055649
143.47300,-1.212694021
143.47350,-2.433471652
143.47400,-1.517888429
143.47450,0.008083609999
143.47500,0.3132780177
143.47550,-0.6023052054
143.47600,-1.212694021
143.47650,-0.2971107977
143.47700,-0.2971107977
143.47750,-1.212694021
143.47800,-1.212694021
143.47850,1.228861241
143.47900,4.585999726
143.47950,5.806777356
143.48000,6.111971764
143.48050,7.637943803
143.48100,7.637943803
143.48150,3.060027687
143.48200,-1.212694021
143.48250,-0.9074996131
143.48300,0.008083609999
143.48350,-6.706193359
143.48400,-19.21916408
143.48450,-25.62824664
143.48500,-20.43994171
143.48550,-13.11527592
143.48600,-10.97891507
143.48650,-9.758137436
143.48700,-3.654249282
143.48750,0.9236668331
143.48800,-2.433471652
143.48850,-8.537359806
143.48900,-5.180221321
143.48950,4.585999726
143.49000,6.111971764
143.49050,-5.180221321
143.49100,-16.77760881
143.49150,-17.69319204
143.49200,-10.97891507
143.49250,-4.264638098
143.49300,0.3132780177
143.49350,5.501582949
143.49400,7.94313821
143.49450,4.585999726
143.49500,-1.823082836
143.49550,-6.400998952
143.49600,-7.316582175
143.49650,-5.485415729
143.49700,-0.2971107977
143.49750,7.637943803
143.49800,14.35222077
143.49850,15.267804
143.49900,12.21585992
143.49950,9.469110249
143.50000,9.163915841
143.50050,10.68988788
143.50100,12.52105433
143.50150,12.82624873
143.50200,7.94313821
143.50250,-1.212694021
143.50300,-9.758137436
143.50350,-13.72566474
143.50400,-13.11527592
143.50450,-8.537359806
143.50500,-1.823082836
143.50550,3.670416502
143.50600,4.891194133
143.50650,4.280805318
143.50700,6.722360579
143.50750,10.07949906
143.50800,7.637943803
143.50850,-0.9074996131
143.50900,-8.232165398
143.50950,-9.147748621
143.51000,-4.569832506
143.51050,3.365222095
143.51100,15.267804
143.51150,23.81324741
143.51200,19.84572011
143.51250,7.027554987
143.51300,-1.212694021
143.51350,-1.823082836
143.51400,-6.400998952
143.51450,-23.49188578
143.51500,-44.85549432
143.51550,-60.11521471
143.51600,-67.13468608
143.51650,-62.55676997
143.51700,-38.14121735
143.51750,1.839250056
143.51800,34.18985727
143.51850,39.3781622
143.51900,27.1703859
143.51950,18.62494248
143.52000,17.09897044
143.52050,11.91066551
143.52100,2.449638872
143.52150,0.3132780177
143.52200,7.637943803
143.52250,11.30027669
143.52300,4.585999726
143.52350,-4.569832506
143.52400,-8.232165398
143.52450,-9.147748621
143.52500,-12.50488711
143.52550,-17.99838644
143.52600,-20.43994171
143.52650,-18.60877526
143.52700,-13.42047033
143.52750,-7.011387767
143.52800,-3.043860467
143.52850,-3.349054875
143.52900,-6.400998952
143.52950,-8.232165398
143.53000,-6.400998952
143.53050,-2.128277244
143.53100,3.670416502
143.53150,9.469110249
143.53200,11.6054711
143.53250,7.637943803
143.53300,2.449638872
143.53350,3.365222095
143.53400,10.68988788
143.53450,16.18338722
143.53500,15.267804
143.53550,11.6054711
143.53600,10.68988788
143.53650,10.68988788
143.53700,8.858721433
143.53750,8.248332618
143.53800,13.13144314
143.53850,18.62494248
143.53900,15.5729984
143.53950,3.97561091
143.54000,-3.043860467
143.54050,2.449638872
143.54100,14.96260959
143.54150,22.28727537
143.54200,21.06649774
143.54250,15.5729984
143.54300,7.637943803
143.54350,-2.738666059
143.54400,-12.1996927
143.54450,-15.25163678
143.54500,-13.42047033
143.54550,-11.89449829
143.54600,-9.452943029
143.54650,-0.2971107977
143.54700,12.21585992
143.54750,17.40416485
143.54800,9.774304656
143.54850,-0.2971107977
143.54900,-3.043860467
143.54950,0.9236668331
143.55000,4.891194133
143.55050,4.891194133
143.55100,-0.2971107977
143.55150,-12.50488711
143.55200,-28.98538512
143.55250,-39.9723838
143.55300,-37.53082854
143.55350,-23.79708019
143.55400,-7.316582175
143.55450,4.585999726
143.55500,10.38469347
143.55550,8.858721433
143.55600,3.060027687
143.55650,0.3132780177
143.55700,1.839250056
143.55750,2.754833279
143.55800,0.008083609999
143.55850,-0.2971107977
143.55900,6.722360579
143.55950,16.18338722
143.56000,18.31974807
143.56050,13.13144314
143.56100,9.469110249
143.56150,10.68988788
143.56200,11.91066551
143.56250,10.68988788
143.56300,11.6054711
143.56350,14.35222077
143.56400,13.43663755
143.56450,9.163915841
143.56500,8.553527026
143.56550,13.74183196
143.56600,15.5729984
143.56650,6.111971764
143.56700,-8.842554213
143.56750,-17.69319204
143.56800,-16.77760881
143.56850,-11.58930388
143.56900,-7.621776583
143.56950,-6.095804544
143.57000,-7.92697099
143.57050,-10.36852625
143.57100,-8.842554213
143.57150,-3.349054875
143.57200,0.008083609999
143.57250,-2.738666059
143.57300,-6.706193359
143.57350,-6.400998952
143.57400,-5.180221321
143.57450,-9.147748621
143.57500,-14.94644237
143.57550,-15.55683118
143.57600,-10.36852625
143.57650,-6.400998952
143.57700,-4.569832506
143.57750,-1.823082836
143.57800,2.449638872
143.57850,4.891194133
143.57900,5.501582949
143.57950,5.806777356
143.58000,5.501582949
143.58050,3.060027687
143.58100,0.3132780177
143.58150,0.008083609999
143.58200,1.534055649
143.58250,2.754833279
143.58300,5.196388541
143.58350,8.553527026
143.58400,8.248332618
143.58450,3.060027687
143.58500,-1.212694021
143.58550,0.008083609999
143.58600,3.060027687
143.58650,4.585999726
143.58700,11.30027669
143.58750,26.86519149
143.58800,40.59893983
143.58850,41.20932865
143.58900,33.88466286
143.58950,31.74830201
143.59000,32.96907964
143.59050,25.64441386
143.59100,10.07949906
143.59150,-5.180221321
143.59200,-22.88149697
143.59250,-51.56977129
143.59300,-83.6151841
143.59350,-94.60218278
143.59400,-72.93337983
143.59450,-35.39446768
143.59500,-4.875026913
143.59550,10.38469347
143.59600,16.18338722
143.59650,14.35222077
143.59700,7.332749395
143.59750,0.9236668331
143.59800,0.3132780177
143.59850,1.839250056
143.59900,-0.6023052054
143.59950,-6.400998952
143.60000,-8.232165398
143.60050,-5.485415729
143.60100,-2.128277244
143.60150,-1.517888429
143.60200,-0.9074996131
143.60250,2.144444464
143.60300,6.722360579
143.60350,8.858721433
143.60400,9.163915841
143.60450,10.07949906
143.60500,11.6054711
143.60550,10.99508229
143.60600,8.248332618
143.60650,7.027554987
143.60700,8.248332618
143.60750,5.501582949
143.60800,-4.875026913
143.60850,-17.08280322
143.60900,-21.35552493
143.60950,-18.60877526
143.61000,-17.99838644
143.61050,-21.35552493
143.61100,-20.74513611
143.61150,-12.81008151
143.61200,-4.264638098
143.61250,-2.128277244
143.61300,-3.043860467
143.61350,0.008083609999
143.61400,7.332749395
143.61450,13.74183196
143.61500,16.79377603
143.61550,18.31974807
143.61600,18.62494248
143.61650,18.31974807
143.61700,17.70935926
143.61750,18.01455366
143.61800,17.09897044
143.61850,12.52105433
143.61900,7.027554987
143.61950,4.280805318
143.62000,2.754833279
143.62050,1.228861241
143.62100,0.9236668331
143.62150,3.97561091
143.62200,6.111971764
143.62250,2.754833279
143.62300,-2.433471652
143.62350,-2.128277244
143.62400,2.754833279
143.62450,4.585999726
143.62500,1.534055649
143.62550,3.670416502
143.62600,14.35222077
143.62650,21.37169215
143.62700,12.52105433
143.62750,-5.180221321
143.62800,-15.55683118
143.62850,-12.81008151
143.62900,-6.706193359
143.62950,-4.569832506
143.63000,-5.180221321
143.63050,-6.095804544
143.63100,-9.147748621
143.63150,-14.03085914
143.63200,-14.33605355
143.63250,-6.400998952
143.63300,4.280805318
143.63350,9.774304656
143.63400,8.858721433
143.63450,6.417166172
143.63500,5.501582949
143.63550,4.891194133
143.63600,1.839250056
143.63650,-1.517888429
143.63700,-3.95944369
143.63750,-4.264638098
143.63800,-4.569832506
143.63850,-4.875026913
143.63900,-4.569832506
143.63950,-2.128277244
143.64000,0.3132780177
143.64050,-0.6023052054
143.64100,-6.095804544
143.64150,-11.28410947
143.64200,-11.58930388
143.64250,-7.316582175
143.64300,-0.9074996131
143.64350,3.670416502
143.64400,5.196388541
143.64450,2.754833279
143.64500,0.008083609999
143.64550,0.008083609999
143.64600,1.839250056
143.64650,3.060027687
143.64700,2.754833279
143.64750,4.280805318
143.64800,10.07949906
143.64850,16.18338722
143.64900,16.48858163
143.64950,8.553527026
143.65000,-1.823082836
143.65050,-5.485415729
143.65100,1.228861241
143.65150,12.82624873
143.65200,17.40416485
143.65250,10.99508229
143.65300,2.144444464
143.65350,0.9236668331
143.65400,5.196388541
143.65450,0.3132780177
143.65500,-18.30358085
143.65550,-38.14121735
143.65600,-43.63471669
143.65650,-35.39446768
143.65700,-24.1022746
143.65750,-15.55683118
143.65800,-7.92697099
143.65850,-0.2971107977
143.65900,3.060027687
143.65950,3.97561091
143.66000,6.722360579
143.66050,9.469110249
143.66100,5.806777356
143.66150,-4.264638098
143.66200,-14.33605355
143.66250,-18.91396967
143.66300,-21.35552493
143.66350,-20.74513611
143.66400,-10.06333184
143.66450,9.163915841
143.66500,22.59246978
143.66550,19.2353313
143.66600,9.163915841
143.66650,8.248332618
143.66700,13.43663755
143.66750,10.07949906
143.66800,-3.654249282
143.66850,-15.55683118
143.66900,-18.30358085
143.66950,-18.91396967
143.67000,-20.43994171
143.67050,-16.47241441
143.67100,-5.790610136
143.67150,0.008083609999
143.67200,-1.517888429
143.67250,0.008083609999
143.67300,12.52105433
143.67350,25.03402504
143.67400,26.86519149
143.67450,24.11844182
143.67500,26.55999708
143.67550,28.69635793
143.67600,20.45610893
143.67650,7.637943803
143.67700,2.449638872
143.67750,-0.2971107977
143.67800,-15.86202559
143.67850,-39.36199498
143.67900,-47.29704958
143.67950,-31.73213479
143.68000,-10.97891507
143.68050,-1.823082836
143.68100,-1.823082836
143.68150,0.008083609999
143.68200,5.196388541
143.68250,9.469110249
143.68300,10.99508229
143.68350,11.30027669
143.68400,9.163915841
143.68450,5.501582949
143.68500,3.97561091
143.68550,5.196388541
143.68600,4.891194133
143.68650,0.008083609999
143.68700,-4.569832506
143.68750,-3.043860467
143.68800,4.280805318
143.68850,11.6054711
143.68900,13.13144314
143.68950,7.332749395
143.69000,0.008083609999
143.69050,0.6184724254
143.69100,10.38469347
143.69150,19.2353313
143.69200,15.5729984
143.69250,3.365222095
143.69300,-4.875026913
143.69350,-4.569832506
143.69400,-2.128277244
143.69450,-1.517888429
143.69500,-0.2971107977
143.69550,0.9236668331
143.69600,-1.212694021
143.69650,-8.842554213
143.69700,-14.94644237
143.69750,-14.03085914
143.69800,-9.147748621
143.69850,-3.349054875
143.69900,3.97561091
143.69950,12.82624873
143.70000,17.40416485
143.70050,16.79377603
143.70100,16.48858163
143.70150,18.31974807
143.70200,15.87819281
143.70250,3.060027687
143.70300,-11.89449829
143.70350,-15.55683118
143.70400,-7.011387767
143.70450,3.97561091
143.70500,9.774304656
143.70550,12.21585992
143.70600,13.43663755
143.70650,10.68988788
143.70700,2.144444464
143.70750,-7.011387767
143.70800,-12.50488711
143.70850,-14.33605355
143.70900,-16.47241441
143.70950,-17.08280322
143.71000,-11.89449829
143.71050,-2.433471652
143.71100,2.754833279
143.71150,1.228861241
143.71200,-1.212694021
143.71250,0.008083609999
143.71300,1.839250056
143.71350,1.228861241
143.71400,0.3132780177
143.71450,4.585999726
143.71500,12.21585992
143.71550,15.5729984
143.71600,13.43663755
143.71650,11.6054711
143.71700,12.21585992
143.71750,10.38469347
143.71800,2.449638872
143.71850,-7.011387767
143.71900,-11.89449829
143.71950,-9.758137436
143.72000,-3.95944369
143.72050,1.228861241
143.72100,3.670416502
143.72150,1.839250056
143.72200,-0.2971107977
143.72250,0.9236668331
143.72300,7.94313821
143.72350,14.04702636
143.72400,14.04702636
143.72450,8.553527026
143.72500,3.365222095
143.72550,1.534055649
143.72600,1.839250056
143.72650,0.3132780177
143.72700,-6.095804544
143.72750,-16.47241441
143.72800,-23.79708019
143.72850,-21.96591374
143.72900,-12.81008151
143.72950,-5.485415729
143.73000,-4.875026913
143.73050,-6.706193359
143.73100,-3.043860467
143.73150,4.891194133
143.73200,9.774304656
143.73250,7.332749395
143.73300,0.6184724254
143.73350,-5.485415729
143.73400,-9.452943029
143.73450,-11.58930388
143.73500,-12.1996927
143.73550,-13.11527592
143.73600,-14.03085914
143.73650,-13.11527592
143.73700,-10.06333184
143.73750,-5.790610136
143.73800,-2.738666059
143.73850,-0.9074996131
143.73900,0.9236668331
143.73950,3.060027687
143.74000,5.196388541
143.74050,7.94313821
143.74100,10.68988788
143.74150,9.469110249
143.74200,2.754833279
143.74250,-5.790610136
143.74300,-10.97891507
143.74350,-11.28410947
143.74400,-9.758137436
143.74450,-6.706193359
143.74500,-0.9074996131
143.74550,5.196388541
143.74600,6.111971764
143.74650,0.9236668331
143.74700,-2.738666059
143.74750,0.6184724254
143.74800,7.637943803
143.74850,10.38469347
143.74900,8.248332618
143.74950,5.806777356
143.75000,4.280805318
143.75050,3.060027687
143.75100,3.060027687
143.75150,5.806777356
143.75200,6.722360579
143.75250,-0.2971107977
143.75300,-15.25163678
143.75350,-28.0698019
143.75400,-29.59577394
143.75450,-21.66071934
143.75500,-12.50488711
143.75550,-6.706193359
143.75600,-3.349054875
143.75650,0.6184724254
143.75700,5.501582949
143.75750,8.858721433
143.75800,9.469110249
143.75850,9.163915841
143.75900,9.469110249
143.75950,9.469110249
143.76000,7.332749395
143.76050,2.144444464
143.76100,-3.043860467
143.76150,-4.264638098
143.76200,-1.212694021
143.76250,1.228861241
143.76300,-0.6023052054
143.76350,-6.400998952
143.76400,-9.147748621
143.76450,-4.264638098
143.76500,4.585999726
143.76550,9.163915841
143.76600,6.417166172
143.76650,2.144444464
143.76700,0.6184724254
143.76750,1.228861241
143.76800,0.6184724254
143.76850,-0.9074996131
143.76900,-3.349054875
143.76950,-7.316582175
143.77000,-12.50488711
143.77050,-14.33605355
143.77100,-10.06333184
143.77150,-3.043860467
143.77200,0.3132780177
143.77250,3.060027687
143.77300,9.774304656
143.77350,21.37169215
143.77400,31.74830201
143.77450,35.4106349
143.77500,32.35869083
143.77550,26.25480267
143.77600,20.45610893
143.77650,15.87819281
143.77700,10.68988788
143.77750,0.3132780177
143.77800,-13.11527592
143.77850,-21.66071934
143.77900,-19.52435848
143.77950,-10.67372066
143.78000,-4.569832506
143.78050,-3.043860467
143.78100,-4.264638098
143.78150,-8.232165398
143.78200,-15.25163678
143.78250,-19.52435848
143.78300,-14.94644237
143.78350,-4.264638098
143.78400,4.280805318
143.78450,8.858721433
143.78500,13.43663755
143.78550,18.31974807
143.78600,19.2353313
143.78650,16.48858163
143.78700,14.35222077
143.78750,13.74183196
143.78800,10.38469347
143.78850,5.196388541
143.78900,5.501582949
143.78950,11.30027669
143.79000,10.68988788
143.79050,-3.349054875
143.79100,-21.05033052
143.79150,-25.01785782
143.79200,-14.64124796
143.79250,-5.790610136
143.79300,-9.147748621
143.79350,-15.25163678
143.79400,-9.758137436
143.79450,6.111971764
143.79500,15.267804
143.79550,4.585999726
143.79600,-17.99838644
143.79650,-31.73213479
143.79700,-24.71266341
143.79750,-6.400998952
143.79800,6.417166172
143.79850,7.332749395
143.79900,0.9236668331
143.79950,-4.569832506
143.80000,-5.180221321
143.80050,-0.6023052054
143.80100,3.670416502
143.80150,2.754833279
143.80200,-0.9074996131
143.80250,2.144444464
143.80300,16.48858163
143.80350,30.22232997
143.80400,29.91713556
143.80450,17.09897044
143.80500,5.806777356
143.80550,2.754833279
143.80600,3.060027687
143.80650,2.449638872
143.80700,1.839250056
143.80750,1.228861241
143.80800,-2.433471652
143.80850,-7.011387767
143.80900,-5.790610136
143.80950,-0.9074996131
143.81000,-2.128277244
143.81050,-11.89449829
143.81100,-17.69319204
143.81150,-10.06333184
143.81200,4.280805318
143.81250,10.38469347
143.81300,5.501582949
143.81350,-1.823082836
143.81400,-5.485415729
143.81450,-7.316582175
143.81500,-9.452943029
143.81550,-7.92697099
143.81600,0.6184724254
143.81650,13.74183196
143.81700,23.81324741
143.81750,25.64441386
143.81800,18.01455366
143.81850,5.501582949
143.81900,-3.043860467
143.81950,-2.128277244
143.82000,5.196388541
143.82050,7.637943803
143.82100,-1.517888429
143.82150,-16.77760881
143.82200,-26.23863545
143.82250,-27.76460749
143.82300,-25.01785782
143.82350,-20.1347473
143.82400,-9.758137436
143.82450,3.365222095
143.82500,12.82624873
143.82550,12.21585992
143.82600,4.585999726
143.82650,-3.654249282
143.82700,-9.452943029
143.82750,-10.97891507
143.82800,-7.011387767
143.82850,-0.2971107977
143.82900,3.97561091
143.82950,3.365222095
143.83000,2.449638872
143.83050,5.806777356
143.83100,10.99508229
143.83150,13.43663755
143.83200,12.82624873
143.83250,11.6054711
143.83300,9.774304656
143.83350,3.97561091
143.83400,-4.569832506
143.83450,-12.81008151
143.83500,-17.99838644
143.83550,-21.96591374
143.83600,-24.71266341
143.83650,-22.57630256
143.83700,-12.81008151
143.83750,-0.6023052054
143.83800,5.806777356
143.83850,5.501582949
143.83900,4.280805318
143.83950,5.501582949
143.84000,7.027554987
143.84050,6.111971764
143.84100,4.585999726
143.84150,4.280805318
143.84200,2.754833279
143.84250,-2.128277244
143.84300,-7.92697099
143.84350,-9.452943029
143.84400,-7.92697099
143.84450,-9.758137436
143.84500,-12.81008151
143.84550,-9.758137436
143.84600,2.754833279
143.84650,17.09897044
143.84700,25.33921945
143.84750,25.94960826
143.84800,22.59246978
143.84850,17.40416485
143.84900,10.99508229
143.84950,5.501582949
143.85000,-0.9074996131
143.85050,-13.42047033
143.85100,-31.73213479
143.85150,-45.46588314
143.85200,-44.85549432
143.85250,-31.12174598
143.85300,-14.94644237
143.85350,-3.654249282
143.85400,1.534055649
143.85450,2.754833279
143.85500,2.144444464
143.85550,3.060027687
143.85600,7.94313821
143.85650,13.43663755
143.85700,14.96260959
143.85750,11.30027669
143.85800,7.637943803
143.85850,7.027554987
143.85900,8.858721433
143.85950,8.858721433
143.86000,3.97561091
143.86050,-6.400998952
143.86100,-19.21916408
143.86150,-27.15421868
143.86200,-23.79708019
143.86250,-12.81008151
143.86300,-3.95944369
143.86350,-1.823082836
143.86400,-2.738666059
143.86450,-0.6023052054
143.86500,2.754833279
143.86550,3.365222095
143.86600,1.839250056
143.86650,3.670416502
143.86700,10.68988788
143.86750,14.96260959
143.86800,10.99508229
143.86850,2.754833279
143.86900,0.008083609999
143.86950,5.196388541
143.87000,13.74183196
143.87050,17.40416485
143.87100,13.74183196
143.87150,5.501582949
143.87200,-1.823082836
143.87250,-4.875026913
143.87300,-1.212694021
143.87350,4.891194133
143.87400,8.858721433
143.87450,9.469110249
143.87500,9.774304656
143.87550,10.99508229
143.87600,10.99508229
143.87650,8.248332618
143.87700,4.891194133
143.87750,2.754833279
143.87800,2.449638872
143.87850,2.754833279
143.87900,3.670416502
143.87950,5.501582949
143.88000,6.722360579
143.88050,7.637943803
143.88100,9.469110249
143.88150,11.91066551
143.88200,13.43663755
143.88250,12.82624873
143.88300,10.68988788
143.88350,8.248332618
143.88400,4.585999726
143.88450,-1.212694021
143.88500,-7.621776583
143.88550,-9.758137436
143.88600,-6.706193359
143.88650,-1.823082836
143.88700,-0.9074996131
143.88750,-4.569832506
143.88800,-10.36852625
143.88850,-13.42047033
143.88900,-13.72566474
143.88950,-12.81008151
143.89000,-11.28410947
143.89050,-6.400998952
143.89100,1.534055649
143.89150,8.553527026
143.89200,7.637943803
143.89250,-0.6023052054
143.89300,-9.758137436
143.89350,-13.42047033
143.89400,-10.97891507
143.89450,-4.875026913
143.89500,1.534055649
143.89550,5.806777356
143.89600,6.417166172
143.89650,4.280805318
143.89700,2.449638872
143.89750,2.754833279
143.89800,4.891194133
143.89850,6.111971764
143.89900,5.806777356
143.89950,5.196388541
143.90000,4.891194133
143.90050,5.806777356
143.90100,7.637943803
143.90150,8.248332618
143.90200,5.501582949
143.90250,0.008083609999
143.90300,-2.738666059
143.90350,-1.212694021
143.90400,1.228861241
143.90450,0.6184724254
143.90500,-1.823082836
143.90550,-2.738666059
143.90600,-2.433471652
143.90650,-3.349054875
143.90700,-6.706193359
143.90750,-10.67372066
143.90800,-13.42047033
143.90850,-13.11527592
143.90900,-8.232165398
143.90950,-1.212694021
143.91000,2.144444464
143.91050,1.534055649
143.91100,2.754833279
143.91150,8.248332618
143.91200,9.163915841
143.91250,-2.433471652
143.91300,-19.21916408
143.91350,-25.32305223
143.91400,-18.91396967
143.91450,-11.89449829
143.91500,-11.58930388
143.91550,-10.97891507
143.91600,-5.180221321
143.91650,1.839250056
143.91700,4.585999726
143.91750,3.670416502
143.91800,3.060027687
143.91850,1.839250056
143.91900,1.534055649
143.91950,5.806777356
143.92000,12.82624873
143.92050,15.5729984
143.92100,10.38469347
143.92150,3.670416502
143.92200,0.008083609999
143.92250,-1.212694021
143.92300,-0.9074996131
143.92350,6.111971764
143.92400,18.01455366
143.92450,23.508053
143.92500,15.5729984
143.92550,3.060027687
143.92600,-3.654249282
143.92650,-7.621776583
143.92700,-15.25163678
143.92750,-21.96591374
143.92800,-19.82955289
143.92850,-10.67372066
143.92900,-3.654249282
143.92950,-2.433471652
143.93000,-1.823082836
143.93050,-1.212694021
143.93100,-3.349054875
143.93150,-7.621776583
143.93200,-7.92697099
143.93250,-3.95944369
143.93300,-2.433471652
143.93350,-5.180221321
143.93400,-7.92697099
143.93450,-6.706193359
143.93500,-2.738666059
143.93550,1.534055649
143.93600,5.806777356
143.93650,7.94313821
143.93700,6.417166172
143.93750,4.280805318
143.93800,8.553527026
143.93850,17.40416485
143.93900,19.5405257
143.93950,9.774304656
143.94000,-2.433471652
143.94050,-5.485415729
143.94100,-0.9074996131
143.94150,1.839250056
143.94200,0.3132780177
143.94250,-0.9074996131
143.94300,-2.738666059
143.94350,-7.92697099
143.94400,-14.94644237
143.94450,-15.55683118
143.94500,-10.06333184
143.94550,-8.537359806
143.94600,-14.64124796
143.94650,-19.52435848
143.94700,-13.42047033
143.94750,-1.823082836
143.94800,2.449638872
143.94850,-1.517888429
143.94900,-4.569832506
143.94950,-1.212694021
143.95000,2.144444464
143.95050,1.534055649
143.95100,0.9236668331
143.95150,4.280805318
143.95200,8.858721433
143.95250,9.774304656
143.95300,9.163915841
143.95350,11.6054711
143.95400,16.48858163
143.95450,17.70935926
143.95500,14.04702636
143.95550,10.38469347
143.95600,10.07949906
143.95650,9.774304656
143.95700,6.417166172
143.95750,1.534055649
143.95800,-0.6023052054
143.95850,0.008083609999
143.95900,-0.6023052054
143.95950,-4.264638098
143.96000,-9.758137436
143.96050,-15.55683118
143.96100,-20.74513611
143.96150,-23.18669138
143.96200,-20.74513611
143.96250,-13.42047033
143.96300,-4.569832506
143.96350,2.449638872
143.96400,6.417166172
143.96450,5.806777356
143.96500,2.144444464
143.96550,0.008083609999
143.96600,4.280805318
143.96650,11.6054711
143.96700,14.65741518
143.96750,12.21585992
143.96800,10.07949906
143.96850,10.38469347
143.96900,9.163915841
143.96950,4.891194133
143.97000,1.228861241
143.97050,2.144444464
143.97100,4.585999726
143.97150,4.280805318
143.97200,1.534055649
143.97250,-0.2971107977
143.97300,-3.654249282
143.97350,-7.92697099
143.97400,-10.97891507
143.97450,-8.842554213
143.97500,-4.264638098
143.97550,-2.128277244
143.97600,-2.433471652
143.97650,-2.738666059
143.97700,-2.433471652
143.97750,-3.349054875
143.97800,-4.264638098
143.97850,-2.128277244
143.97900,3.060027687
143.97950,7.027554987
143.98000,7.027554987
143.98050,4.585999726
143.98100,3.97561091
143.98150,4.891194133
143.98200,5.196388541
143.98250,3.670416502
143.98300,3.365222095
143.98350,6.417166172
143.98400,11.6054711
143.98450,13.74183196
143.98500,8.858721433
143.98550,0.9236668331
143.98600,-0.6023052054
143.98650,4.891194133
143.98700,10.07949906
143.98750,6.111971764
143.98800,-4.569832506
143.98850,-10.97891507
143.98900,-7.011387767
143.98950,0.008083609999
143.99000,2.449638872
143.99050,0.3132780177
143.99100,-0.9074996131
143.99150,-0.9074996131
143.99200,-1.212694021
143.99250,-1.517888429
143.99300,0.008083609999
143.99350,1.839250056
143.99400,0.3132780177
143.99450,-3.349054875
143.99500,-6.706193359
143.99550,-9.147748621
143.99600,-12.50488711
143.99650,-14.33605355
143.99700,-11.58930388
143.99750,-5.790610136
143.99800,-2.433471652
143.99850,-1.212694021
143.99900,3.670416502
143.99950,12.82624873
144.00000,19.84572011
144.00050,21.06649774
144.00100,19.2353313
144.00150,16.48858163
144.00200,12.52105433
144.00250,8.248332618
144.00300,5.806777356
144.00350,1.839250056
144.00400,-10.36852625
144.00450,-25.62824664
144.00500,-28.98538512
144.00550,-14.94644237
144.00600,2.144444464
144.00650,7.332749395
144.00700,1.839250056
144.00750,-3.654249282
144.00800,-5.790610136
144.00850,-6.095804544
144.00900,-5.180221321
144.00950,-1.823082836
144.01000,0.6184724254
144.01050,0.008083609999
144.01100,-1.517888429
144.01150,-1.212694021
144.01200,-0.6023052054
144.01250,-3.654249282
144.01300,-7.92697099
144.01350,-9.147748621
144.01400,-7.011387767
144.01450,-5.485415729
144.01500,-3.95944369
144.01550,-0.6023052054
144.01600,2.754833279
144.01650,3.365222095
144.01700,0.6184724254
144.01750,-1.517888429
144.01800,-2.433471652
144.01850,-2.738666059
144.01900,-3.043860467
144.01950,-4.264638098
144.02000,-5.790610136
144.02050,-6.400998952
144.02100,-4.264638098
144.02150,-2.128277244
144.02200,-2.433471652
144.02250,-0.9074996131
144.02300,7.94313821
144.02350,20.45610893
144.02400,23.81324741
144.02450,14.35222077
144.02500,3.060027687
144.02550,0.3132780177
144.02600,2.144444464
144.02650,-1.212694021
144.02700,-9.147748621
144.02750,-11.58930388
144.02800,-7.92697099
144.02850,-4.875026913
144.02900,-6.400998952
144.02950,-7.011387767
144.03000,-2.128277244
144.03050,4.891194133
144.03100,10.07949906
144.03150,13.13144314
144.03200,14.96260959
144.03250,14.96260959
144.03300,13.13144314
144.03350,9.774304656
144.03400,4.280805318
144.03450,-2.738666059
144.03500,-8.842554213
144.03550,-8.842554213
144.03600,-2.738666059
144.03650,4.280805318
144.03700,8.248332618
144.03750,9.163915841
144.03800,7.637943803
144.03850,2.754833279
144.03900,-3.043860467
144.03950,-3.95944369
144.04000,1.228861241
144.04050,5.806777356
144.04100,2.754833279
144.04150,-3.349054875
144.04200,-5.485415729
144.04250,-3.043860467
144.04300,-1.517888429
144.04350,0.008083609999
144.04400,7.332749395
144.04450,18.93013689
144.04500,23.81324741
144.04550,18.01455366
144.04600,10.38469347
144.04650,6.111971764
144.04700,0.008083609999
144.04750,-14.64124796
144.04800,-29.90096834
144.04850,-33.25810683
144.04900,-23.49188578
144.04950,-13.11527592
144.05000,-9.147748621
144.05050,-8.842554213
144.05100,-8.842554213
144.05150,-9.452943029
144.05200,-11.58930388
144.05250,-11.28410947
144.05300,-6.400998952
144.05350,-1.212694021
144.05400,-0.9074996131
144.05450,-3.654249282
144.05500,-3.654249282
144.05550,2.144444464
144.05600,9.163915841
144.05650,10.99508229
144.05700,7.027554987
144.05750,3.060027687
144.05800,3.670416502
144.05850,7.332749395
144.05900,8.858721433
144.05950,6.722360579
144.06000,2.754833279
144.06050,-1.212694021
144.06100,-7.621776583
144.06150,-13.72566474
144.06200,-13.72566474
144.06250,-6.095804544
144.06300,1.228861241
144.06350,1.839250056
144.06400,-2.128277244
144.06450,-4.875026913
144.06500,-3.95944369
144.06550,-3.349054875
144.06600,-4.875026913
144.06650,-6.095804544
144.06700,-5.180221321
144.06750,-3.043860467
144.06800,-0.2971107977
144.06850,1.228861241
144.06900,2.449638872
144.06950,2.754833279
144.07000,3.365222095
144.07050,4.280805318
144.07100,5.501582949
144.07150,6.722360579
144.07200,7.027554987
144.07250,3.97561091
144.07300,-3.043860467
144.07350,-10.36852625
144.07400,-10.97891507
144.07450,-4.875026913
144.07500,1.228861241
144.07550,1.839250056
144.07600,-2.128277244
144.07650,-6.400998952
144.07700,-7.316582175
144.07750,-4.264638098
144.07800,0.6184724254
144.07850,3.670416502
144.07900,3.670416502
144.07950,3.365222095
144.08000,6.111971764
144.08050,9.469110249
144.08100,9.163915841
144.08150,3.97561091
144.08200,-3.043860467
144.08250,-8.537359806
144.08300,-9.758137436
144.08350,-6.400998952
144.08400,-1.823082836
144.08450,-3.043860467
144.08500,-9.452943029
144.08550,-12.1996927
144.08600,-5.485415729
144.08650,5.196388541
144.08700,11.30027669
144.08750,13.13144314
144.08800,14.04702636
144.08850,13.74183196
144.08900,10.07949906
144.08950,5.806777356
144.09000,4.585999726
144.09050,1.839250056
144.09100,-5.180221321
144.09150,-11.28410947
144.09200,-7.92697099
144.09250,2.144444464
144.09300,10.38469347
144.09350,12.52105433
144.09400,12.21585992
144.09450,8.858721433
144.09500,2.144444464
144.09550,-3.043860467
144.09600,-1.823082836
144.09650,1.228861241
144.09700,-0.2971107977
144.09750,-4.875026913
144.09800,-5.485415729
144.09850,-3.349054875
144.09900,-5.180221321
144.09950,-7.92697099
144.10000,-2.128277244
144.10050,9.774304656
144.10100,15.267804
144.10150,10.38469347
144.10200,4.891194133
144.10250,7.027554987
144.10300,9.163915841
144.10350,2.449638872
144.10400,-8.232165398
144.10450,-14.03085914
144.10500,-11.28410947
144.10550,-3.654249282
144.10600,4.891194133
144.10650,11.91066551
144.10700,14.35222077
144.10750,10.68988788
144.10800,5.196388541
144.10850,2.449638872
144.10900,1.534055649
144.10950,-0.6023052054
144.11000,-3.95944369
144.11050,-5.790610136
144.11100,-4.264638098
144.11150,0.008083609999
144.11200,6.417166172
144.11250,12.21585992
144.11300,12.82624873
144.11350,7.94313821
144.11400,3.97561091
144.11450,4.585999726
144.11500,5.196388541
144.11550,-0.2971107977
144.11600,-8.537359806
144.11650,-11.58930388
144.11700,-7.92697099
144.11750,-3.654249282
144.11800,-1.823082836
144.11850,0.3132780177
144.11900,2.754833279
144.11950,0.9236668331
144.12000,-5.485415729
144.12050,-12.50488711
144.12100,-16.16722
144.12150,-16.77760881
144.12200,-12.81008151
144.12250,-0.9074996131
144.12300,15.87819281
144.12350,26.55999708
144.12400,25.03402504
144.12450,17.70935926
144.12500,12.82624873
144.12550,10.07949906
144.12600,4.891194133
144.12650,0.008083609999
144.12700,-1.212694021
144.12750,-0.2971107977
144.12800,-3.043860467
144.12850,-7.92697099
144.12900,-8.842554213
144.12950,-5.180221321
144.13000,-1.212694021
144.13050,0.6184724254
144.13100,2.144444464
144.13150,3.060027687
144.13200,3.060027687
144.13250,2.449638872
144.13300,1.839250056
144.13350,-0.2971107977
144.13400,-5.790610136
144.13450,-8.232165398
144.13500,-2.433471652
144.13550,7.637943803
144.13600,13.43663755
144.13650,10.99508229
144.13700,4.585999726
144.13750,-0.9074996131
144.13800,-4.264638098
144.13850,-3.043860467
144.13900,0.6184724254
144.13950,0.008083609999
144.14000,-10.67372066
144.14050,-25.62824664
144.14100,-31.42694038
144.14150,-26.23863545
144.14200,-18.60877526
144.14250,-15.55683118
144.14300,-12.81008151
144.14350,-7.316582175
144.14400,-2.738666059
144.14450,-2.738666059
144.14500,-4.264638098
144.14550,-2.128277244
144.14600,0.9236668331
144.14650,1.534055649
144.14700,0.3132780177
144.14750,1.228861241
144.14800,2.754833279
144.14850,2.449638872
144.14900,0.9236668331
144.14950,0.6184724254
144.15000,1.534055649
144.15050,0.3132780177
144.15100,-1.823082836
144.15150,-2.433471652
144.15200,0.008083609999
144.15250,2.144444464
144.15300,3.365222095
144.15350,4.585999726
144.15400,5.806777356
144.15450,6.111971764
144.15500,7.027554987
144.15550,9.774304656
144.15600,10.99508229
144.15650,5.501582949
144.15700,-4.875026913
144.15750,-11.28410947
144.15800,-7.316582175
144.15850,1.228861241
144.15900,4.280805318
144.15950,0.6184724254
144.16000,-1.212694021
144.16050,2.144444464
144.16100,6.722360579
144.16150,6.417166172
144.16200,3.365222095
144.16250,2.754833279
144.16300,6.417166172
144.16350,10.99508229
144.16400,12.82624873
144.16450,11.30027669
144.16500,7.94313821
144.16550,4.585999726
144.16600,2.449638872
144.16650,0.008083609999
144.16700,-4.569832506
144.16750,-10.67372066
144.16800,-13.42047033
144.16850,-10.67372066
144.16900,-7.316582175
144.16950,-7.621776583
144.17000,-9.147748621
144.17050,-7.316582175
144.17100,-1.517888429
144.17150,5.196388541
144.17200,9.163915841
144.17250,10.38469347
144.17300,10.07949906
144.17350,11.30027669
144.17400,12.82624873
144.17450,11.30027669
144.17500,1.228861241
144.17550,-14.64124796
144.17600,-28.68019071
144.17650,-31.12174598
144.17700,-21.66071934
144.17750,-7.621776583
144.17800,2.754833279
144.17850,6.722360579
144.17900,6.111971764
144.17950,4.891194133
144.18000,5.196388541
144.18050,4.585999726
144.18100,1.534055649
144.18150,-2.433471652
144.18200,-3.349054875
144.18250,-1.212694021
144.18300,0.008083609999
144.18350,-0.6023052054
144.18400,1.228861241
144.18450,7.94313821
144.18500,14.96260959
144.18550,15.87819281
144.18600,9.469110249
144.18650,0.008083609999
144.18700,-7.621776583
144.18750,-9.147748621
144.18800,-4.569832506
144.18850,2.144444464
144.18900,5.501582949
144.18950,4.585999726
144.19000,3.060027687
144.19050,2.144444464
144.19100,-0.6023052054
144.19150,-7.011387767
144.19200,-11.58930388
144.19250,-9.758137436
144.19300,-3.654249282
144.19350,0.3132780177
144.19400,0.6184724254
144.19450,0.3132780177
144.19500,1.228861241
144.19550,2.449638872
144.19600,2.449638872
144.19650,1.839250056
144.19700,1.534055649
144.19750,2.144444464
144.19800,2.754833279
144.19850,3.060027687
144.19900,3.365222095
144.19950,3.670416502
144.20000,3.365222095
144.20050,2.449638872
144.20100,0.6184724254
144.20150,-2.433471652
144.20200,-7.621776583
144.20250,-11.89449829
144.20300,-11.89449829
144.20350,-6.706193359
144.20400,-0.6023052054
144.20450,1.534055649
144.20500,0.9236668331
144.20550,0.3132780177
144.20600,0.9236668331
144.20650,1.839250056
144.20700,2.754833279
144.20750,5.806777356
144.20800,8.553527026
144.20850,6.417166172
144.20900,0.008083609999
144.20950,-4.569832506
144.21000,-1.517888429
144.21050,3.365222095
144.21100,3.97561091
144.21150,0.6184724254
144.21200,-1.212694021
144.21250,-0.2971107977
144.21300,-0.2971107977
144.21350,-4.264638098
144.21400,-7.92697099
144.21450,-7.92697099
144.21500,-5.790610136
144.21550,-4.569832506
144.21600,-4.569832506
144.21650,-4.875026913
144.21700,-3.95944369
144.21750,-1.517888429
144.21800,0.9236668331
144.21850,1.534055649
144.21900,-1.212694021
144.21950,-4.569832506
144.22000,-3.95944369
144.22050,0.008083609999
144.22100,3.97561091
144.22150,4.280805318
144.22200,3.060027687
144.22250,3.97561091
144.22300,6.111971764
144.22350,6.722360579
144.22400,4.585999726
144.22450,1.839250056
144.22500,0.6184724254
144.22550,1.228861241
144.22600,0.3132780177
144.22650,-2.128277244
144.22700,-4.264638098
144.22750,-3.654249282
144.22800,0.008083609999
144.22850,2.449638872
144.22900,1.228861241
144.22950,-2.738666059
144.23000,-5.180221321
144.23050,-3.654249282
144.23100,-0.2971107977
144.23150,0.9236668331
144.23200,0.008083609999
144.23250,-1.212694021
144.23300,-2.128277244
144.23350,-2.433471652
144.23400,-3.349054875
144.23450,-3.654249282
144.23500,-1.823082836
144.23550,-0.2971107977
144.23600,0.008083609999
144.23650,0.9236668331
144.23700,6.417166172
144.23750,13.74183196
144.23800,14.96260959
144.23850,7.637943803
144.23900,-1.823082836
144.23950,-6.095804544
144.24000,-4.264638098
144.24050,-1.823082836
144.24100,-2.738666059
144.24150,-3.95944369
144.24200,-2.738666059
144.24250,0.9236668331
144.24300,4.280805318
144.24350,5.196388541
144.24400,3.97561091
144.24450,2.144444464
144.24500,0.3132780177
144.24550,-1.823082836
144.24600,-3.95944369
144.24650,-3.654249282
144.24700,-1.823082836
144.24750,-2.433471652
144.24800,-6.400998952
144.24850,-10.36852625
144.24900,-11.89449829
144.24950,-13.42047033
144.25000,-18.91396967
144.25050,-23.79708019
144.25100,-19.82955289
144.25150,-5.790610136
144.25200,7.332749395
144.25250,11.6054711
144.25300,8.858721433
144.25350,7.332749395
144.25400,9.774304656
144.25450,11.91066551
144.25500,10.99508229
144.25550,9.469110249
144.25600,10.07949906
144.25650,11.91066551
144.25700,12.21585992
144.25750,9.469110249
144.25800,6.417166172
144.25850,4.280805318
144.25900,1.839250056
144.25950,-1.517888429
144.26000,-3.349054875
144.26050,-1.212694021
144.26100,3.670416502
144.26150,7.637943803
144.26200,8.248332618
144.26250,7.332749395
144.26300,6.111971764
144.26350,2.754833279
144.26400,-1.517888429
144.26450,-4.569832506
144.26500,-3.654249282
144.26550,-0.9074996131
144.26600,0.9236668331
144.26650,2.449638872
144.26700,3.060027687
144.26750,0.008083609999
144.26800,-6.706193359
144.26850,-11.58930388
144.26900,-10.36852625
144.26950,-5.790610136
144.27000,-4.569832506
144.27050,-6.706193359
144.27100,-6.706193359
144.27150,-1.823082836
144.27200,3.97561091
144.27250,6.417166172
144.27300,4.280805318
144.27350,-0.2971107977
144.27400,-4.264638098
144.27450,-4.569832506
144.27500,-2.433471652
144.27550,-0.6023052054
144.27600,-0.9074996131
144.27650,-2.128277244
144.27700,-1.823082836
144.27750,-0.9074996131
144.27800,-0.9074996131
144.27850,-0.6023052054
144.27900,1.839250056
144.27950,6.111971764
144.28000,9.163915841
144.28050,8.553527026
144.28100,7.027554987
144.28150,6.722360579
144.28200,7.637943803
144.28250,6.417166172
144.28300,2.754833279
144.28350,0.008083609999
144.28400,-0.6023052054
144.28450,0.6184724254
144.28500,0.9236668331
144.28550,-0.2971107977
144.28600,-2.128277244
144.28650,-2.128277244
144.28700,-0.9074996131
144.28750,-0.9074996131
144.28800,-2.128277244
144.28850,-2.738666059
144.28900,-1.517888429
144.28950,-0.6023052054
144.29000,-1.823082836
144.29050,-4.264638098
144.29100,-7.316582175
144.29150,-9.758137436
144.29200,-10.97891507
144.29250,-9.147748621
144.29300,-3.654249282
144.29350,3.365222095
144.29400,8.248332618
144.29450,7.332749395
144.29500,3.060027687
144.29550,0.008083609999
144.29600,-0.9074996131
144.29650,-1.212694021
144.29700,-3.95944369
144.29750,-7.011387767
144.29800,-6.706193359
144.29850,-3.654249282
144.29900,-0.2971107977
144.29950,0.3132780177
144.30000,0.9236668331
144.30050,3.060027687
144.30100,8.553527026
144.30150,15.87819281
144.30200,21.98208096
144.30250,21.98208096
144.30300,15.87819281
144.30350,9.469110249
144.30400,7.637943803
144.30450,7.637943803
144.30500,2.449638872
144.30550,-7.316582175
144.30600,-14.94644237
144.30650,-14.33605355
144.30700,-9.452943029
144.30750,-5.485415729
144.30800,-4.264638098
144.30850,-4.569832506
144.30900,-6.095804544
144.30950,-7.621776583
144.31000,-6.706193359
144.31050,-3.043860467
144.31100,-0.9074996131
144.31150,-3.349054875
144.31200,-6.400998952
144.31250,-6.095804544
144.31300,-4.264638098
144.31350,-3.95944369
144.31400,-3.95944369
144.31450,-1.517888429
144.31500,0.9236668331
144.31550,0.9236668331
144.31600,0.6184724254
144.31650,2.754833279
144.31700,4.585999726
144.31750,2.449638872
144.31800,0.008083609999
144.31850,1.228861241
144.31900,5.806777356
144.31950,7.332749395
144.32000,4.891194133
144.32050,3.060027687
144.32100,3.670416502
144.32150,3.97561091
144.32200,3.060027687
144.32250,2.754833279
144.32300,2.754833279
144.32350,1.534055649
144.32400,0.6184724254
144.32450,2.144444464
144.32500,2.754833279
144.32550,0.008083609999
144.32600,-3.95944369
144.32650,-4.264638098
144.32700,-1.823082836
144.32750,-0.6023052054
144.32800,-0.6023052054
144.32850,0.3132780177
144.32900,1.534055649
144.32950,0.6184724254
144.33000,2.754833279
144.33050,10.68988788
144.33100,14.65741518
144.33150,4.280805318
144.33200,-13.42047033
144.33250,-21.05033052
144.33300,-14.94644237
144.33350,-10.67372066
144.33400,-15.25163678
144.33450,-15.55683118
144.33500,-0.9074996131
144.33550,16.48858163
144.33600,19.5405257
144.33650,9.163915841
144.33700,2.449638872
144.33750,6.417166172
144.33800,10.38469347
144.33850,5.196388541
144.33900,-6.400998952
144.33950,-15.55683118
144.34000,-17.99838644
144.34050,-17.08280322
144.34100,-16.16722
144.34150,-15.86202559
144.34200,-12.81008151
144.34250,-5.790610136
144.34300,1.839250056
144.34350,6.111971764
144.34400,6.417166172
144.34450,6.417166172
144.34500,8.553527026
144.34550,11.30027669
144.34600,12.21585992
144.34650,12.82624873
144.34700,13.74183196
144.34750,13.13144314
144.34800,9.469110249
144.34850,5.196388541
144.34900,2.754833279
144.34950,1.839250056
144.35000,0.3132780177
144.35050,-2.128277244
144.35100,-3.349054875
144.35150,-3.95944369
144.35200,-5.180221321
144.35250,-7.011387767
144.35300,-7.316582175
144.35350,-5.790610136
144.35400,-4.264638098
144.35450,-3.95944369
144.35500,-4.569832506
144.35550,-5.485415729
144.35600,-7.316582175
144.35650,-9.147748621
144.35700,-7.011387767
144.35750,0.9236668331
144.35800,10.99508229
144.35850,15.5729984
144.35900,10.68988788
144.35950,2.449638872
144.36000,-1.823082836
144.36050,-0.9074996131
144.36100,1.228861241
144.36150,1.839250056
144.36200,1.534055649
144.36250,2.449638872
144.36300,2.754833279
144.36350,1.228861241
144.36400,0.008083609999
144.36450,0.008083609999
144.36500,0.3132780177
144.36550,0.008083609999
144.36600,-0.6023052054
144.36650,0.6184724254
144.36700,2.754833279
144.36750,1.534055649
144.36800,-1.517888429
144.36850,-3.654249282
144.36900,-3.043860467
144.36950,-2.433471652
144.37000,-3.95944369
144.37050,-4.875026913
144.37100,-3.349054875
144.37150,-0.9074996131
144.37200,-0.9074996131
144.37250,-2.738666059
144.37300,-3.95944369
144.37350,-3.95944369
144.37400,-3.654249282
144.37450,-3.349054875
144.37500,-2.433471652
144.37550,-1.823082836
144.37600,-3.654249282
144.37650,-7.316582175
144.37700,-7.621776583
144.37750,-2.128277244
144.37800,6.417166172
144.37850,12.82624873
144.37900,13.43663755
144.37950,9.774304656
144.38000,5.501582949
144.38050,2.144444464
144.38100,0.3132780177
144.38150,0.008083609999
144.38200,0.6184724254
144.38250,1.228861241
144.38300,0.9236668331
144.38350,1.534055649
144.38400,2.449638872
144.38450,2.449638872
144.38500,0.3132780177
144.38550,-1.212694021
144.38600,-0.6023052054
144.38650,1.839250056
144.38700,5.196388541
144.38750,7.332749395
144.38800,7.94313821
144.38850,7.027554987
144.38900,5.501582949
144.38950,5.196388541
144.39000,5.501582949
144.39050,4.280805318
144.39100,0.008083609999
144.39150,-5.790610136
144.39200,-9.758137436
144.39250,-11.89449829
144.39300,-14.03085914
144.39350,-16.16722
144.39400,-14.94644237
144.39450,-10.36852625
144.39500,-4.264638098
144.39550,0.008083609999
144.39600,3.060027687
144.39650,5.806777356
144.39700,7.94313821
144.39750,7.94313821
144.39800,6.417166172
144.39850,4.585999726
144.39900,3.670416502
144.39950,4.280805318
144.40000,5.806777356
144.40050,7.027554987
144.40100,7.637943803
144.40150,8.248332618
144.40200,8.248332618
144.40250,5.806777356
144.40300,0.9236668331
144.40350,-2.738666059
144.40400,-3.043860467
144.40450,-1.212694021
144.40500,-1.517888429
144.40550,-4.569832506
144.40600,-6.400998952
144.40650,-5.485415729
144.40700,-3.654249282
144.40750,-3.349054875
144.40800,-3.95944369
144.40850,-5.180221321
144.40900,-8.537359806
144.40950,-13.42047033
144.41000,-15.55683118
144.41050,-12.1996927
144.41100,-7.011387767
144.41150,-5.180221321
144.41200,-4.875026913
144.41250,-0.2971107977
144.41300,7.332749395
144.41350,12.21585992
144.41400,11.6054711
144.41450,8.553527026
144.41500,7.637943803
144.41550,6.417166172
144.41600,2.754833279
144.41650,0.3132780177
144.41700,3.060027687
144.41750,7.637943803
144.41800,8.248332618
144.41850,4.280805318
144.41900,1.839250056
144.41950,3.365222095
144.42000,5.806777356
144.42050,5.806777356
144.42100,5.196388541
144.42150,6.111971764
144.42200,7.94313821
144.42250,8.553527026
144.42300,7.637943803
144.42350,5.196388541
144.42400,0.008083609999
144.42450,-5.485415729
144.42500,-7.92697099
144.42550,-3.95944369
144.42600,2.144444464
144.42650,5.806777356
144.42700,4.280805318
144.42750,0.3132780177
144.42800,-4.569832506
144.42850,-11.89449829
144.42900,-21.35552493
144.42950,-28.37499631
144.43000,-27.15421868
144.43050,-17.99838644
144.43100,-7.316582175
144.43150,-2.128277244
144.43200,-2.128277244
144.43250,-0.6023052054
144.43300,4.891194133
144.43350,7.94313821
144.43400,3.060027687
144.43450,-5.180221321
144.43500,-7.621776583
144.43550,-1.212694021
144.43600,6.722360579
144.43650,9.774304656
144.43700,8.858721433
144.43750,7.94313821
144.43800,6.417166172
144.43850,3.365222095
144.43900,0.3132780177
144.43950,0.008083609999
144.44000,0.9236668331
144.44050,0.008083609999
144.44100,-1.517888429
144.44150,0.3132780177
144.44200,4.891194133
144.44250,7.027554987
144.44300,4.585999726
144.44350,1.839250056
144.44400,1.534055649
144.44450,1.534055649
144.44500,-0.6023052054
144.44550,-2.738666059
144.44600,-1.517888429
144.44650,0.008083609999
144.44700,-1.517888429
144.44750,-4.569832506
144.44800,-4.569832506
144.44850,-0.6023052054
144.44900,1.839250056
144.44950,1.228861241
144.45000,0.3132780177
144.45050,1.839250056
144.45100,4.280805318
144.45150,4.585999726
144.45200,0.008083609999
144.45250,-9.452943029
144.45300,-21.96591374
144.45350,-31.73213479
144.45400,-34.47888446
144.45450,-31.42694038
144.45500,-24.1022746
144.45550,-10.67372066
144.45600,8.858721433
144.45650,25.33921945
144.45700,26.25480267
144.45750,14.35222077
144.45800,4.280805318
144.45850,4.280805318
144.45900,8.553527026
144.45950,9.774304656
144.46000,10.07949906
144.46050,13.13144314
144.46100,14.35222077
144.46150,8.858721433
144.46200,0.6184724254
144.46250,-2.738666059
144.46300,-2.433471652
144.46350,-1.212694021
144.46400,0.3132780177
144.46450,4.585999726
144.46500,8.248332618
144.46550,7.332749395
144.46600,4.891194133
144.46650,6.417166172
144.46700,10.07949906
144.46750,8.858721433
144.46800,3.060027687
144.46850,0.008083609999
144.46900,2.144444464
144.46950,3.365222095
144.47000,-3.043860467
144.47050,-13.42047033
144.47100,-19.21916408
144.47150,-17.38799763
144.47200,-11.89449829
144.47250,-7.011387767
144.47300,-3.654249282
144.47350,-1.517888429
144.47400,-1.517888429
144.47450,-3.654249282
144.47500,-5.790610136
144.47550,-5.180221321
144.47600,-1.517888429
144.47650,1.228861241
144.47700,1.839250056
144.47750,1.534055649
144.47800,2.144444464
144.47850,3.060027687
144.47900,1.839250056
144.47950,0.008083609999
144.48000,0.008083609999
144.48050,2.754833279
144.48100,4.891194133
144.48150,4.585999726
144.48200,3.365222095
144.48250,1.228861241
144.48300,-3.043860467
144.48350,-7.92697099
144.48400,-7.92697099
144.48450,-2.738666059
144.48500,1.839250056
144.48550,2.144444464
144.48600,0.9236668331
144.48650,1.534055649
144.48700,3.670416502
144.48750,6.111971764
144.48800,10.07949906
144.48850,14.35222077
144.48900,15.87819281
144.48950,14.96260959
144.49000,14.04702636
144.49050,11.91066551
144.49100,3.97561091
144.49150,-7.92697099
144.49200,-15.55683118
144.49250,-13.72566474
144.49300,-9.452943029
144.49350,-10.36852625
144.49400,-12.81008151
144.49450,-10.97891507
144.49500,-5.790610136
144.49550,-2.128277244
144.49600,0.9236668331
144.49650,5.806777356
144.49700,8.858721433
144.49750,6.111971764
144.49800,0.008083609999
144.49850,-3.654249282
144.49900,-4.569832506
144.49950,-6.400998952
144.50000,-7.316582175
144.50050,-3.95944369
144.50100,2.449638872
144.50150,6.722360579
144.50200,7.027554987
144.50250,6.722360579
144.50300,6.722360579
144.50350,6.111971764
144.50400,5.806777356
144.50450,7.027554987
144.50500,7.94313821
144.50550,5.501582949
144.50600,0.3132780177
144.50650,-2.738666059
144.50700,-3.654249282
144.50750,-4.875026913
144.50800,-6.095804544
144.50850,-5.485415729
144.50900,-4.569832506
144.50950,-5.485415729
144.51000,-6.706193359
144.51050,-3.349054875
144.51100,3.060027687
144.51150,6.417166172
144.51200,3.365222095
144.51250,-1.517888429
144.51300,-5.180221321
144.51350,-8.537359806
144.51400,-11.89449829
144.51450,-12.81008151
144.51500,-9.758137436
144.51550,-8.232165398
144.51600,-10.67372066
144.51650,-12.50488711
144.51700,-7.92697099
144.51750,0.008083609999
144.51800,4.891194133
144.51850,6.111971764
144.51900,8.248332618
144.51950,12.52105433
144.52000,15.5729984
144.52050,15.87819281
144.52100,14.96260959
144.52150,13.74183196
144.52200,10.38469347
144.52250,3.97561091
144.52300,-1.823082836
144.52350,-3.349054875
144.52400,-0.6023052054
144.52450,3.060027687
144.52500,4.280805318
144.52550,1.534055649
144.52600,-1.823082836
144.52650,-3.043860467
144.52700,-1.517888429
144.52750,-1.212694021
144.52800,-5.180221321
144.52850,-9.758137436
144.52900,-12.1996927
144.52950,-12.50488711
144.53000,-12.1996927
144.53050,-10.67372066
144.53100,-6.095804544
144.53150,-0.2971107977
144.53200,3.060027687
144.53250,4.280805318
144.53300,5.806777356
144.53350,8.248332618
144.53400,10.07949906
144.53450,11.91066551
144.53500,15.267804
144.53550,17.70935926
144.53600,15.267804
144.53650,10.68988788
144.53700,10.68988788
144.53750,14.04702636
144.53800,12.21585992
144.53850,2.144444464
144.53900,-7.92697099
144.53950,-11.89449829
144.54000,-12.1996927
144.54050,-15.86202559
144.54100,-20.74513611
144.54150,-19.82955289
144.54200,-12.50488711
144.54250,-5.180221321
144.54300,-3.043860467
144.54350,-5.485415729
144.54400,-9.452943029
144.54450,-14.64124796
144.54500,-18.60877526
144.54550,-15.55683118
144.54600,-6.095804544
144.54650,1.228861241
144.54700,0.9236668331
144.54750,-5.180221321
144.54800,-8.537359806
144.54850,-5.180221321
144.54900,1.228861241
144.54950,5.806777356
144.55000,7.027554987
144.55050,5.806777356
144.55100,3.670416502
144.55150,2.754833279
144.55200,4.585999726
144.55250,7.94313821
144.55300,9.774304656
144.55350,9.469110249
144.55400,8.553527026
144.55450,6.722360579
144.55500,1.228861241
144.55550,-6.400998952
144.55600,-11.58930388
144.55650,-9.147748621
144.55700,-3.043860467
144.55750,0.008083609999
144.55800,-1.823082836
144.55850,-3.654249282
144.55900,-1.517888429
144.55950,2.449638872
144.56000,4.585999726
144.56050,3.060027687
144.56100,1.228861241
144.56150,2.449638872
144.56200,5.501582949
144.56250,8.248332618
144.56300,11.30027669
144.56350,15.87819281
144.56400,20.15091452
144.56450,18.62494248
144.56500,9.774304656
144.56550,0.008083609999
144.56600,-3.349054875
144.56650,-0.9074996131
144.56700,0.6184724254
144.56750,-1.517888429
144.56800,-5.790610136
144.56850,-10.36852625
144.56900,-16.77760881
144.56950,-23.49188578
144.57000,-24.1022746
144.57050,-15.55683118
144.57100,-4.569832506
144.57150,0.3132780177
144.57200,-0.6023052054
144.57250,-2.738666059
144.57300,-3.349054875
144.57350,-3.95944369
144.57400,-5.790610136
144.57450,-6.706193359
144.57500,-6.095804544
144.57550,-5.485415729
144.57600,-5.790610136
144.57650,-5.790610136
144.57700,-4.264638098
144.57750,-1.517888429
144.57800,2.754833279
144.57850,8.248332618
144.57900,13.13144314
144.57950,14.65741518
144.58000,13.13144314
144.58050,12.21585992
144.58100,12.82624873
144.58150,12.82624873
144.58200,10.68988788
144.58250,7.94313821
144.58300,6.417166172
144.58350,5.196388541
144.58400,2.449638872
144.58450,0.008083609999
144.58500,0.6184724254
144.58550,4.585999726
144.58600,6.722360579
144.58650,5.501582949
144.58700,3.670416502
144.58750,5.501582949
144.58800,9.774304656
144.58850,9.163915841
144.58900,2.144444464
144.58950,-4.875026913
144.59000,-6.095804544
144.59050,-3.043860467
144.59100,-0.2971107977
144.59150,1.534055649
144.59200,5.501582949
144.59250,9.774304656
144.59300,8.553527026
144.59350,2.754833279
144.59400,1.839250056
144.59450,9.163915841
144.59500,15.5729984
144.59550,11.6054711
144.59600,3.060027687
144.59650,0.9236668331
144.59700,4.280805318
144.59750,1.534055649
144.59800,-6.706193359
144.59850,-9.452943029
144.59900,-1.517888429
144.59950,3.97561091
144.60000,-3.95944369
144.60050,-17.99838644
144.60100,-21.05033052
144.60150,-11.58930388
144.60200,-2.738666059
144.60250,-3.95944369
144.60300,-10.06333184
144.60350,-11.28410947
144.60400,-6.400998952
144.60450,-0.6023052054
144.60500,1.228861241
144.60550,1.534055649
144.60600,2.144444464
144.60650,3.365222095
144.60700,2.449638872
144.60750,-0.9074996131
144.60800,-3.349054875
144.60850,-1.823082836
144.60900,1.228861241
144.60950,1.839250056
144.61000,0.6184724254
144.61050,2.144444464
144.61100,5.501582949
144.61150,6.417166172
144.61200,2.144444464
144.61250,-2.433471652
144.61300,-3.95944369
144.61350,-2.128277244
144.61400,-0.9074996131
144.61450,-1.212694021
144.61500,-2.128277244
144.61550,-3.349054875
144.61600,-3.95944369
144.61650,-3.95944369
144.61700,-2.738666059
144.61750,-1.823082836
144.61800,-1.212694021
144.61850,-1.212694021
144.61900,-2.738666059
144.61950,-5.485415729
144.62000,-5.180221321
144.62050,0.3132780177
144.62100,7.332749395
144.62150,7.94313821
144.62200,1.839250056
144.62250,-2.128277244
144.62300,0.6184724254
144.62350,6.417166172
144.62400,8.553527026
144.62450,7.332749395
144.62500,6.111971764
144.62550,5.501582949
144.62600,3.060027687
144.62650,0.3132780177
144.62700,0.008083609999
144.62750,-0.2971107977
144.62800,-2.738666059
144.62850,-6.400998952
144.62900,-7.011387767
144.62950,-3.043860467
144.63000,1.534055649
144.63050,2.754833279
144.63100,1.228861241
144.63150,-1.212694021
144.63200,-3.654249282
144.63250,-4.875026913
144.63300,-4.264638098
144.63350,-1.823082836
144.63400,0.9236668331
144.63450,2.144444464
144.63500,2.449638872
144.63550,3.060027687
144.63600,3.365222095
144.63650,3.365222095
144.63700,3.060027687
144.63750,2.449638872
144.63800,0.008083609999
144.63850,-3.349054875
144.63900,-5.790610136
144.63950,-4.264638098
144.64000,-1.517888429
144.64050,-0.6023052054
144.64100,-3.043860467
144.64150,-5.790610136
144.64200,-6.706193359
144.64250,-5.790610136
144.64300,-4.875026913
144.64350,-6.095804544
144.64400,-10.67372066
144.64450,-15.55683118
144.64500,-14.64124796
144.64550,-6.400998952
144.64600,3.060027687
144.64650,7.332749395
144.64700,6.722360579
144.64750,6.417166172
144.64800,8.553527026
144.64850,8.248332618
144.64900,3.670416502
144.64950,-1.517888429
144.65000,-3.95944369
144.65050,-3.95944369
144.65100,-4.569832506
144.65150,-4.875026913
144.65200,-3.95944369
144.65250,-2.738666059
144.65300,-1.823082836
144.65350,0.3132780177
144.65400,5.196388541
144.65450,9.163915841
144.65500,8.248332618
144.65550,3.670416502
144.65600,0.008083609999
144.65650,-1.212694021
144.65700,-4.264638098
144.65750,-9.452943029
144.65800,-12.81008151
144.65850,-10.97891507
144.65900,-6.706193359
144.65950,-3.95944369
144.66000,-3.349054875
144.66050,-0.9074996131
144.66100,3.060027687
144.66150,4.280805318
144.66200,0.008083609999
144.66250,-7.316582175
144.66300,-11.89449829
144.66350,-11.28410947
144.66400,-7.621776583
144.66450,-2.433471652
144.66500,3.670416502
144.66550,10.07949906
144.66600,14.35222077
144.66650,17.09897044
144.66700,19.5405257
144.66750,21.67688656
144.66800,21.67688656
144.66850,18.01455366
144.66900,12.21585992
144.66950,6.722360579
144.67000,1.228861241
144.67050,-2.433471652
144.67100,-2.738666059
144.67150,-0.9074996131
144.67200,-0.9074996131
144.67250,-4.569832506
144.67300,-7.92697099
144.67350,-7.621776583
144.67400,-6.400998952
144.67450,-7.92697099
144.67500,-9.452943029
144.67550,-6.400998952
144.67600,0.008083609999
144.67650,3.060027687
144.67700,1.534055649
144.67750,-0.6023052054
144.67800,-2.433471652
144.67850,-5.790610136
144.67900,-10.36852625
144.67950,-10.67372066
144.68000,-4.569832506
144.68050,1.839250056
144.68100,3.97561091
144.68150,3.365222095
144.68200,3.670416502
144.68250,4.891194133
144.68300,4.891194133
144.68350,3.97561091
144.68400,3.670416502
144.68450,3.670416502
144.68500,2.144444464
144.68550,0.6184724254
144.68600,0.008083609999
144.68650,-1.517888429
144.68700,-4.569832506
144.68750,-5.485415729
144.68800,-2.433471652
144.68850,2.754833279
144.68900,4.891194133
144.68950,2.754833279
144.69000,0.008083609999
144.69050,-1.212694021
144.69100,-0.6023052054
144.69150,0.008083609999
144.69200,-0.2971107977
144.69250,-1.517888429
144.69300,-2.738666059
144.69350,-2.433471652
144.69400,-2.128277244
144.69450,-3.95944369
144.69500,-7.316582175
144.69550,-7.316582175
144.69600,-2.128277244
144.69650,3.365222095
144.69700,4.280805318
144.69750,1.228861241
144.69800,0.3132780177
144.69850,5.501582949
144.69900,12.21585992
144.69950,14.96260959
144.70000,12.21585992
144.70050,7.027554987
144.70100,3.670416502
144.70150,3.670416502
144.70200,4.585999726
144.70250,4.585999726
144.70300,3.97561091
144.70350,5.196388541
144.70400,7.027554987
144.70450,6.722360579
144.70500,2.449638872
144.70550,-1.212694021
144.70600,-1.823082836
144.70650,0.008083609999
144.70700,1.228861241
144.70750,0.3132780177
144.70800,-0.6023052054
144.70850,-1.823082836
144.70900,-2.738666059
144.70950,-2.128277244
144.71000,1.839250056
144.71050,5.806777356
144.71100,3.97561091
144.71150,-2.433471652
144.71200,-7.92697099
144.71250,-7.011387767
144.71300,-2.433471652
144.71350,0.008083609999
144.71400,-0.6023052054
144.71450,-3.95944369
144.71500,-5.790610136
144.71550,-3.043860467
144.71600,2.754833279
144.71650,5.501582949
144.71700,-1.517888429
144.71750,-15.55683118
144.71800,-24.71266341
144.71850,-21.96591374
144.71900,-13.11527592
144.71950,-7.011387767
144.72000,-4.569832506
144.72050,0.008083609999
144.72100,8.553527026
144.72150,16.79377603
144.72200,18.01455366
144.72250,13.13144314
144.72300,7.637943803
144.72350,4.891194133
144.72400,4.585999726
144.72450,5.196388541
144.72500,5.196388541
144.72550,4.585999726
144.72600,3.670416502
144.72650,2.754833279
144.72700,1.839250056
144.72750,1.534055649
144.72800,0.9236668331
144.72850,-0.2971107977
144.72900,-2.433471652
144.72950,-4.569832506
144.73000,-6.095804544
144.73050,-6.706193359
144.73100,-7.011387767
144.73150,-7.011387767
144.73200,-7.621776583
144.73250,-8.842554213
144.73300,-8.232165398
144.73350,-3.654249282
144.73400,3.365222095
144.73450,8.248332618
144.73500,7.94313821
144.73550,4.585999726
144.73600,1.228861241
144.73650,-1.212694021
144.73700,-4.264638098
144.73750,-7.011387767
144.73800,-7.316582175
144.73850,-5.790610136
144.73900,-4.569832506
144.73950,-4.569832506
144.74000,-4.875026913
144.74050,-5.180221321
144.74100,-5.180221321
144.74150,-2.738666059
144.74200,2.449638872
144.74250,8.858721433
144.74300,11.30027669
144.74350,8.248332618
144.74400,3.670416502
144.74450,1.839250056
144.74500,2.449638872
144.74550,3.365222095
144.74600,2.754833279
144.74650,1.839250056
144.74700,1.839250056
144.74750,3.365222095
144.74800,5.501582949
144.74850,7.332749395
144.74900,6.722360579
144.74950,3.97561091
144.75000,2.144444464
144.75050,2.449638872
144.75100,2.449638872
144.75150,-0.6023052054
144.75200,-5.180221321
144.75250,-6.400998952
144.75300,-2.738666059
144.75350,0.3132780177
144.75400,-2.128277244
144.75450,-10.06333184
144.75500,-16.16722
144.75550,-16.47241441
144.75600,-11.58930388
144.75650,-5.790610136
144.75700,0.008083609999
144.75750,5.196388541
144.75800,8.248332618
144.75850,7.027554987
144.75900,2.754833279
144.75950,0.008083609999
144.76000,1.228861241
144.76050,5.806777356
144.76100,8.553527026
144.76150,6.111971764
144.76200,0.9236668331
144.76250,-3.043860467
144.76300,-3.95944369
144.76350,-2.128277244
144.76400,0.6184724254
144.76450,1.534055649
144.76500,0.008083609999
144.76550,-1.212694021
144.76600,2.754833279
144.76650,8.248332618
144.76700,6.111971764
144.76750,-5.790610136
144.76800,-17.08280322
144.76850,-16.77760881
144.76900,-6.400998952
144.76950,2.144444464
144.77000,3.060027687
144.77050,-0.2971107977
144.77100,-3.654249282
144.77150,-5.790610136
144.77200,-6.400998952
144.77250,-4.264638098
144.77300,-0.9074996131
144.77350,-0.6023052054
144.77400,-2.738666059
144.77450,-2.128277244
144.77500,2.754833279
144.77550,6.722360579
144.77600,5.501582949
144.77650,3.365222095
144.77700,6.417166172
144.77750,12.82624873
144.77800,14.96260959
144.77850,10.38469347
144.77900,4.585999726
144.77950,1.534055649
144.78000,0.008083609999
144.78050,-3.043860467
144.78100,-6.706193359
144.78150,-8.842554213
144.78200,-9.147748621
144.78250,-7.621776583
144.78300,-3.654249282
144.78350,3.365222095
144.78400,10.99508229
144.78450,14.04702636
144.78500,10.07949906
144.78550,3.060027687
144.78600,-1.212694021
144.78650,-2.433471652
144.78700,-3.349054875
144.78750,-4.875026913
144.78800,-4.875026913
144.78850,0.008083609999
144.78900,6.417166172
144.78950,8.858721433
144.79000,5.501582949
144.79050,-0.2971107977
144.79100,-3.95944369
144.79150,-4.264638098
144.79200,-3.654249282
144.79250,-3.349054875
144.79300,-3.349054875
144.79350,-3.349054875
144.79400,-4.875026913
144.79450,-7.621776583
144.79500,-10.06333184
144.79550,-9.452943029
144.79600,-4.875026913
144.79650,2.449638872
144.79700,9.163915841
144.79750,10.68988788
144.79800,7.332749395
144.79850,3.670416502
144.79900,3.365222095
144.79950,4.585999726
144.80000,3.060027687
144.80050,-0.9074996131
144.80100,-4.264638098
144.80150,-4.264638098
144.80200,-1.212694021
144.80250,2.754833279
144.80300,6.417166172
144.80350,8.248332618
144.80400,6.417166172
144.80450,2.449638872
144.80500,-0.9074996131
144.80550,-3.043860467
144.80600,-2.738666059
144.80650,-0.9074996131
144.80700,0.3132780177
144.80750,0.6184724254
144.80800,-0.6023052054
144.80850,-2.128277244
144.80900,-3.349054875
144.80950,-3.95944369
144.81000,-4.264638098
144.81050,-3.654249282
144.81100,-3.654249282
144.81150,-4.875026913
144.81200,-4.875026913
144.81250,-2.433471652
144.81300,0.008083609999
144.81350,-1.212694021
144.81400,-4.875026913
144.81450,-4.875026913
144.81500,0.9236668331
144.81550,6.417166172
144.81600,6.417166172
144.81650,3.365222095
144.81700,1.839250056
144.81750,2.449638872
144.81800,2.754833279
144.81850,1.534055649
144.81900,0.9236668331
144.81950,1.534055649
144.82000,2.144444464
144.82050,2.449638872
144.82100,2.144444464
144.82150,2.449638872
144.82200,3.670416502
144.82250,6.111971764
144.82300,8.248332618
144.82350,8.858721433
144.82400,7.637943803
144.82450,6.111971764
144.82500,5.806777356
144.82550,4.585999726
144.82600,1.534055649
144.82650,-1.212694021
144.82700,-3.349054875
144.82750,-6.400998952
144.82800,-11.58930388
144.82850,-15.86202559
144.82900,-14.94644237
144.82950,-10.06333184
144.83000,-6.706193359
144.83050,-6.706193359
144.83100,-7.92697099
144.83150,-7.316582175
144.83200,-5.790610136
144.83250,-5.180221321
144.83300,-4.875026913
144.83350,-3.349054875
144.83400,-1.212694021
144.83450,-0.6023052054
144.83500,-2.128277244
144.83550,-3.349054875
144.83600,-2.433471652
144.83650,-0.6023052054
144.83700,0.008083609999
144.83750,-0.6023052054
144.83800,-1.212694021
144.83850,-0.6023052054
144.83900,0.008083609999
144.83950,0.008083609999
144.84000,-0.9074996131
144.84050,-1.517888429
144.84100,-0.9074996131
144.84150,-0.6023052054
144.84200,-1.823082836
144.84250,-3.654249282
144.84300,-3.95944369
144.84350,-0.6023052054
144.84400,3.365222095
144.84450,6.417166172
144.84500,8.248332618
144.84550,10.07949906
144.84600,10.99508229
144.84650,8.248332618
144.84700,2.754833279
144.84750,-0.6023052054
144.84800,0.9236668331
144.84850,3.97561091
144.84900,3.97561091
144.84950,1.228861241
144.85000,0.008083609999
144.85050,0.9236668331
144.85100,1.839250056
144.85150,1.534055649
144.85200,1.534055649
144.85250,2.754833279
144.85300,3.97561091
144.85350,4.585999726
144.85400,4.280805318
144.85450,2.449638872
144.85500,-1.212694021
144.85550,-5.790610136
144.85600,-7.92697099
144.85650,-6.706193359
144.85700,-4.569832506
144.85750,-3.349054875
144.85800,-2.128277244
144.85850,-0.6023052054
144.85900,1.534055649
144.85950,3.670416502
144.86000,3.060027687
144.86050,-2.128277244
144.86100,-8.232165398
144.86150,-8.537359806
144.86200,-0.9074996131
144.86250,7.027554987
144.86300,8.553527026
144.86350,5.196388541
144.86400,2.754833279
144.86450,3.060027687
144.86500,2.449638872
144.86550,0.9236668331
144.86600,2.449638872
144.86650,7.027554987
144.86700,8.858721433
144.86750,4.585999726
144.86800,-2.128277244
144.86850,-5.485415729
144.86900,-2.433471652
144.86950,4.891194133
144.87000,13.13144314
144.87050,17.09897044
144.87100,14.35222077
144.87150,8.248332618
144.87200,3.670416502
144.87250,1.534055649
144.87300,-1.212694021
144.87350,-5.485415729
144.87400,-7.621776583
144.87450,-5.790610136
144.87500,-2.433471652
144.87550,-0.2971107977
144.87600,0.6184724254
144.87650,1.839250056
144.87700,2.144444464
144.87750,0.9236668331
144.87800,0.008083609999
144.87850,-0.9074996131
144.87900,-2.433471652
144.87950,-3.95944369
144.88000,-2.738666059
144.88050,-0.2971107977
144.88100,-1.212694021
144.88150,-5.180221321
144.88200,-4.875026913
144.88250,3.365222095
144.88300,13.43663755
144.88350,18.62494248
144.88400,18.01455366
144.88450,15.267804
144.88500,9.163915841
144.88550,-0.2971107977
144.88600,-7.011387767
144.88650,-4.569832506
144.88700,3.365222095
144.88750,6.722360579
144.88800,3.060027687
144.88850,-0.2971107977
144.88900,-0.6023052054
144.88950,-2.128277244
144.89000,-7.92697099
144.89050,-12.50488711
144.89100,-10.67372066
144.89150,-6.400998952
144.89200,-6.095804544
144.89250,-9.758137436
144.89300,-13.42047033
144.89350,-16.16722
144.89400,-18.30358085
144.89450,-17.99838644
144.89500,-14.03085914
144.89550,-8.537359806
144.89600,-5.790610136
144.89650,-4.569832506
144.89700,-1.823082836
144.89750,2.449638872
144.89800,5.501582949
144.89850,4.891194133
144.89900,2.754833279
144.89950,1.839250056
144.90000,2.754833279
144.90050,4.280805318
144.90100,5.196388541
144.90150,3.97561091
144.90200,2.144444464
144.90250,1.839250056
144.90300,4.585999726
144.90350,7.94313821
144.90400,9.163915841
144.90450,9.163915841
144.90500,10.38469347
144.90550,11.30027669
144.90600,6.111971764
144.90650,-5.180221321
144.90700,-16.16722
144.90750,-20.1347473
144.90800,-17.99838644
144.90850,-14.94644237
144.90900,-12.50488711
144.90950,-8.842554213
144.91000,-4.569832506
144.91050,-2.128277244
144.91100,-2.128277244
144.91150,-1.823082836
144.91200,-0.2971107977
144.91250,0.9236668331
144.91300,0.9236668331
144.91350,1.228861241
144.91400,2.449638872
144.91450,3.365222095
144.91500,3.060027687
144.91550,3.365222095
144.91600,5.806777356
144.91650,8.248332618
144.91700,8.858721433
144.91750,7.637943803
144.91800,6.417166172
144.91850,5.501582949
144.91900,4.280805318
144.91950,3.670416502
144.92000,5.806777356
144.92050,7.94313821
144.92100,7.332749395
144.92150,4.585999726
144.92200,2.449638872
144.92250,0.008083609999
144.92300,-4.875026913
144.92350,-10.97891507
144.92400,-12.1996927
144.92450,-7.011387767
144.92500,-1.517888429
144.92550,0.008083609999
144.92600,0.008083609999
144.92650,2.144444464
144.92700,3.97561091
144.92750,3.97561091
144.92800,4.585999726
144.92850,6.722360579
144.92900,6.722360579
144.92950,3.060027687
144.93000,0.3132780177
144.93050,1.534055649
144.93100,0.008083609999
144.93150,-9.758137436
144.93200,-19.82955289
144.93250,-20.43994171
144.93300,-14.64124796
144.93350,-14.03085914
144.93400,-18.30358085
144.93450,-17.08280322
144.93500,-7.011387767
144.93550,3.365222095
144.93600,7.94313821
144.93650,9.774304656
144.93700,10.99508229
144.93750,10.99508229
144.93800,13.13144314
144.93850,20.76130333
144.93900,27.78077471
144.93950,22.89766419
144.94000,7.027554987
144.94050,-4.875026913
144.94100,-3.654249282
144.94150,4.585999726
144.94200,12.21585992
144.94250,17.70935926
144.94300,20.45610893
144.94350,18.31974807
144.94400,14.96260959
144.94450,19.5405257
144.94500,30.52752438
144.94550,34.49505168
144.94600,25.94960826
144.94650,12.21585992
144.94700,1.534055649
144.94750,-9.758137436
144.94800,-22.88149697
144.94850,-30.51135716
144.94900,-29.90096834
144.94950,-29.59577394
144.95000,-33.56330124
144.95050,-33.25810683
144.95100,-22.57630256
144.95150,-9.147748621
144.95200,0.008083609999
144.95250,9.163915841
144.95300,19.5405257
144.95350,17.40416485
144.95400,-5.790610136
144.95450,-35.69966209
144.95500,-48.51782721
144.95550,-40.88796702
144.95600,-26.84902427
144.95650,-15.86202559
144.95700,-7.621776583
144.95750,-4.875026913
144.95800,-10.06333184
144.95850,-17.99838644
144.95900,-17.99838644
144.95950,-11.58930388
144.96000,-8.842554213
144.96050,-11.89449829
144.96100,-11.28410947
144.96150,-3.043860467
144.96200,5.806777356
144.96250,9.163915841
144.96300,10.07949906
144.96350,14.04702636
144.96400,19.84572011
144.96450,21.67688656
144.96500,18.62494248
144.96550,13.74183196
144.96600,9.469110249
144.96650,6.722360579
144.96700,5.806777356
144.96750,6.722360579
144.96800,6.722360579
144.96850,5.196388541
144.96900,3.060027687
144.96950,3.670416502
144.97000,6.111971764
144.97050,7.027554987
144.97100,4.891194133
144.97150,3.060027687
144.97200,3.060027687
144.97250,3.365222095
144.97300,0.9236668331
144.97350,0.008083609999
144.97400,3.670416502
144.97450,10.99508229
144.97500,15.87819281
144.97550,16.18338722
144.97600,14.04702636
144.97650,9.469110249
144.97700,2.449638872
144.97750,-3.349054875
144.97800,-5.485415729
144.97850,-8.537359806
144.97900,-20.43994171
144.97950,-36.92043972
144.98000,-42.71913347
144.98050,-29.90096834
144.98100,-9.452943029
144.98150,3.97561091
144.98200,9.163915841
144.98250,11.6054711
144.98300,13.13144314
144.98350,10.68988788
144.98400,5.806777356
144.98450,3.97561091
144.98500,4.891194133
144.98550,4.585999726
144.98600,1.839250056
144.98650,-0.2971107977
144.98700,0.008083609999
144.98750,1.228861241
144.98800,3.670416502
144.98850,6.111971764
144.98900,7.332749395
144.98950,6.111971764
144.99000,3.97561091
144.99050,3.670416502
144.99100,3.670416502
144.99150,2.144444464
144.99200,0.008083609999
144.99250,-0.2971107977
144.99300,0.008083609999
144.99350,-1.212694021
144.99400,-2.433471652
144.99450,-1.212694021
144.99500,0.008083609999
144.99550,-1.823082836
144.99600,-5.790610136
144.99650,-7.621776583
144.99700,-6.095804544
144.99750,-3.349054875
144.99800,0.6184724254
144.99850,8.553527026
144.99900,16.79377603
144.99950,16.79377603
145.00000,7.332749395
145.00050,-0.9074996131
145.00100,0.008083609999
145.00150,6.417166172
145.00200,9.469110249
145.00250,7.332749395
145.00300,4.585999726
145.00350,4.280805318
145.00400,3.97561091
145.00450,2.144444464
145.00500,0.6184724254
145.00550,0.3132780177
145.00600,0.9236668331
145.00650,1.534055649
145.00700,2.754833279
145.00750,4.280805318
145.00800,3.365222095
145.00850,0.6184724254
145.00900,-1.823082836
145.00950,-3.349054875
145.01000,-4.569832506
145.01050,-6.400998952
145.01100,-6.400998952
145.01150,-4.569832506
145.01200,-2.128277244
145.01250,-1.212694021
145.01300,-1.823082836
145.01350,-2.738666059
145.01400,-3.95944369
145.01450,-5.485415729
145.01500,-6.706193359
145.01550,-7.92697099
145.01600,-8.842554213
145.01650,-9.452943029
145.01700,-8.842554213
145.01750,-6.095804544
145.01800,-2.128277244
145.01850,2.449638872
145.01900,6.417166172
145.01950,7.332749395
145.02000,5.806777356
145.02050,4.585999726
145.02100,5.501582949
145.02150,7.027554987
145.02200,5.501582949
145.02250,0.3132780177
145.02300,-4.875026913
145.02350,-7.92697099
145.02400,-9.147748621
145.02450,-10.36852625
145.02500,-12.1996927
145.02550,-12.50488711
145.02600,-10.06333184
145.02650,-6.095804544
145.02700,-2.738666059
145.02750,-1.212694021
145.02800,0.008083609999
145.02850,1.228861241
145.02900,1.534055649
145.02950,0.008083609999
145.03000,-2.738666059
145.03050,-5.790610136
145.03100,-9.147748621
145.03150,-12.50488711
145.03200,-11.89449829
145.03250,-4.569832506
145.03300,5.196388541
145.03350,10.07949906
145.03400,7.027554987
145.03450,0.6184724254
145.03500,-2.738666059
145.03550,-2.738666059
145.03600,-1.212694021
145.03650,0.6184724254
145.03700,2.754833279
145.03750,4.280805318
145.03800,6.111971764
145.03850,9.163915841
145.03900,13.13144314
145.03950,16.48858163
145.04000,18.01455366
145.04050,17.40416485
145.04100,14.35222077
145.04150,8.553527026
145.04200,1.228861241
145.04250,-4.875026913
145.04300,-7.316582175
145.04350,-5.485415729
145.04400,-1.212694021
145.04450,0.9236668331
145.04500,-0.2971107977
145.04550,-2.128277244
145.04600,-1.517888429
145.04650,0.9236668331
145.04700,1.839250056
145.04750,-0.2971107977
145.04800,-2.738666059
145.04850,-3.043860467
145.04900,-3.95944369
145.04950,-7.011387767
145.05000,-8.842554213
145.05050,-6.095804544
145.05100,-0.2971107977
145.05150,3.060027687
145.05200,2.144444464
145.05250,-0.9074996131
145.05300,-3.349054875
145.05350,-4.569832506
145.05400,-4.569832506
145.05450,-3.349054875
145.05500,0.008083609999
145.05550,2.754833279
145.05600,2.449638872
145.05650,-0.2971107977
145.05700,-3.043860467
145.05750,-3.95944369
145.05800,-4.264638098
145.05850,-3.95944369
145.05900,0.008083609999
145.05950,9.469110249
145.06000,18.93013689
145.06050,21.37169215
145.06100,17.40416485
145.06150,14.04702636
145.06200,14.04702636
145.06250,13.13144314
145.06300,8.858721433
145.06350,4.891194133
145.06400,5.196388541
145.06450,6.111971764
145.06500,2.449638872
145.06550,-4.569832506
145.06600,-8.842554213
145.06650,-9.147748621
145.06700,-8.842554213
145.06750,-10.67372066
145.06800,-11.89449829
145.06850,-10.97891507
145.06900,-9.147748621
145.06950,-7.316582175
145.07000,-4.875026913
145.07050,-2.128277244
145.07100,-1.212694021
145.07150,-1.823082836
145.07200,-2.128277244
145.07250,-1.212694021
145.07300,-0.9074996131
145.07350,-1.823082836
145.07400,-0.6023052054
145.07450,3.670416502
145.07500,7.332749395
145.07550,5.806777356
145.07600,0.9236668331
145.07650,-1.517888429
145.07700,-1.517888429
145.07750,-0.9074996131
145.07800,-1.823082836
145.07850,-2.738666059
145.07900,-3.95944369
145.07950,-6.095804544
145.08000,-7.92697099
145.08050,-5.180221321
145.08100,0.008083609999
145.08150,4.280805318
145.08200,5.196388541
145.08250,6.111971764
145.08300,8.248332618
145.08350,6.111971764
145.08400,-2.128277244
145.08450,-10.97891507
145.08500,-12.1996927
145.08550,-7.92697099
145.08600,-5.485415729
145.08650,-6.400998952
145.08700,-5.180221321
145.08750,-0.2971107977
145.08800,3.365222095
145.08850,2.449638872
145.08900,-0.9074996131
145.08950,-2.128277244
145.09000,-0.9074996131
145.09050,-0.2971107977
145.09100,-1.517888429
145.09150,-2.738666059
145.09200,-3.349054875
145.09250,-3.654249282
145.09300,-3.654249282
145.09350,-2.738666059
145.09400,-1.212694021
145.09450,-1.212694021
145.09500,-2.738666059
145.09550,-3.349054875
145.09600,-1.517888429
145.09650,0.9236668331
145.09700,1.534055649
145.09750,1.534055649
145.09800,3.670416502
145.09850,7.332749395
145.09900,10.07949906
145.09950,11.6054711
145.10000,13.13144314
145.10050,14.35222077
145.10100,13.74183196
145.10150,10.99508229
145.10200,8.858721433
145.10250,8.248332618
145.10300,6.722360579
145.10350,2.754833279
145.10400,-1.517888429
145.10450,-3.654249282
145.10500,-2.738666059
145.10550,0.3132780177
145.10600,4.585999726
145.10650,5.806777356
145.10700,0.3132780177
145.10750,-10.36852625
145.10800,-17.69319204
145.10850,-13.72566474
145.10900,-2.433471652
145.10950,4.585999726
145.11000,1.839250056
145.11050,-5.485415729
145.11100,-7.92697099
145.11150,-5.790610136
145.11200,-6.706193359
145.11250,-14.94644237
145.11300,-21.96591374
145.11350,-19.82955289
145.11400,-11.58930388
145.11450,-4.569832506
145.11500,0.6184724254
145.11550,10.38469347
145.11600,19.84572011
145.11650,14.35222077
145.11700,-7.92697099
145.11750,-28.37499631
145.11800,-27.15421868
145.11850,-8.842554213
145.11900,4.585999726
145.11950,5.501582949
145.12000,2.754833279
145.12050,3.97561091
145.12100,3.97561091
145.12150,-0.9074996131
145.12200,-5.180221321
145.12250,-1.212694021
145.12300,8.248332618
145.12350,14.96260959
145.12400,15.87819281
145.12450,14.65741518
145.12500,13.43663755
145.12550,10.68988788
145.12600,7.637943803
145.12650,7.332749395
145.12700,10.38469347
145.12750,12.21585992
145.12800,9.469110249
145.12850,3.060027687
145.12900,-2.128277244
145.12950,-5.180221321
145.13000,-6.706193359
145.13050,-7.316582175
145.13100,-8.232165398
145.13150,-9.147748621
145.13200,-9.758137436
145.13250,-8.232165398
145.13300,-3.349054875
145.13350,1.839250056
145.13400,4.280805318
145.13450,2.144444464
145.13500,-1.212694021
145.13550,-3.043860467
145.13600,-3.349054875
145.13650,-3.349054875
145.13700,-4.264638098
145.13750,-5.180221321
145.13800,-5.485415729
145.13850,-4.875026913
145.13900,-3.349054875
145.13950,-0.6023052054
145.14000,2.754833279
145.14050,7.027554987
145.14100,12.52105433
145.14150,17.09897044
145.14200,17.70935926
145.14250,13.43663755
145.14300,7.332749395
145.14350,3.97561091
145.14400,5.806777356
145.14450,10.99508229
145.14500,15.5729984
145.14550,15.267804
145.14600,9.774304656
145.14650,3.365222095
145.14700,1.534055649
145.14750,3.670416502
145.14800,5.196388541
145.14850,2.449638872
145.14900,-0.9074996131
145.14950,0.008083609999
145.15000,4.280805318
145.15050,6.417166172
145.15100,3.060027687
145.15150,-1.823082836
145.15200,-2.433471652
145.15250,1.839250056
145.15300,6.111971764
145.15350,4.891194133
145.15400,0.008083609999
145.15450,-5.790610136
145.15500,-12.1996927
145.15550,-17.99838644
145.15600,-21.35552493
145.15650,-20.1347473
145.15700,-15.55683118
145.15750,-10.36852625
145.15800,-4.875026913
145.15850,0.008083609999
145.15900,3.060027687
145.15950,2.144444464
145.16000,-2.128277244
145.16050,-8.232165398
145.16100,-11.58930388
145.16150,-10.06333184
145.16200,-3.043860467
145.16250,6.111971764
145.16300,11.91066551
145.16350,12.21585992
145.16400,9.774304656
145.16450,8.858721433
145.16500,10.68988788
145.16550,11.91066551
145.16600,9.163915841
145.16650,3.670416502
145.16700,-0.6023052054
145.16750,-3.654249282
145.16800,-6.095804544
145.16850,-9.758137436
145.16900,-14.03085914
145.16950,-14.64124796
145.17000,-10.97891507
145.17050,-6.095804544
145.17100,-4.264638098
145.17150,-6.095804544
145.17200,-7.621776583
145.17250,-6.095804544
145.17300,-3.654249282
145.17350,-3.043860467
145.17400,-3.95944369
145.17450,-4.875026913
145.17500,-4.875026913
145.17550,-5.790610136
145.17600,-7.011387767
145.17650,-6.095804544
145.17700,-2.433471652
145.17750,0.3132780177
145.17800,1.228861241
145.17850,1.228861241
145.17900,2.449638872
145.17950,4.280805318
145.18000,4.891194133
145.18050,3.97561091
145.18100,4.585999726
145.18150,7.332749395
145.18200,11.6054711
145.18250,15.267804
145.18300,16.18338722
145.18350,13.13144314
145.18400,8.248332618
145.18450,4.891194133
145.18500,3.670416502
145.18550,0.008083609999
145.18600,-8.842554213
145.18650,-16.16722
145.18700,-14.03085914
145.18750,-3.654249282
145.18800,3.365222095
145.18850,0.6184724254
145.18900,-7.316582175
145.18950,-11.89449829
145.19000,-10.06333184
145.19050,-5.790610136
145.19100,-3.95944369
145.19150,-4.875026913
145.19200,-4.264638098
145.19250,-0.9074996131
145.19300,3.365222095
145.19350,4.891194133
145.19400,3.670416502
145.19450,3.670416502
145.19500,7.027554987
145.19550,9.774304656
145.19600,9.163915841
145.19650,6.722360579
145.19700,6.111971764
145.19750,6.111971764
145.19800,5.196388541
145.19850,5.806777356
145.19900,10.99508229
145.19950,16.48858163
145.20000,15.87819281
145.20050,9.469110249
145.20100,2.754833279
145.20150,-0.6023052054
145.20200,-1.823082836
145.20250,-1.517888429
145.20300,0.6184724254
145.20350,2.449638872
145.20400,-0.9074996131
145.20450,-7.92697099
145.20500,-10.06333184
145.20550,-2.738666059
145.20600,8.553527026
145.20650,15.267804
145.20700,12.52105433
145.20750,3.97561091
145.20800,-5.180221321
145.20850,-13.42047033
145.20900,-22.57630256
145.20950,-33.56330124
145.21000,-43.02432788
145.21050,-45.46588314
145.21100,-38.75160617
145.21150,-26.54382986
145.21200,-14.03085914
145.21250,-3.349054875
145.21300,3.670416502
145.21350,6.722360579
145.21400,7.027554987
145.21450,8.553527026
145.21500,12.82624873
145.21550,15.87819281
145.21600,14.35222077
145.21650,10.68988788
145.21700,8.553527026
145.21750,6.722360579
145.21800,2.754833279
145.21850,-3.043860467
145.21900,-8.842554213
145.21950,-14.03085914
145.22000,-15.55683118
145.22050,-10.06333184
145.22100,-0.2971107977
145.22150,4.280805318
145.22200,0.008083609999
145.22250,-6.706193359
145.22300,-7.316582175
145.22350,-1.823082836
145.22400,2.754833279
145.22450,5.196388541
145.22500,8.248332618
145.22550,10.38469347
145.22600,8.553527026
145.22650,4.585999726
145.22700,2.754833279
145.22750,3.670416502
145.22800,4.585999726
145.22850,6.111971764
145.22900,9.163915841
145.22950,11.91066551
145.23000,12.82624873
145.23050,17.09897044
145.23100,26.55999708
145.23150,32.35869083
145.23200,25.03402504
145.23250,8.553527026
145.23300,-1.823082836
145.23350,-2.128277244
145.23400,-0.2971107977
145.23450,-4.264638098
145.23500,-12.50488711
145.23550,-20.1347473
145.23600,-25.62824664
145.23650,-27.15421868
145.23700,-21.96591374
145.23750,-11.28410947
145.23800,-3.043860467
145.23850,-2.128277244
145.23900,-3.95944369
145.23950,-1.517888429
145.24000,4.891194133
145.24050,8.553527026
145.24100,4.585999726
145.24150,-2.433471652
145.24200,-5.485415729
145.24250,-2.128277244
145.24300,0.008083609999
145.24350,-4.875026913
145.24400,-13.42047033
145.24450,-15.55683118
145.24500,-7.011387767
145.24550,6.111971764
145.24600,15.267804
145.24650,17.09897044
145.24700,13.43663755
145.24750,7.027554987
145.24800,2.754833279
145.24850,5.806777356
145.24900,13.43663755
145.24950,17.09897044
145.25000,11.91066551
145.25050,4.891194133
145.25100,4.585999726
145.25150,9.163915841
145.25200,9.163915841
145.25250,1.839250056
145.25300,-6.706193359
145.25350,-9.758137436
145.25400,-5.790610136
145.25450,0.3132780177
145.25500,5.806777356
145.25550,9.469110249
145.25600,10.38469347
145.25650,8.248332618
145.25700,4.585999726
145.25750,2.754833279
145.25800,4.280805318
145.25850,5.501582949
145.25900,2.144444464
145.25950,-3.349054875
145.26000,-6.400998952
145.26050,-3.654249282
145.26100,1.228861241
145.26150,4.280805318
145.26200,4.280805318
145.26250,1.228861241
145.26300,-5.485415729
145.26350,-15.55683118
145.26400,-22.57630256
145.26450,-20.1347473
145.26500,-8.232165398
145.26550,3.060027687
145.26600,7.027554987
145.26650,5.196388541
145.26700,4.585999726
145.26750,8.858721433
145.26800,12.52105433
145.26850,7.027554987
145.26900,-7.011387767
145.26950,-20.1347473
145.27000,-22.27110815
145.27050,-15.86202559
145.27100,-9.147748621
145.27150,-5.790610136
145.27200,-3.349054875
145.27250,0.008083609999
145.27300,2.144444464
145.27350,1.839250056
145.27400,0.008083609999
145.27450,-1.823082836
145.27500,-4.264638098
145.27550,-5.180221321
145.27600,-1.823082836
145.27650,2.754833279
145.27700,4.280805318
145.27750,1.839250056
145.27800,1.534055649
145.27850,3.97561091
145.27900,5.196388541
145.27950,2.754833279
145.28000,1.228861241
145.28050,3.365222095
145.28100,6.417166172
145.28150,6.111971764
145.28200,2.754833279
145.28250,0.6184724254
145.28300,0.3132780177
145.28350,-0.2971107977
145.28400,-3.95944369
145.28450,-9.147748621
145.28500,-11.28410947
145.28550,-5.180221321
145.28600,7.637943803
145.28650,18.31974807
145.28700,17.09897044
145.28750,6.417166172
145.28800,-1.212694021
145.28850,-0.2971107977
145.28900,2.144444464
145.28950,0.6184724254
145.29000,-1.517888429
145.29050,-1.212694021
145.29100,-2.433471652
145.29150,-11.28410947
145.29200,-22.88149697
145.29250,-26.23863545
145.29300,-20.74513611
145.29350,-14.64124796
145.29400,-13.72566474
145.29450,-14.33605355
145.29500,-12.81008151
145.29550,-9.758137436
145.29600,-7.92697099
145.29650,-7.316582175
145.29700,-5.180221321
145.29750,-0.9074996131
145.29800,2.144444464
145.29850,3.365222095
145.29900,3.670416502
145.29950,5.501582949
145.30000,9.469110249
145.30050,11.6054711
145.30100,8.248332618
145.30150,1.534055649
145.30200,-1.212694021
145.30250,1.228861241
145.30300,4.585999726
145.30350,4.280805318
145.30400,2.449638872
145.30450,3.365222095
145.30500,3.670416502
145.30550,0.6184724254
145.30600,-3.349054875
145.30650,-1.212694021
145.30700,6.417166172
145.30750,11.91066551
145.30800,11.30027669
145.30850,9.163915841
145.30900,9.774304656
145.30950,11.6054711
145.31000,12.52105433
145.31050,12.82624873
145.31100,12.52105433
145.31150,10.38469347
145.31200,6.417166172
145.31250,3.670416502
145.31300,0.6184724254
145.31350,-7.011387767
145.31400,-19.82955289
145.31450,-27.45941308
145.31500,-24.40746901
145.31550,-15.55683118
145.31600,-8.842554213
145.31650,-3.654249282
145.31700,4.585999726
145.31750,13.13144314
145.31800,14.04702636
145.31850,7.637943803
145.31900,2.144444464
145.31950,0.9236668331
145.32000,0.6184724254
145.32050,-0.6023052054
145.32100,-0.6023052054
145.32150,1.534055649
145.32200,2.449638872
145.32250,0.008083609999
145.32300,-3.654249282
145.32350,-4.264638098
145.32400,-2.128277244
145.32450,-0.2971107977
145.32500,0.008083609999
145.32550,0.008083609999
145.32600,1.228861241
145.32650,4.891194133
145.32700,8.553527026
145.32750,7.027554987
145.32800,0.6184724254
145.32850,-3.95944369
145.32900,-1.823082836
145.32950,3.97561091
145.33000,6.417166172
145.33050,4.585999726
145.33100,3.670416502
145.33150,4.891194133
145.33200,4.280805318
145.33250,-0.9074996131
145.33300,-8.232165398
145.33350,-12.50488711
145.33400,-11.28410947
145.33450,-5.485415729
145.33500,1.534055649
145.33550,6.722360579
145.33600,7.94313821
145.33650,7.637943803
145.33700,7.94313821
145.33750,7.94313821
145.33800,6.417166172
145.33850,5.196388541
145.33900,5.501582949
145.33950,5.501582949
145.34000,3.97561091
145.34050,3.97561091
145.34100,6.417166172
145.34150,7.332749395
145.34200,3.365222095
145.34250,-0.9074996131
145.34300,0.008083609999
145.34350,3.365222095
145.34400,3.365222095
145.34450,2.754833279
145.34500,8.553527026
145.34550,16.48858163
145.34600,13.74183196
145.34650,-0.2971107977
145.34700,-10.97891507
145.34750,-10.06333184
145.34800,-6.095804544
145.34850,-9.147748621
145.34900,-14.03085914
145.34950,-9.758137436
145.35000,-0.2971107977
145.35050,2.754833279
145.35100,-2.128277244
145.35150,-6.706193359
145.35200,-6.095804544
145.35250,-4.569832506
145.35300,-5.485415729
145.35350,-6.706193359
145.35400,-6.706193359
145.35450,-7.92697099
145.35500,-10.67372066
145.35550,-10.67372066
145.35600,-5.790610136
145.35650,1.839250056
145.35700,8.858721433
145.35750,15.267804
145.35800,20.15091452
145.35850,21.06649774
145.35900,15.87819281
145.35950,10.07949906
145.36000,8.553527026
145.36050,10.07949906
145.36100,6.111971764
145.36150,-6.706193359
145.36200,-23.79708019
145.36250,-35.69966209
145.36300,-34.47888446
145.36350,-20.74513611
145.36400,-0.9074996131
145.36450,14.96260959
145.36500,21.98208096
145.36550,22.89766419
145.36600,23.2028586
145.36650,22.28727537
145.36700,15.87819281
145.36750,6.722360579
145.36800,1.839250056
145.36850,1.839250056
145.36900,-3.654249282
145.36950,-18.91396967
145.37000,-32.34252361
145.37050,-32.64771801
145.37100,-24.40746901
145.37150,-19.82955289
145.37200,-20.1347473
145.37250,-17.99838644
145.37300,-13.72566474
145.37350,-11.58930388
145.37400,-7.316582175
145.37450,7.94313821
145.37500,29.30674675
145.37550,36.02102372
145.37600,20.76130333
145.37650,-0.9074996131
145.37700,-10.97891507
145.37750,-8.842554213
145.37800,-5.790610136
145.37850,-6.095804544
145.37900,-5.790610136
145.37950,-2.433471652
145.38000,1.534055649
145.38050,4.280805318
145.38100,6.111971764
145.38150,6.722360579
145.38200,5.196388541
145.38250,3.365222095
145.38300,3.670416502
145.38350,4.280805318
145.38400,2.449638872
145.38450,0.008083609999
145.38500,0.008083609999
145.38550,1.839250056
145.38600,2.449638872
145.38650,0.6184724254
145.38700,0.008083609999
145.38750,1.534055649
145.38800,2.144444464
145.38850,-0.2971107977
145.38900,-2.738666059
145.38950,-1.517888429
145.39000,2.754833279
145.39050,7.332749395
145.39100,9.469110249
145.39150,9.163915841
145.39200,5.196388541
145.39250,-0.6023052054
145.39300,-4.264638098
145.39350,-3.654249282
145.39400,-2.433471652
145.39450,-5.180221321
145.39500,-11.58930388
145.39550,-15.55683118
145.39600,-14.64124796
145.39650,-11.58930388
145.39700,-7.621776583
145.39750,-3.349054875
145.39800,-0.6023052054
145.39850,-0.9074996131
145.39900,-0.6023052054
145.39950,3.97561091
145.40000,10.99508229
145.40050,11.91066551
145.40100,4.585999726
145.40150,-3.95944369
145.40200,-7.621776583
145.40250,-6.706193359
145.40300,-4.875026913
145.40350,-3.95944369
145.40400,-3.349054875
145.40450,-4.569832506
145.40500,-6.706193359
145.40550,-7.92697099
145.40600,-7.011387767
145.40650,-3.654249282
145.40700,1.534055649
145.40750,8.553527026
145.40800,13.13144314
145.40850,11.6054711
145.40900,5.196388541
145.40950,0.008083609999
145.41000,-0.6023052054
145.41050,-0.6023052054
145.41100,-1.212694021
145.41150,-0.9074996131
145.41200,2.449638872
145.41250,6.417166172
145.41300,7.332749395
145.41350,4.585999726
145.41400,3.060027687
145.41450,5.806777356
145.41500,10.68988788
145.41550,12.21585992
145.41600,7.027554987
145.41650,-2.433471652
145.41700,-9.452943029
145.41750,-9.147748621
145.41800,-4.264638098
145.41850,0.008083609999
145.41900,2.754833279
145.41950,4.891194133
145.42000,4.280805318
145.42050,-0.6023052054
145.42100,-7.621776583
145.42150,-10.06333184
145.42200,-7.316582175
145.42250,-5.485415729
145.42300,-6.706193359
145.42350,-7.011387767
145.42400,-2.128277244
145.42450,5.501582949
145.42500,9.469110249
145.42550,8.858721433
145.42600,6.722360579
145.42650,5.501582949
145.42700,4.585999726
145.42750,3.97561091
145.42800,4.891194133
145.42850,6.722360579
145.42900,7.027554987
145.42950,5.501582949
145.43000,3.365222095
145.43050,1.534055649
145.43100,0.008083609999
145.43150,-1.823082836
145.43200,-3.043860467
145.43250,-3.95944369
145.43300,-5.790610136
145.43350,-7.621776583
145.43400,-6.706193359
145.43450,-3.654249282
145.43500,-2.433471652
145.43550,-5.180221321
145.43600,-9.758137436
145.43650,-12.50488711
145.43700,-12.50488711
145.43750,-11.28410947
145.43800,-8.842554213
145.43850,-3.95944369
145.43900,2.144444464
145.43950,8.858721433
145.44000,14.96260959
145.44050,20.45610893
145.44100,23.2028586
145.44150,23.2028586
145.44200,21.98208096
145.44250,21.98208096
145.44300,20.45610893
145.44350,15.5729984
145.44400,8.553527026
145.44450,2.144444464
145.44500,-3.043860467
145.44550,-9.758137436
145.44600,-16.16722
145.44650,-17.38799763
145.44700,-10.97891507
145.44750,-1.212694021
145.44800,5.806777356
145.44850,7.94313821
145.44900,5.501582949
145.44950,-0.2971107977
145.45000,-7.316582175
145.45050,-12.1996927
145.45100,-12.1996927
145.45150,-8.842554213
145.45200,-7.316582175
145.45250,-10.97891507
145.45300,-17.69319204
145.45350,-21.35552493
145.45400,-20.43994171
145.45450,-17.08280322
145.45500,-14.03085914
145.45550,-9.758137436
145.45600,-3.654249282
145.45650,2.754833279
145.45700,6.417166172
145.45750,7.027554987
145.45800,6.111971764
145.45850,4.280805318
145.45900,1.839250056
145.45950,1.839250056
145.46000,4.891194133
145.46050,6.111971764
145.46100,2.144444464
145.46150,-3.654249282
145.46200,-4.875026913
145.46250,-2.128277244
145.46300,-1.823082836
145.46350,-2.433471652
145.46400,3.670416502
145.46450,17.40416485
145.46500,25.94960826
145.46550,21.98208096
145.46600,11.91066551
145.46650,5.806777356
145.46700,2.754833279
145.46750,-1.517888429
145.46800,-6.400998952
145.46850,-9.147748621
145.46900,-13.11527592
145.46950,-21.35552493
145.47000,-26.54382986
145.47050,-21.05033052
145.47100,-10.97891507
145.47150,-8.232165398
145.47200,-12.1996927
145.47250,-10.67372066
145.47300,0.008083609999
145.47350,9.163915841
145.47400,10.07949906
145.47450,6.111971764
145.47500,4.280805318
145.47550,4.585999726
145.47600,3.365222095
145.47650,1.534055649
145.47700,0.008083609999
145.47750,-2.128277244
145.47800,-3.95944369
145.47850,-1.212694021
145.47900,7.637943803
145.47950,18.31974807
145.48000,25.94960826
145.48050,31.1379132
145.48100,34.49505168
145.48150,31.4431076
145.48200,18.93013689
145.48250,3.97561091
145.48300,-3.349054875
145.48350,-1.212694021
145.48400,3.365222095
145.48450,4.891194133
145.48500,2.449638872
145.48550,-0.9074996131
145.48600,-3.349054875
145.48650,-3.95944369
145.48700,-2.433471652
145.48750,-0.6023052054
145.48800,0.9236668331
145.48850,3.97561091
145.48900,7.332749395
145.48950,5.501582949
145.49000,-2.738666059
145.49050,-10.67372066
145.49100,-11.28410947
145.49150,-6.706193359
145.49200,-4.875026913
145.49250,-7.92697099
145.49300,-11.28410947
145.49350,-11.89449829
145.49400,-10.97891507
145.49450,-9.758137436
145.49500,-7.011387767
145.49550,-3.043860467
145.49600,0.008083609999
145.49650,3.670416502
145.49700,7.94313821
145.49750,8.553527026
145.49800,3.670416502
145.49850,1.534055649
145.49900,10.07949906
145.49950,20.45610893
145.50000,15.5729984
145.50050,-3.95944369
145.50100,-18.30358085
145.50150,-13.42047033
145.50200,-1.823082836
145.50250,-2.433471652
145.50300,-11.58930388
145.50350,-11.89449829
145.50400,-0.6023052054
145.50450,7.027554987
145.50500,3.97561091
145.50550,-1.212694021
145.50600,0.008083609999
145.50650,1.534055649
145.50700,-6.095804544
145.50750,-18.60877526
145.50800,-19.82955289
145.50850,-4.875026913
145.50900,12.21585992
145.50950,17.70935926
145.51000,11.30027669
145.51050,3.365222095
145.51100,0.3132780177
145.51150,-0.2971107977
145.51200,-3.654249282
145.51250,-9.147748621
145.51300,-13.72566474
145.51350,-16.47241441
145.51400,-17.38799763
145.51450,-15.86202559
145.51500,-12.1996927
145.51550,-7.011387767
145.51600,-3.95944369
145.51650,-3.654249282
145.51700,-4.569832506
145.51750,-4.264638098
145.51800,-2.433471652
145.51850,-0.6023052054
145.51900,0.008083609999
145.51950,0.6184724254
145.52000,1.228861241
145.52050,1.534055649
145.52100,1.839250056
145.52150,3.060027687
145.52200,4.280805318
145.52250,4.585999726
145.52300,3.365222095
145.52350,1.839250056
145.52400,0.008083609999
145.52450,-1.517888429
145.52500,-2.433471652
145.52550,-1.517888429
145.52600,-0.6023052054
145.52650,-2.738666059
145.52700,-7.011387767
145.52750,-7.621776583
145.52800,-0.6023052054
145.52850,9.469110249
145.52900,15.267804
145.52950,14.04702636
145.53000,10.38469347
145.53050,6.417166172
145.53100,1.839250056
145.53150,-2.738666059
145.53200,-5.790610136
145.53250,-4.569832506
145.53300,-1.212694021
145.53350,1.534055649
145.53400,3.365222095
145.53450,5.196388541
145.53500,7.637943803
145.53550,10.07949906
145.53600,10.99508229
145.53650,9.469110249
145.53700,7.332749395
145.53750,6.722360579
145.53800,5.806777356
145.53850,1.534055649
145.53900,-4.875026913
145.53950,-7.92697099
145.54000,-4.875026913
145.54050,-0.9074996131
145.54100,-1.212694021
145.54150,-5.790610136
145.54200,-10.67372066
145.54250,-12.81008151
145.54300,-11.58930388
145.54350,-5.790610136
145.54400,2.144444464
145.54450,8.248332618
145.54500,9.469110249
145.54550,7.94313821
145.54600,7.637943803
145.54650,8.553527026
145.54700,9.469110249
145.54750,10.68988788
145.54800,11.91066551
145.54850,12.52105433
145.54900,10.99508229
145.54950,7.027554987
145.55000,0.6184724254
145.55050,-6.095804544
145.55100,-8.537359806
145.55150,-1.823082836
145.55200,7.94313821
145.55250,10.68988788
145.55300,3.670416502
145.55350,-2.738666059
145.55400,-0.2971107977
145.55450,7.94313821
145.55500,13.13144314
145.55550,8.553527026
145.55600,-4.569832506
145.55650,-21.05033052
145.55700,-30.20616275
145.55750,-26.23863545
145.55800,-17.08280322
145.55850,-17.08280322
145.55900,-25.93344104
145.55950,-27.76460749
145.56000,-14.64124796
145.56050,1.228861241
145.56100,5.196388541
145.56150,0.3132780177
145.56200,-1.517888429
145.56250,-0.2971107977
145.56300,-2.433471652
145.56350,-7.92697099
145.56400,-8.232165398
145.56450,-2.433471652
145.56500,3.060027687
145.56550,4.891194133
145.56600,7.027554987
145.56650,9.774304656
145.56700,9.774304656
145.56750,5.806777356
145.56800,0.9236668331
145.56850,-1.823082836
145.56900,-3.043860467
145.56950,-1.517888429
145.57000,2.449638872
145.57050,4.585999726
145.57100,3.060027687
145.57150,1.839250056
145.57200,3.97561091
145.57250,5.501582949
145.57300,2.754833279
145.57350,2.754833279
145.57400,12.82624873
145.57450,24.72883063
145.57500,21.06649774
145.57550,2.144444464
145.57600,-11.28410947
145.57650,-6.400998952
145.57700,7.94313821
145.57750,15.5729984
145.57800,14.96260959
145.57850,14.04702636
145.57900,15.267804
145.57950,14.04702636
145.58000,9.774304656
145.58050,6.417166172
145.58100,4.280805318
145.58150,0.008083609999
145.58200,-7.011387767
145.58250,-9.758137436
145.58300,-3.654249282
145.58350,6.111971764
145.58400,11.30027669
145.58450,9.774304656
145.58500,7.94313821
145.58550,9.163915841
145.58600,8.248332618
145.58650,-0.2971107977
145.58700,-11.58930388
145.58750,-14.64124796
145.58800,-8.842554213
145.58850,-3.654249282
145.58900,-3.95944369
145.58950,-4.264638098
145.59000,0.008083609999
145.59050,3.97561091
145.59100,0.3132780177
145.59150,-5.790610136
145.59200,-6.400998952
145.59250,-0.9074996131
145.59300,3.365222095
145.59350,3.670416502
145.59400,2.754833279
145.59450,2.754833279
145.59500,1.534055649
145.59550,-2.738666059
145.59600,-9.758137436
145.59650,-17.69319204
145.59700,-22.88149697
145.59750,-21.96591374
145.59800,-15.55683118
145.59850,-10.67372066
145.59900,-10.06333184
145.59950,-10.06333184
145.60000,-6.095804544
145.60050,-1.823082836
145.60100,-2.738666059
145.60150,-5.790610136
145.60200,-2.128277244
145.60250,7.332749395
145.60300,13.43663755
145.60350,10.99508229
145.60400,6.111971764
145.60450,3.365222095
145.60500,1.534055649
145.60550,-1.823082836
145.60600,-3.349054875
145.60650,-0.2971107977
145.60700,3.365222095
145.60750,4.585999726
145.60800,5.196388541
145.60850,6.722360579
145.60900,7.027554987
145.60950,3.670416502
145.61000,0.6184724254
145.61050,1.228861241
145.61100,2.449638872
145.61150,0.008083609999
145.61200,-4.264638098
145.61250,-6.706193359
145.61300,-7.621776583
145.61350,-10.67372066
145.61400,-12.81008151
145.61450,-10.06333184
145.61500,-3.043860467
145.61550,1.839250056
145.61600,3.97561091
145.61650,5.501582949
145.61700,7.027554987
145.61750,6.111971764
145.61800,4.585999726
145.61850,5.806777356
145.61900,8.553527026
145.61950,7.94313821
145.62000,1.534055649
145.62050,-6.095804544
145.62100,-9.758137436
145.62150,-8.842554213
145.62200,-5.485415729
145.62250,-2.433471652
145.62300,-0.9074996131
145.62350,-0.2971107977
145.62400,0.008083609999
145.62450,0.008083609999
145.62500,0.008083609999
145.62550,1.839250056
145.62600,7.332749395
145.62650,13.43663755
145.62700,15.87819281
145.62750,14.35222077
145.62800,12.82624873
145.62850,12.52105433
145.62900,10.99508229
145.62950,8.553527026
145.63000,7.94313821
145.63050,6.111971764
145.63100,-2.738666059
145.63150,-19.21916408
145.63200,-30.51135716
145.63250,-27.45941308
145.63300,-15.86202559
145.63350,-7.316582175
145.63400,-6.706193359
145.63450,-8.842554213
145.63500,-10.97891507
145.63550,-13.11527592
145.63600,-14.94644237
145.63650,-16.16722
