"type","name","time_units","begin_time","frequency","count","units"
"signal","Ultium EMG-EXT.CARP.ULN. RT","s",10.98000,2000,22000,"uV"

"time","value"
10.98000,-4.509281691
10.98050,-8.171614583
10.98100,-7.25603136
10.98150,-2.067726429
10.98200,1.899800871
10.98250,1.899800871
10.98300,-0.8469487986
10.98350,-3.898892876
10.98400,-5.424864914
10.98450,-5.730059322
10.98500,-5.730059322
10.98550,-6.645642545
10.98600,-8.476808991
10.98650,-8.476808991
10.98700,-5.730059322
10.98750,-1.762532022
10.98800,-1.152143206
10.98850,-3.28850406
10.98900,-4.509281691
10.98950,-2.678115245
10.99000,0.06863442452
10.99050,2.510189686
10.99100,5.562133763
10.99150,9.224466656
10.99200,10.44524429
10.99250,8.003689025
10.99300,5.562133763
10.99350,6.782911394
10.99400,8.919272248
10.99450,7.393300209
10.99500,3.730967317
10.99550,4.341356132
10.99600,10.44524429
10.99650,16.54913244
10.99700,15.93874362
10.99750,8.61407784
10.99800,0.3738288322
10.99850,-5.424864914
10.99900,-8.476808991
10.99950,-8.171614583
11.00000,-5.424864914
11.00050,-3.593698468
11.00100,-5.424864914
11.00150,-10.30797544
11.00200,-13.35991951
11.00250,-12.13914188
11.00300,-9.087197807
11.00350,-7.561225768
11.00400,-6.645642545
11.00450,-4.814476099
11.00500,-2.678115245
11.00550,-1.762532022
11.00600,-1.762532022
11.00650,-0.5417543909
11.00700,1.594606463
11.00750,3.120578502
11.00800,1.289412055
11.00850,-0.8469487986
11.00900,-1.762532022
11.00950,-0.5417543909
11.01000,1.289412055
11.01050,2.510189686
11.01100,2.815384094
11.01150,4.036161725
11.01200,5.562133763
11.01250,7.393300209
11.01300,8.308883432
11.01350,7.088105802
11.01400,4.951744948
11.01450,4.341356132
11.01500,5.562133763
11.01550,6.782911394
11.01600,5.256939355
11.01650,1.594606463
11.01700,-1.152143206
11.01750,-2.983309652
11.01800,-5.119670506
11.01850,-6.950836953
11.01900,-6.645642545
11.01950,-3.898892876
11.02000,-1.457337614
11.02050,-1.152143206
11.02100,-0.8469487986
11.02150,-0.5417543909
11.02200,-2.678115245
11.02250,-7.561225768
11.02300,-10.00278103
11.02350,-8.476808991
11.02400,-6.645642545
11.02450,-8.171614583
11.02500,-9.392392214
11.02550,-5.730059322
11.02600,0.6790232399
11.02650,2.510189686
11.02700,-1.457337614
11.02750,-6.340448137
11.02800,-7.25603136
11.02850,-4.509281691
11.02900,-0.2365599832
11.02950,3.120578502
11.03000,4.64655054
11.03050,3.730967317
11.03100,3.730967317
11.03150,6.172522579
11.03200,10.44524429
11.03250,12.58160514
11.03300,11.97121632
11.03350,10.44524429
11.03400,8.308883432
11.03450,5.256939355
11.03500,2.204995278
11.03550,0.9842176476
11.03600,2.204995278
11.03650,4.64655054
11.03700,7.698494617
11.03750,8.919272248
11.03800,6.782911394
11.03850,3.730967317
11.03900,4.64655054
11.03950,7.088105802
11.04000,5.256939355
11.04050,-1.457337614
11.04100,-5.424864914
11.04150,-2.983309652
11.04200,-0.5417543909
11.04250,-5.119670506
11.04300,-13.35991951
11.04350,-15.80147478
11.04400,-11.22355866
11.04450,-5.730059322
11.04500,-3.28850406
11.04550,-2.678115245
11.04600,-2.983309652
11.04650,-5.119670506
11.04700,-7.561225768
11.04750,-7.561225768
11.04800,-4.509281691
11.04850,-1.152143206
11.04900,0.3738288322
11.04950,0.3738288322
11.05000,-1.457337614
11.05050,-3.593698468
11.05100,-2.067726429
11.05150,2.815384094
11.05200,7.393300209
11.05250,7.393300209
11.05300,4.951744948
11.05350,4.64655054
11.05400,5.562133763
11.05450,4.64655054
11.05500,1.289412055
11.05550,-1.152143206
11.05600,-3.28850406
11.05650,-4.509281691
11.05700,-2.678115245
11.05750,2.815384094
11.05800,9.529661063
11.05850,11.36082751
11.05900,7.393300209
11.05950,1.899800871
11.06000,-0.8469487986
11.06050,-1.152143206
11.06100,-0.2365599832
11.06150,-0.2365599832
11.06200,-0.5417543909
11.06250,-1.457337614
11.06300,-2.983309652
11.06350,-5.119670506
11.06400,-7.25603136
11.06450,-6.950836953
11.06500,-4.509281691
11.06550,-2.983309652
11.06600,-5.119670506
11.06650,-9.392392214
11.06700,-11.52875307
11.06750,-9.697586622
11.06800,-5.730059322
11.06850,-0.2365599832
11.06900,6.172522579
11.06950,11.66602192
11.07000,11.97121632
11.07050,8.003689025
11.07100,5.867328171
11.07150,8.919272248
11.07200,11.97121632
11.07250,10.44524429
11.07300,5.562133763
11.07350,2.204995278
11.07400,2.204995278
11.07450,4.341356132
11.07500,5.867328171
11.07550,6.172522579
11.07600,4.64655054
11.07650,1.594606463
11.07700,-0.2365599832
11.07750,0.6790232399
11.07800,3.730967317
11.07850,5.562133763
11.07900,4.951744948
11.07950,2.510189686
11.08000,0.06863442452
11.08050,-2.678115245
11.08100,-5.424864914
11.08150,-8.171614583
11.08200,-10.00278103
11.08250,-11.22355866
11.08300,-11.83394748
11.08350,-11.22355866
11.08400,-8.476808991
11.08450,-3.898892876
11.08500,-1.152143206
11.08550,-2.067726429
11.08600,-5.119670506
11.08650,-5.424864914
11.08700,-1.762532022
11.08750,0.9842176476
11.08800,0.06863442452
11.08850,-2.678115245
11.08900,-4.204087283
11.08950,-4.509281691
11.09000,-5.424864914
11.09050,-5.119670506
11.09100,-0.5417543909
11.09150,6.477716986
11.09200,11.36082751
11.09250,11.0556331
11.09300,8.308883432
11.09350,6.172522579
11.09400,4.341356132
11.09450,2.815384094
11.09500,2.204995278
11.09550,3.120578502
11.09600,3.425772909
11.09650,3.425772909
11.09700,4.341356132
11.09750,6.782911394
11.09800,7.698494617
11.09850,6.782911394
11.09900,5.562133763
11.09950,5.256939355
11.10000,2.510189686
11.10050,-2.983309652
11.10100,-6.950836953
11.10150,-5.424864914
11.10200,-2.067726429
11.10250,-2.983309652
11.10300,-7.25603136
11.10350,-9.392392214
11.10400,-7.561225768
11.10450,-6.340448137
11.10500,-7.25603136
11.10550,-7.561225768
11.10600,-4.509281691
11.10650,-0.8469487986
11.10700,0.06863442452
11.10750,-0.8469487986
11.10800,-0.5417543909
11.10850,1.594606463
11.10900,4.036161725
11.10950,4.341356132
11.11000,1.594606463
11.11050,-2.372920837
11.11100,-5.730059322
11.11150,-6.03525373
11.11200,-2.067726429
11.11250,2.815384094
11.11300,5.562133763
11.11350,5.867328171
11.11400,5.562133763
11.11450,4.951744948
11.11500,4.341356132
11.11550,3.730967317
11.11600,5.562133763
11.11650,8.61407784
11.11700,8.919272248
11.11750,5.256939355
11.11800,0.6790232399
11.11850,-0.8469487986
11.11900,0.06863442452
11.11950,0.06863442452
11.12000,-0.8469487986
11.12050,-1.152143206
11.12100,0.06863442452
11.12150,1.289412055
11.12200,0.3738288322
11.12250,-0.5417543909
11.12300,-0.5417543909
11.12350,-0.8469487986
11.12400,-4.204087283
11.12450,-7.866420176
11.12500,-9.087197807
11.12550,-7.561225768
11.12600,-6.645642545
11.12650,-6.950836953
11.12700,-5.424864914
11.12750,-1.457337614
11.12800,1.594606463
11.12850,1.594606463
11.12900,-0.8469487986
11.12950,-2.067726429
11.13000,-0.5417543909
11.13050,1.899800871
11.13100,4.64655054
11.13150,6.782911394
11.13200,7.698494617
11.13250,7.088105802
11.13300,5.867328171
11.13350,6.172522579
11.13400,8.003689025
11.13450,7.088105802
11.13500,2.204995278
11.13550,-2.678115245
11.13600,-4.814476099
11.13650,-3.898892876
11.13700,-2.678115245
11.13750,-0.8469487986
11.13800,2.815384094
11.13850,7.088105802
11.13900,8.003689025
11.13950,4.64655054
11.14000,1.594606463
11.14050,1.899800871
11.14100,4.341356132
11.14150,5.867328171
11.14200,5.256939355
11.14250,2.510189686
11.14300,-1.152143206
11.14350,-4.814476099
11.14400,-6.645642545
11.14450,-8.171614583
11.14500,-10.00278103
11.14550,-11.83394748
11.14600,-11.22355866
11.14650,-8.171614583
11.14700,-4.509281691
11.14750,-2.678115245
11.14800,-1.762532022
11.14850,-1.762532022
11.14900,-2.983309652
11.14950,-4.509281691
11.15000,-3.898892876
11.15050,0.06863442452
11.15100,4.64655054
11.15150,8.003689025
11.15200,8.61407784
11.15250,7.393300209
11.15300,6.172522579
11.15350,4.341356132
11.15400,2.510189686
11.15450,1.594606463
11.15500,1.899800871
11.15550,3.425772909
11.15600,4.036161725
11.15650,4.64655054
11.15700,6.477716986
11.15750,9.224466656
11.15800,10.14004988
11.15850,7.088105802
11.15900,1.899800871
11.15950,-2.678115245
11.16000,-5.424864914
11.16050,-6.03525373
11.16100,-5.424864914
11.16150,-4.509281691
11.16200,-6.03525373
11.16250,-9.697586622
11.16300,-12.13914188
11.16350,-11.52875307
11.16400,-10.00278103
11.16450,-10.30797544
11.16500,-11.22355866
11.16550,-9.697586622
11.16600,-6.645642545
11.16650,-5.424864914
11.16700,-5.730059322
11.16750,-5.424864914
11.16800,-4.204087283
11.16850,-3.28850406
11.16900,-1.457337614
11.16950,1.594606463
11.17000,3.730967317
11.17050,2.815384094
11.17100,2.815384094
11.17150,8.919272248
11.17200,16.54913244
11.17250,17.46471566
11.17300,10.14004988
11.17350,2.815384094
11.17400,0.3738288322
11.17450,1.594606463
11.17500,3.425772909
11.17550,5.867328171
11.17600,8.308883432
11.17650,6.172522579
11.17700,-1.152143206
11.17750,-9.087197807
11.17800,-12.13914188
11.17850,-10.91836425
11.17900,-7.25603136
11.17950,-2.983309652
11.18000,0.06863442452
11.18050,0.06863442452
11.18100,-0.5417543909
11.18150,-0.2365599832
11.18200,0.9842176476
11.18250,0.06863442452
11.18300,-2.983309652
11.18350,-5.730059322
11.18400,-5.424864914
11.18450,-3.593698468
11.18500,-2.678115245
11.18550,-2.983309652
11.18600,-3.898892876
11.18650,-5.119670506
11.18700,-5.730059322
11.18750,-3.593698468
11.18800,0.06863442452
11.18850,2.510189686
11.18900,2.204995278
11.18950,1.289412055
11.19000,1.289412055
11.19050,2.815384094
11.19100,5.256939355
11.19150,7.698494617
11.19200,8.61407784
11.19250,7.088105802
11.19300,5.867328171
11.19350,7.088105802
11.19400,9.224466656
11.19450,8.919272248
11.19500,6.782911394
11.19550,5.562133763
11.19600,6.477716986
11.19650,5.867328171
11.19700,3.425772909
11.19750,1.594606463
11.19800,1.899800871
11.19850,2.204995278
11.19900,1.289412055
11.19950,0.9842176476
11.20000,2.204995278
11.20050,2.510189686
11.20100,0.06863442452
11.20150,-4.204087283
11.20200,-7.866420176
11.20250,-9.087197807
11.20300,-7.866420176
11.20350,-4.204087283
11.20400,-0.8469487986
11.20450,-1.457337614
11.20500,-4.509281691
11.20550,-6.340448137
11.20600,-4.814476099
11.20650,-3.28850406
11.20700,-3.898892876
11.20750,-5.119670506
11.20800,-5.424864914
11.20850,-4.509281691
11.20900,-2.983309652
11.20950,0.6790232399
11.21000,7.088105802
11.21050,11.0556331
11.21100,10.14004988
11.21150,6.172522579
11.21200,4.341356132
11.21250,5.256939355
11.21300,5.867328171
11.21350,4.951744948
11.21400,4.64655054
11.21450,6.172522579
11.21500,7.088105802
11.21550,4.951744948
11.21600,1.899800871
11.21650,0.9842176476
11.21700,2.815384094
11.21750,4.64655054
11.21800,3.425772909
11.21850,0.6790232399
11.21900,-0.8469487986
11.21950,-0.2365599832
11.22000,-0.2365599832
11.22050,-2.678115245
11.22100,-5.119670506
11.22150,-5.119670506
11.22200,-2.678115245
11.22250,-1.457337614
11.22300,-2.678115245
11.22350,-3.593698468
11.22400,-1.762532022
11.22450,0.06863442452
11.22500,-2.067726429
11.22550,-6.03525373
11.22600,-5.424864914
11.22650,-0.5417543909
11.22700,1.289412055
11.22750,-3.28850406
11.22800,-10.61316985
11.22850,-11.83394748
11.22900,-6.340448137
11.22950,-3.28850406
11.23000,-6.950836953
11.23050,-12.44433629
11.23100,-10.61316985
11.23150,-1.457337614
11.23200,6.172522579
11.23250,6.782911394
11.23300,3.425772909
11.23350,2.510189686
11.23400,5.562133763
11.23450,9.529661063
11.23500,10.75043869
11.23550,10.14004988
11.23600,9.224466656
11.23650,7.698494617
11.23700,5.256939355
11.23750,3.730967317
11.23800,4.341356132
11.23850,6.172522579
11.23900,7.088105802
11.23950,5.256939355
11.24000,0.9842176476
11.24050,-4.509281691
11.24100,-9.087197807
11.24150,-10.91836425
11.24200,-9.087197807
11.24250,-6.340448137
11.24300,-5.730059322
11.24350,-6.340448137
11.24400,-6.645642545
11.24450,-5.424864914
11.24500,-4.509281691
11.24550,-4.814476099
11.24600,-5.730059322
11.24650,-5.730059322
11.24700,-5.424864914
11.24750,-4.814476099
11.24800,-2.372920837
11.24850,1.289412055
11.24900,4.036161725
11.24950,3.730967317
11.25000,2.815384094
11.25050,4.64655054
11.25100,7.698494617
11.25150,7.698494617
11.25200,4.341356132
11.25250,0.9842176476
11.25300,0.06863442452
11.25350,0.3738288322
11.25400,-0.5417543909
11.25450,-1.457337614
11.25500,0.06863442452
11.25550,2.815384094
11.25600,4.341356132
11.25650,3.120578502
11.25700,1.899800871
11.25750,2.204995278
11.25800,2.510189686
11.25850,2.204995278
11.25900,2.204995278
11.25950,3.730967317
11.26000,4.036161725
11.26050,2.204995278
11.26100,-0.5417543909
11.26150,-1.762532022
11.26200,-2.067726429
11.26250,-4.204087283
11.26300,-7.866420176
11.26350,-9.392392214
11.26400,-7.25603136
11.26450,-4.509281691
11.26500,-2.983309652
11.26550,-1.457337614
11.26600,0.9842176476
11.26650,1.289412055
11.26700,-2.067726429
11.26750,-6.950836953
11.26800,-8.171614583
11.26850,-5.424864914
11.26900,-2.372920837
11.26950,-1.152143206
11.27000,-0.2365599832
11.27050,0.6790232399
11.27100,2.510189686
11.27150,4.951744948
11.27200,7.088105802
11.27250,7.088105802
11.27300,3.425772909
11.27350,-0.2365599832
11.27400,0.06863442452
11.27450,4.64655054
11.27500,7.088105802
11.27550,4.341356132
11.27600,0.06863442452
11.27650,-2.067726429
11.27700,-2.372920837
11.27750,-1.762532022
11.27800,-0.2365599832
11.27850,3.425772909
11.27900,6.782911394
11.27950,7.088105802
11.28000,4.036161725
11.28050,2.204995278
11.28100,2.815384094
11.28150,4.036161725
11.28200,3.120578502
11.28250,-0.5417543909
11.28300,-5.730059322
11.28350,-9.087197807
11.28400,-7.866420176
11.28450,-3.593698468
11.28500,-0.8469487986
11.28550,-1.762532022
11.28600,-4.204087283
11.28650,-4.814476099
11.28700,-2.372920837
11.28750,-0.5417543909
11.28800,-1.762532022
11.28850,-4.509281691
11.28900,-5.424864914
11.28950,-3.28850406
11.29000,0.06863442452
11.29050,1.289412055
11.29100,1.594606463
11.29150,3.425772909
11.29200,6.477716986
11.29250,8.61407784
11.29300,8.003689025
11.29350,6.477716986
11.29400,6.477716986
11.29450,7.088105802
11.29500,6.172522579
11.29550,6.172522579
11.29600,7.698494617
11.29650,9.529661063
11.29700,6.782911394
11.29750,0.3738288322
11.29800,-4.204087283
11.29850,-5.119670506
11.29900,-3.593698468
11.29950,-1.762532022
11.30000,0.06863442452
11.30050,1.289412055
11.30100,0.3738288322
11.30150,-1.762532022
11.30200,-3.898892876
11.30250,-4.204087283
11.30300,-3.898892876
11.30350,-2.678115245
11.30400,-0.5417543909
11.30450,0.06863442452
11.30500,-2.678115245
11.30550,-9.087197807
11.30600,-14.58069715
11.30650,-15.19108596
11.30700,-12.44433629
11.30750,-7.25603136
11.30800,-1.457337614
11.30850,2.510189686
11.30900,3.120578502
11.30950,0.9842176476
11.31000,0.06863442452
11.31050,2.510189686
11.31100,4.951744948
11.31150,4.036161725
11.31200,0.9842176476
11.31250,-0.2365599832
11.31300,0.6790232399
11.31350,3.425772909
11.31400,6.782911394
11.31450,8.61407784
11.31500,7.393300209
11.31550,4.64655054
11.31600,4.036161725
11.31650,6.172522579
11.31700,8.003689025
11.31750,7.393300209
11.31800,5.562133763
11.31850,4.951744948
11.31900,3.730967317
11.31950,0.6790232399
11.32000,-1.762532022
11.32050,-1.762532022
11.32100,0.6790232399
11.32150,2.815384094
11.32200,2.204995278
11.32250,0.06863442452
11.32300,-1.457337614
11.32350,-0.8469487986
11.32400,-0.8469487986
11.32450,-3.593698468
11.32500,-8.782003399
11.32550,-12.7495307
11.32600,-12.13914188
11.32650,-6.950836953
11.32700,-1.152143206
11.32750,0.06863442452
11.32800,-2.067726429
11.32850,-5.119670506
11.32900,-5.119670506
11.32950,-2.067726429
11.33000,0.6790232399
11.33050,0.9842176476
11.33100,0.06863442452
11.33150,0.06863442452
11.33200,2.815384094
11.33250,7.088105802
11.33300,9.529661063
11.33350,8.61407784
11.33400,6.782911394
11.33450,5.867328171
11.33500,6.172522579
11.33550,5.562133763
11.33600,3.425772909
11.33650,0.9842176476
11.33700,0.06863442452
11.33750,0.3738288322
11.33800,0.06863442452
11.33850,-1.457337614
11.33900,-2.067726429
11.33950,-0.8469487986
11.34000,0.6790232399
11.34050,1.594606463
11.34100,2.510189686
11.34150,3.730967317
11.34200,3.120578502
11.34250,0.06863442452
11.34300,-4.204087283
11.34350,-7.25603136
11.34400,-8.476808991
11.34450,-8.476808991
11.34500,-7.866420176
11.34550,-6.645642545
11.34600,-5.119670506
11.34650,-4.509281691
11.34700,-4.204087283
11.34750,-3.593698468
11.34800,-2.983309652
11.34850,-2.372920837
11.34900,-0.2365599832
11.34950,1.899800871
11.35000,2.510189686
11.35050,1.289412055
11.35100,-0.2365599832
11.35150,-0.8469487986
11.35200,-1.457337614
11.35250,-1.152143206
11.35300,1.289412055
11.35350,5.867328171
11.35400,8.308883432
11.35450,6.172522579
11.35500,3.425772909
11.35550,3.425772909
11.35600,4.341356132
11.35650,3.120578502
11.35700,0.9842176476
11.35750,0.6790232399
11.35800,2.204995278
11.35850,2.510189686
11.35900,0.3738288322
11.35950,-2.372920837
11.36000,-5.730059322
11.36050,-7.866420176
11.36100,-6.645642545
11.36150,-1.457337614
11.36200,2.204995278
11.36250,0.3738288322
11.36300,-3.28850406
11.36350,-2.678115245
11.36400,1.899800871
11.36450,3.730967317
11.36500,-0.8469487986
11.36550,-8.171614583
11.36600,-10.91836425
11.36650,-8.782003399
11.36700,-5.424864914
11.36750,-3.28850406
11.36800,-2.067726429
11.36850,-2.067726429
11.36900,-2.983309652
11.36950,-3.593698468
11.37000,-2.067726429
11.37050,1.289412055
11.37100,5.562133763
11.37150,8.308883432
11.37200,8.919272248
11.37250,8.61407784
11.37300,8.61407784
11.37350,8.919272248
11.37400,8.919272248
11.37450,7.698494617
11.37500,5.867328171
11.37550,4.951744948
11.37600,6.172522579
11.37650,8.308883432
11.37700,9.224466656
11.37750,8.003689025
11.37800,6.782911394
11.37850,6.172522579
11.37900,5.867328171
11.37950,2.510189686
11.38000,-2.983309652
11.38050,-7.561225768
11.38100,-8.476808991
11.38150,-5.730059322
11.38200,-3.593698468
11.38250,-3.593698468
11.38300,-3.28850406
11.38350,-1.457337614
11.38400,0.06863442452
11.38450,-1.152143206
11.38500,-7.25603136
11.38550,-13.66511392
11.38600,-16.717058
11.38650,-16.10666918
11.38700,-13.66511392
11.38750,-11.22355866
11.38800,-9.087197807
11.38850,-6.645642545
11.38900,-4.204087283
11.38950,-2.678115245
11.39000,-1.457337614
11.39050,-1.152143206
11.39100,-1.457337614
11.39150,-1.457337614
11.39200,0.06863442452
11.39250,2.510189686
11.39300,4.341356132
11.39350,4.951744948
11.39400,6.172522579
11.39450,8.003689025
11.39500,8.919272248
11.39550,7.393300209
11.39600,4.951744948
11.39650,3.730967317
11.39700,4.64655054
11.39750,7.088105802
11.39800,9.834855471
11.39850,11.97121632
11.39900,11.36082751
11.39950,7.698494617
11.40000,3.120578502
11.40050,0.3738288322
11.40100,0.9842176476
11.40150,2.510189686
11.40200,2.815384094
11.40250,1.289412055
11.40300,-0.2365599832
11.40350,-1.457337614
11.40400,-1.762532022
11.40450,-3.28850406
11.40500,-6.645642545
11.40550,-10.00278103
11.40600,-10.30797544
11.40650,-8.476808991
11.40700,-6.950836953
11.40750,-6.340448137
11.40800,-5.730059322
11.40850,-3.898892876
11.40900,-1.762532022
11.40950,-1.152143206
11.41000,-0.8469487986
11.41050,0.3738288322
11.41100,2.204995278
11.41150,4.341356132
11.41200,6.477716986
11.41250,8.003689025
11.41300,8.308883432
11.41350,8.003689025
11.41400,7.393300209
11.41450,7.393300209
11.41500,5.867328171
11.41550,2.815384094
11.41600,0.3738288322
11.41650,0.6790232399
11.41700,3.730967317
11.41750,7.088105802
11.41800,9.834855471
11.41850,10.75043869
11.41900,8.919272248
11.41950,4.64655054
11.42000,-0.5417543909
11.42050,-5.424864914
11.42100,-9.697586622
11.42150,-12.13914188
11.42200,-11.52875307
11.42250,-9.392392214
11.42300,-7.866420176
11.42350,-8.782003399
11.42400,-9.697586622
11.42450,-8.171614583
11.42500,-5.730059322
11.42550,-4.814476099
11.42600,-5.730059322
11.42650,-6.03525373
11.42700,-5.730059322
11.42750,-6.645642545
11.42800,-8.782003399
11.42850,-10.00278103
11.42900,-9.392392214
11.42950,-8.476808991
11.43000,-6.950836953
11.43050,-3.898892876
11.43100,0.3738288322
11.43150,4.036161725
11.43200,5.256939355
11.43250,5.256939355
11.43300,6.477716986
11.43350,8.61407784
11.43400,9.529661063
11.43450,8.919272248
11.43500,8.61407784
11.43550,8.003689025
11.43600,7.088105802
11.43650,5.867328171
11.43700,4.951744948
11.43750,3.425772909
11.43800,1.289412055
11.43850,-0.5417543909
11.43900,-1.152143206
11.43950,0.06863442452
11.44000,1.289412055
11.44050,1.594606463
11.44100,1.289412055
11.44150,0.9842176476
11.44200,-0.2365599832
11.44250,-2.678115245
11.44300,-4.509281691
11.44350,-3.898892876
11.44400,-2.983309652
11.44450,-4.204087283
11.44500,-6.645642545
11.44550,-7.561225768
11.44600,-5.424864914
11.44650,-2.067726429
11.44700,-1.152143206
11.44750,-2.372920837
11.44800,-3.898892876
11.44850,-4.814476099
11.44900,-5.119670506
11.44950,-3.898892876
11.45000,-0.8469487986
11.45050,2.204995278
11.45100,4.341356132
11.45150,4.951744948
11.45200,5.867328171
11.45250,7.088105802
11.45300,6.172522579
11.45350,3.120578502
11.45400,0.9842176476
11.45450,1.289412055
11.45500,2.510189686
11.45550,3.120578502
11.45600,3.730967317
11.45650,4.036161725
11.45700,3.425772909
11.45750,1.899800871
11.45800,1.899800871
11.45850,3.425772909
11.45900,4.64655054
11.45950,3.730967317
11.46000,2.204995278
11.46050,2.510189686
11.46100,3.730967317
11.46150,4.036161725
11.46200,4.036161725
11.46250,2.815384094
11.46300,-1.152143206
11.46350,-9.087197807
11.46400,-17.02225241
11.46450,-20.6845853
11.46500,-19.46380767
11.46550,-14.88589155
11.46600,-8.782003399
11.46650,-2.372920837
11.46700,0.6790232399
11.46750,-0.5417543909
11.46800,-3.593698468
11.46850,-2.983309652
11.46900,1.289412055
11.46950,6.172522579
11.47000,9.529661063
11.47050,11.66602192
11.47100,11.66602192
11.47150,8.919272248
11.47200,6.782911394
11.47250,9.834855471
11.47300,16.24393803
11.47350,19.60107652
11.47400,15.0231604
11.47450,6.477716986
11.47500,1.289412055
11.47550,0.9842176476
11.47600,1.594606463
11.47650,-0.2365599832
11.47700,-3.28850406
11.47750,-4.204087283
11.47800,-2.372920837
11.47850,-1.457337614
11.47900,-2.983309652
11.47950,-5.730059322
11.48000,-6.340448137
11.48050,-4.204087283
11.48100,-0.8469487986
11.48150,0.06863442452
11.48200,-0.5417543909
11.48250,-2.678115245
11.48300,-5.119670506
11.48350,-6.645642545
11.48400,-7.25603136
11.48450,-6.645642545
11.48500,-6.340448137
11.48550,-7.25603136
11.48600,-7.25603136
11.48650,-5.119670506
11.48700,-2.067726429
11.48750,-2.067726429
11.48800,-5.424864914
11.48850,-8.782003399
11.48900,-7.561225768
11.48950,-3.28850406
11.49000,0.06863442452
11.49050,0.06863442452
11.49100,0.06863442452
11.49150,2.204995278
11.49200,4.64655054
11.49250,5.867328171
11.49300,5.867328171
11.49350,5.867328171
11.49400,6.172522579
11.49450,6.172522579
11.49500,6.172522579
11.49550,6.782911394
11.49600,8.308883432
11.49650,9.834855471
11.49700,10.14004988
11.49750,8.919272248
11.49800,6.782911394
11.49850,4.341356132
11.49900,2.204995278
11.49950,0.6790232399
11.50000,0.3738288322
11.50050,0.9842176476
11.50100,0.6790232399
11.50150,-1.457337614
11.50200,-5.424864914
11.50250,-7.866420176
11.50300,-7.561225768
11.50350,-6.03525373
11.50400,-5.424864914
11.50450,-4.814476099
11.50500,-4.509281691
11.50550,-4.509281691
11.50600,-5.424864914
11.50650,-5.424864914
11.50700,-3.898892876
11.50750,-2.678115245
11.50800,-3.28850406
11.50850,-4.509281691
11.50900,-3.28850406
11.50950,-0.2365599832
11.51000,1.289412055
11.51050,1.594606463
11.51100,2.204995278
11.51150,3.730967317
11.51200,4.64655054
11.51250,4.64655054
11.51300,5.867328171
11.51350,8.308883432
11.51400,9.529661063
11.51450,8.919272248
11.51500,9.834855471
11.51550,12.27641073
11.51600,13.49718836
11.51650,10.75043869
11.51700,7.088105802
11.51750,4.64655054
11.51800,2.815384094
11.51850,-0.8469487986
11.51900,-4.509281691
11.51950,-4.814476099
11.52000,-2.678115245
11.52050,-1.152143206
11.52100,-1.457337614
11.52150,-2.372920837
11.52200,-4.204087283
11.52250,-5.119670506
11.52300,-4.204087283
11.52350,-1.762532022
11.52400,-1.152143206
11.52450,-2.983309652
11.52500,-4.204087283
11.52550,-3.593698468
11.52600,-3.28850406
11.52650,-5.730059322
11.52700,-8.171614583
11.52750,-7.561225768
11.52800,-6.340448137
11.52850,-6.340448137
11.52900,-5.424864914
11.52950,-1.457337614
11.53000,1.594606463
11.53050,0.9842176476
11.53100,-0.8469487986
11.53150,0.06863442452
11.53200,2.815384094
11.53250,2.815384094
11.53300,1.289412055
11.53350,3.730967317
11.53400,10.44524429
11.53450,15.63354922
11.53500,14.71796599
11.53550,9.529661063
11.53600,4.64655054
11.53650,1.899800871
11.53700,0.9842176476
11.53750,1.289412055
11.53800,2.204995278
11.53850,3.425772909
11.53900,4.951744948
11.53950,5.562133763
11.54000,3.120578502
11.54050,-1.457337614
11.54100,-5.119670506
11.54150,-4.814476099
11.54200,-2.372920837
11.54250,-0.8469487986
11.54300,0.06863442452
11.54350,2.204995278
11.54400,3.425772909
11.54450,-0.2365599832
11.54500,-8.171614583
11.54550,-14.58069715
11.54600,-15.49628037
11.54650,-12.44433629
11.54700,-9.087197807
11.54750,-5.424864914
11.54800,-2.678115245
11.54850,-1.762532022
11.54900,-2.372920837
11.54950,-1.762532022
11.55000,0.6790232399
11.55050,2.815384094
11.55100,2.510189686
11.55150,1.899800871
11.55200,3.120578502
11.55250,3.425772909
11.55300,0.6790232399
11.55350,-3.28850406
11.55400,-4.204087283
11.55450,-1.457337614
11.55500,1.594606463
11.55550,3.425772909
11.55600,5.256939355
11.55650,6.782911394
11.55700,7.088105802
11.55750,5.256939355
11.55800,3.120578502
11.55850,2.510189686
11.55900,2.204995278
11.55950,1.289412055
11.56000,0.3738288322
11.56050,0.06863442452
11.56100,0.3738288322
11.56150,0.3738288322
11.56200,0.06863442452
11.56250,-1.457337614
11.56300,-5.119670506
11.56350,-9.087197807
11.56400,-10.00278103
11.56450,-7.25603136
11.56500,-4.204087283
11.56550,-2.983309652
11.56600,-2.983309652
11.56650,-2.678115245
11.56700,-2.983309652
11.56750,-4.509281691
11.56800,-6.03525373
11.56850,-5.730059322
11.56900,-3.593698468
11.56950,-2.067726429
11.57000,-1.762532022
11.57050,-1.152143206
11.57100,0.06863442452
11.57150,1.899800871
11.57200,3.120578502
11.57250,3.730967317
11.57300,3.425772909
11.57350,2.815384094
11.57400,3.120578502
11.57450,4.64655054
11.57500,6.782911394
11.57550,7.698494617
11.57600,6.782911394
11.57650,4.64655054
11.57700,3.425772909
11.57750,4.036161725
11.57800,5.562133763
11.57850,6.477716986
11.57900,6.477716986
11.57950,5.562133763
11.58000,4.951744948
11.58050,4.64655054
11.58100,3.425772909
11.58150,0.9842176476
11.58200,-3.28850406
11.58250,-8.782003399
11.58300,-13.97030833
11.58350,-16.10666918
11.58400,-14.58069715
11.58450,-10.91836425
11.58500,-8.171614583
11.58550,-6.03525373
11.58600,-3.593698468
11.58650,-0.2365599832
11.58700,1.594606463
11.58750,0.06863442452
11.58800,-4.204087283
11.58850,-8.476808991
11.58900,-9.087197807
11.58950,-6.03525373
11.59000,-1.762532022
11.59050,1.899800871
11.59100,5.867328171
11.59150,9.529661063
11.59200,11.97121632
11.59250,11.97121632
11.59300,10.75043869
11.59350,9.834855471
11.59400,8.61407784
11.59450,5.562133763
11.59500,2.204995278
11.59550,1.289412055
11.59600,4.036161725
11.59650,6.782911394
11.59700,7.393300209
11.59750,6.477716986
11.59800,5.867328171
11.59850,5.256939355
11.59900,2.510189686
11.59950,-0.5417543909
11.60000,-2.372920837
11.60050,-2.372920837
11.60100,-2.983309652
11.60150,-4.509281691
11.60200,-5.730059322
11.60250,-4.509281691
11.60300,-1.762532022
11.60350,-0.2365599832
11.60400,-1.762532022
11.60450,-6.340448137
11.60500,-11.52875307
11.60550,-13.97030833
11.60600,-12.7495307
11.60650,-10.30797544
11.60700,-8.171614583
11.60750,-5.730059322
11.60800,-3.28850406
11.60850,-2.067726429
11.60900,-2.983309652
11.60950,-4.509281691
11.61000,-3.593698468
11.61050,-1.762532022
11.61100,-0.8469487986
11.61150,0.06863442452
11.61200,2.815384094
11.61250,6.477716986
11.61300,8.308883432
11.61350,8.003689025
11.61400,7.698494617
11.61450,8.003689025
11.61500,4.951744948
11.61550,0.06863442452
11.61600,-2.678115245
11.61650,0.06863442452
11.61700,4.951744948
11.61750,7.393300209
11.61800,7.088105802
11.61850,7.393300209
11.61900,8.61407784
11.61950,7.698494617
11.62000,4.951744948
11.62050,3.425772909
11.62100,3.425772909
11.62150,3.120578502
11.62200,-0.2365599832
11.62250,-5.119670506
11.62300,-8.476808991
11.62350,-10.00278103
11.62400,-10.30797544
11.62450,-9.392392214
11.62500,-6.950836953
11.62550,-4.509281691
11.62600,-4.814476099
11.62650,-6.645642545
11.62700,-6.03525373
11.62750,-2.067726429
11.62800,1.289412055
11.62850,1.594606463
11.62900,-0.2365599832
11.62950,-1.762532022
11.63000,-1.457337614
11.63050,-2.067726429
11.63100,-4.509281691
11.63150,-6.03525373
11.63200,-3.28850406
11.63250,2.510189686
11.63300,8.003689025
11.63350,9.834855471
11.63400,8.61407784
11.63450,6.782911394
11.63500,6.172522579
11.63550,6.477716986
11.63600,6.782911394
11.63650,8.003689025
11.63700,10.44524429
11.63750,12.27641073
11.63800,11.97121632
11.63850,9.529661063
11.63900,7.088105802
11.63950,5.867328171
11.64000,4.036161725
11.64050,-0.5417543909
11.64100,-6.645642545
11.64150,-10.30797544
11.64200,-9.697586622
11.64250,-6.03525373
11.64300,-2.983309652
11.64350,-1.457337614
11.64400,-0.8469487986
11.64450,-1.457337614
11.64500,-2.983309652
11.64550,-5.119670506
11.64600,-6.340448137
11.64650,-5.730059322
11.64700,-4.509281691
11.64750,-5.119670506
11.64800,-5.730059322
11.64850,-4.509281691
11.64900,-2.372920837
11.64950,-1.457337614
11.65000,-2.983309652
11.65050,-3.593698468
11.65100,-2.067726429
11.65150,0.3738288322
11.65200,1.289412055
11.65250,2.204995278
11.65300,4.341356132
11.65350,6.782911394
11.65400,5.867328171
11.65450,2.510189686
11.65500,1.289412055
11.65550,3.425772909
11.65600,6.172522579
11.65650,6.477716986
11.65700,4.951744948
11.65750,4.64655054
11.65800,4.64655054
11.65850,3.730967317
11.65900,2.204995278
11.65950,1.289412055
11.66000,0.3738288322
11.66050,-0.5417543909
11.66100,-1.152143206
11.66150,-0.5417543909
11.66200,0.06863442452
11.66250,-0.8469487986
11.66300,-2.678115245
11.66350,-3.898892876
11.66400,-3.593698468
11.66450,-2.678115245
11.66500,-2.372920837
11.66550,-2.678115245
11.66600,-4.204087283
11.66650,-6.950836953
11.66700,-9.697586622
11.66750,-9.697586622
11.66800,-7.866420176
11.66850,-5.424864914
11.66900,-3.898892876
11.66950,-2.678115245
11.67000,-1.152143206
11.67050,0.6790232399
11.67100,3.120578502
11.67150,5.562133763
11.67200,6.477716986
11.67250,5.867328171
11.67300,5.256939355
11.67350,5.256939355
11.67400,4.64655054
11.67450,2.815384094
11.67500,1.289412055
11.67550,1.289412055
11.67600,2.815384094
11.67650,4.341356132
11.67700,4.951744948
11.67750,4.341356132
11.67800,2.815384094
11.67850,0.9842176476
11.67900,1.289412055
11.67950,3.730967317
11.68000,5.562133763
11.68050,4.036161725
11.68100,-0.2365599832
11.68150,-3.593698468
11.68200,-5.119670506
11.68250,-5.119670506
11.68300,-4.814476099
11.68350,-3.898892876
11.68400,-2.678115245
11.68450,-2.983309652
11.68500,-5.119670506
11.68550,-6.645642545
11.68600,-6.645642545
11.68650,-5.424864914
11.68700,-4.204087283
11.68750,-2.372920837
11.68800,0.3738288322
11.68850,4.951744948
11.68900,8.919272248
11.68950,9.224466656
11.69000,4.341356132
11.69050,-2.678115245
11.69100,-7.561225768
11.69150,-7.561225768
11.69200,-4.509281691
11.69250,-1.762532022
11.69300,-0.2365599832
11.69350,1.289412055
11.69400,4.341356132
11.69450,8.003689025
11.69500,11.36082751
11.69550,12.88679955
11.69600,10.44524429
11.69650,5.867328171
11.69700,2.204995278
11.69750,0.6790232399
11.69800,0.06863442452
11.69850,-1.457337614
11.69900,-2.372920837
11.69950,-1.152143206
11.70000,0.06863442452
11.70050,-0.8469487986
11.70100,-3.593698468
11.70150,-3.593698468
11.70200,-0.8469487986
11.70250,0.3738288322
11.70300,-0.5417543909
11.70350,-2.372920837
11.70400,-2.372920837
11.70450,-1.762532022
11.70500,-3.28850406
11.70550,-6.645642545
11.70600,-8.476808991
11.70650,-7.561225768
11.70700,-5.730059322
11.70750,-5.119670506
11.70800,-6.340448137
11.70850,-7.25603136
11.70900,-6.340448137
11.70950,-3.593698468
11.71000,-1.457337614
11.71050,-0.5417543909
11.71100,-0.2365599832
11.71150,0.6790232399
11.71200,2.815384094
11.71250,3.425772909
11.71300,2.510189686
11.71350,2.510189686
11.71400,3.730967317
11.71450,5.867328171
11.71500,7.088105802
11.71550,7.393300209
11.71600,8.003689025
11.71650,8.61407784
11.71700,7.393300209
11.71750,3.120578502
11.71800,-1.152143206
11.71850,-2.067726429
11.71900,0.3738288322
11.71950,2.510189686
11.72000,2.204995278
11.72050,0.06863442452
11.72100,-0.5417543909
11.72150,0.06863442452
11.72200,0.3738288322
11.72250,-0.2365599832
11.72300,-2.067726429
11.72350,-3.593698468
11.72400,-5.119670506
11.72450,-7.25603136
11.72500,-8.171614583
11.72550,-7.561225768
11.72600,-6.03525373
11.72650,-5.424864914
11.72700,-5.119670506
11.72750,-3.593698468
11.72800,-2.067726429
11.72850,-1.457337614
11.72900,-1.762532022
11.72950,0.3738288322
11.73000,4.341356132
11.73050,5.562133763
11.73100,2.510189686
11.73150,0.06863442452
11.73200,2.204995278
11.73250,5.256939355
11.73300,2.510189686
11.73350,-3.28850406
11.73400,-3.593698468
11.73450,3.425772909
11.73500,8.919272248
11.73550,6.782911394
11.73600,0.3738288322
11.73650,-2.983309652
11.73700,-3.898892876
11.73750,-4.204087283
11.73800,-3.593698468
11.73850,-0.8469487986
11.73900,0.6790232399
11.73950,0.06863442452
11.74000,-0.2365599832
11.74050,3.425772909
11.74100,8.003689025
11.74150,7.393300209
11.74200,2.204995278
11.74250,-1.457337614
11.74300,-2.067726429
11.74350,-0.8469487986
11.74400,0.3738288322
11.74450,0.3738288322
11.74500,-2.067726429
11.74550,-6.645642545
11.74600,-8.171614583
11.74650,-5.424864914
11.74700,-2.067726429
11.74750,-1.762532022
11.74800,-2.067726429
11.74850,0.9842176476
11.74900,5.256939355
11.74950,4.951744948
11.75000,-0.2365599832
11.75050,-3.593698468
11.75100,-1.457337614
11.75150,2.510189686
11.75200,4.951744948
11.75250,4.951744948
11.75300,4.036161725
11.75350,3.730967317
11.75400,5.256939355
11.75450,8.61407784
11.75500,11.0556331
11.75550,11.0556331
11.75600,9.224466656
11.75650,7.088105802
11.75700,5.562133763
11.75750,5.256939355
11.75800,5.867328171
11.75850,6.782911394
11.75900,4.036161725
11.75950,-2.372920837
11.76000,-8.171614583
11.76050,-8.171614583
11.76100,-3.898892876
11.76150,0.3738288322
11.76200,2.510189686
11.76250,2.204995278
11.76300,0.06863442452
11.76350,-4.204087283
11.76400,-6.645642545
11.76450,-6.340448137
11.76500,-5.424864914
11.76550,-5.730059322
11.76600,-4.814476099
11.76650,-0.8469487986
11.76700,2.204995278
11.76750,1.289412055
11.76800,-1.152143206
11.76850,-1.152143206
11.76900,0.3738288322
11.76950,1.594606463
11.77000,2.510189686
11.77050,5.256939355
11.77100,7.698494617
11.77150,4.341356132
11.77200,-1.762532022
11.77250,-3.898892876
11.77300,-0.8469487986
11.77350,1.594606463
11.77400,0.3738288322
11.77450,-0.5417543909
11.77500,1.594606463
11.77550,6.172522579
11.77600,7.088105802
11.77650,4.64655054
11.77700,2.510189686
11.77750,3.120578502
11.77800,4.64655054
11.77850,4.036161725
11.77900,1.594606463
11.77950,-0.5417543909
11.78000,-1.762532022
11.78050,-1.457337614
11.78100,-0.2365599832
11.78150,0.3738288322
11.78200,0.06863442452
11.78250,-0.8469487986
11.78300,-2.983309652
11.78350,-4.814476099
11.78400,-6.03525373
11.78450,-6.03525373
11.78500,-5.730059322
11.78550,-5.730059322
11.78600,-6.340448137
11.78650,-6.340448137
11.78700,-4.814476099
11.78750,-2.067726429
11.78800,-1.152143206
11.78850,-2.983309652
11.78900,-6.03525373
11.78950,-6.645642545
11.79000,-4.509281691
11.79050,-2.067726429
11.79100,-1.152143206
11.79150,-0.2365599832
11.79200,0.6790232399
11.79250,1.899800871
11.79300,2.815384094
11.79350,3.425772909
11.79400,4.341356132
11.79450,4.341356132
11.79500,4.036161725
11.79550,4.951744948
11.79600,7.698494617
11.79650,9.834855471
11.79700,9.529661063
11.79750,8.308883432
11.79800,7.393300209
11.79850,5.867328171
11.79900,1.594606463
11.79950,-3.28850406
11.80000,-5.424864914
11.80050,-2.678115245
11.80100,0.9842176476
11.80150,2.510189686
11.80200,0.6790232399
11.80250,-1.152143206
11.80300,-1.152143206
11.80350,0.3738288322
11.80400,0.6790232399
11.80450,-1.762532022
11.80500,-5.730059322
11.80550,-7.866420176
11.80600,-7.866420176
11.80650,-7.25603136
11.80700,-7.25603136
11.80750,-6.950836953
11.80800,-4.509281691
11.80850,-1.152143206
11.80900,0.06863442452
11.80950,-1.457337614
11.81000,-5.424864914
11.81050,-8.476808991
11.81100,-8.476808991
11.81150,-6.340448137
11.81200,-3.898892876
11.81250,-1.762532022
11.81300,0.06863442452
11.81350,1.289412055
11.81400,1.594606463
11.81450,2.815384094
11.81500,5.562133763
11.81550,6.782911394
11.81600,4.951744948
11.81650,1.899800871
11.81700,1.289412055
11.81750,2.204995278
11.81800,2.510189686
11.81850,1.594606463
11.81900,0.9842176476
11.81950,0.3738288322
11.82000,-1.152143206
11.82050,-3.593698468
11.82100,-2.678115245
11.82150,0.3738288322
11.82200,2.204995278
11.82250,0.06863442452
11.82300,-3.593698468
11.82350,-5.424864914
11.82400,-4.814476099
11.82450,-4.204087283
11.82500,-3.593698468
11.82550,-3.28850406
11.82600,-4.204087283
11.82650,-5.730059322
11.82700,-6.645642545
11.82750,-6.340448137
11.82800,-4.814476099
11.82850,-2.678115245
11.82900,0.6790232399
11.82950,5.256939355
11.83000,7.393300209
11.83050,6.477716986
11.83100,5.562133763
11.83150,7.698494617
11.83200,11.66602192
11.83250,12.27641073
11.83300,7.698494617
11.83350,0.6790232399
11.83400,-2.067726429
11.83450,0.06863442452
11.83500,3.120578502
11.83550,4.036161725
11.83600,2.815384094
11.83650,3.730967317
11.83700,8.61407784
11.83750,13.49718836
11.83800,13.80238277
11.83850,8.308883432
11.83900,0.3738288322
11.83950,-4.814476099
11.84000,-6.03525373
11.84050,-2.983309652
11.84100,0.3738288322
11.84150,1.899800871
11.84200,1.594606463
11.84250,0.9842176476
11.84300,0.3738288322
11.84350,-1.457337614
11.84400,-4.204087283
11.84450,-5.730059322
11.84500,-6.03525373
11.84550,-6.645642545
11.84600,-7.866420176
11.84650,-7.561225768
11.84700,-5.119670506
11.84750,-3.28850406
11.84800,-4.204087283
11.84850,-7.25603136
11.84900,-9.087197807
11.84950,-7.561225768
11.85000,-4.204087283
11.85050,-2.067726429
11.85100,-1.762532022
11.85150,-2.067726429
11.85200,-1.457337614
11.85250,0.3738288322
11.85300,2.815384094
11.85350,4.036161725
11.85400,4.341356132
11.85450,4.951744948
11.85500,7.088105802
11.85550,10.14004988
11.85600,12.58160514
11.85650,12.58160514
11.85700,10.75043869
11.85750,9.529661063
11.85800,9.224466656
11.85850,8.308883432
11.85900,5.256939355
11.85950,1.899800871
11.86000,0.6790232399
11.86050,1.899800871
11.86100,3.120578502
11.86150,2.204995278
11.86200,-0.2365599832
11.86250,-3.593698468
11.86300,-5.119670506
11.86350,-3.28850406
11.86400,0.3738288322
11.86450,2.815384094
11.86500,-0.2365599832
11.86550,-7.561225768
11.86600,-11.83394748
11.86650,-10.30797544
11.86700,-7.25603136
11.86750,-8.476808991
11.86800,-12.44433629
11.86850,-12.44433629
11.86900,-7.866420176
11.86950,-3.593698468
11.87000,-4.814476099
11.87050,-8.782003399
11.87100,-10.61316985
11.87150,-9.697586622
11.87200,-7.866420176
11.87250,-6.340448137
11.87300,-2.983309652
11.87350,1.289412055
11.87400,4.951744948
11.87450,6.172522579
11.87500,6.477716986
11.87550,7.393300209
11.87600,7.698494617
11.87650,7.698494617
11.87700,7.393300209
11.87750,8.003689025
11.87800,7.698494617
11.87850,5.867328171
11.87900,3.425772909
11.87950,1.899800871
11.88000,1.594606463
11.88050,0.9842176476
11.88100,0.3738288322
11.88150,0.06863442452
11.88200,0.3738288322
11.88250,0.9842176476
11.88300,1.594606463
11.88350,2.204995278
11.88400,0.6790232399
11.88450,-3.28850406
11.88500,-8.476808991
11.88550,-11.52875307
11.88600,-11.52875307
11.88650,-10.00278103
11.88700,-8.782003399
11.88750,-7.866420176
11.88800,-5.730059322
11.88850,-1.762532022
11.88900,2.815384094
11.88950,6.172522579
11.89000,6.172522579
11.89050,4.036161725
11.89100,2.815384094
11.89150,3.425772909
11.89200,3.425772909
11.89250,1.594606463
11.89300,-0.2365599832
11.89350,0.9842176476
11.89400,4.64655054
11.89450,7.393300209
11.89500,6.477716986
11.89550,3.425772909
11.89600,0.3738288322
11.89650,-0.2365599832
11.89700,0.6790232399
11.89750,2.510189686
11.89800,3.120578502
11.89850,2.204995278
11.89900,2.815384094
11.89950,5.562133763
11.90000,7.698494617
11.90050,6.172522579
11.90100,3.120578502
11.90150,1.899800871
11.90200,3.120578502
11.90250,2.510189686
11.90300,-0.8469487986
11.90350,-3.898892876
11.90400,-3.898892876
11.90450,-2.372920837
11.90500,-2.678115245
11.90550,-3.593698468
11.90600,-2.372920837
11.90650,0.06863442452
11.90700,1.289412055
11.90750,0.06863442452
11.90800,-3.28850406
11.90850,-5.119670506
11.90900,-4.509281691
11.90950,-2.372920837
11.91000,-0.8469487986
11.91050,-1.152143206
11.91100,-2.678115245
11.91150,-4.204087283
11.91200,-5.119670506
11.91250,-4.509281691
11.91300,-2.372920837
11.91350,-0.2365599832
11.91400,0.9842176476
11.91450,2.815384094
11.91500,5.256939355
11.91550,7.393300209
11.91600,7.088105802
11.91650,6.477716986
11.91700,7.393300209
11.91750,9.834855471
11.91800,10.14004988
11.91850,8.003689025
11.91900,5.867328171
11.91950,4.341356132
11.92000,3.120578502
11.92050,1.289412055
11.92100,-0.2365599832
11.92150,-3.28850406
11.92200,-9.697586622
11.92250,-16.41186359
11.92300,-17.02225241
11.92350,-10.61316985
11.92400,-2.983309652
11.92450,0.3738288322
11.92500,2.510189686
11.92550,5.256939355
11.92600,6.477716986
11.92650,3.730967317
11.92700,0.06863442452
11.92750,-0.5417543909
11.92800,0.9842176476
11.92850,0.9842176476
11.92900,-1.152143206
11.92950,-3.28850406
11.93000,-3.898892876
11.93050,-3.593698468
11.93100,-0.8469487986
11.93150,3.120578502
11.93200,6.172522579
11.93250,4.951744948
11.93300,2.204995278
11.93350,1.594606463
11.93400,2.815384094
11.93450,2.815384094
11.93500,2.204995278
11.93550,2.815384094
11.93600,3.730967317
11.93650,3.120578502
11.93700,2.204995278
11.93750,3.730967317
11.93800,6.172522579
11.93850,6.172522579
11.93900,2.510189686
11.93950,-0.8469487986
11.94000,-2.983309652
11.94050,-3.593698468
11.94100,-3.593698468
11.94150,-2.678115245
11.94200,-1.762532022
11.94250,-3.28850406
11.94300,-5.424864914
11.94350,-6.03525373
11.94400,-4.204087283
11.94450,-3.898892876
11.94500,-6.03525373
11.94550,-7.866420176
11.94600,-6.950836953
11.94650,-4.509281691
11.94700,-2.983309652
11.94750,-2.678115245
11.94800,-2.678115245
11.94850,-3.28850406
11.94900,-5.119670506
11.94950,-6.645642545
11.95000,-5.730059322
11.95050,-2.678115245
11.95100,0.06863442452
11.95150,1.289412055
11.95200,1.899800871
11.95250,2.510189686
11.95300,2.510189686
11.95350,2.815384094
11.95400,4.036161725
11.95450,5.867328171
11.95500,6.782911394
11.95550,5.562133763
11.95600,3.730967317
11.95650,3.425772909
11.95700,4.951744948
11.95750,6.172522579
11.95800,6.172522579
11.95850,5.256939355
11.95900,4.341356132
11.95950,2.815384094
11.96000,1.289412055
11.96050,0.06863442452
11.96100,-1.152143206
11.96150,-2.067726429
11.96200,-2.372920837
11.96250,-2.372920837
11.96300,-2.678115245
11.96350,-4.509281691
11.96400,-6.03525373
11.96450,-6.03525373
11.96500,-5.424864914
11.96550,-5.730059322
11.96600,-5.119670506
11.96650,-0.8469487986
11.96700,3.730967317
11.96750,3.730967317
11.96800,-1.457337614
11.96850,-6.950836953
11.96900,-8.171614583
11.96950,-6.950836953
11.97000,-6.03525373
11.97050,-5.119670506
11.97100,-1.457337614
11.97150,2.204995278
11.97200,3.120578502
11.97250,1.289412055
11.97300,0.06863442452
11.97350,1.594606463
11.97400,4.036161725
11.97450,5.562133763
11.97500,5.562133763
11.97550,4.036161725
11.97600,1.899800871
11.97650,1.899800871
11.97700,4.64655054
11.97750,8.308883432
11.97800,9.224466656
11.97850,6.782911394
11.97900,4.341356132
11.97950,3.425772909
11.98000,3.120578502
11.98050,1.594606463
11.98100,0.06863442452
11.98150,-0.5417543909
11.98200,-0.5417543909
11.98250,-0.8469487986
11.98300,-1.762532022
11.98350,-2.372920837
11.98400,-3.28850406
11.98450,-5.424864914
11.98500,-7.25603136
11.98550,-6.645642545
11.98600,-3.593698468
11.98650,-0.2365599832
11.98700,2.204995278
11.98750,4.951744948
11.98800,6.172522579
11.98850,1.594606463
11.98900,-5.730059322
11.98950,-8.476808991
11.99000,-1.152143206
11.99050,7.698494617
11.99100,7.088105802
11.99150,-3.28850406
11.99200,-12.13914188
11.99250,-10.61316985
11.99300,-2.678115245
11.99350,1.594606463
11.99400,2.204995278
11.99450,3.120578502
11.99500,5.867328171
11.99550,5.867328171
11.99600,0.9842176476
11.99650,-3.898892876
11.99700,-4.509281691
11.99750,-0.2365599832
11.99800,4.036161725
11.99850,5.562133763
11.99900,4.64655054
11.99950,2.815384094
12.00000,0.9842176476
12.00050,-0.2365599832
12.00100,-0.5417543909
12.00150,-0.2365599832
12.00200,-0.2365599832
12.00250,-1.152143206
12.00300,-1.762532022
12.00350,-1.457337614
12.00400,-0.8469487986
12.00450,-0.5417543909
12.00500,-0.2365599832
12.00550,0.06863442452
12.00600,0.06863442452
12.00650,0.06863442452
12.00700,-0.5417543909
12.00750,-1.152143206
12.00800,-2.983309652
12.00850,-5.730059322
12.00900,-6.950836953
12.00950,-6.340448137
12.01000,-4.509281691
12.01050,-2.678115245
12.01100,-0.2365599832
12.01150,2.815384094
12.01200,4.341356132
12.01250,3.425772909
12.01300,2.204995278
12.01350,3.425772909
12.01400,5.256939355
12.01450,5.562133763
12.01500,4.951744948
12.01550,6.172522579
12.01600,7.698494617
12.01650,6.477716986
12.01700,3.425772909
12.01750,2.204995278
12.01800,4.036161725
12.01850,4.951744948
12.01900,3.425772909
12.01950,1.289412055
12.02000,0.3738288322
12.02050,-0.2365599832
12.02100,-2.372920837
12.02150,-3.898892876
12.02200,-3.593698468
12.02250,-2.372920837
12.02300,-2.678115245
12.02350,-3.593698468
12.02400,-3.28850406
12.02450,-1.762532022
12.02500,0.06863442452
12.02550,0.6790232399
12.02600,0.06863442452
12.02650,-1.457337614
12.02700,-3.28850406
12.02750,-3.898892876
12.02800,-3.593698468
12.02850,-2.678115245
12.02900,-1.152143206
12.02950,0.3738288322
12.03000,1.594606463
12.03050,1.594606463
12.03100,1.289412055
12.03150,2.510189686
12.03200,4.036161725
12.03250,3.730967317
12.03300,3.120578502
12.03350,5.562133763
12.03400,8.61407784
12.03450,8.003689025
12.03500,2.204995278
12.03550,-2.983309652
12.03600,-3.898892876
12.03650,-1.152143206
12.03700,1.289412055
12.03750,4.036161725
12.03800,8.61407784
12.03850,12.58160514
12.03900,12.88679955
12.03950,10.44524429
12.04000,8.61407784
12.04050,9.529661063
12.04100,10.44524429
12.04150,8.919272248
12.04200,5.256939355
12.04250,0.6790232399
12.04300,-3.593698468
12.04350,-7.25603136
12.04400,-8.476808991
12.04450,-8.782003399
12.04500,-10.00278103
12.04550,-12.44433629
12.04600,-13.35991951
12.04650,-11.52875307
12.04700,-9.392392214
12.04750,-8.782003399
12.04800,-8.171614583
12.04850,-6.645642545
12.04900,-6.03525373
12.04950,-7.866420176
12.05000,-10.00278103
12.05050,-8.782003399
12.05100,-4.509281691
12.05150,-0.2365599832
12.05200,2.510189686
12.05250,4.036161725
12.05300,4.036161725
12.05350,3.120578502
12.05400,1.899800871
12.05450,2.204995278
12.05500,2.510189686
12.05550,2.510189686
12.05600,2.510189686
12.05650,3.730967317
12.05700,4.341356132
12.05750,3.120578502
12.05800,1.289412055
12.05850,2.204995278
12.05900,4.64655054
12.05950,6.477716986
12.06000,5.867328171
12.06050,4.64655054
12.06100,3.425772909
12.06150,3.120578502
12.06200,4.341356132
12.06250,6.782911394
12.06300,6.172522579
12.06350,-0.2365599832
12.06400,-9.087197807
12.06450,-13.35991951
12.06500,-11.83394748
12.06550,-10.30797544
12.06600,-11.52875307
12.06650,-13.35991951
12.06700,-12.13914188
12.06750,-10.61316985
12.06800,-10.61316985
12.06850,-11.22355866
12.06900,-9.392392214
12.06950,-5.424864914
12.07000,-1.457337614
12.07050,0.6790232399
12.07100,2.510189686
12.07150,2.204995278
12.07200,0.3738288322
12.07250,-0.5417543909
12.07300,0.06863442452
12.07350,2.204995278
12.07400,2.815384094
12.07450,2.204995278
12.07500,1.594606463
12.07550,0.9842176476
12.07600,0.06863442452
12.07650,-0.2365599832
12.07700,0.9842176476
12.07750,4.036161725
12.07800,5.867328171
12.07850,6.477716986
12.07900,8.003689025
12.07950,9.529661063
12.08000,8.61407784
12.08050,5.562133763
12.08100,3.730967317
12.08150,3.425772909
12.08200,3.120578502
12.08250,0.9842176476
12.08300,-1.152143206
12.08350,-2.372920837
12.08400,-3.28850406
12.08450,-4.509281691
12.08500,-5.730059322
12.08550,-6.645642545
12.08600,-7.866420176
12.08650,-8.782003399
12.08700,-7.25603136
12.08750,-3.593698468
12.08800,-2.067726429
12.08850,-3.593698468
12.08900,-3.898892876
12.08950,-1.152143206
12.09000,1.594606463
12.09050,0.06863442452
12.09100,-3.593698468
12.09150,-3.898892876
12.09200,0.9842176476
12.09250,6.172522579
12.09300,6.477716986
12.09350,2.815384094
12.09400,-0.2365599832
12.09450,-0.2365599832
12.09500,2.204995278
12.09550,4.951744948
12.09600,5.867328171
12.09650,5.562133763
12.09700,7.088105802
12.09750,9.834855471
12.09800,10.44524429
12.09850,7.698494617
12.09900,4.036161725
12.09950,1.899800871
12.10000,1.289412055
12.10050,0.3738288322
12.10100,0.06863442452
12.10150,0.3738288322
12.10200,0.06863442452
12.10250,-2.067726429
12.10300,-3.898892876
12.10350,-2.983309652
12.10400,-1.457337614
12.10450,-0.8469487986
12.10500,-0.5417543909
12.10550,0.06863442452
12.10600,-1.152143206
12.10650,-4.814476099
12.10700,-6.950836953
12.10750,-4.509281691
12.10800,-1.457337614
12.10850,-2.678115245
12.10900,-5.424864914
12.10950,-4.814476099
12.11000,-1.762532022
12.11050,-0.5417543909
12.11100,-1.152143206
12.11150,0.06863442452
12.11200,2.510189686
12.11250,2.510189686
12.11300,0.3738288322
12.11350,0.6790232399
12.11400,2.510189686
12.11450,1.594606463
12.11500,-0.5417543909
12.11550,-0.2365599832
12.11600,1.289412055
12.11650,0.06863442452
12.11700,-3.593698468
12.11750,-1.762532022
12.11800,6.477716986
12.11850,14.41277159
12.11900,15.0231604
12.11950,11.97121632
12.12000,10.44524429
12.12050,9.834855471
12.12100,8.003689025
12.12150,5.256939355
12.12200,3.425772909
12.12250,1.899800871
12.12300,-0.5417543909
12.12350,-3.28850406
12.12400,-3.898892876
12.12450,-2.678115245
12.12500,-0.8469487986
12.12550,-0.2365599832
12.12600,-2.067726429
12.12650,-6.03525373
12.12700,-8.476808991
12.12750,-8.476808991
12.12800,-6.645642545
12.12850,-5.119670506
12.12900,-2.983309652
12.12950,0.3738288322
12.13000,1.594606463
12.13050,-0.8469487986
12.13100,-3.898892876
12.13150,-2.983309652
12.13200,0.06863442452
12.13250,0.06863442452
12.13300,-0.8469487986
12.13350,0.6790232399
12.13400,4.951744948
12.13450,5.562133763
12.13500,1.899800871
12.13550,0.3738288322
12.13600,3.730967317
12.13650,6.782911394
12.13700,4.951744948
12.13750,1.899800871
12.13800,2.204995278
12.13850,5.256939355
12.13900,6.477716986
12.13950,4.951744948
12.14000,3.425772909
12.14050,3.120578502
12.14100,1.899800871
12.14150,0.06863442452
12.14200,-0.5417543909
12.14250,-0.8469487986
12.14300,-2.067726429
12.14350,-4.509281691
12.14400,-6.645642545
12.14450,-7.561225768
12.14500,-7.866420176
12.14550,-7.561225768
12.14600,-5.730059322
12.14650,-2.983309652
12.14700,-0.8469487986
12.14750,-1.762532022
12.14800,-4.204087283
12.14850,-6.340448137
12.14900,-6.340448137
12.14950,-4.814476099
12.15000,-2.678115245
12.15050,-0.2365599832
12.15100,0.6790232399
12.15150,1.289412055
12.15200,2.204995278
12.15250,4.341356132
12.15300,6.782911394
12.15350,8.308883432
12.15400,8.308883432
12.15450,8.919272248
12.15500,11.0556331
12.15550,12.27641073
12.15600,9.834855471
12.15650,4.951744948
12.15700,0.9842176476
12.15750,0.06863442452
12.15800,-0.5417543909
12.15850,-0.8469487986
12.15900,0.06863442452
12.15950,2.204995278
12.16000,3.730967317
12.16050,2.815384094
12.16100,0.6790232399
12.16150,-0.5417543909
12.16200,-1.152143206
12.16250,-2.678115245
12.16300,-5.119670506
12.16350,-5.730059322
12.16400,-4.509281691
12.16450,-3.28850406
12.16500,-3.593698468
12.16550,-4.204087283
12.16600,-4.509281691
12.16650,-4.509281691
12.16700,-4.204087283
12.16750,-3.898892876
12.16800,-4.814476099
12.16850,-8.171614583
12.16900,-12.13914188
12.16950,-12.44433629
12.17000,-8.171614583
12.17050,-2.678115245
12.17100,-1.152143206
12.17150,-2.372920837
12.17200,-3.28850406
12.17250,-1.762532022
12.17300,0.06863442452
12.17350,0.6790232399
12.17400,1.594606463
12.17450,3.120578502
12.17500,4.036161725
12.17550,4.036161725
12.17600,4.64655054
12.17650,6.172522579
12.17700,7.393300209
12.17750,7.088105802
12.17800,5.867328171
12.17850,5.867328171
12.17900,6.477716986
12.17950,5.562133763
12.18000,2.815384094
12.18050,0.3738288322
12.18100,0.3738288322
12.18150,0.6790232399
12.18200,-1.152143206
12.18250,-4.814476099
12.18300,-7.25603136
12.18350,-5.730059322
12.18400,-2.372920837
12.18450,-0.8469487986
12.18500,-0.8469487986
12.18550,-0.8469487986
12.18600,0.3738288322
12.18650,0.3738288322
12.18700,-1.762532022
12.18750,-4.814476099
12.18800,-4.814476099
12.18850,-2.067726429
12.18900,-0.5417543909
12.18950,-2.372920837
12.19000,-5.424864914
12.19050,-5.730059322
12.19100,-2.372920837
12.19150,0.3738288322
12.19200,0.9842176476
12.19250,-0.5417543909
12.19300,-2.372920837
12.19350,-2.678115245
12.19400,-0.8469487986
12.19450,2.815384094
12.19500,8.308883432
12.19550,13.80238277
12.19600,15.93874362
12.19650,14.10757718
12.19700,10.44524429
12.19750,8.919272248
12.19800,9.834855471
12.19850,10.44524429
12.19900,8.003689025
12.19950,2.204995278
12.20000,-3.593698468
12.20050,-6.645642545
12.20100,-7.866420176
12.20150,-9.697586622
12.20200,-11.22355866
12.20250,-10.00278103
12.20300,-6.03525373
12.20350,-2.372920837
12.20400,-2.067726429
12.20450,-3.593698468
12.20500,-4.204087283
12.20550,-3.28850406
12.20600,-2.678115245
12.20650,-2.678115245
12.20700,-2.983309652
12.20750,-2.983309652
12.20800,-2.983309652
12.20850,-3.28850406
12.20900,-2.983309652
12.20950,-2.372920837
12.21000,-2.067726429
12.21050,-2.067726429
12.21100,-1.762532022
12.21150,-1.152143206
12.21200,-0.2365599832
12.21250,0.6790232399
12.21300,2.204995278
12.21350,3.730967317
12.21400,5.256939355
12.21450,6.477716986
12.21500,6.477716986
12.21550,4.64655054
12.21600,3.425772909
12.21650,4.036161725
12.21700,5.562133763
12.21750,5.562133763
12.21800,3.425772909
12.21850,2.815384094
12.21900,4.341356132
12.21950,6.172522579
12.22000,5.256939355
12.22050,2.815384094
12.22100,0.9842176476
12.22150,0.3738288322
12.22200,0.06863442452
12.22250,0.06863442452
12.22300,0.6790232399
12.22350,1.289412055
12.22400,-0.8469487986
12.22450,-5.730059322
12.22500,-8.782003399
12.22550,-8.171614583
12.22600,-5.730059322
12.22650,-4.509281691
12.22700,-5.424864914
12.22750,-6.950836953
12.22800,-6.950836953
12.22850,-6.03525373
12.22900,-4.204087283
12.22950,-2.983309652
12.23000,-1.762532022
12.23050,-0.8469487986
12.23100,-0.8469487986
12.23150,-1.457337614
12.23200,-1.457337614
12.23250,0.6790232399
12.23300,4.341356132
12.23350,5.562133763
12.23400,4.036161725
12.23450,2.510189686
12.23500,4.341356132
12.23550,7.698494617
12.23600,9.529661063
12.23650,8.308883432
12.23700,6.172522579
12.23750,4.951744948
12.23800,5.867328171
12.23850,8.003689025
12.23900,8.308883432
12.23950,5.256939355
12.24000,1.289412055
12.24050,0.3738288322
12.24100,1.899800871
12.24150,2.204995278
12.24200,-0.5417543909
12.24250,-4.204087283
12.24300,-5.424864914
12.24350,-3.898892876
12.24400,-1.762532022
12.24450,-0.2365599832
12.24500,0.06863442452
12.24550,-1.152143206
12.24600,-4.509281691
12.24650,-7.25603136
12.24700,-6.950836953
12.24750,-5.424864914
12.24800,-6.340448137
12.24850,-8.476808991
12.24900,-8.476808991
12.24950,-5.730059322
12.25000,-3.593698468
12.25050,-3.898892876
12.25100,-3.593698468
12.25150,-1.152143206
12.25200,0.6790232399
12.25250,-0.2365599832
12.25300,-2.983309652
12.25350,-2.678115245
12.25400,1.289412055
12.25450,6.477716986
12.25500,9.529661063
12.25550,10.14004988
12.25600,9.224466656
12.25650,7.088105802
12.25700,4.036161725
12.25750,2.510189686
12.25800,3.120578502
12.25850,5.256939355
12.25900,6.782911394
12.25950,7.088105802
12.26000,5.562133763
12.26050,2.510189686
12.26100,0.3738288322
12.26150,0.6790232399
12.26200,1.899800871
12.26250,1.594606463
12.26300,-1.152143206
12.26350,-4.204087283
12.26400,-5.730059322
12.26450,-6.340448137
12.26500,-7.561225768
12.26550,-8.476808991
12.26600,-7.561225768
12.26650,-5.730059322
12.26700,-4.509281691
12.26750,-4.509281691
12.26800,-4.814476099
12.26850,-4.204087283
12.26900,-3.593698468
12.26950,-3.593698468
12.27000,-4.814476099
12.27050,-6.950836953
12.27100,-7.561225768
12.27150,-4.814476099
12.27200,-0.8469487986
12.27250,1.899800871
12.27300,2.815384094
12.27350,3.120578502
12.27400,3.730967317
12.27450,4.951744948
12.27500,6.782911394
12.27550,8.919272248
12.27600,10.44524429
12.27650,9.834855471
12.27700,7.698494617
12.27750,6.782911394
12.27800,7.088105802
12.27850,8.003689025
12.27900,7.088105802
12.27950,4.341356132
12.28000,1.289412055
12.28050,-0.2365599832
12.28100,-0.8469487986
12.28150,-1.457337614
12.28200,-3.28850406
12.28250,-5.730059322
12.28300,-6.645642545
12.28350,-5.730059322
12.28400,-4.204087283
12.28450,-2.983309652
12.28500,-2.372920837
12.28550,-2.067726429
12.28600,-3.28850406
12.28650,-6.340448137
12.28700,-8.476808991
12.28750,-8.476808991
12.28800,-6.950836953
12.28850,-4.814476099
12.28900,-2.372920837
12.28950,0.6790232399
12.29000,1.899800871
12.29050,-0.5417543909
12.29100,-4.509281691
12.29150,-4.814476099
12.29200,-0.5417543909
12.29250,3.120578502
12.29300,2.510189686
12.29350,-1.762532022
12.29400,-4.204087283
12.29450,-2.067726429
12.29500,1.289412055
12.29550,2.510189686
12.29600,0.9842176476
12.29650,0.9842176476
12.29700,3.730967317
12.29750,7.393300209
12.29800,8.003689025
12.29850,7.088105802
12.29900,6.477716986
12.29950,7.088105802
12.30000,6.477716986
12.30050,4.951744948
12.30100,3.425772909
12.30150,1.899800871
12.30200,0.06863442452
12.30250,-2.067726429
12.30300,-2.678115245
12.30350,-2.678115245
12.30400,-2.983309652
12.30450,-3.593698468
12.30500,-2.983309652
12.30550,-2.372920837
12.30600,-2.983309652
12.30650,-4.204087283
12.30700,-3.898892876
12.30750,-2.678115245
12.30800,-2.983309652
12.30850,-4.509281691
12.30900,-3.898892876
12.30950,-0.8469487986
12.31000,0.3738288322
12.31050,0.06863442452
12.31100,0.6790232399
12.31150,3.425772909
12.31200,5.256939355
12.31250,3.120578502
12.31300,0.06863442452
12.31350,0.06863442452
12.31400,4.341356132
12.31450,7.698494617
12.31500,7.393300209
12.31550,5.256939355
12.31600,3.730967317
12.31650,4.036161725
12.31700,5.562133763
12.31750,7.088105802
12.31800,7.088105802
12.31850,6.172522579
12.31900,5.256939355
12.31950,4.951744948
12.32000,4.341356132
12.32050,3.425772909
12.32100,2.510189686
12.32150,1.594606463
12.32200,0.06863442452
12.32250,-1.457337614
12.32300,-1.457337614
12.32350,-0.2365599832
12.32400,0.06863442452
12.32450,-0.8469487986
12.32500,-1.457337614
12.32550,-0.8469487986
12.32600,-1.762532022
12.32650,-5.730059322
12.32700,-10.91836425
12.32750,-13.05472511
12.32800,-11.52875307
12.32850,-8.782003399
12.32900,-7.25603136
12.32950,-6.645642545
12.33000,-5.730059322
12.33050,-3.898892876
12.33100,-2.067726429
12.33150,-0.8469487986
12.33200,-0.2365599832
12.33250,0.06863442452
12.33300,0.3738288322
12.33350,1.899800871
12.33400,4.64655054
12.33450,6.172522579
12.33500,6.172522579
12.33550,5.867328171
12.33600,6.782911394
12.33650,8.003689025
12.33700,6.172522579
12.33750,1.594606463
12.33800,-1.457337614
12.33850,-0.5417543909
12.33900,0.9842176476
12.33950,1.289412055
12.34000,0.3738288322
12.34050,1.899800871
12.34100,4.951744948
12.34150,5.867328171
12.34200,4.036161725
12.34250,1.899800871
12.34300,1.289412055
12.34350,0.9842176476
12.34400,-1.457337614
12.34450,-4.814476099
12.34500,-6.340448137
12.34550,-4.814476099
12.34600,-2.372920837
12.34650,-2.372920837
12.34700,-5.424864914
12.34750,-9.087197807
12.34800,-9.697586622
12.34850,-7.25603136
12.34900,-5.730059322
12.34950,-6.645642545
12.35000,-7.25603136
12.35050,-4.814476099
12.35100,-1.457337614
12.35150,0.06863442452
12.35200,0.06863442452
12.35250,-0.2365599832
12.35300,-1.152143206
12.35350,-1.762532022
12.35400,-0.2365599832
12.35450,4.036161725
12.35500,7.088105802
12.35550,7.088105802
12.35600,6.782911394
12.35650,8.919272248
12.35700,10.75043869
12.35750,8.003689025
12.35800,3.425772909
12.35850,2.204995278
12.35900,4.64655054
12.35950,6.782911394
12.36000,6.172522579
12.36050,4.951744948
12.36100,4.341356132
12.36150,4.036161725
12.36200,4.036161725
12.36250,4.341356132
12.36300,4.341356132
12.36350,2.815384094
12.36400,0.3738288322
12.36450,0.06863442452
12.36500,-0.2365599832
12.36550,-2.372920837
12.36600,-6.03525373
12.36650,-8.782003399
12.36700,-9.392392214
12.36750,-8.476808991
12.36800,-6.645642545
12.36850,-5.119670506
12.36900,-5.119670506
12.36950,-7.25603136
12.37000,-9.392392214
12.37050,-9.697586622
12.37100,-7.25603136
12.37150,-4.814476099
12.37200,-2.678115245
12.37250,-0.8469487986
12.37300,0.9842176476
12.37350,3.730967317
12.37400,5.867328171
12.37450,6.782911394
12.37500,5.867328171
12.37550,3.425772909
12.37600,3.120578502
12.37650,5.256939355
12.37700,7.393300209
12.37750,6.477716986
12.37800,3.730967317
12.37850,1.289412055
12.37900,0.3738288322
12.37950,0.06863442452
12.38000,0.06863442452
12.38050,0.3738288322
12.38100,0.3738288322
12.38150,-0.8469487986
12.38200,-2.372920837
12.38250,-1.457337614
12.38300,0.6790232399
12.38350,0.9842176476
12.38400,-1.457337614
12.38450,-4.204087283
12.38500,-3.593698468
12.38550,-0.5417543909
12.38600,0.06863442452
12.38650,-2.983309652
12.38700,-8.476808991
12.38750,-11.83394748
12.38800,-11.52875307
12.38850,-8.782003399
12.38900,-6.03525373
12.38950,-4.814476099
12.39000,-4.814476099
12.39050,-4.814476099
12.39100,-2.983309652
12.39150,-0.2365599832
12.39200,0.9842176476
12.39250,0.3738288322
12.39300,0.06863442452
12.39350,1.289412055
12.39400,4.341356132
12.39450,5.562133763
12.39500,4.036161725
12.39550,2.510189686
12.39600,2.815384094
12.39650,4.036161725
12.39700,4.341356132
12.39750,4.341356132
12.39800,5.256939355
12.39850,5.562133763
12.39900,4.036161725
12.39950,1.594606463
12.40000,1.594606463
12.40050,4.951744948
12.40100,8.61407784
12.40150,8.919272248
12.40200,5.256939355
12.40250,0.06863442452
12.40300,-3.28850406
12.40350,-3.898892876
12.40400,-2.983309652
12.40450,-2.372920837
12.40500,-2.678115245
12.40550,-2.678115245
12.40600,-2.372920837
12.40650,-2.983309652
12.40700,-4.814476099
12.40750,-7.866420176
12.40800,-9.392392214
12.40850,-9.392392214
12.40900,-7.866420176
12.40950,-6.03525373
12.41000,-4.814476099
12.41050,-4.814476099
12.41100,-5.119670506
12.41150,-3.898892876
12.41200,-1.762532022
12.41250,0.06863442452
12.41300,0.06863442452
12.41350,1.289412055
12.41400,4.951744948
12.41450,9.834855471
12.41500,13.80238277
12.41550,15.32835481
12.41600,14.41277159
12.41650,12.58160514
12.41700,9.834855471
12.41750,6.782911394
12.41800,5.256939355
12.41850,5.562133763
12.41900,6.782911394
12.41950,5.867328171
12.42000,2.204995278
12.42050,-1.762532022
12.42100,-3.898892876
12.42150,-4.204087283
12.42200,-4.204087283
12.42250,-4.814476099
12.42300,-4.814476099
12.42350,-3.593698468
12.42400,-1.762532022
12.42450,0.3738288322
12.42500,2.510189686
12.42550,3.120578502
12.42600,0.9842176476
12.42650,-1.457337614
12.42700,-2.067726429
12.42750,-2.067726429
12.42800,-3.28850406
12.42850,-5.730059322
12.42900,-5.730059322
12.42950,-3.593698468
12.43000,-2.372920837
12.43050,-3.898892876
12.43100,-4.509281691
12.43150,-2.678115245
12.43200,-1.152143206
12.43250,-2.372920837
12.43300,-4.204087283
12.43350,-2.678115245
12.43400,1.594606463
12.43450,5.256939355
12.43500,6.782911394
12.43550,7.088105802
12.43600,7.698494617
12.43650,8.003689025
12.43700,7.698494617
12.43750,7.088105802
12.43800,6.477716986
12.43850,5.256939355
12.43900,3.425772909
12.43950,2.510189686
12.44000,2.510189686
12.44050,2.510189686
12.44100,1.289412055
12.44150,-0.8469487986
12.44200,-1.762532022
12.44250,-0.5417543909
12.44300,1.899800871
12.44350,2.510189686
12.44400,0.3738288322
12.44450,-2.372920837
12.44500,-3.898892876
12.44550,-3.593698468
12.44600,-2.983309652
12.44650,-2.372920837
12.44700,-1.457337614
12.44750,-0.5417543909
12.44800,0.06863442452
12.44850,1.289412055
12.44900,2.204995278
12.44950,0.9842176476
12.45000,-2.067726429
12.45050,-5.424864914
12.45100,-6.03525373
12.45150,-4.204087283
12.45200,-2.372920837
12.45250,-1.457337614
12.45300,-1.457337614
12.45350,-1.152143206
12.45400,0.06863442452
12.45450,2.204995278
12.45500,4.64655054
12.45550,5.867328171
12.45600,6.172522579
12.45650,5.867328171
12.45700,5.562133763
12.45750,4.64655054
12.45800,2.510189686
12.45850,0.06863442452
12.45900,-1.152143206
12.45950,0.06863442452
12.46000,3.730967317
12.46050,7.698494617
12.46100,8.003689025
12.46150,3.425772909
12.46200,-2.067726429
12.46250,-5.730059322
12.46300,-5.730059322
12.46350,-5.119670506
12.46400,-6.03525373
12.46450,-7.561225768
12.46500,-9.087197807
12.46550,-9.697586622
12.46600,-9.087197807
12.46650,-7.561225768
12.46700,-6.03525373
12.46750,-4.814476099
12.46800,-3.898892876
12.46850,-3.898892876
12.46900,-4.814476099
12.46950,-5.730059322
12.47000,-5.119670506
12.47050,-2.678115245
12.47100,-0.2365599832
12.47150,0.6790232399
12.47200,1.594606463
12.47250,2.510189686
12.47300,2.815384094
12.47350,2.204995278
12.47400,1.899800871
12.47450,2.815384094
12.47500,4.341356132
12.47550,4.341356132
12.47600,4.036161725
12.47650,4.951744948
12.47700,7.088105802
12.47750,8.003689025
12.47800,6.477716986
12.47850,4.341356132
12.47900,3.425772909
12.47950,4.951744948
12.48000,5.867328171
12.48050,4.64655054
12.48100,1.899800871
12.48150,-0.2365599832
12.48200,-0.8469487986
12.48250,-0.2365599832
12.48300,-0.8469487986
12.48350,-2.678115245
12.48400,-3.593698468
12.48450,-2.678115245
12.48500,-1.762532022
12.48550,-2.983309652
12.48600,-6.645642545
12.48650,-9.697586622
12.48700,-9.087197807
12.48750,-6.03525373
12.48800,-4.509281691
12.48850,-7.25603136
12.48900,-11.83394748
12.48950,-13.35991951
12.49000,-10.30797544
12.49050,-5.730059322
12.49100,-1.762532022
12.49150,0.6790232399
12.49200,2.815384094
12.49250,3.425772909
12.49300,1.899800871
12.49350,0.06863442452
12.49400,0.3738288322
12.49450,3.425772909
12.49500,6.782911394
12.49550,8.308883432
12.49600,8.919272248
12.49650,9.529661063
12.49700,9.834855471
12.49750,8.61407784
12.49800,4.951744948
12.49850,1.289412055
12.49900,0.06863442452
12.49950,0.6790232399
12.50000,2.510189686
12.50050,4.036161725
12.50100,5.562133763
12.50150,6.477716986
12.50200,5.256939355
12.50250,0.3738288322
12.50300,-4.509281691
12.50350,-5.730059322
12.50400,-4.204087283
12.50450,-2.983309652
12.50500,-3.898892876
12.50550,-4.509281691
12.50600,-4.204087283
12.50650,-4.814476099
12.50700,-6.950836953
12.50750,-7.561225768
12.50800,-5.424864914
12.50850,-2.372920837
12.50900,-2.067726429
12.50950,-2.983309652
12.51000,-3.28850406
12.51050,-1.762532022
12.51100,0.06863442452
12.51150,0.06863442452
12.51200,-0.5417543909
12.51250,-2.067726429
12.51300,-3.28850406
12.51350,-2.678115245
12.51400,0.06863442452
12.51450,2.815384094
12.51500,4.64655054
12.51550,5.256939355
12.51600,5.562133763
12.51650,5.562133763
12.51700,5.256939355
12.51750,5.256939355
12.51800,5.867328171
12.51850,6.172522579
12.51900,5.256939355
12.51950,4.036161725
12.52000,3.425772909
12.52050,4.036161725
12.52100,4.64655054
12.52150,3.730967317
12.52200,2.204995278
12.52250,1.289412055
12.52300,1.289412055
12.52350,1.594606463
12.52400,1.289412055
12.52450,0.06863442452
12.52500,-2.067726429
12.52550,-2.678115245
12.52600,-0.8469487986
12.52650,2.815384094
12.52700,6.172522579
12.52750,6.172522579
12.52800,1.594606463
12.52850,-4.814476099
12.52900,-9.697586622
12.52950,-9.087197807
12.53000,-5.119670506
12.53050,-2.372920837
12.53100,-2.983309652
12.53150,-5.119670506
12.53200,-5.730059322
12.53250,-4.204087283
12.53300,-1.152143206
12.53350,2.204995278
12.53400,4.341356132
12.53450,3.730967317
12.53500,1.899800871
12.53550,1.899800871
12.53600,4.341356132
12.53650,4.951744948
12.53700,1.899800871
12.53750,-1.152143206
12.53800,-0.5417543909
12.53850,2.510189686
12.53900,4.341356132
12.53950,2.815384094
12.54000,0.3738288322
12.54050,-1.762532022
12.54100,-4.509281691
12.54150,-6.950836953
12.54200,-6.950836953
12.54250,-4.814476099
12.54300,-2.678115245
12.54350,-0.8469487986
12.54400,0.3738288322
12.54450,1.289412055
12.54500,0.3738288322
12.54550,-0.5417543909
12.54600,0.06863442452
12.54650,0.3738288322
12.54700,-1.152143206
12.54750,-5.119670506
12.54800,-6.645642545
12.54850,-4.814476099
12.54900,-3.593698468
12.54950,-4.814476099
12.55000,-5.424864914
12.55050,-3.898892876
12.55100,-2.067726429
12.55150,-1.152143206
12.55200,0.06863442452
12.55250,1.899800871
12.55300,3.120578502
12.55350,2.204995278
12.55400,2.204995278
12.55450,5.256939355
12.55500,8.61407784
12.55550,9.224466656
12.55600,8.003689025
12.55650,6.782911394
12.55700,5.256939355
12.55750,2.204995278
12.55800,-0.5417543909
12.55850,-0.8469487986
12.55900,1.594606463
12.55950,3.730967317
12.56000,3.425772909
12.56050,2.815384094
12.56100,3.425772909
12.56150,3.730967317
12.56200,2.510189686
12.56250,0.6790232399
12.56300,0.06863442452
12.56350,0.06863442452
12.56400,-0.2365599832
12.56450,-0.8469487986
12.56500,-1.457337614
12.56550,-2.067726429
12.56600,-3.898892876
12.56650,-5.730059322
12.56700,-5.119670506
12.56750,-2.983309652
12.56800,-1.457337614
12.56850,-2.067726429
12.56900,-3.898892876
12.56950,-6.03525373
12.57000,-7.561225768
12.57050,-7.866420176
12.57100,-6.03525373
12.57150,-1.762532022
12.57200,2.815384094
12.57250,4.951744948
12.57300,4.341356132
12.57350,2.815384094
12.57400,2.815384094
12.57450,4.64655054
12.57500,6.172522579
12.57550,5.867328171
12.57600,4.036161725
12.57650,3.730967317
12.57700,5.867328171
12.57750,9.224466656
12.57800,10.44524429
12.57850,9.834855471
12.57900,9.224466656
12.57950,8.61407784
12.58000,5.562133763
12.58050,0.6790232399
12.58100,-2.067726429
12.58150,-0.8469487986
12.58200,1.289412055
12.58250,1.289412055
12.58300,-0.5417543909
12.58350,-1.457337614
12.58400,-1.762532022
12.58450,-2.678115245
12.58500,-4.204087283
12.58550,-4.814476099
12.58600,-4.509281691
12.58650,-4.814476099
12.58700,-6.340448137
12.58750,-7.866420176
12.58800,-8.476808991
12.58850,-8.476808991
12.58900,-8.171614583
12.58950,-6.03525373
12.59000,-3.593698468
12.59050,-1.762532022
12.59100,-1.152143206
12.59150,-0.2365599832
12.59200,0.06863442452
12.59250,0.06863442452
12.59300,0.06863442452
12.59350,1.594606463
12.59400,4.341356132
12.59450,7.088105802
12.59500,9.224466656
12.59550,12.58160514
12.59600,13.80238277
12.59650,10.44524429
12.59700,4.341356132
12.59750,1.594606463
12.59800,2.815384094
12.59850,3.120578502
12.59900,-0.2365599832
12.59950,-3.28850406
12.60000,-2.067726429
12.60050,0.6790232399
12.60100,2.204995278
12.60150,3.120578502
12.60200,4.341356132
12.60250,4.036161725
12.60300,1.594606463
12.60350,0.3738288322
12.60400,1.594606463
12.60450,1.899800871
12.60500,-1.152143206
12.60550,-4.204087283
12.60600,-3.898892876
12.60650,-3.28850406
12.60700,-6.03525373
12.60750,-10.00278103
12.60800,-11.22355866
12.60850,-11.52875307
12.60900,-13.66511392
12.60950,-15.49628037
12.61000,-13.05472511
12.61050,-7.866420176
12.61100,-4.204087283
12.61150,-2.372920837
12.61200,0.06863442452
12.61250,3.730967317
12.61300,5.256939355
12.61350,4.951744948
12.61400,6.477716986
12.61450,9.224466656
12.61500,10.14004988
12.61550,8.308883432
12.61600,5.562133763
12.61650,4.341356132
12.61700,5.867328171
12.61750,9.834855471
12.61800,13.19199396
12.61850,10.44524429
12.61900,0.06863442452
12.61950,-9.697586622
12.62000,-11.52875307
12.62050,-5.730059322
12.62100,0.3738288322
12.62150,2.815384094
12.62200,1.899800871
12.62250,0.3738288322
12.62300,-1.152143206
12.62350,-2.983309652
12.62400,-4.814476099
12.62450,-7.25603136
12.62500,-10.00278103
12.62550,-9.697586622
12.62600,-5.730059322
12.62650,-2.678115245
12.62700,-4.204087283
12.62750,-8.782003399
12.62800,-10.30797544
12.62850,-7.866420176
12.62900,-5.730059322
12.62950,-5.730059322
12.63000,-6.03525373
12.63050,-3.593698468
12.63100,-0.8469487986
12.63150,-0.8469487986
12.63200,-3.898892876
12.63250,-6.950836953
12.63300,-7.25603136
12.63350,-4.204087283
12.63400,-0.2365599832
12.63450,3.425772909
12.63500,6.782911394
12.63550,9.224466656
12.63600,9.834855471
12.63650,8.919272248
12.63700,7.393300209
12.63750,7.393300209
12.63800,9.529661063
12.63850,11.36082751
12.63900,9.834855471
12.63950,5.256939355
12.64000,0.6790232399
12.64050,-0.8469487986
12.64100,-0.2365599832
12.64150,0.06863442452
12.64200,0.06863442452
12.64250,0.06863442452
12.64300,0.6790232399
12.64350,1.594606463
12.64400,1.289412055
12.64450,0.06863442452
12.64500,-2.067726429
12.64550,-3.898892876
12.64600,-5.424864914
12.64650,-5.119670506
12.64700,-4.814476099
12.64750,-5.424864914
12.64800,-6.645642545
12.64850,-6.03525373
12.64900,-4.204087283
12.64950,-3.28850406
12.65000,-4.509281691
12.65050,-4.814476099
12.65100,-2.372920837
12.65150,0.3738288322
12.65200,0.9842176476
12.65250,0.6790232399
12.65300,1.289412055
12.65350,3.425772909
12.65400,4.64655054
12.65450,4.64655054
12.65500,5.256939355
12.65550,6.477716986
12.65600,7.393300209
12.65650,7.698494617
12.65700,7.088105802
12.65750,5.867328171
12.65800,5.256939355
12.65850,6.477716986
12.65900,9.224466656
12.65950,10.14004988
12.66000,8.003689025
12.66050,5.562133763
12.66100,4.341356132
12.66150,2.815384094
12.66200,-0.8469487986
12.66250,-4.509281691
12.66300,-4.814476099
12.66350,-2.678115245
12.66400,-2.067726429
12.66450,-3.898892876
12.66500,-5.119670506
12.66550,-4.509281691
12.66600,-3.28850406
12.66650,-3.28850406
12.66700,-3.898892876
12.66750,-5.424864914
12.66800,-7.561225768
12.66850,-8.782003399
12.66900,-8.171614583
12.66950,-6.03525373
12.67000,-5.424864914
12.67050,-6.950836953
12.67100,-7.866420176
12.67150,-6.03525373
12.67200,-3.593698468
12.67250,-2.372920837
12.67300,-2.372920837
12.67350,-1.457337614
12.67400,0.06863442452
12.67450,2.510189686
12.67500,4.64655054
12.67550,6.477716986
12.67600,8.61407784
12.67650,10.44524429
12.67700,11.0556331
12.67750,9.834855471
12.67800,6.782911394
12.67850,3.425772909
12.67900,2.510189686
12.67950,4.036161725
12.68000,5.867328171
12.68050,5.562133763
12.68100,3.425772909
12.68150,1.289412055
12.68200,0.06863442452
12.68250,0.06863442452
12.68300,0.06863442452
12.68350,-0.2365599832
12.68400,0.06863442452
12.68450,0.06863442452
12.68500,-0.2365599832
12.68550,-1.762532022
12.68600,-3.593698468
12.68650,-4.814476099
12.68700,-5.730059322
12.68750,-6.340448137
12.68800,-6.03525373
12.68850,-4.204087283
12.68900,-2.067726429
12.68950,-1.457337614
12.69000,-2.678115245
12.69050,-2.678115245
12.69100,0.9842176476
12.69150,6.782911394
12.69200,9.529661063
12.69250,5.562133763
12.69300,-1.762532022
12.69350,-6.340448137
12.69400,-5.424864914
12.69450,-1.762532022
12.69500,0.06863442452
12.69550,-0.8469487986
12.69600,-0.8469487986
12.69650,0.06863442452
12.69700,1.289412055
12.69750,1.289412055
12.69800,1.899800871
12.69850,3.730967317
12.69900,5.867328171
12.69950,5.867328171
12.70000,4.341356132
12.70050,2.815384094
12.70100,2.510189686
12.70150,1.899800871
12.70200,0.3738288322
12.70250,-1.762532022
12.70300,-2.678115245
12.70350,-2.067726429
12.70400,-0.8469487986
12.70450,-1.457337614
12.70500,-3.898892876
12.70550,-6.340448137
12.70600,-6.645642545
12.70650,-5.730059322
12.70700,-6.645642545
12.70750,-8.782003399
12.70800,-8.476808991
12.70850,-3.898892876
12.70900,1.289412055
12.70950,3.120578502
12.71000,1.594606463
12.71050,0.06863442452
12.71100,0.9842176476
12.71150,4.64655054
12.71200,9.834855471
12.71250,12.27641073
12.71300,8.003689025
12.71350,-2.067726429
12.71400,-10.30797544
12.71450,-9.697586622
12.71500,-2.678115245
12.71550,2.204995278
12.71600,2.815384094
12.71650,3.120578502
12.71700,5.562133763
12.71750,6.782911394
12.71800,4.64655054
12.71850,2.815384094
12.71900,4.036161725
12.71950,6.172522579
12.72000,6.172522579
12.72050,4.951744948
12.72100,4.64655054
12.72150,3.120578502
12.72200,0.06863442452
12.72250,-1.457337614
12.72300,0.6790232399
12.72350,3.425772909
12.72400,1.594606463
12.72450,-2.372920837
12.72500,-2.678115245
12.72550,0.06863442452
12.72600,0.3738288322
12.72650,-3.898892876
12.72700,-8.476808991
12.72750,-10.00278103
12.72800,-9.697586622
12.72850,-9.087197807
12.72900,-6.645642545
12.72950,-2.372920837
12.73000,0.6790232399
12.73050,0.06863442452
12.73100,-1.152143206
12.73150,-1.457337614
12.73200,-0.8469487986
12.73250,-0.5417543909
12.73300,0.06863442452
12.73350,1.594606463
12.73400,3.425772909
12.73450,3.120578502
12.73500,3.425772909
12.73550,6.172522579
12.73600,9.529661063
12.73650,10.44524429
12.73700,8.919272248
12.73750,8.919272248
12.73800,10.44524429
12.73850,10.14004988
12.73900,5.867328171
12.73950,0.3738288322
12.74000,-1.762532022
12.74050,-0.5417543909
12.74100,1.899800871
12.74150,3.425772909
12.74200,3.120578502
12.74250,2.815384094
12.74300,3.730967317
12.74350,4.341356132
12.74400,1.594606463
12.74450,-3.28850406
12.74500,-6.950836953
12.74550,-6.645642545
12.74600,-5.119670506
12.74650,-4.814476099
12.74700,-6.340448137
12.74750,-6.645642545
12.74800,-6.340448137
12.74850,-6.950836953
12.74900,-8.476808991
12.74950,-8.476808991
12.75000,-7.561225768
12.75050,-6.950836953
12.75100,-7.561225768
12.75150,-6.645642545
12.75200,-3.593698468
12.75250,-0.5417543909
12.75300,1.594606463
12.75350,2.815384094
12.75400,3.120578502
12.75450,2.815384094
12.75500,2.510189686
12.75550,3.730967317
12.75600,6.172522579
12.75650,8.003689025
12.75700,7.698494617
12.75750,7.088105802
12.75800,7.088105802
12.75850,6.782911394
12.75900,6.172522579
12.75950,5.562133763
12.76000,5.867328171
12.76050,6.477716986
12.76100,6.782911394
12.76150,5.867328171
12.76200,3.730967317
12.76250,2.204995278
12.76300,1.289412055
12.76350,0.9842176476
12.76400,-0.5417543909
12.76450,-3.28850406
12.76500,-5.119670506
12.76550,-4.204087283
12.76600,-3.593698468
12.76650,-6.03525373
12.76700,-10.61316985
12.76750,-13.35991951
12.76800,-11.83394748
12.76850,-8.476808991
12.76900,-5.119670506
12.76950,-2.372920837
12.77000,-1.152143206
12.77050,-1.152143206
12.77100,-2.372920837
12.77150,-2.983309652
12.77200,-2.372920837
12.77250,-0.8469487986
12.77300,0.6790232399
12.77350,2.204995278
12.77400,2.204995278
12.77450,0.06863442452
12.77500,-3.28850406
12.77550,-5.119670506
12.77600,-4.204087283
12.77650,-1.762532022
12.77700,0.3738288322
12.77750,2.204995278
12.77800,2.815384094
12.77850,2.204995278
12.77900,1.594606463
12.77950,1.899800871
12.78000,1.899800871
12.78050,1.594606463
12.78100,2.204995278
12.78150,4.036161725
12.78200,4.341356132
12.78250,2.815384094
12.78300,1.899800871
12.78350,3.120578502
12.78400,6.172522579
12.78450,7.393300209
12.78500,5.867328171
12.78550,2.815384094
12.78600,-0.5417543909
12.78650,-3.898892876
12.78700,-4.814476099
12.78750,-2.983309652
12.78800,-1.457337614
12.78850,-3.28850406
12.78900,-7.561225768
12.78950,-9.392392214
12.79000,-7.25603136
12.79050,-3.593698468
12.79100,-2.678115245
12.79150,-4.204087283
12.79200,-5.730059322
12.79250,-4.509281691
12.79300,-0.8469487986
12.79350,2.815384094
12.79400,4.341356132
12.79450,3.120578502
12.79500,0.6790232399
12.79550,0.06863442452
12.79600,1.289412055
12.79650,2.510189686
12.79700,2.815384094
12.79750,3.425772909
12.79800,5.256939355
12.79850,7.393300209
12.79900,8.308883432
12.79950,8.003689025
12.80000,7.088105802
12.80050,5.562133763
12.80100,3.730967317
12.80150,1.899800871
12.80200,1.289412055
12.80250,2.204995278
12.80300,3.425772909
12.80350,2.815384094
12.80400,0.06863442452
12.80450,-4.509281691
12.80500,-9.087197807
12.80550,-11.52875307
12.80600,-11.52875307
12.80650,-9.697586622
12.80700,-8.782003399
12.80750,-8.171614583
12.80800,-7.25603136
12.80850,-5.730059322
12.80900,-5.119670506
12.80950,-6.03525373
12.81000,-6.950836953
12.81050,-6.340448137
12.81100,-5.119670506
12.81150,-4.509281691
12.81200,-3.898892876
12.81250,-1.152143206
12.81300,3.120578502
12.81350,5.867328171
12.81400,5.256939355
12.81450,3.425772909
12.81500,3.120578502
12.81550,4.341356132
12.81600,4.64655054
12.81650,4.036161725
12.81700,3.120578502
12.81750,2.510189686
12.81800,1.899800871
12.81850,1.594606463
12.81900,1.899800871
12.81950,2.510189686
12.82000,3.120578502
12.82050,3.730967317
12.82100,4.951744948
12.82150,5.256939355
12.82200,3.425772909
12.82250,-0.5417543909
12.82300,-3.28850406
12.82350,-2.372920837
12.82400,0.06863442452
12.82450,0.9842176476
12.82500,0.06863442452
12.82550,-0.8469487986
12.82600,-2.067726429
12.82650,-3.593698468
12.82700,-4.509281691
12.82750,-4.204087283
12.82800,-3.898892876
12.82850,-4.509281691
12.82900,-5.424864914
12.82950,-5.119670506
12.83000,-3.28850406
12.83050,-1.762532022
12.83100,-1.152143206
12.83150,-0.8469487986
12.83200,0.6790232399
12.83250,2.204995278
12.83300,1.594606463
12.83350,-0.8469487986
12.83400,-2.067726429
12.83450,0.3738288322
12.83500,5.256939355
12.83550,8.61407784
12.83600,8.003689025
12.83650,6.172522579
12.83700,6.172522579
12.83750,7.088105802
12.83800,7.393300209
12.83850,7.698494617
12.83900,8.61407784
12.83950,8.61407784
12.84000,5.256939355
12.84050,1.899800871
12.84100,2.510189686
12.84150,4.951744948
12.84200,4.036161725
12.84250,0.3738288322
12.84300,-0.2365599832
12.84350,1.594606463
12.84400,2.204995278
12.84450,-0.8469487986
12.84500,-2.983309652
12.84550,-1.152143206
12.84600,0.9842176476
12.84650,1.289412055
12.84700,0.6790232399
12.84750,0.06863442452
12.84800,-2.678115245
12.84850,-8.171614583
12.84900,-10.00278103
12.84950,-5.119670506
12.85000,1.289412055
12.85050,3.425772909
12.85100,2.815384094
12.85150,4.341356132
12.85200,5.562133763
12.85250,1.594606463
12.85300,-4.509281691
12.85350,-6.950836953
12.85400,-4.814476099
12.85450,-4.204087283
12.85500,-7.561225768
12.85550,-9.697586622
12.85600,-6.950836953
12.85650,-2.678115245
12.85700,-0.5417543909
12.85750,0.06863442452
12.85800,2.510189686
12.85850,5.562133763
12.85900,7.393300209
12.85950,6.477716986
12.86000,3.120578502
12.86050,0.06863442452
12.86100,-0.5417543909
12.86150,0.06863442452
12.86200,0.9842176476
12.86250,0.3738288322
12.86300,-0.8469487986
12.86350,-2.372920837
12.86400,-3.593698468
12.86450,-4.509281691
12.86500,-4.204087283
12.86550,-2.067726429
12.86600,0.06863442452
12.86650,0.06863442452
12.86700,-1.762532022
12.86750,-2.983309652
12.86800,-2.678115245
12.86850,-1.457337614
12.86900,-1.152143206
12.86950,-1.762532022
12.87000,-3.593698468
12.87050,-6.340448137
12.87100,-8.476808991
12.87150,-8.476808991
12.87200,-6.03525373
12.87250,-2.372920837
12.87300,0.6790232399
12.87350,3.425772909
12.87400,4.951744948
12.87450,5.256939355
12.87500,4.951744948
12.87550,5.867328171
12.87600,7.393300209
12.87650,8.308883432
12.87700,9.224466656
12.87750,10.44524429
12.87800,11.36082751
12.87850,10.75043869
12.87900,9.224466656
12.87950,8.003689025
12.88000,7.088105802
12.88050,4.036161725
12.88100,0.06863442452
12.88150,-1.457337614
12.88200,-0.2365599832
12.88250,1.594606463
12.88300,1.289412055
12.88350,-0.2365599832
12.88400,-2.678115245
12.88450,-3.898892876
12.88500,-3.28850406
12.88550,-1.457337614
12.88600,-0.2365599832
12.88650,-1.457337614
12.88700,-4.814476099
12.88750,-7.866420176
12.88800,-8.476808991
12.88850,-7.561225768
12.88900,-6.340448137
12.88950,-5.119670506
12.89000,-4.509281691
12.89050,-4.509281691
12.89100,-4.509281691
12.89150,-3.898892876
12.89200,-3.593698468
12.89250,-3.593698468
12.89300,-3.593698468
12.89350,-2.983309652
12.89400,-2.372920837
12.89450,-1.457337614
12.89500,0.3738288322
12.89550,4.036161725
12.89600,6.477716986
12.89650,8.003689025
12.89700,10.44524429
12.89750,13.19199396
12.89800,12.27641073
12.89850,8.003689025
12.89900,7.393300209
12.89950,13.49718836
12.90000,17.46471566
12.90050,8.919272248
12.90100,-6.340448137
12.90150,-15.19108596
12.90200,-11.52875307
12.90250,-4.509281691
12.90300,-1.762532022
12.90350,-2.678115245
12.90400,-2.983309652
12.90450,-2.983309652
12.90500,-3.898892876
12.90550,-5.424864914
12.90600,-5.730059322
12.90650,-6.03525373
12.90700,-7.561225768
12.90750,-7.866420176
12.90800,-5.424864914
12.90850,-2.372920837
12.90900,-1.762532022
12.90950,-4.509281691
12.91000,-7.866420176
12.91050,-10.00278103
12.91100,-8.782003399
12.91150,-5.424864914
12.91200,-1.762532022
12.91250,-0.2365599832
12.91300,-0.2365599832
12.91350,0.06863442452
12.91400,1.289412055
12.91450,3.120578502
12.91500,4.036161725
12.91550,4.64655054
12.91600,4.64655054
12.91650,4.341356132
12.91700,4.64655054
12.91750,5.562133763
12.91800,6.172522579
12.91850,5.562133763
12.91900,5.256939355
12.91950,6.477716986
12.92000,7.698494617
12.92050,7.393300209
12.92100,5.562133763
12.92150,4.64655054
12.92200,4.64655054
12.92250,4.341356132
12.92300,3.425772909
12.92350,2.815384094
12.92400,2.204995278
12.92450,0.06863442452
12.92500,-3.593698468
12.92550,-6.03525373
12.92600,-6.340448137
12.92650,-6.03525373
12.92700,-5.424864914
12.92750,-4.509281691
12.92800,-3.28850406
12.92850,-2.372920837
12.92900,-2.372920837
12.92950,-2.983309652
12.93000,-1.762532022
12.93050,0.3738288322
12.93100,1.899800871
12.93150,2.204995278
12.93200,2.815384094
12.93250,5.562133763
12.93300,8.308883432
12.93350,7.088105802
12.93400,1.289412055
12.93450,-3.898892876
12.93500,-4.509281691
12.93550,-0.5417543909
12.93600,3.425772909
12.93650,5.562133763
12.93700,6.477716986
12.93750,6.782911394
12.93800,6.477716986
12.93850,4.951744948
12.93900,4.036161725
12.93950,4.341356132
12.94000,4.64655054
12.94050,4.036161725
12.94100,3.120578502
12.94150,2.510189686
12.94200,2.204995278
12.94250,1.594606463
12.94300,0.06863442452
12.94350,-2.372920837
12.94400,-4.204087283
12.94450,-4.814476099
12.94500,-4.509281691
12.94550,-5.424864914
12.94600,-8.476808991
12.94650,-10.61316985
12.94700,-8.782003399
12.94750,-5.730059322
12.94800,-5.119670506
12.94850,-7.25603136
12.94900,-8.171614583
12.94950,-5.424864914
12.95000,-2.983309652
12.95050,-2.983309652
12.95100,-3.28850406
12.95150,-1.762532022
12.95200,0.06863442452
12.95250,-0.8469487986
12.95300,-2.678115245
12.95350,-1.457337614
12.95400,0.6790232399
12.95450,1.289412055
12.95500,0.3738288322
12.95550,1.289412055
12.95600,4.036161725
12.95650,6.172522579
12.95700,7.088105802
12.95750,8.308883432
12.95800,10.44524429
12.95850,10.75043869
12.95900,8.308883432
12.95950,6.172522579
12.96000,5.256939355
12.96050,4.341356132
12.96100,2.204995278
12.96150,0.6790232399
12.96200,0.9842176476
12.96250,1.899800871
12.96300,1.899800871
12.96350,2.204995278
12.96400,4.951744948
12.96450,6.477716986
12.96500,3.425772909
12.96550,-3.593698468
12.96600,-9.392392214
12.96650,-11.52875307
12.96700,-11.52875307
12.96750,-11.22355866
12.96800,-11.22355866
12.96850,-10.91836425
12.96900,-11.52875307
12.96950,-12.44433629
12.97000,-11.22355866
12.97050,-6.950836953
12.97100,-3.898892876
12.97150,-4.509281691
12.97200,-6.645642545
12.97250,-6.340448137
12.97300,-4.509281691
12.97350,-2.678115245
12.97400,-0.8469487986
12.97450,1.594606463
12.97500,4.341356132
12.97550,4.951744948
12.97600,4.341356132
12.97650,4.64655054
12.97700,6.477716986
12.97750,7.088105802
12.97800,5.562133763
12.97850,4.036161725
12.97900,4.036161725
12.97950,5.867328171
12.98000,8.61407784
12.98050,10.44524429
12.98100,10.14004988
12.98150,8.003689025
12.98200,6.172522579
12.98250,4.64655054
12.98300,1.594606463
12.98350,-3.898892876
12.98400,-8.782003399
12.98450,-8.782003399
12.98500,-4.204087283
12.98550,0.6790232399
12.98600,2.204995278
12.98650,-2.372920837
12.98700,-11.83394748
12.98750,-19.76900208
12.98800,-19.76900208
12.98850,-11.83394748
12.98900,-4.509281691
12.98950,-3.593698468
12.99000,-6.645642545
12.99050,-7.25603136
12.99100,-4.204087283
12.99150,-1.152143206
12.99200,-0.2365599832
12.99250,-0.2365599832
12.99300,0.9842176476
12.99350,3.425772909
12.99400,5.256939355
12.99450,5.562133763
12.99500,4.64655054
12.99550,3.120578502
12.99600,3.120578502
12.99650,3.425772909
12.99700,3.425772909
12.99750,3.730967317
12.99800,5.256939355
12.99850,7.698494617
12.99900,7.698494617
12.99950,5.562133763
13.00000,3.730967317
13.00050,4.341356132
13.00100,6.477716986
13.00150,7.698494617
13.00200,7.088105802
13.00250,4.951744948
13.00300,1.899800871
13.00350,-1.152143206
13.00400,-2.372920837
13.00450,-1.762532022
13.00500,-1.152143206
13.00550,-1.457337614
13.00600,-2.372920837
13.00650,-2.067726429
13.00700,-1.152143206
13.00750,-1.152143206
13.00800,-2.372920837
13.00850,-4.204087283
13.00900,-6.340448137
13.00950,-7.561225768
13.01000,-7.25603136
13.01050,-6.03525373
13.01100,-4.814476099
13.01150,-4.814476099
13.01200,-3.28850406
13.01250,0.3738288322
13.01300,5.867328171
13.01350,9.224466656
13.01400,9.224466656
13.01450,7.088105802
13.01500,4.951744948
13.01550,3.730967317
13.01600,2.510189686
13.01650,2.815384094
13.01700,5.562133763
13.01750,8.919272248
13.01800,8.61407784
13.01850,4.341356132
13.01900,0.6790232399
13.01950,0.06863442452
13.02000,1.289412055
13.02050,1.594606463
13.02100,1.594606463
13.02150,2.510189686
13.02200,3.120578502
13.02250,1.289412055
13.02300,-1.762532022
13.02350,-3.593698468
13.02400,-2.372920837
13.02450,-1.152143206
13.02500,-0.8469487986
13.02550,-1.457337614
13.02600,-2.067726429
13.02650,-3.28850406
13.02700,-3.898892876
13.02750,-2.983309652
13.02800,-2.678115245
13.02850,-4.814476099
13.02900,-8.171614583
13.02950,-9.087197807
13.03000,-5.730059322
13.03050,-0.8469487986
13.03100,1.899800871
13.03150,2.815384094
13.03200,3.120578502
13.03250,3.425772909
13.03300,2.204995278
13.03350,0.06863442452
13.03400,0.06863442452
13.03450,2.815384094
13.03500,8.308883432
13.03550,12.58160514
13.03600,12.58160514
13.03650,9.529661063
13.03700,5.562133763
13.03750,2.204995278
13.03800,0.6790232399
13.03850,0.6790232399
13.03900,2.204995278
13.03950,3.120578502
13.04000,2.815384094
13.04050,2.510189686
13.04100,4.036161725
13.04150,6.172522579
13.04200,5.562133763
13.04250,0.3738288322
13.04300,-4.509281691
13.04350,-6.340448137
13.04400,-4.509281691
13.04450,-2.983309652
13.04500,-3.593698468
13.04550,-4.509281691
13.04600,-3.898892876
13.04650,-3.28850406
13.04700,-4.814476099
13.04750,-7.561225768
13.04800,-9.392392214
13.04850,-8.476808991
13.04900,-6.950836953
13.04950,-6.03525373
13.05000,-5.730059322
13.05050,-4.814476099
13.05100,-3.898892876
13.05150,-3.593698468
13.05200,-2.983309652
13.05250,-0.8469487986
13.05300,1.594606463
13.05350,2.815384094
13.05400,0.6790232399
13.05450,-1.457337614
13.05500,-1.152143206
13.05550,1.289412055
13.05600,3.425772909
13.05650,4.036161725
13.05700,3.730967317
13.05750,4.341356132
13.05800,5.256939355
13.05850,6.172522579
13.05900,7.393300209
13.05950,8.308883432
13.06000,8.308883432
13.06050,7.088105802
13.06100,6.782911394
13.06150,7.393300209
13.06200,7.088105802
13.06250,4.036161725
13.06300,-0.2365599832
13.06350,-3.28850406
13.06400,-4.814476099
13.06450,-4.509281691
13.06500,-3.898892876
13.06550,-3.28850406
13.06600,-3.898892876
13.06650,-6.340448137
13.06700,-9.392392214
13.06750,-10.30797544
13.06800,-9.697586622
13.06850,-8.476808991
13.06900,-6.645642545
13.06950,-4.204087283
13.07000,-2.983309652
13.07050,-3.898892876
13.07100,-4.814476099
13.07150,-3.28850406
13.07200,-0.5417543909
13.07250,-0.5417543909
13.07300,-2.067726429
13.07350,-0.8469487986
13.07400,2.815384094
13.07450,6.172522579
13.07500,7.088105802
13.07550,7.393300209
13.07600,8.919272248
13.07650,8.61407784
13.07700,6.477716986
13.07750,6.172522579
13.07800,9.529661063
13.07850,11.97121632
13.07900,9.224466656
13.07950,4.036161725
13.08000,2.204995278
13.08050,3.120578502
13.08100,3.120578502
13.08150,1.289412055
13.08200,1.594606463
13.08250,4.64655054
13.08300,5.867328171
13.08350,3.120578502
13.08400,-0.8469487986
13.08450,-2.678115245
13.08500,-2.067726429
13.08550,-1.762532022
13.08600,-2.983309652
13.08650,-5.424864914
13.08700,-7.25603136
13.08750,-8.171614583
13.08800,-7.866420176
13.08850,-6.950836953
13.08900,-6.03525373
13.08950,-4.814476099
13.09000,-2.983309652
13.09050,-1.152143206
13.09100,-0.5417543909
13.09150,-0.2365599832
13.09200,0.06863442452
13.09250,-0.5417543909
13.09300,-0.8469487986
13.09350,0.06863442452
13.09400,1.594606463
13.09450,1.594606463
13.09500,0.06863442452
13.09550,-1.152143206
13.09600,-1.762532022
13.09650,-2.067726429
13.09700,-1.457337614
13.09750,0.9842176476
13.09800,5.256939355
13.09850,7.698494617
13.09900,8.003689025
13.09950,9.529661063
13.10000,10.44524429
13.10050,6.172522579
13.10100,-3.28850406
13.10150,-10.61316985
13.10200,-9.392392214
13.10250,-2.983309652
13.10300,1.594606463
13.10350,2.815384094
13.10400,1.289412055
13.10450,-1.152143206
13.10500,-5.424864914
13.10550,-8.782003399
13.10600,-10.00278103
13.10650,-10.30797544
13.10700,-10.61316985
13.10750,-8.782003399
13.10800,-6.03525373
13.10850,-5.119670506
13.10900,-5.119670506
13.10950,-2.678115245
13.11000,3.120578502
13.11050,5.867328171
13.11100,0.6790232399
13.11150,-7.866420176
13.11200,-13.05472511
13.11250,-13.66511392
13.11300,-12.7495307
13.11350,-10.61316985
13.11400,-5.119670506
13.11450,1.899800871
13.11500,7.698494617
13.11550,11.0556331
13.11600,12.27641073
13.11650,11.66602192
13.11700,9.834855471
13.11750,8.61407784
13.11800,9.224466656
13.11850,10.44524429
13.11900,9.529661063
13.11950,8.003689025
13.12000,7.698494617
13.12050,8.003689025
13.12100,7.698494617
13.12150,6.477716986
13.12200,5.256939355
13.12250,3.425772909
13.12300,0.6790232399
13.12350,-0.8469487986
13.12400,-0.5417543909
13.12450,-0.2365599832
13.12500,-1.762532022
13.12550,-4.204087283
13.12600,-5.119670506
13.12650,-4.509281691
13.12700,-4.204087283
13.12750,-4.204087283
13.12800,-3.898892876
13.12850,-3.28850406
13.12900,-3.28850406
13.12950,-3.898892876
13.13000,-3.898892876
13.13050,-4.509281691
13.13100,-6.03525373
13.13150,-6.950836953
13.13200,-6.03525373
13.13250,-4.204087283
13.13300,-2.983309652
13.13350,-2.678115245
13.13400,-1.152143206
13.13450,1.289412055
13.13500,3.730967317
13.13550,4.341356132
13.13600,4.341356132
13.13650,4.64655054
13.13700,5.867328171
13.13750,7.393300209
13.13800,8.003689025
13.13850,7.088105802
13.13900,5.562133763
13.13950,5.562133763
13.14000,6.477716986
13.14050,7.088105802
13.14100,5.867328171
13.14150,4.341356132
13.14200,4.036161725
13.14250,5.256939355
13.14300,6.172522579
13.14350,4.951744948
13.14400,1.594606463
13.14450,-2.067726429
13.14500,-4.204087283
13.14550,-3.898892876
13.14600,-3.593698468
13.14650,-4.204087283
13.14700,-5.119670506
13.14750,-4.509281691
13.14800,-3.593698468
13.14850,-5.424864914
13.14900,-9.392392214
13.14950,-11.22355866
13.15000,-9.087197807
13.15050,-5.730059322
13.15100,-4.814476099
13.15150,-5.730059322
13.15200,-6.645642545
13.15250,-6.950836953
13.15300,-6.645642545
13.15350,-4.509281691
13.15400,0.3738288322
13.15450,7.393300209
13.15500,11.0556331
13.15550,9.224466656
13.15600,4.951744948
13.15650,3.425772909
13.15700,5.562133763
13.15750,8.003689025
13.15800,8.308883432
13.15850,7.088105802
13.15900,5.867328171
13.15950,4.951744948
13.16000,3.425772909
13.16050,2.510189686
13.16100,2.510189686
13.16150,3.425772909
13.16200,4.341356132
13.16250,4.951744948
13.16300,5.562133763
13.16350,6.477716986
13.16400,6.477716986
13.16450,3.120578502
13.16500,-2.983309652
13.16550,-9.697586622
13.16600,-12.13914188
13.16650,-9.697586622
13.16700,-6.340448137
13.16750,-5.730059322
13.16800,-7.25603136
13.16850,-8.171614583
13.16900,-7.866420176
13.16950,-7.866420176
13.17000,-8.476808991
13.17050,-7.561225768
13.17100,-4.204087283
13.17150,-1.152143206
13.17200,-0.2365599832
13.17250,-0.8469487986
13.17300,-0.8469487986
13.17350,-0.5417543909
13.17400,-0.5417543909
13.17450,0.06863442452
13.17500,1.899800871
13.17550,3.730967317
13.17600,4.341356132
13.17650,4.64655054
13.17700,7.088105802
13.17750,9.834855471
13.17800,9.224466656
13.17850,5.562133763
13.17900,3.730967317
13.17950,5.562133763
13.18000,8.919272248
13.18050,8.003689025
13.18100,1.899800871
13.18150,-4.204087283
13.18200,-5.424864914
13.18250,-2.678115245
13.18300,-1.457337614
13.18350,-3.898892876
13.18400,-6.950836953
13.18450,-7.25603136
13.18500,-6.340448137
13.18550,-5.119670506
13.18600,-2.067726429
13.18650,2.510189686
13.18700,5.867328171
13.18750,4.64655054
13.18800,0.9842176476
13.18850,0.06863442452
13.18900,0.9842176476
13.18950,-0.5417543909
13.19000,-4.814476099
13.19050,-8.476808991
13.19100,-9.087197807
13.19150,-8.476808991
13.19200,-7.561225768
13.19250,-4.509281691
13.19300,-0.5417543909
13.19350,0.6790232399
13.19400,-1.762532022
13.19450,-5.119670506
13.19500,-4.814476099
13.19550,-0.5417543909
13.19600,4.036161725
13.19650,6.172522579
13.19700,4.951744948
13.19750,1.899800871
13.19800,0.06863442452
13.19850,0.3738288322
13.19900,0.9842176476
13.19950,2.510189686
13.20000,5.867328171
13.20050,10.44524429
13.20100,12.88679955
13.20150,10.75043869
13.20200,6.477716986
13.20250,4.036161725
13.20300,3.120578502
13.20350,2.204995278
13.20400,1.289412055
13.20450,1.899800871
13.20500,3.425772909
13.20550,2.510189686
13.20600,-0.2365599832
13.20650,-2.983309652
13.20700,-3.593698468
13.20750,-3.593698468
13.20800,-4.509281691
13.20850,-5.730059322
13.20900,-5.730059322
13.20950,-5.119670506
13.21000,-3.593698468
13.21050,-1.457337614
13.21100,0.06863442452
13.21150,0.6790232399
13.21200,0.06863442452
13.21250,0.06863442452
13.21300,1.289412055
13.21350,2.510189686
13.21400,2.510189686
13.21450,1.594606463
13.21500,0.9842176476
13.21550,0.9842176476
13.21600,1.899800871
13.21650,4.64655054
13.21700,8.61407784
13.21750,11.36082751
13.21800,10.44524429
13.21850,7.393300209
13.21900,5.562133763
13.21950,5.867328171
13.22000,6.172522579
13.22050,4.341356132
13.22100,0.9842176476
13.22150,-1.762532022
13.22200,-3.898892876
13.22250,-4.509281691
13.22300,-3.593698468
13.22350,-1.762532022
13.22400,-0.5417543909
13.22450,-0.5417543909
13.22500,-1.152143206
13.22550,-2.678115245
13.22600,-4.509281691
13.22650,-6.340448137
13.22700,-6.950836953
13.22750,-6.950836953
13.22800,-7.25603136
13.22850,-7.25603136
13.22900,-5.424864914
13.22950,-2.678115245
13.23000,-3.593698468
13.23050,-8.782003399
13.23100,-13.97030833
13.23150,-13.97030833
13.23200,-9.392392214
13.23250,-4.204087283
13.23300,-0.8469487986
13.23350,0.9842176476
13.23400,1.899800871
13.23450,1.594606463
13.23500,1.289412055
13.23550,2.815384094
13.23600,5.867328171
13.23650,7.088105802
13.23700,4.64655054
13.23750,2.204995278
13.23800,2.204995278
13.23850,4.341356132
13.23900,5.562133763
13.23950,5.256939355
13.24000,6.477716986
13.24050,8.919272248
13.24100,8.919272248
13.24150,4.341356132
13.24200,-0.2365599832
13.24250,-0.2365599832
13.24300,2.510189686
13.24350,2.510189686
13.24400,-2.067726429
13.24450,-7.25603136
13.24500,-8.171614583
13.24550,-6.950836953
13.24600,-6.03525373
13.24650,-6.03525373
13.24700,-5.119670506
13.24750,-3.898892876
13.24800,-4.509281691
13.24850,-5.730059322
13.24900,-6.950836953
13.24950,-7.561225768
13.25000,-7.866420176
13.25050,-7.25603136
13.25100,-5.730059322
13.25150,-4.509281691
13.25200,-4.509281691
13.25250,-4.204087283
13.25300,-2.067726429
13.25350,0.6790232399
13.25400,2.510189686
13.25450,3.425772909
13.25500,4.341356132
13.25550,4.341356132
13.25600,3.425772909
13.25650,3.730967317
13.25700,6.782911394
13.25750,11.97121632
13.25800,15.0231604
13.25850,13.80238277
13.25900,8.919272248
13.25950,3.730967317
13.26000,0.6790232399
13.26050,0.06863442452
13.26100,0.06863442452
13.26150,0.6790232399
13.26200,1.899800871
13.26250,3.425772909
13.26300,4.341356132
13.26350,3.730967317
13.26400,1.289412055
13.26450,-1.152143206
13.26500,-2.678115245
13.26550,-2.983309652
13.26600,-1.762532022
13.26650,-0.2365599832
13.26700,0.3738288322
13.26750,-0.5417543909
13.26800,-2.678115245
13.26850,-4.814476099
13.26900,-4.814476099
13.26950,-3.593698468
13.27000,-2.678115245
13.27050,-2.372920837
13.27100,-2.678115245
13.27150,-3.28850406
13.27200,-3.28850406
13.27250,-2.678115245
13.27300,-0.8469487986
13.27350,0.6790232399
13.27400,1.289412055
13.27450,1.594606463
13.27500,1.899800871
13.27550,3.425772909
13.27600,4.64655054
13.27650,5.256939355
13.27700,4.951744948
13.27750,4.341356132
13.27800,4.036161725
13.27850,5.256939355
13.27900,8.003689025
13.27950,10.75043869
13.28000,10.75043869
13.28050,7.393300209
13.28100,4.036161725
13.28150,2.204995278
13.28200,2.510189686
13.28250,1.899800871
13.28300,0.3738288322
13.28350,-0.2365599832
13.28400,0.06863442452
13.28450,0.3738288322
13.28500,-0.2365599832
13.28550,-1.457337614
13.28600,-3.28850406
13.28650,-5.119670506
13.28700,-6.340448137
13.28750,-6.340448137
13.28800,-6.03525373
13.28850,-6.950836953
13.28900,-8.171614583
13.28950,-7.561225768
13.29000,-5.119670506
13.29050,-2.983309652
13.29100,-2.678115245
13.29150,-3.593698468
13.29200,-4.204087283
13.29250,-4.509281691
13.29300,-4.204087283
13.29350,-1.762532022
13.29400,0.3738288322
13.29450,0.6790232399
13.29500,-1.762532022
13.29550,-2.983309652
13.29600,0.06863442452
13.29650,4.64655054
13.29700,6.782911394
13.29750,4.951744948
13.29800,1.594606463
13.29850,-0.8469487986
13.29900,-2.067726429
13.29950,-0.8469487986
13.30000,2.815384094
13.30050,7.393300209
13.30100,10.44524429
13.30150,10.75043869
13.30200,9.529661063
13.30250,6.477716986
13.30300,2.815384094
13.30350,0.06863442452
13.30400,0.06863442452
13.30450,0.9842176476
13.30500,0.6790232399
13.30550,-1.762532022
13.30600,-4.204087283
13.30650,-4.509281691
13.30700,-2.067726429
13.30750,0.3738288322
13.30800,1.594606463
13.30850,1.289412055
13.30900,1.289412055
13.30950,1.899800871
13.31000,0.06863442452
13.31050,-5.424864914
13.31100,-11.83394748
13.31150,-12.44433629
13.31200,-7.25603136
13.31250,-3.28850406
13.31300,-3.898892876
13.31350,-6.340448137
13.31400,-5.424864914
13.31450,-2.983309652
13.31500,-1.152143206
13.31550,0.06863442452
13.31600,1.594606463
13.31650,3.425772909
13.31700,2.815384094
13.31750,1.289412055
13.31800,1.594606463
13.31850,3.425772909
13.31900,5.562133763
13.31950,7.393300209
13.32000,9.529661063
13.32050,11.36082751
13.32100,11.36082751
13.32150,10.44524429
13.32200,9.834855471
13.32250,8.308883432
13.32300,5.256939355
13.32350,2.204995278
13.32400,1.289412055
13.32450,0.9842176476
13.32500,0.06863442452
13.32550,-0.2365599832
13.32600,1.899800871
13.32650,3.120578502
13.32700,-2.372920837
13.32750,-12.44433629
13.32800,-18.24303004
13.32850,-16.41186359
13.32900,-12.13914188
13.32950,-11.52875307
13.33000,-12.13914188
13.33050,-9.392392214
13.33100,-3.898892876
13.33150,-0.8469487986
13.33200,-1.152143206
13.33250,-2.678115245
13.33300,-3.28850406
13.33350,-2.678115245
13.33400,-1.762532022
13.33450,0.3738288322
13.33500,3.120578502
13.33550,5.867328171
13.33600,8.308883432
13.33650,9.529661063
13.33700,7.698494617
13.33750,2.510189686
13.33800,-1.152143206
13.33850,0.06863442452
13.33900,4.036161725
13.33950,5.867328171
13.34000,4.64655054
13.34050,4.64655054
13.34100,7.393300209
13.34150,7.698494617
13.34200,4.951744948
13.34250,3.120578502
13.34300,5.867328171
13.34350,8.308883432
13.34400,6.172522579
13.34450,1.899800871
13.34500,2.204995278
13.34550,5.562133763
13.34600,5.256939355
13.34650,0.3738288322
13.34700,-2.983309652
13.34750,-2.372920837
13.34800,-1.152143206
13.34850,-3.28850406
13.34900,-7.561225768
13.34950,-10.00278103
13.35000,-9.392392214
13.35050,-9.087197807
13.35100,-8.782003399
13.35150,-7.25603136
13.35200,-4.814476099
13.35250,-3.898892876
13.35300,-4.204087283
13.35350,-3.593698468
13.35400,-0.5417543909
13.35450,1.899800871
13.35500,1.899800871
13.35550,-0.2365599832
13.35600,-1.457337614
13.35650,-0.2365599832
13.35700,1.289412055
13.35750,2.204995278
13.35800,2.510189686
13.35850,2.815384094
13.35900,2.815384094
13.35950,2.510189686
13.36000,3.425772909
13.36050,4.64655054
13.36100,5.562133763
13.36150,5.562133763
13.36200,6.782911394
13.36250,8.308883432
13.36300,7.393300209
13.36350,2.204995278
13.36400,-2.678115245
13.36450,-3.898892876
13.36500,-1.762532022
13.36550,-0.8469487986
13.36600,-2.372920837
13.36650,-4.204087283
13.36700,-5.424864914
13.36750,-6.645642545
13.36800,-8.476808991
13.36850,-10.61316985
13.36900,-11.52875307
13.36950,-10.91836425
13.37000,-9.087197807
13.37050,-6.03525373
13.37100,-2.983309652
13.37150,-1.762532022
13.37200,-2.372920837
13.37250,-2.983309652
13.37300,-2.372920837
13.37350,-1.762532022
13.37400,-1.762532022
13.37450,-2.067726429
13.37500,-1.152143206
13.37550,0.9842176476
13.37600,3.730967317
13.37650,5.562133763
13.37700,5.562133763
13.37750,4.64655054
13.37800,3.425772909
13.37850,3.120578502
13.37900,3.425772909
13.37950,4.036161725
13.38000,3.730967317
13.38050,2.815384094
13.38100,2.510189686
13.38150,4.036161725
13.38200,6.477716986
13.38250,7.698494617
13.38300,8.003689025
13.38350,8.919272248
13.38400,11.66602192
13.38450,12.27641073
13.38500,8.003689025
13.38550,-0.2365599832
13.38600,-8.782003399
13.38650,-13.97030833
13.38700,-15.49628037
13.38750,-13.97030833
13.38800,-10.91836425
13.38850,-8.782003399
13.38900,-8.782003399
13.38950,-8.476808991
13.39000,-6.645642545
13.39050,-4.509281691
13.39100,-4.509281691
13.39150,-5.730059322
13.39200,-5.730059322
13.39250,-4.509281691
13.39300,-2.983309652
13.39350,-1.457337614
13.39400,0.06863442452
13.39450,2.204995278
13.39500,2.815384094
13.39550,2.510189686
13.39600,2.510189686
13.39650,4.341356132
13.39700,5.867328171
13.39750,6.172522579
13.39800,6.172522579
13.39850,6.477716986
13.39900,7.088105802
13.39950,7.393300209
13.40000,7.698494617
13.40050,8.308883432
13.40100,8.308883432
13.40150,7.088105802
13.40200,5.256939355
13.40250,4.036161725
13.40300,3.730967317
13.40350,3.730967317
13.40400,3.425772909
13.40450,4.64655054
13.40500,6.477716986
13.40550,5.867328171
13.40600,0.06863442452
13.40650,-8.171614583
13.40700,-13.97030833
13.40750,-14.27550274
13.40800,-12.44433629
13.40850,-11.52875307
13.40900,-10.61316985
13.40950,-8.171614583
13.41000,-4.814476099
13.41050,-2.983309652
13.41100,-2.372920837
13.41150,-0.8469487986
13.41200,1.289412055
13.41250,2.510189686
13.41300,1.899800871
13.41350,1.289412055
13.41400,2.204995278
13.41450,2.510189686
13.41500,2.510189686
13.41550,3.730967317
13.41600,5.867328171
13.41650,6.477716986
13.41700,5.256939355
13.41750,4.64655054
13.41800,5.562133763
13.41850,6.172522579
13.41900,4.64655054
13.41950,3.120578502
13.42000,3.425772909
13.42050,4.64655054
13.42100,4.951744948
13.42150,5.256939355
13.42200,6.782911394
13.42250,8.003689025
13.42300,5.867328171
13.42350,2.204995278
13.42400,-0.2365599832
13.42450,-0.8469487986
13.42500,-1.762532022
13.42550,-2.372920837
13.42600,-2.067726429
13.42650,-2.067726429
13.42700,-4.204087283
13.42750,-6.03525373
13.42800,-5.424864914
13.42850,-2.983309652
13.42900,-2.983309652
13.42950,-5.424864914
13.43000,-6.645642545
13.43050,-4.509281691
13.43100,-1.762532022
13.43150,-1.762532022
13.43200,-3.28850406
13.43250,-3.898892876
13.43300,-2.372920837
13.43350,-0.5417543909
13.43400,0.06863442452
13.43450,-0.5417543909
13.43500,-2.678115245
13.43550,-4.814476099
13.43600,-5.424864914
13.43650,-4.204087283
13.43700,-1.762532022
13.43750,0.3738288322
13.43800,2.510189686
13.43850,4.341356132
13.43900,5.562133763
13.43950,5.867328171
13.44000,6.782911394
13.44050,8.919272248
13.44100,10.75043869
13.44150,10.44524429
13.44200,8.919272248
13.44250,7.088105802
13.44300,5.562133763
13.44350,3.730967317
13.44400,0.9842176476
13.44450,-0.2365599832
13.44500,-0.5417543909
13.44550,-0.8469487986
13.44600,-1.762532022
13.44650,-1.457337614
13.44700,0.9842176476
13.44750,2.204995278
13.44800,-1.762532022
13.44850,-10.00278103
13.44900,-15.49628037
13.44950,-13.97030833
13.45000,-8.476808991
13.45050,-4.814476099
13.45100,-5.119670506
13.45150,-7.25603136
13.45200,-8.171614583
13.45250,-5.730059322
13.45300,-2.067726429
13.45350,-0.8469487986
13.45400,-3.28850406
13.45450,-4.509281691
13.45500,-1.152143206
13.45550,4.341356132
13.45600,5.562133763
13.45650,1.899800871
13.45700,-0.5417543909
13.45750,0.3738288322
13.45800,3.730967317
13.45850,6.782911394
13.45900,9.529661063
13.45950,11.0556331
13.46000,8.919272248
13.46050,4.341356132
13.46100,1.594606463
13.46150,3.120578502
13.46200,4.341356132
13.46250,1.899800871
13.46300,-0.5417543909
13.46350,-1.152143206
13.46400,0.06863442452
13.46450,0.06863442452
13.46500,-1.152143206
13.46550,-1.762532022
13.46600,-2.372920837
13.46650,-4.204087283
13.46700,-5.424864914
13.46750,-4.204087283
13.46800,-2.678115245
13.46850,-3.593698468
13.46900,-6.03525373
13.46950,-6.645642545
13.47000,-5.119670506
13.47050,-3.898892876
13.47100,-4.509281691
13.47150,-5.730059322
13.47200,-5.730059322
13.47250,-5.424864914
13.47300,-5.119670506
13.47350,-3.593698468
13.47400,-0.5417543909
13.47450,1.899800871
13.47500,3.425772909
13.47550,4.036161725
13.47600,4.036161725
13.47650,3.730967317
13.47700,3.425772909
13.47750,2.204995278
13.47800,0.6790232399
13.47850,-0.8469487986
13.47900,-0.8469487986
13.47950,2.204995278
13.48000,8.003689025
13.48050,12.27641073
13.48100,12.88679955
13.48150,11.36082751
13.48200,12.27641073
13.48250,14.10757718
13.48300,12.27641073
13.48350,4.951744948
13.48400,-2.067726429
13.48450,-3.898892876
13.48500,-1.457337614
13.48550,-0.5417543909
13.48600,-1.457337614
13.48650,-2.067726429
13.48700,-2.983309652
13.48750,-6.03525373
13.48800,-9.392392214
13.48850,-7.866420176
13.48900,-3.28850406
13.48950,-2.067726429
13.49000,-7.25603136
13.49050,-13.05472511
13.49100,-13.35991951
13.49150,-9.392392214
13.49200,-5.424864914
13.49250,-2.067726429
13.49300,0.3738288322
13.49350,1.594606463
13.49400,1.594606463
13.49450,1.594606463
13.49500,2.204995278
13.49550,1.594606463
13.49600,-0.5417543909
13.49650,-2.372920837
13.49700,-1.762532022
13.49750,-0.8469487986
13.49800,-1.762532022
13.49850,-2.983309652
13.49900,-2.067726429
13.49950,0.9842176476
13.50000,4.341356132
13.50050,7.088105802
13.50100,8.61407784
13.50150,8.308883432
13.50200,6.477716986
13.50250,4.951744948
13.50300,4.341356132
13.50350,3.120578502
13.50400,0.6790232399
13.50450,-0.2365599832
13.50500,1.289412055
13.50550,4.951744948
13.50600,7.698494617
13.50650,7.393300209
13.50700,3.425772909
13.50750,-3.28850406
13.50800,-10.00278103
13.50850,-12.7495307
13.50900,-10.91836425
13.50950,-6.950836953
13.51000,-3.898892876
13.51050,-3.28850406
13.51100,-3.898892876
13.51150,-4.814476099
13.51200,-4.814476099
13.51250,-4.204087283
13.51300,-2.678115245
13.51350,-0.8469487986
13.51400,1.594606463
13.51450,3.730967317
13.51500,4.341356132
13.51550,3.425772909
13.51600,3.120578502
13.51650,4.036161725
13.51700,5.867328171
13.51750,6.172522579
13.51800,6.172522579
13.51850,6.477716986
13.51900,7.088105802
13.51950,7.088105802
13.52000,6.782911394
13.52050,6.782911394
13.52100,6.477716986
13.52150,5.256939355
13.52200,2.510189686
13.52250,0.3738288322
13.52300,0.06863442452
13.52350,0.9842176476
13.52400,1.899800871
13.52450,2.204995278
13.52500,2.204995278
13.52550,2.815384094
13.52600,3.730967317
13.52650,1.899800871
13.52700,-2.372920837
13.52750,-6.645642545
13.52800,-6.645642545
13.52850,-3.898892876
13.52900,-3.593698468
13.52950,-7.25603136
13.53000,-10.61316985
13.53050,-9.087197807
13.53100,-4.204087283
13.53150,-1.457337614
13.53200,-2.372920837
13.53250,-4.204087283
13.53300,-5.424864914
13.53350,-7.25603136
13.53400,-8.476808991
13.53450,-6.340448137
13.53500,0.06863442452
13.53550,6.477716986
13.53600,7.088105802
13.53650,3.425772909
13.53700,0.9842176476
13.53750,1.594606463
13.53800,2.510189686
13.53850,2.510189686
13.53900,3.425772909
13.53950,5.867328171
13.54000,7.393300209
13.54050,6.172522579
13.54100,4.951744948
13.54150,5.867328171
13.54200,7.088105802
13.54250,4.951744948
13.54300,0.9842176476
13.54350,-1.457337614
13.54400,-2.678115245
13.54450,-4.509281691
13.54500,-6.645642545
13.54550,-6.03525373
13.54600,-2.067726429
13.54650,0.9842176476
13.54700,0.6790232399
13.54750,-1.762532022
13.54800,-2.067726429
13.54850,0.6790232399
13.54900,4.036161725
13.54950,4.64655054
13.55000,3.120578502
13.55050,0.9842176476
13.55100,-0.2365599832
13.55150,-2.372920837
13.55200,-6.03525373
13.55250,-7.866420176
13.55300,-6.03525373
13.55350,-2.372920837
13.55400,-0.5417543909
13.55450,-1.457337614
13.55500,-2.678115245
13.55550,-2.067726429
13.55600,-0.2365599832
13.55650,1.899800871
13.55700,4.036161725
13.55750,4.341356132
13.55800,4.341356132
13.55850,7.088105802
13.55900,13.49718836
13.55950,17.15952126
13.56000,11.66602192
13.56050,0.6790232399
13.56100,-6.03525373
13.56150,-4.509281691
13.56200,-0.2365599832
13.56250,0.6790232399
13.56300,0.06863442452
13.56350,-0.2365599832
13.56400,0.6790232399
13.56450,1.289412055
13.56500,0.6790232399
13.56550,0.06863442452
13.56600,-0.2365599832
13.56650,-1.457337614
13.56700,-2.983309652
13.56750,-4.204087283
13.56800,-6.03525373
13.56850,-7.561225768
13.56900,-6.645642545
13.56950,-4.204087283
13.57000,-3.28850406
13.57050,-5.424864914
13.57100,-7.866420176
13.57150,-7.25603136
13.57200,-5.730059322
13.57250,-4.509281691
13.57300,-3.28850406
13.57350,-0.8469487986
13.57400,0.9842176476
13.57450,1.899800871
13.57500,1.594606463
13.57550,2.204995278
13.57600,3.425772909
13.57650,4.036161725
13.57700,4.341356132
13.57750,4.64655054
13.57800,4.341356132
13.57850,3.425772909
13.57900,3.730967317
13.57950,5.867328171
13.58000,6.477716986
13.58050,4.64655054
13.58100,2.815384094
13.58150,3.425772909
13.58200,4.036161725
13.58250,2.204995278
13.58300,1.289412055
13.58350,4.64655054
13.58400,8.61407784
13.58450,6.782911394
13.58500,0.3738288322
13.58550,-4.204087283
13.58600,-3.898892876
13.58650,-2.067726429
13.58700,-2.678115245
13.58750,-4.814476099
13.58800,-5.424864914
13.58850,-6.03525373
13.58900,-7.561225768
13.58950,-9.697586622
13.59000,-10.61316985
13.59050,-9.697586622
13.59100,-8.476808991
13.59150,-6.950836953
13.59200,-5.119670506
13.59250,-2.678115245
13.59300,-1.152143206
13.59350,-0.8469487986
13.59400,-0.5417543909
13.59450,0.06863442452
13.59500,1.289412055
13.59550,1.899800871
13.59600,0.9842176476
13.59650,0.9842176476
13.59700,2.815384094
13.59750,4.951744948
13.59800,5.867328171
13.59850,6.782911394
13.59900,9.529661063
13.59950,12.27641073
13.60000,10.44524429
13.60050,4.64655054
13.60100,0.6790232399
13.60150,3.425772909
13.60200,8.308883432
13.60250,8.61407784
13.60300,3.730967317
13.60350,0.06863442452
13.60400,0.3738288322
13.60450,2.204995278
13.60500,0.9842176476
13.60550,-3.898892876
13.60600,-8.171614583
13.60650,-7.25603136
13.60700,-2.983309652
13.60750,-0.8469487986
13.60800,-3.593698468
13.60850,-8.476808991
13.60900,-10.91836425
13.60950,-9.392392214
13.61000,-7.25603136
13.61050,-6.645642545
13.61100,-6.03525373
13.61150,-4.814476099
13.61200,-4.509281691
13.61250,-6.340448137
13.61300,-8.476808991
13.61350,-9.087197807
13.61400,-7.561225768
13.61450,-4.814476099
13.61500,-1.762532022
13.61550,0.3738288322
13.61600,1.594606463
13.61650,2.204995278
13.61700,3.120578502
13.61750,4.341356132
13.61800,4.036161725
13.61850,1.899800871
13.61900,0.6790232399
13.61950,2.815384094
13.62000,5.562133763
13.62050,6.477716986
13.62100,5.562133763
13.62150,6.477716986
13.62200,9.529661063
13.62250,11.36082751
13.62300,8.61407784
13.62350,2.815384094
13.62400,-1.152143206
13.62450,-2.983309652
13.62500,-3.898892876
13.62550,-5.119670506
13.62600,-4.204087283
13.62650,0.06863442452
13.62700,4.951744948
13.62750,6.782911394
13.62800,4.036161725
13.62850,0.06863442452
13.62900,-1.762532022
13.62950,-1.762532022
13.63000,-1.762532022
13.63050,-2.372920837
13.63100,-2.678115245
13.63150,-2.678115245
13.63200,-1.457337614
13.63250,0.06863442452
13.63300,0.06863442452
13.63350,-1.457337614
13.63400,-4.814476099
13.63450,-6.645642545
13.63500,-3.28850406
13.63550,3.120578502
13.63600,8.308883432
13.63650,9.834855471
13.63700,8.308883432
13.63750,5.562133763
13.63800,2.815384094
13.63850,0.3738288322
13.63900,-0.8469487986
13.63950,-0.5417543909
13.64000,0.6790232399
13.64050,2.510189686
13.64100,3.425772909
13.64150,4.341356132
13.64200,4.341356132
13.64250,3.730967317
13.64300,3.120578502
13.64350,2.510189686
13.64400,1.289412055
13.64450,-0.2365599832
13.64500,-1.762532022
13.64550,-2.372920837
13.64600,-2.678115245
13.64650,-2.678115245
13.64700,-2.372920837
13.64750,-2.067726429
13.64800,-3.898892876
13.64850,-6.950836953
13.64900,-9.392392214
13.64950,-9.697586622
13.65000,-8.476808991
13.65050,-7.25603136
13.65100,-6.03525373
13.65150,-3.898892876
13.65200,-1.152143206
13.65250,0.06863442452
13.65300,0.06863442452
13.65350,-0.2365599832
13.65400,-0.2365599832
13.65450,0.06863442452
13.65500,1.289412055
13.65550,2.815384094
13.65600,4.036161725
13.65650,4.64655054
13.65700,4.64655054
13.65750,4.341356132
13.65800,4.341356132
13.65850,4.64655054
13.65900,4.951744948
13.65950,5.562133763
13.66000,5.562133763
13.66050,4.64655054
13.66100,4.64655054
13.66150,6.782911394
13.66200,9.529661063
13.66250,9.224466656
13.66300,5.562133763
13.66350,1.899800871
13.66400,0.6790232399
13.66450,0.3738288322
13.66500,-0.2365599832
13.66550,-1.457337614
13.66600,-2.067726429
13.66650,-2.678115245
13.66700,-3.898892876
13.66750,-4.509281691
13.66800,-3.898892876
13.66850,-2.983309652
13.66900,-3.593698468
13.66950,-3.593698468
13.67000,-2.067726429
13.67050,-1.762532022
13.67100,-7.25603136
13.67150,-13.97030833
13.67200,-13.97030833
13.67250,-6.03525373
13.67300,-0.5417543909
13.67350,-3.593698468
13.67400,-9.392392214
13.67450,-7.866420176
13.67500,0.06863442452
13.67550,5.867328171
13.67600,6.172522579
13.67650,4.036161725
13.67700,3.425772909
13.67750,4.036161725
13.67800,3.730967317
13.67850,4.64655054
13.67900,7.088105802
13.67950,8.919272248
13.68000,7.393300209
13.68050,4.341356132
13.68100,2.815384094
13.68150,3.425772909
13.68200,4.64655054
13.68250,5.867328171
13.68300,6.172522579
13.68350,5.867328171
13.68400,5.867328171
13.68450,6.172522579
13.68500,6.477716986
13.68550,4.64655054
13.68600,1.289412055
13.68650,-2.983309652
13.68700,-6.645642545
13.68750,-8.476808991
13.68800,-8.171614583
13.68850,-6.03525373
13.68900,-3.898892876
13.68950,-2.678115245
13.69000,-1.762532022
13.69050,-1.152143206
13.69100,-1.457337614
13.69150,-3.593698468
13.69200,-4.814476099
13.69250,-3.898892876
13.69300,-2.983309652
13.69350,-2.983309652
13.69400,-3.28850406
13.69450,-0.8469487986
13.69500,2.510189686
13.69550,3.425772909
13.69600,0.9842176476
13.69650,-1.457337614
13.69700,-2.678115245
13.69750,-2.372920837
13.69800,-1.762532022
13.69850,-0.2365599832
13.69900,2.204995278
13.69950,4.036161725
13.70000,4.64655054
13.70050,5.256939355
13.70100,8.003689025
13.70150,10.75043869
13.70200,10.44524429
13.70250,7.393300209
13.70300,4.341356132
13.70350,3.730967317
13.70400,3.425772909
13.70450,1.289412055
13.70500,-0.5417543909
13.70550,-0.5417543909
13.70600,-0.2365599832
13.70650,-2.372920837
13.70700,-6.645642545
13.70750,-9.392392214
13.70800,-9.087197807
13.70850,-9.087197807
13.70900,-10.91836425
13.70950,-11.52875307
13.71000,-8.476808991
13.71050,-4.204087283
13.71100,-2.678115245
13.71150,-3.898892876
13.71200,-4.204087283
13.71250,-2.983309652
13.71300,-2.372920837
13.71350,-2.678115245
13.71400,-2.983309652
13.71450,-3.593698468
13.71500,-4.814476099
13.71550,-5.730059322
13.71600,-3.898892876
13.71650,0.06863442452
13.71700,2.815384094
13.71750,3.730967317
13.71800,4.036161725
13.71850,5.256939355
13.71900,5.867328171
13.71950,5.562133763
13.72000,5.867328171
13.72050,7.698494617
13.72100,9.224466656
13.72150,8.308883432
13.72200,6.172522579
13.72250,4.341356132
13.72300,3.730967317
13.72350,2.510189686
13.72400,0.3738288322
13.72450,-0.2365599832
13.72500,0.6790232399
13.72550,2.815384094
13.72600,3.120578502
13.72650,0.6790232399
13.72700,-3.593698468
13.72750,-7.866420176
13.72800,-10.30797544
13.72850,-10.91836425
13.72900,-11.22355866
13.72950,-12.44433629
13.73000,-12.7495307
13.73050,-10.00278103
13.73100,-5.730059322
13.73150,-3.28850406
13.73200,-4.204087283
13.73250,-5.424864914
13.73300,-4.204087283
13.73350,-2.372920837
13.73400,-1.762532022
13.73450,-2.067726429
13.73500,-0.8469487986
13.73550,1.899800871
13.73600,4.036161725
13.73650,4.64655054
13.73700,4.341356132
13.73750,5.562133763
13.73800,7.393300209
13.73850,8.61407784
13.73900,8.308883432
13.73950,7.698494617
13.74000,6.782911394
13.74050,6.477716986
13.74100,6.172522579
13.74150,6.477716986
13.74200,6.477716986
13.74250,6.172522579
13.74300,5.867328171
13.74350,6.172522579
13.74400,7.393300209
13.74450,8.61407784
13.74500,8.003689025
13.74550,4.341356132
13.74600,-0.5417543909
13.74650,-4.509281691
13.74700,-6.03525373
13.74750,-5.424864914
13.74800,-4.814476099
13.74850,-4.509281691
13.74900,-5.424864914
13.74950,-6.645642545
13.75000,-6.645642545
13.75050,-5.119670506
13.75100,-2.372920837
13.75150,-0.2365599832
13.75200,0.06863442452
13.75250,-1.152143206
13.75300,-2.372920837
13.75350,-2.067726429
