"type","name","time_units","begin_time","frequency","count","units"
"signal","Ultium EMG-EXT.CARP.ULN. RT","s",472.92000,2000,22000,"uV"

"time","value"
472.92000,2.825297955
472.92050,2.21490914
472.92100,0.6889371012
472.92150,-2.363006976
472.92200,-6.635728684
472.92250,-9.382478353
472.92300,-10.60325598
472.92350,-11.82403361
472.92400,-13.65520006
472.92450,-15.48636651
472.92500,-15.1811721
472.92550,-14.26558888
472.92600,-13.04481125
472.92650,-11.82403361
472.92700,-9.687672761
472.92750,-7.856506314
472.92800,-7.856506314
472.92850,-8.772089538
472.92900,-7.856506314
472.92950,-5.109756645
472.93000,-3.278590199
472.93050,-2.973395791
472.93100,-1.75261816
472.93150,1.604520324
472.93200,6.792825255
472.93250,10.14996374
472.93300,10.76035256
472.93350,9.539574925
472.93400,7.708408478
472.93450,6.487630848
472.93500,6.792825255
472.93550,7.098019663
472.93600,7.403214071
472.93650,9.234380517
472.93700,11.67593578
472.93750,11.67593578
472.93800,7.708408478
472.93850,2.21490914
472.93900,-1.447423753
472.93950,-3.888979014
472.94000,-7.246117499
472.94050,-11.2136448
472.94100,-13.35000565
472.94150,-13.65520006
472.94200,-13.35000565
472.94250,-12.12922802
472.94300,-9.687672761
472.94350,-9.687672761
472.94400,-15.1811721
472.94450,-24.03180992
472.94500,-28.60972604
472.94550,-26.16817078
472.94600,-20.97986585
472.94650,-17.62272736
472.94700,-15.1811721
472.94750,-12.12922802
472.94800,-8.772089538
472.94850,-6.635728684
472.94900,-5.109756645
472.94950,-3.583784607
472.95000,-1.75261816
472.95050,-0.2266461219
472.95100,2.21490914
472.95150,7.403214071
472.95200,12.89671341
472.95250,15.94865749
472.95300,15.33826867
472.95350,12.591519
472.95400,9.844769332
472.95450,8.929186109
472.95500,11.37074137
472.95550,14.42268545
472.95600,16.5590463
472.95650,15.64346308
472.95700,12.28632459
472.95750,6.792825255
472.95800,0.07854828584
472.95850,-5.414951053
472.95900,-5.72014546
472.95950,-2.363006976
472.96000,0.07854828584
472.96050,1.299325917
472.96100,7.403214071
472.96150,18.69540716
472.96200,28.4616282
472.96250,30.29279465
472.96300,26.02007294
472.96350,21.74735123
472.96400,17.16943512
472.96450,11.06554696
472.96500,7.403214071
472.96550,8.623991701
472.96600,6.18243644
472.96650,-10.60325598
472.96700,-38.37594708
472.96750,-57.60319477
472.96800,-58.21358359
472.96850,-49.05775135
472.96900,-42.03827998
472.96950,-37.46036386
472.97000,-28.30453163
472.97050,-15.79156091
472.97100,-6.940923091
472.97150,-3.583784607
472.97200,-0.5318405296
472.97250,4.351269994
472.97300,10.14996374
472.97350,15.64346308
472.97400,21.13696242
472.97450,25.10448972
472.97500,25.71487853
472.97550,23.57851768
472.97600,19.61099038
472.97650,14.72787986
472.97700,10.76035256
472.97750,11.37074137
472.97800,16.5590463
472.97850,20.22137919
472.97900,15.94865749
472.97950,6.792825255
472.98000,-0.5318405296
472.98050,-4.804562237
472.98100,-9.992867168
472.98150,-16.40194973
472.98200,-19.75908821
472.98250,-17.01233855
472.98300,-11.2136448
472.98350,-7.551311907
472.98400,-6.330534276
472.98450,-6.330534276
472.98500,-6.330534276
472.98550,-6.635728684
472.98600,-6.025339868
472.98650,-4.49936783
472.98700,-3.278590199
472.98750,-3.583784607
472.98800,-4.49936783
472.98850,-4.194173422
472.98900,-1.75261816
472.98950,0.3837426935
472.99000,2.520103547
472.99050,4.656464401
472.99100,6.792825255
472.99150,8.623991701
472.99200,9.234380517
472.99250,8.929186109
472.99300,8.929186109
472.99350,11.67593578
472.99400,16.25385189
472.99450,19.61099038
472.99500,19.61099038
472.99550,17.77982393
472.99600,16.86424071
472.99650,17.16943512
472.99700,16.86424071
472.99750,16.25385189
472.99800,16.25385189
472.99850,15.03307426
472.99900,10.76035256
472.99950,4.961658809
473.00000,1.909714732
473.00050,2.520103547
473.00100,1.299325917
473.00150,-3.888979014
473.00200,-9.077283945
473.00250,-9.077283945
473.00300,-5.72014546
473.00350,-4.804562237
473.00400,-5.72014546
473.00450,-2.973395791
473.00500,4.656464401
473.00550,11.06554696
473.00600,8.929186109
473.00650,0.3837426935
473.00700,-6.940923091
473.00750,-11.51883921
473.00800,-14.87597769
473.00850,-17.31753295
473.00900,-15.79156091
473.00950,-8.772089538
473.01000,-0.5318405296
473.01050,1.299325917
473.01100,-2.668201383
473.01150,-7.551311907
473.01200,-8.161700722
473.01250,-6.025339868
473.01300,-2.973395791
473.01350,1.604520324
473.01400,11.06554696
473.01450,21.13696242
473.01500,25.40968413
473.01550,22.96812886
473.01600,18.39021275
473.01650,14.42268545
473.01700,9.844769332
473.01750,5.266853217
473.01800,4.046075586
473.01850,3.435686771
473.01900,-2.057812568
473.01950,-12.73961684
473.02000,-18.23311618
473.02050,-12.43442243
473.02100,-2.363006976
473.02150,1.604520324
473.02200,-0.5318405296
473.02250,-3.583784607
473.02300,-7.551311907
473.02350,-16.40194973
473.02400,-27.99933722
473.02450,-33.79803097
473.02500,-30.74608689
473.02550,-22.20064348
473.02600,-15.48636651
473.02650,-11.51883921
473.02700,-9.687672761
473.02750,-8.46689513
473.02800,-6.940923091
473.02850,-4.49936783
473.02900,-2.057812568
473.02950,-1.447423753
473.03000,-2.668201383
473.03050,-2.973395791
473.03100,0.9941315089
473.03150,11.06554696
473.03200,24.18890649
473.03250,34.56551636
473.03300,38.22784925
473.03350,36.09148839
473.03400,31.51357228
473.03450,26.02007294
473.03500,17.77982393
473.03550,8.929186109
473.03600,3.740881178
473.03650,4.046075586
473.03700,5.877242032
473.03750,4.656464401
473.03800,0.3837426935
473.03850,-4.49936783
473.03900,-9.382478353
473.03950,-14.57078328
473.04000,-17.92792177
473.04050,-17.92792177
473.04100,-14.87597769
473.04150,-10.90845039
473.04200,-6.025339868
473.04250,-2.363006976
473.04300,-2.363006976
473.04350,-4.804562237
473.04400,-4.804562237
473.04450,-1.142229345
473.04500,-0.2266461219
473.04550,-7.246117499
473.04600,-18.23311618
473.04650,-23.42142111
473.04700,-19.75908821
473.04750,-12.43442243
473.04800,-6.330534276
473.04850,-3.278590199
473.04900,-4.49936783
473.04950,-9.992867168
473.05000,-15.79156091
473.05050,-13.35000565
473.05100,-2.057812568
473.05150,9.234380517
473.05200,13.50710222
473.05250,12.28632459
473.05300,12.591519
473.05350,15.33826867
473.05400,16.86424071
473.05450,14.42268545
473.05500,9.539574925
473.05550,6.792825255
473.05600,7.708408478
473.05650,11.37074137
473.05700,15.03307426
473.05750,15.64346308
473.05800,12.591519
473.05850,8.013602886
473.05900,4.046075586
473.05950,1.299325917
473.06000,-1.142229345
473.06050,-4.194173422
473.06100,-4.49936783
473.06150,-1.75261816
473.06200,0.6889371012
473.06250,0.07854828584
473.06300,-2.057812568
473.06350,-2.973395791
473.06400,-2.057812568
473.06450,-1.75261816
473.06500,-3.583784607
473.06550,-5.72014546
473.06600,-6.025339868
473.06650,-5.414951053
473.06700,-5.72014546
473.06750,-6.330534276
473.06800,-6.025339868
473.06850,-4.804562237
473.06900,-3.888979014
473.06950,-3.583784607
473.07000,-3.278590199
473.07050,-2.668201383
473.07100,-1.75261816
473.07150,-0.5318405296
473.07200,1.604520324
473.07250,4.046075586
473.07300,5.266853217
473.07350,5.266853217
473.07400,7.098019663
473.07450,10.14996374
473.07500,12.28632459
473.07550,11.06554696
473.07600,8.623991701
473.07650,6.792825255
473.07700,6.18243644
473.07750,5.266853217
473.07800,4.351269994
473.07850,4.046075586
473.07900,3.740881178
473.07950,3.130492363
473.08000,3.130492363
473.08050,4.656464401
473.08100,4.656464401
473.08150,1.604520324
473.08200,-1.75261816
473.08250,-0.5318405296
473.08300,4.046075586
473.08350,6.18243644
473.08400,1.299325917
473.08450,-4.49936783
473.08500,-6.635728684
473.08550,-7.856506314
473.08600,-12.43442243
473.08650,-16.40194973
473.08700,-13.96039447
473.08750,-9.077283945
473.08800,-10.90845039
473.08850,-19.45389381
473.08900,-23.42142111
473.08950,-17.92792177
473.09000,-11.2136448
473.09050,-11.2136448
473.09100,-13.35000565
473.09150,-10.60325598
473.09200,-4.49936783
473.09250,-0.2266461219
473.09300,1.604520324
473.09350,4.351269994
473.09400,5.266853217
473.09450,0.3837426935
473.09500,-7.246117499
473.09550,-9.687672761
473.09600,-4.804562237
473.09650,0.6889371012
473.09700,2.520103547
473.09750,1.909714732
473.09800,2.21490914
473.09850,2.825297955
473.09900,2.520103547
473.09950,2.21490914
473.10000,2.520103547
473.10050,3.435686771
473.10100,3.435686771
473.10150,2.21490914
473.10200,0.07854828584
473.10250,-2.057812568
473.10300,-2.973395791
473.10350,-2.668201383
473.10400,-2.668201383
473.10450,-3.888979014
473.10500,-4.49936783
473.10550,-2.973395791
473.10600,-1.142229345
473.10650,-0.8370349373
473.10700,-1.447423753
473.10750,-1.447423753
473.10800,-1.142229345
473.10850,-2.363006976
473.10900,-4.804562237
473.10950,-4.804562237
473.11000,-2.057812568
473.11050,-0.2266461219
473.11100,-1.447423753
473.11150,-2.668201383
473.11200,-0.5318405296
473.11250,3.740881178
473.11300,6.792825255
473.11350,6.792825255
473.11400,6.18243644
473.11450,8.013602886
473.11500,11.37074137
473.11550,13.20190782
473.11600,13.20190782
473.11650,16.25385189
473.11700,24.4941009
473.11750,33.03954432
473.11800,33.03954432
473.11850,23.27332327
473.11900,11.67593578
473.11950,7.403214071
473.12000,9.844769332
473.12050,10.45515815
473.12100,4.351269994
473.12150,-4.49936783
473.12200,-9.992867168
473.12250,-10.60325598
473.12300,-10.29806158
473.12350,-11.51883921
473.12400,-12.12922802
473.12450,-9.992867168
473.12500,-7.246117499
473.12550,-6.940923091
473.12600,-8.772089538
473.12650,-9.687672761
473.12700,-7.856506314
473.12750,-6.330534276
473.12800,-5.72014546
473.12850,-5.109756645
473.12900,-2.973395791
473.12950,-1.142229345
473.13000,-0.8370349373
473.13050,-0.5318405296
473.13100,0.6889371012
473.13150,3.435686771
473.13200,5.877242032
473.13250,7.708408478
473.13300,8.318797294
473.13350,8.623991701
473.13400,8.623991701
473.13450,8.929186109
473.13500,10.45515815
473.13550,11.98113019
473.13600,12.89671341
473.13650,12.591519
473.13700,11.06554696
473.13750,9.844769332
473.13800,8.929186109
473.13850,7.708408478
473.13900,6.487630848
473.13950,6.487630848
473.14000,8.929186109
473.14050,11.98113019
473.14100,11.98113019
473.14150,8.929186109
473.14200,6.487630848
473.14250,7.098019663
473.14300,9.539574925
473.14350,10.14996374
473.14400,8.318797294
473.14450,4.961658809
473.14500,-0.5318405296
473.14550,-6.635728684
473.14600,-11.51883921
473.14650,-16.09675532
473.14700,-21.89544907
473.14750,-26.47336518
473.14800,-23.42142111
473.14850,-13.96039447
473.14900,-8.772089538
473.14950,-15.48636651
473.15000,-27.083754
473.15050,-33.79803097
473.15100,-33.18764215
473.15150,-28.91492045
473.15200,-22.20064348
473.15250,-11.82403361
473.15300,-1.447423753
473.15350,2.825297955
473.15400,3.740881178
473.15450,5.877242032
473.15500,9.844769332
473.15550,11.67593578
473.15600,11.06554696
473.15650,11.67593578
473.15700,13.81229663
473.15750,14.11749104
473.15800,12.28632459
473.15850,10.45515815
473.15900,9.234380517
473.15950,7.403214071
473.16000,5.266853217
473.16050,4.046075586
473.16100,3.740881178
473.16150,2.825297955
473.16200,0.6889371012
473.16250,-0.2266461219
473.16300,0.07854828584
473.16350,-0.5318405296
473.16400,-2.363006976
473.16450,-3.888979014
473.16500,-5.414951053
473.16550,-7.551311907
473.16600,-10.60325598
473.16650,-12.12922802
473.16700,-11.2136448
473.16750,-9.382478353
473.16800,-7.856506314
473.16850,-7.246117499
473.16900,-6.330534276
473.16950,-5.109756645
473.17000,-2.973395791
473.17050,-0.2266461219
473.17100,1.909714732
473.17150,3.435686771
473.17200,4.351269994
473.17250,5.266853217
473.17300,6.18243644
473.17350,7.098019663
473.17400,8.013602886
473.17450,8.929186109
473.17500,9.234380517
473.17550,8.623991701
473.17600,7.708408478
473.17650,7.098019663
473.17700,6.18243644
473.17750,4.961658809
473.17800,4.351269994
473.17850,4.046075586
473.17900,2.825297955
473.17950,0.3837426935
473.18000,-0.8370349373
473.18050,-0.8370349373
473.18100,-2.363006976
473.18150,-6.025339868
473.18200,-9.382478353
473.18250,-8.772089538
473.18300,-7.551311907
473.18350,-8.46689513
473.18400,-11.2136448
473.18450,-11.82403361
473.18500,-11.2136448
473.18550,-11.2136448
473.18600,-12.43442243
473.18650,-11.82403361
473.18700,-9.077283945
473.18750,-7.551311907
473.18800,-7.551311907
473.18850,-7.856506314
473.18900,-6.635728684
473.18950,-4.49936783
473.19000,-1.447423753
473.19050,2.825297955
473.19100,7.708408478
473.19150,9.539574925
473.19200,8.318797294
473.19250,7.708408478
473.19300,8.929186109
473.19350,9.234380517
473.19400,7.098019663
473.19450,3.740881178
473.19500,2.520103547
473.19550,3.130492363
473.19600,4.351269994
473.19650,5.877242032
473.19700,7.098019663
473.19750,7.098019663
473.19800,4.351269994
473.19850,0.6889371012
473.19900,-1.142229345
473.19950,-1.447423753
473.20000,-1.75261816
473.20050,-1.142229345
473.20100,0.9941315089
473.20150,3.740881178
473.20200,3.435686771
473.20250,-0.8370349373
473.20300,-5.414951053
473.20350,-6.635728684
473.20400,-4.804562237
473.20450,-3.888979014
473.20500,-4.194173422
473.20550,-4.804562237
473.20600,-6.025339868
473.20650,-9.382478353
473.20700,-13.35000565
473.20750,-13.96039447
473.20800,-9.992867168
473.20850,-5.72014546
473.20900,-4.194173422
473.20950,-2.973395791
473.21000,0.07854828584
473.21050,4.961658809
473.21100,7.708408478
473.21150,8.929186109
473.21200,8.929186109
473.21250,7.098019663
473.21300,3.130492363
473.21350,0.6889371012
473.21400,4.046075586
473.21450,11.06554696
473.21500,15.03307426
473.21550,11.98113019
473.21600,7.098019663
473.21650,5.572047624
473.21700,7.098019663
473.21750,8.623991701
473.21800,8.929186109
473.21850,7.708408478
473.21900,2.520103547
473.21950,-7.246117499
473.22000,-15.48636651
473.22050,-14.87597769
473.22100,-5.414951053
473.22150,2.21490914
473.22200,1.604520324
473.22250,-4.49936783
473.22300,-7.551311907
473.22350,-3.888979014
473.22400,0.9941315089
473.22450,0.9941315089
473.22500,-2.973395791
473.22550,-5.72014546
473.22600,-5.72014546
473.22650,-6.940923091
473.22700,-13.65520006
473.22750,-22.81103229
473.22800,-27.69414281
473.22850,-24.94739315
473.22900,-17.31753295
473.22950,-8.161700722
473.23000,1.299325917
473.23050,11.06554696
473.23100,17.77982393
473.23150,19.61099038
473.23200,19.30579597
473.23250,19.00060156
473.23300,17.77982393
473.23350,15.03307426
473.23400,11.98113019
473.23450,11.37074137
473.23500,12.591519
473.23550,12.89671341
473.23600,10.76035256
473.23650,6.792825255
473.23700,0.07854828584
473.23750,-9.077283945
473.23800,-18.23311618
473.23850,-23.1162267
473.23900,-22.50583788
473.23950,-18.84350499
473.24000,-14.87597769
473.24050,-9.687672761
473.24100,-2.668201383
473.24150,3.740881178
473.24200,6.487630848
473.24250,4.351269994
473.24300,-0.5318405296
473.24350,-6.025339868
473.24400,-8.46689513
473.24450,-7.246117499
473.24500,-3.583784607
473.24550,-1.142229345
473.24600,-1.142229345
473.24650,-2.668201383
473.24700,-4.194173422
473.24750,-5.109756645
473.24800,-5.72014546
473.24850,-5.109756645
473.24900,-2.668201383
473.24950,-0.2266461219
473.25000,0.07854828584
473.25050,-0.2266461219
473.25100,0.07854828584
473.25150,1.299325917
473.25200,1.299325917
473.25250,0.6889371012
473.25300,2.21490914
473.25350,5.266853217
473.25400,6.792825255
473.25450,4.351269994
473.25500,0.3837426935
473.25550,-1.142229345
473.25600,0.07854828584
473.25650,3.435686771
473.25700,7.708408478
473.25750,11.37074137
473.25800,13.20190782
473.25850,12.28632459
473.25900,11.06554696
473.25950,10.76035256
473.26000,10.76035256
473.26050,8.929186109
473.26100,5.877242032
473.26150,3.740881178
473.26200,3.130492363
473.26250,3.130492363
473.26300,2.520103547
473.26350,0.6889371012
473.26400,-1.447423753
473.26450,-3.583784607
473.26500,-4.49936783
473.26550,-4.194173422
473.26600,-4.194173422
473.26650,-5.72014546
473.26700,-6.330534276
473.26750,-5.109756645
473.26800,-2.668201383
473.26850,-1.447423753
473.26900,-1.447423753
473.26950,-1.142229345
473.27000,0.6889371012
473.27050,3.130492363
473.27100,4.961658809
473.27150,6.18243644
473.27200,7.098019663
473.27250,8.318797294
473.27300,9.844769332
473.27350,11.37074137
473.27400,12.591519
473.27450,12.89671341
473.27500,13.20190782
473.27550,13.50710222
473.27600,13.81229663
473.27650,12.591519
473.27700,11.06554696
473.27750,10.14996374
473.27800,9.539574925
473.27850,8.013602886
473.27900,6.18243644
473.27950,4.656464401
473.28000,3.130492363
473.28050,0.9941315089
473.28100,-1.447423753
473.28150,-3.278590199
473.28200,-3.888979014
473.28250,-4.804562237
473.28300,-6.940923091
473.28350,-9.077283945
473.28400,-9.992867168
473.28450,-9.992867168
473.28500,-9.992867168
473.28550,-10.29806158
473.28600,-10.29806158
473.28650,-9.687672761
473.28700,-8.46689513
473.28750,-7.551311907
473.28800,-6.940923091
473.28850,-5.72014546
473.28900,-0.8370349373
473.28950,7.098019663
473.29000,15.33826867
473.29050,19.30579597
473.29100,18.08501834
473.29150,15.03307426
473.29200,12.591519
473.29250,10.14996374
473.29300,7.098019663
473.29350,4.961658809
473.29400,5.877242032
473.29450,8.318797294
473.29500,10.45515815
473.29550,11.06554696
473.29600,9.234380517
473.29650,3.435686771
473.29700,-6.635728684
473.29750,-15.1811721
473.29800,-15.1811721
473.29850,-6.940923091
473.29900,2.21490914
473.29950,7.708408478
473.30000,9.844769332
473.30050,10.14996374
473.30100,8.623991701
473.30150,4.961658809
473.30200,1.299325917
473.30250,-2.363006976
473.30300,-7.856506314
473.30350,-14.57078328
473.30400,-18.53831058
473.30450,-17.62272736
473.30500,-14.57078328
473.30550,-13.04481125
473.30600,-13.04481125
473.30650,-13.35000565
473.30700,-13.96039447
473.30750,-14.26558888
473.30800,-12.73961684
473.30850,-10.29806158
473.30900,-8.772089538
473.30950,-9.382478353
473.31000,-7.551311907
473.31050,-2.057812568
473.31100,4.351269994
473.31150,8.318797294
473.31200,11.06554696
473.31250,14.42268545
473.31300,15.33826867
473.31350,9.844769332
473.31400,1.604520324
473.31450,-1.142229345
473.31500,3.435686771
473.31550,9.844769332
473.31600,11.98113019
473.31650,10.76035256
473.31700,10.14996374
473.31750,10.76035256
473.31800,10.76035256
473.31850,9.234380517
473.31900,7.098019663
473.31950,4.351269994
473.32000,1.909714732
473.32050,0.07854828584
473.32100,-0.5318405296
473.32150,-1.75261816
473.32200,-3.583784607
473.32250,-5.109756645
473.32300,-5.109756645
473.32350,-4.194173422
473.32400,-4.49936783
473.32450,-5.414951053
473.32500,-6.025339868
473.32550,-6.635728684
473.32600,-6.940923091
473.32650,-7.551311907
473.32700,-7.551311907
473.32750,-6.330534276
473.32800,-5.72014546
473.32850,-6.940923091
473.32900,-10.29806158
473.32950,-13.35000565
473.33000,-12.73961684
473.33050,-7.551311907
473.33100,-0.8370349373
473.33150,3.130492363
473.33200,4.046075586
473.33250,3.435686771
473.33300,3.740881178
473.33350,4.961658809
473.33400,6.18243644
473.33450,6.487630848
473.33500,7.403214071
473.33550,7.708408478
473.33600,7.098019663
473.33650,6.487630848
473.33700,7.708408478
473.33750,9.844769332
473.33800,10.14996374
473.33850,7.403214071
473.33900,4.351269994
473.33950,2.825297955
473.34000,2.21490914
473.34050,0.6889371012
473.34100,-1.75261816
473.34150,-3.583784607
473.34200,-3.888979014
473.34250,-4.194173422
473.34300,-6.025339868
473.34350,-7.551311907
473.34400,-7.856506314
473.34450,-7.551311907
473.34500,-7.856506314
473.34550,-9.077283945
473.34600,-9.992867168
473.34650,-10.60325598
473.34700,-10.60325598
473.34750,-10.60325598
473.34800,-11.2136448
473.34850,-12.43442243
473.34900,-13.65520006
473.34950,-13.96039447
473.35000,-12.12922802
473.35050,-9.687672761
473.35100,-7.856506314
473.35150,-6.635728684
473.35200,-4.804562237
473.35250,-1.75261816
473.35300,1.604520324
473.35350,4.351269994
473.35400,5.266853217
473.35450,5.572047624
473.35500,5.572047624
473.35550,5.572047624
473.35600,5.877242032
473.35650,5.572047624
473.35700,4.961658809
473.35750,4.351269994
473.35800,4.656464401
473.35850,4.961658809
473.35900,4.046075586
473.35950,2.520103547
473.36000,1.299325917
473.36050,0.9941315089
473.36100,0.9941315089
473.36150,0.3837426935
473.36200,-1.142229345
473.36250,-3.888979014
473.36300,-6.330534276
473.36350,-7.246117499
473.36400,-6.940923091
473.36450,-6.635728684
473.36500,-8.46689513
473.36550,-10.60325598
473.36600,-11.2136448
473.36650,-10.60325598
473.36700,-11.82403361
473.36750,-14.87597769
473.36800,-14.87597769
473.36850,-9.687672761
473.36900,-3.583784607
473.36950,-1.75261816
473.37000,-2.363006976
473.37050,-1.142229345
473.37100,2.520103547
473.37150,5.877242032
473.37200,7.708408478
473.37250,9.539574925
473.37300,10.76035256
473.37350,8.318797294
473.37400,3.435686771
473.37450,0.07854828584
473.37500,0.6889371012
473.37550,3.130492363
473.37600,5.266853217
473.37650,7.403214071
473.37700,9.234380517
473.37750,10.45515815
473.37800,10.45515815
473.37850,10.76035256
473.37900,10.45515815
473.37950,8.318797294
473.38000,5.572047624
473.38050,5.266853217
473.38100,6.18243644
473.38150,4.351269994
473.38200,-0.8370349373
473.38250,-5.109756645
473.38300,-4.49936783
473.38350,-0.8370349373
473.38400,2.21490914
473.38450,2.825297955
473.38500,0.3837426935
473.38550,-3.888979014
473.38600,-6.025339868
473.38650,-1.75261816
473.38700,6.792825255
473.38750,12.28632459
473.38800,9.539574925
473.38850,2.21490914
473.38900,-4.194173422
473.38950,-9.077283945
473.39000,-12.43442243
473.39050,-10.60325598
473.39100,-1.142229345
473.39150,11.37074137
473.39200,18.39021275
473.39250,15.64346308
473.39300,8.013602886
473.39350,0.07854828584
473.39400,-7.246117499
473.39450,-14.87597769
473.39500,-19.1486994
473.39550,-16.09675532
473.39600,-5.109756645
473.39650,7.403214071
473.39700,14.72787986
473.39750,14.11749104
473.39800,9.234380517
473.39850,3.435686771
473.39900,-2.057812568
473.39950,-8.46689513
473.40000,-13.65520006
473.40050,-14.87597769
473.40100,-12.12922802
473.40150,-7.856506314
473.40200,-3.583784607
473.40250,-0.2266461219
473.40300,1.299325917
473.40350,-0.8370349373
473.40400,-7.856506314
473.40450,-15.48636651
473.40500,-19.1486994
473.40550,-17.92792177
473.40600,-14.26558888
473.40650,-11.51883921
473.40700,-9.077283945
473.40750,-6.635728684
473.40800,-4.194173422
473.40850,-3.583784607
473.40900,-3.583784607
473.40950,-3.278590199
473.41000,-1.142229345
473.41050,1.909714732
473.41100,6.487630848
473.41150,12.28632459
473.41200,16.5590463
473.41250,16.86424071
473.41300,13.20190782
473.41350,9.844769332
473.41400,9.234380517
473.41450,11.67593578
473.41500,15.03307426
473.41550,17.77982393
473.41600,19.00060156
473.41650,16.86424071
473.41700,12.28632459
473.41750,8.318797294
473.41800,7.098019663
473.41850,8.318797294
473.41900,9.844769332
473.41950,10.14996374
473.42000,7.708408478
473.42050,0.9941315089
473.42100,-7.246117499
473.42150,-10.90845039
473.42200,-8.46689513
473.42250,-3.888979014
473.42300,-2.363006976
473.42350,-4.194173422
473.42400,-5.109756645
473.42450,-4.804562237
473.42500,-5.414951053
473.42550,-6.940923091
473.42600,-8.161700722
473.42650,-7.856506314
473.42700,-6.635728684
473.42750,-5.72014546
473.42800,-4.194173422
473.42850,-3.278590199
473.42900,-3.278590199
473.42950,-3.583784607
473.43000,-2.668201383
473.43050,-0.5318405296
473.43100,1.299325917
473.43150,1.604520324
473.43200,1.299325917
473.43250,2.520103547
473.43300,6.792825255
473.43350,13.50710222
473.43400,19.61099038
473.43450,22.35774005
473.43500,21.74735123
473.43550,19.61099038
473.43600,17.16943512
473.43650,14.11749104
473.43700,11.37074137
473.43750,10.45515815
473.43800,11.06554696
473.43850,11.06554696
473.43900,9.539574925
473.43950,6.487630848
473.44000,3.740881178
473.44050,1.299325917
473.44100,-0.2266461219
473.44150,-1.75261816
473.44200,-3.278590199
473.44250,-6.025339868
473.44300,-9.687672761
473.44350,-12.43442243
473.44400,-12.73961684
473.44450,-12.12922802
473.44500,-12.12922802
473.44550,-12.73961684
473.44600,-13.35000565
473.44650,-13.35000565
473.44700,-12.73961684
473.44750,-11.51883921
473.44800,-10.29806158
473.44850,-9.992867168
473.44900,-9.382478353
473.44950,-8.161700722
473.45000,-6.330534276
473.45050,-4.804562237
473.45100,-3.888979014
473.45150,-2.363006976
473.45200,0.07854828584
473.45250,2.520103547
473.45300,4.046075586
473.45350,4.961658809
473.45400,6.487630848
473.45450,8.623991701
473.45500,11.67593578
473.45550,14.42268545
473.45600,15.03307426
473.45650,13.50710222
473.45700,11.06554696
473.45750,9.844769332
473.45800,9.844769332
473.45850,9.234380517
473.45900,7.708408478
473.45950,6.792825255
473.46000,5.572047624
473.46050,2.825297955
473.46100,-0.2266461219
473.46150,-1.142229345
473.46200,-0.8370349373
473.46250,-1.75261816
473.46300,-5.109756645
473.46350,-7.856506314
473.46400,-7.856506314
473.46450,-7.246117499
473.46500,-8.772089538
473.46550,-11.2136448
473.46600,-11.2136448
473.46650,-9.077283945
473.46700,-6.940923091
473.46750,-6.940923091
473.46800,-8.46689513
473.46850,-9.077283945
473.46900,-6.940923091
473.46950,-2.057812568
473.47000,3.130492363
473.47050,7.403214071
473.47100,9.844769332
473.47150,11.67593578
473.47200,13.50710222
473.47250,14.42268545
473.47300,13.50710222
473.47350,11.37074137
473.47400,10.45515815
473.47450,10.76035256
473.47500,10.45515815
473.47550,8.623991701
473.47600,6.487630848
473.47650,5.572047624
473.47700,6.18243644
473.47750,7.098019663
473.47800,6.18243644
473.47850,3.435686771
473.47900,0.07854828584
473.47950,-0.8370349373
473.48000,2.520103547
473.48050,8.623991701
473.48100,12.28632459
473.48150,10.14996374
473.48200,3.435686771
473.48250,-5.109756645
473.48300,-14.57078328
473.48350,-24.33700433
473.48400,-32.27205893
473.48450,-33.79803097
473.48500,-28.60972604
473.48550,-20.06428262
473.48600,-14.57078328
473.48650,-15.48636651
473.48700,-20.97986585
473.48750,-27.38894841
473.48800,-31.96686452
473.48850,-33.79803097
473.48900,-31.0512813
473.48950,-24.03180992
473.49000,-14.87597769
473.49050,-7.551311907
473.49100,-2.668201383
473.49150,0.07854828584
473.49200,2.520103547
473.49250,4.046075586
473.49300,5.266853217
473.49350,6.792825255
473.49400,9.539574925
473.49450,12.28632459
473.49500,13.81229663
473.49550,15.33826867
473.49600,16.5590463
473.49650,17.16943512
473.49700,16.86424071
473.49750,16.5590463
473.49800,16.86424071
473.49850,16.86424071
473.49900,15.33826867
473.49950,13.50710222
473.50000,12.591519
473.50050,11.98113019
473.50100,9.844769332
473.50150,6.487630848
473.50200,3.740881178
473.50250,2.825297955
473.50300,2.825297955
473.50350,1.299325917
473.50400,-1.142229345
473.50450,-4.194173422
473.50500,-5.72014546
473.50550,-5.414951053
473.50600,-3.888979014
473.50650,-2.668201383
473.50700,-2.668201383
473.50750,-3.583784607
473.50800,-3.278590199
473.50850,-1.75261816
473.50900,-0.5318405296
473.50950,0.07854828584
473.51000,0.3837426935
473.51050,0.9941315089
473.51100,1.604520324
473.51150,2.520103547
473.51200,3.435686771
473.51250,4.046075586
473.51300,4.656464401
473.51350,4.961658809
473.51400,5.266853217
473.51450,6.18243644
473.51500,7.098019663
473.51550,7.403214071
473.51600,6.792825255
473.51650,6.18243644
473.51700,5.877242032
473.51750,5.877242032
473.51800,5.572047624
473.51850,4.656464401
473.51900,3.740881178
473.51950,3.740881178
473.52000,4.351269994
473.52050,3.435686771
473.52100,1.299325917
473.52150,-0.8370349373
473.52200,-2.363006976
473.52250,-3.888979014
473.52300,-6.025339868
473.52350,-9.077283945
473.52400,-11.51883921
473.52450,-13.35000565
473.52500,-13.65520006
473.52550,-12.43442243
473.52600,-11.2136448
473.52650,-11.2136448
473.52700,-12.73961684
473.52750,-13.04481125
473.52800,-11.51883921
473.52850,-9.382478353
473.52900,-7.551311907
473.52950,-6.025339868
473.53000,-5.109756645
473.53050,-3.583784607
473.53100,-1.447423753
473.53150,0.6889371012
473.53200,3.130492363
473.53250,4.351269994
473.53300,4.656464401
473.53350,5.877242032
473.53400,7.708408478
473.53450,9.539574925
473.53500,9.844769332
473.53550,9.844769332
473.53600,10.76035256
473.53650,11.06554696
473.53700,10.14996374
473.53750,8.318797294
473.53800,7.403214071
473.53850,6.792825255
473.53900,4.961658809
473.53950,2.825297955
473.54000,1.604520324
473.54050,1.604520324
473.54100,0.9941315089
473.54150,0.07854828584
473.54200,-0.8370349373
473.54250,-0.8370349373
473.54300,-1.75261816
473.54350,-4.194173422
473.54400,-6.635728684
473.54450,-6.940923091
473.54500,-6.330534276
473.54550,-5.72014546
473.54600,-5.72014546
473.54650,-5.414951053
473.54700,-4.804562237
473.54750,-4.49936783
473.54800,-3.888979014
473.54850,-2.668201383
473.54900,-1.75261816
473.54950,-2.057812568
473.55000,-2.668201383
473.55050,-1.75261816
473.55100,1.299325917
473.55150,3.740881178
473.55200,4.351269994
473.55250,4.351269994
473.55300,5.266853217
473.55350,7.098019663
473.55400,8.318797294
473.55450,8.929186109
473.55500,9.234380517
473.55550,9.539574925
473.55600,8.318797294
473.55650,4.961658809
473.55700,1.909714732
473.55750,0.6889371012
473.55800,0.3837426935
473.55850,0.9941315089
473.55900,1.604520324
473.55950,1.909714732
473.56000,1.604520324
473.56050,1.299325917
473.56100,1.299325917
473.56150,1.604520324
473.56200,0.3837426935
473.56250,-2.363006976
473.56300,-4.804562237
473.56350,-4.49936783
473.56400,-3.583784607
473.56450,-6.025339868
473.56500,-9.992867168
473.56550,-9.077283945
473.56600,-0.8370349373
473.56650,9.234380517
473.56700,15.64346308
473.56750,17.16943512
473.56800,18.08501834
473.56850,18.69540716
473.56900,17.16943512
473.56950,13.50710222
473.57000,11.06554696
473.57050,12.591519
473.57100,16.5590463
473.57150,19.30579597
473.57200,19.30579597
473.57250,16.25385189
473.57300,11.37074137
473.57350,5.266853217
473.57400,0.07854828584
473.57450,-4.49936783
473.57500,-9.077283945
473.57550,-13.35000565
473.57600,-17.01233855
473.57650,-19.45389381
473.57700,-22.20064348
473.57750,-26.16817078
473.57800,-32.27205893
473.57850,-39.59672472
473.57900,-45.39541846
473.57950,-46.61619609
473.58000,-42.64866879
473.58050,-36.23958623
473.58100,-29.83050367
473.58150,-23.42142111
473.58200,-18.23311618
473.58250,-15.48636651
473.58300,-16.40194973
473.58350,-18.53831058
473.58400,-20.06428262
473.58450,-19.75908821
473.58500,-19.75908821
473.58550,-19.45389381
473.58600,-17.92792177
473.58650,-14.57078328
473.58700,-11.51883921
473.58750,-8.772089538
473.58800,-6.330534276
473.58850,-3.278590199
473.58900,-0.2266461219
473.58950,1.909714732
473.59000,3.435686771
473.59050,4.656464401
473.59100,6.18243644
473.59150,8.013602886
473.59200,9.844769332
473.59250,11.98113019
473.59300,14.42268545
473.59350,16.86424071
473.59400,18.39021275
473.59450,18.39021275
473.59500,17.16943512
473.59550,16.5590463
473.59600,17.47462952
473.59650,18.08501834
473.59700,17.77982393
473.59750,15.64346308
473.59800,13.20190782
473.59850,11.98113019
473.59900,11.37074137
473.59950,11.06554696
473.60000,9.539574925
473.60050,6.792825255
473.60100,4.351269994
473.60150,4.046075586
473.60200,4.656464401
473.60250,4.046075586
473.60300,1.604520324
473.60350,-1.142229345
473.60400,-2.973395791
473.60450,-2.973395791
473.60500,-2.668201383
473.60550,-3.888979014
473.60600,-6.330534276
473.60650,-7.856506314
473.60700,-6.940923091
473.60750,-4.804562237
473.60800,-2.973395791
473.60850,-2.668201383
473.60900,-2.057812568
473.60950,-0.2266461219
473.61000,1.299325917
473.61050,1.909714732
473.61100,1.909714732
473.61150,3.435686771
473.61200,5.877242032
473.61250,8.013602886
473.61300,9.234380517
473.61350,10.76035256
473.61400,12.89671341
473.61450,14.72787986
473.61500,15.94865749
473.61550,17.16943512
473.61600,18.08501834
473.61650,19.00060156
473.61700,19.61099038
473.61750,19.91618479
473.61800,19.00060156
473.61850,17.16943512
473.61900,15.03307426
473.61950,13.50710222
473.62000,12.28632459
473.62050,10.76035256
473.62100,7.708408478
473.62150,3.740881178
473.62200,-0.2266461219
473.62250,-2.973395791
473.62300,-3.278590199
473.62350,-2.973395791
473.62400,-4.194173422
473.62450,-6.330534276
473.62500,-7.551311907
473.62550,-7.246117499
473.62600,-7.246117499
473.62650,-7.856506314
473.62700,-7.856506314
473.62750,-7.246117499
473.62800,-7.551311907
473.62850,-8.772089538
473.62900,-9.077283945
473.62950,-7.551311907
473.63000,-5.109756645
473.63050,-1.447423753
473.63100,2.520103547
473.63150,7.403214071
473.63200,10.14996374
473.63250,11.67593578
473.63300,13.20190782
473.63350,15.33826867
473.63400,15.33826867
473.63450,13.50710222
473.63500,11.67593578
473.63550,10.45515815
473.63600,8.623991701
473.63650,6.487630848
473.63700,6.792825255
473.63750,9.539574925
473.63800,10.76035256
473.63850,7.403214071
473.63900,3.435686771
473.63950,2.520103547
473.64000,2.825297955
473.64050,0.6889371012
473.64100,-3.888979014
473.64150,-8.161700722
473.64200,-10.90845039
473.64250,-12.43442243
473.64300,-13.35000565
473.64350,-13.65520006
473.64400,-14.87597769
473.64450,-17.62272736
473.64500,-19.45389381
473.64550,-17.62272736
473.64600,-12.43442243
473.64650,-6.025339868
473.64700,-1.75261816
473.64750,-4.194173422
473.64800,-15.79156091
473.64850,-31.35647571
473.64900,-38.9863359
473.64950,-34.10322538
473.65000,-23.42142111
473.65050,-14.87597769
473.65100,-9.382478353
473.65150,-3.583784607
473.65200,1.299325917
473.65250,3.130492363
473.65300,4.351269994
473.65350,8.013602886
473.65400,10.76035256
473.65450,7.403214071
473.65500,0.6889371012
473.65550,-0.8370349373
473.65600,4.961658809
473.65650,11.67593578
473.65700,13.50710222
473.65750,11.98113019
473.65800,11.98113019
473.65850,12.591519
473.65900,11.37074137
473.65950,9.234380517
473.66000,7.708408478
473.66050,5.572047624
473.66100,1.604520324
473.66150,-2.363006976
473.66200,-4.804562237
473.66250,-5.414951053
473.66300,-5.414951053
473.66350,-5.109756645
473.66400,-4.49936783
473.66450,-5.72014546
473.66500,-8.46689513
473.66550,-10.29806158
473.66600,-8.772089538
473.66650,-6.330534276
473.66700,-5.72014546
473.66750,-6.940923091
473.66800,-6.940923091
473.66850,-5.414951053
473.66900,-3.583784607
473.66950,-2.668201383
473.67000,-1.142229345
473.67050,0.3837426935
473.67100,1.604520324
473.67150,2.520103547
473.67200,3.435686771
473.67250,5.877242032
473.67300,8.318797294
473.67350,10.14996374
473.67400,11.37074137
473.67450,11.98113019
473.67500,12.28632459
473.67550,11.98113019
473.67600,11.37074137
473.67650,10.45515815
473.67700,10.14996374
473.67750,10.45515815
473.67800,10.76035256
473.67850,10.76035256
473.67900,9.844769332
473.67950,8.623991701
473.68000,7.403214071
473.68050,5.572047624
473.68100,3.740881178
473.68150,2.520103547
473.68200,1.604520324
473.68250,-0.2266461219
473.68300,-2.973395791
473.68350,-4.49936783
473.68400,-5.414951053
473.68450,-6.940923091
473.68500,-9.992867168
473.68550,-12.12922802
473.68600,-11.2136448
473.68650,-9.382478353
473.68700,-9.077283945
473.68750,-9.687672761
473.68800,-8.772089538
473.68850,-6.940923091
473.68900,-6.025339868
473.68950,-6.330534276
473.69000,-6.330534276
473.69050,-4.49936783
473.69100,-2.363006976
473.69150,-0.8370349373
473.69200,-0.2266461219
473.69250,-0.2266461219
473.69300,0.3837426935
473.69350,2.825297955
473.69400,5.572047624
473.69450,7.403214071
473.69500,7.403214071
473.69550,6.792825255
473.69600,7.708408478
473.69650,8.318797294
473.69700,7.403214071
473.69750,4.656464401
473.69800,2.520103547
473.69850,2.21490914
473.69900,2.825297955
473.69950,3.130492363
473.70000,2.825297955
473.70050,1.299325917
473.70100,-0.5318405296
473.70150,-2.363006976
473.70200,-2.973395791
473.70250,-3.278590199
473.70300,-5.414951053
473.70350,-8.161700722
473.70400,-9.382478353
473.70450,-9.382478353
473.70500,-9.687672761
473.70550,-10.90845039
473.70600,-12.12922802
473.70650,-12.43442243
473.70700,-12.43442243
473.70750,-12.73961684
473.70800,-12.43442243
473.70850,-10.90845039
473.70900,-8.772089538
473.70950,-6.940923091
473.71000,-5.72014546
473.71050,-4.194173422
473.71100,-3.278590199
473.71150,-2.668201383
473.71200,-1.447423753
473.71250,0.3837426935
473.71300,1.604520324
473.71350,1.604520324
473.71400,1.604520324
473.71450,3.130492363
473.71500,5.572047624
473.71550,6.18243644
473.71600,5.266853217
473.71650,5.266853217
473.71700,7.403214071
473.71750,9.844769332
473.71800,10.14996374
473.71850,8.929186109
473.71900,7.403214071
473.71950,6.18243644
473.72000,4.351269994
473.72050,2.825297955
473.72100,2.21490914
473.72150,1.909714732
473.72200,0.07854828584
473.72250,-2.668201383
473.72300,-5.414951053
473.72350,-7.551311907
473.72400,-9.077283945
473.72450,-9.992867168
473.72500,-9.077283945
473.72550,-7.551311907
473.72600,-7.246117499
473.72650,-7.856506314
473.72700,-7.856506314
473.72750,-7.246117499
473.72800,-6.940923091
473.72850,-7.551311907
473.72900,-7.551311907
473.72950,-6.635728684
473.73000,-5.414951053
473.73050,-3.278590199
473.73100,-0.5318405296
473.73150,1.909714732
473.73200,2.520103547
473.73250,1.909714732
473.73300,2.520103547
473.73350,5.572047624
473.73400,7.403214071
473.73450,6.792825255
473.73500,6.18243644
473.73550,6.792825255
473.73600,8.013602886
473.73650,7.708408478
473.73700,6.792825255
473.73750,7.098019663
473.73800,7.403214071
473.73850,6.792825255
473.73900,5.877242032
473.73950,5.266853217
473.74000,4.351269994
473.74050,3.740881178
473.74100,3.130492363
473.74150,2.21490914
473.74200,0.07854828584
473.74250,-3.888979014
473.74300,-6.635728684
473.74350,-6.635728684
473.74400,-5.72014546
473.74450,-6.330534276
473.74500,-7.551311907
473.74550,-7.856506314
473.74600,-7.551311907
473.74650,-7.246117499
473.74700,-6.940923091
473.74750,-6.330534276
473.74800,-5.414951053
473.74850,-5.109756645
473.74900,-4.804562237
473.74950,-3.583784607
473.75000,-2.057812568
473.75050,-0.5318405296
473.75100,1.299325917
473.75150,4.046075586
473.75200,6.487630848
473.75250,7.708408478
473.75300,8.318797294
473.75350,9.234380517
473.75400,10.45515815
473.75450,12.28632459
473.75500,13.50710222
473.75550,13.81229663
473.75600,13.20190782
473.75650,12.89671341
473.75700,13.20190782
473.75750,13.50710222
473.75800,12.28632459
473.75850,10.45515815
473.75900,9.844769332
473.75950,10.14996374
473.76000,9.539574925
473.76050,7.708408478
473.76100,6.792825255
473.76150,6.18243644
473.76200,4.961658809
473.76250,2.520103547
473.76300,0.07854828584
473.76350,-0.8370349373
473.76400,-2.057812568
473.76450,-4.194173422
473.76500,-5.414951053
473.76550,-5.109756645
473.76600,-4.49936783
473.76650,-4.804562237
473.76700,-5.414951053
473.76750,-5.109756645
473.76800,-4.194173422
473.76850,-3.278590199
473.76900,-2.668201383
473.76950,-1.75261816
473.77000,-0.5318405296
473.77050,0.3837426935
473.77100,1.299325917
473.77150,2.21490914
473.77200,3.130492363
473.77250,3.740881178
473.77300,4.961658809
473.77350,6.18243644
473.77400,6.18243644
473.77450,6.18243644
473.77500,7.708408478
473.77550,10.14996374
473.77600,11.06554696
473.77650,10.14996374
473.77700,8.929186109
473.77750,8.929186109
473.77800,9.234380517
473.77850,8.318797294
473.77900,6.792825255
473.77950,5.877242032
473.78000,5.877242032
473.78050,5.266853217
473.78100,4.351269994
473.78150,2.825297955
473.78200,0.3837426935
473.78250,-1.75261816
473.78300,-2.973395791
473.78350,-2.363006976
473.78400,-2.057812568
473.78450,-3.888979014
473.78500,-6.330534276
473.78550,-6.330534276
473.78600,-3.583784607
473.78650,-1.447423753
473.78700,-0.8370349373
473.78750,-0.8370349373
473.78800,-1.75261816
473.78850,-4.804562237
473.78900,-8.772089538
473.78950,-9.687672761
473.79000,-6.025339868
473.79050,-2.363006976
473.79100,-3.278590199
473.79150,-6.635728684
473.79200,-5.72014546
473.79250,0.07854828584
473.79300,4.961658809
473.79350,6.487630848
473.79400,6.487630848
473.79450,7.098019663
473.79500,8.623991701
473.79550,11.06554696
473.79600,15.94865749
473.79650,22.66293446
473.79700,26.93565616
473.79750,25.40968413
473.79800,20.5265736
473.79850,15.94865749
473.79900,10.76035256
473.79950,2.520103547
473.80000,-6.025339868
473.80050,-10.29806158
473.80100,-7.246117499
473.80150,-0.5318405296
473.80200,4.656464401
473.80250,6.18243644
473.80300,4.961658809
473.80350,2.21490914
473.80400,-0.5318405296
473.80450,-5.414951053
473.80500,-15.1811721
473.80550,-27.99933722
473.80600,-38.9863359
473.80650,-43.56425202
473.80700,-42.03827998
473.80750,-35.62919742
473.80800,-25.55778196
473.80850,-14.87597769
473.80900,-9.077283945
473.80950,-10.60325598
473.81000,-13.35000565
473.81050,-9.992867168
473.81100,-0.8370349373
473.81150,6.487630848
473.81200,8.623991701
473.81250,8.013602886
473.81300,8.013602886
473.81350,8.318797294
473.81400,5.877242032
473.81450,2.520103547
473.81500,1.299325917
473.81550,3.435686771
473.81600,7.403214071
473.81650,9.844769332
473.81700,8.623991701
473.81750,2.520103547
473.81800,-6.025339868
473.81850,-13.65520006
473.81900,-17.31753295
473.81950,-17.01233855
473.82000,-13.65520006
473.82050,-9.382478353
473.82100,-6.025339868
473.82150,-5.414951053
473.82200,-6.025339868
473.82250,-6.025339868
473.82300,-5.109756645
473.82350,-4.804562237
473.82400,-6.025339868
473.82450,-6.940923091
473.82500,-6.940923091
473.82550,-9.077283945
473.82600,-14.26558888
473.82650,-19.75908821
473.82700,-19.1486994
473.82750,-13.35000565
473.82800,-6.940923091
473.82850,-4.194173422
473.82900,-4.194173422
473.82950,-3.583784607
473.83000,-1.75261816
473.83050,0.07854828584
473.83100,0.9941315089
473.83150,2.21490914
473.83200,3.740881178
473.83250,5.572047624
473.83300,7.098019663
473.83350,8.318797294
473.83400,8.623991701
473.83450,9.234380517
473.83500,10.14996374
473.83550,11.67593578
473.83600,12.28632459
473.83650,11.67593578
473.83700,10.14996374
473.83750,9.234380517
473.83800,8.623991701
473.83850,8.318797294
473.83900,7.708408478
473.83950,6.18243644
473.84000,4.046075586
473.84050,2.520103547
473.84100,1.909714732
473.84150,1.909714732
473.84200,0.6889371012
473.84250,-0.8370349373
473.84300,-2.973395791
473.84350,-4.804562237
473.84400,-6.635728684
473.84450,-7.856506314
473.84500,-8.161700722
473.84550,-8.161700722
473.84600,-7.856506314
473.84650,-7.246117499
473.84700,-6.940923091
473.84750,-8.46689513
473.84800,-10.29806158
473.84850,-11.2136448
473.84900,-9.687672761
473.84950,-6.940923091
473.85000,-4.49936783
473.85050,-2.057812568
473.85100,0.6889371012
473.85150,2.21490914
473.85200,2.825297955
473.85250,3.740881178
473.85300,6.792825255
473.85350,9.844769332
473.85400,11.06554696
473.85450,10.76035256
473.85500,10.76035256
473.85550,11.06554696
473.85600,10.76035256
473.85650,11.06554696
473.85700,12.28632459
473.85750,13.20190782
473.85800,11.98113019
473.85850,9.539574925
473.85900,8.318797294
473.85950,8.318797294
473.86000,8.013602886
473.86050,7.403214071
473.86100,6.792825255
473.86150,5.877242032
473.86200,3.435686771
473.86250,-0.2266461219
473.86300,-3.278590199
473.86350,-5.109756645
473.86400,-6.940923091
473.86450,-8.772089538
473.86500,-9.382478353
473.86550,-9.077283945
473.86600,-8.46689513
473.86650,-8.46689513
473.86700,-8.161700722
473.86750,-7.856506314
473.86800,-8.46689513
473.86850,-9.992867168
473.86900,-10.90845039
473.86950,-8.772089538
473.87000,-6.025339868
473.87050,-4.194173422
473.87100,-3.278590199
473.87150,-2.057812568
473.87200,0.6889371012
473.87250,4.046075586
473.87300,6.18243644
473.87350,6.792825255
473.87400,6.487630848
473.87450,6.487630848
473.87500,6.792825255
473.87550,7.403214071
473.87600,7.403214071
473.87650,7.708408478
473.87700,8.013602886
473.87750,8.318797294
473.87800,7.708408478
473.87850,6.487630848
473.87900,4.961658809
473.87950,3.435686771
473.88000,1.299325917
473.88050,-0.2266461219
473.88100,-0.8370349373
473.88150,0.07854828584
473.88200,0.07854828584
473.88250,-0.2266461219
473.88300,-1.142229345
473.88350,-2.363006976
473.88400,-5.109756645
473.88450,-9.077283945
473.88500,-11.51883921
473.88550,-10.90845039
473.88600,-9.382478353
473.88650,-9.077283945
473.88700,-10.29806158
473.88750,-10.29806158
473.88800,-9.382478353
473.88850,-9.077283945
473.88900,-9.687672761
473.88950,-9.077283945
473.89000,-6.635728684
473.89050,-4.804562237
473.89100,-4.194173422
473.89150,-3.888979014
473.89200,-1.447423753
473.89250,0.6889371012
473.89300,2.21490914
473.89350,3.435686771
473.89400,5.572047624
473.89450,8.318797294
473.89500,9.539574925
473.89550,8.929186109
473.89600,8.623991701
473.89650,8.929186109
473.89700,8.929186109
473.89750,8.318797294
473.89800,8.013602886
473.89850,7.403214071
473.89900,5.572047624
473.89950,3.130492363
473.90000,2.520103547
473.90050,3.130492363
473.90100,2.21490914
473.90150,0.07854828584
473.90200,-1.142229345
473.90250,-1.142229345
473.90300,-1.447423753
473.90350,-2.973395791
473.90400,-4.804562237
473.90450,-6.025339868
473.90500,-7.856506314
473.90550,-10.29806158
473.90600,-11.82403361
473.90650,-11.2136448
473.90700,-10.60325598
473.90750,-10.29806158
473.90800,-9.687672761
473.90850,-7.856506314
473.90900,-5.72014546
473.90950,-4.194173422
473.91000,-3.278590199
473.91050,-1.447423753
473.91100,1.299325917
473.91150,3.740881178
473.91200,5.266853217
473.91250,6.18243644
473.91300,8.318797294
473.91350,11.67593578
473.91400,13.81229663
473.91450,11.98113019
473.91500,7.403214071
473.91550,4.351269994
473.91600,6.792825255
473.91650,11.37074137
473.91700,13.50710222
473.91750,11.67593578
473.91800,8.013602886
473.91850,4.961658809
473.91900,2.21490914
473.91950,1.299325917
473.92000,2.520103547
473.92050,4.656464401
473.92100,4.351269994
473.92150,0.9941315089
473.92200,-1.75261816
473.92250,-2.668201383
473.92300,-3.278590199
473.92350,-4.804562237
473.92400,-6.025339868
473.92450,-6.330534276
473.92500,-6.635728684
473.92550,-7.551311907
473.92600,-7.856506314
473.92650,-6.635728684
473.92700,-5.72014546
473.92750,-6.330534276
473.92800,-6.025339868
473.92850,-2.363006976
473.92900,4.046075586
473.92950,9.539574925
473.93000,11.67593578
473.93050,11.37074137
473.93100,10.76035256
473.93150,11.37074137
473.93200,11.98113019
473.93250,11.37074137
473.93300,9.844769332
473.93350,7.708408478
473.93400,7.708408478
473.93450,11.06554696
473.93500,15.94865749
473.93550,18.69540716
473.93600,15.33826867
473.93650,8.013602886
473.93700,0.9941315089
473.93750,-1.75261816
473.93800,-1.447423753
473.93850,-0.5318405296
473.93900,0.3837426935
473.93950,2.21490914
473.94000,3.130492363
473.94050,1.909714732
473.94100,-0.8370349373
473.94150,-2.363006976
473.94200,-1.75261816
473.94250,-0.5318405296
473.94300,-1.447423753
473.94350,-3.278590199
473.94400,-3.888979014
473.94450,-3.888979014
473.94500,-5.72014546
473.94550,-8.772089538
473.94600,-11.51883921
473.94650,-10.90845039
473.94700,-7.856506314
473.94750,-2.973395791
473.94800,1.604520324
473.94850,4.961658809
473.94900,4.961658809
473.94950,2.520103547
473.95000,-0.2266461219
473.95050,-1.142229345
473.95100,0.07854828584
473.95150,2.825297955
473.95200,5.877242032
473.95250,8.013602886
473.95300,8.318797294
473.95350,6.792825255
473.95400,4.656464401
473.95450,1.604520324
473.95500,-1.75261816
473.95550,-3.888979014
473.95600,-3.278590199
473.95650,-0.2266461219
473.95700,2.21490914
473.95750,3.740881178
473.95800,4.351269994
473.95850,4.656464401
473.95900,5.877242032
473.95950,8.013602886
473.96000,10.14996374
473.96050,11.06554696
473.96100,10.45515815
473.96150,9.234380517
473.96200,7.708408478
473.96250,4.046075586
473.96300,-1.142229345
473.96350,-6.635728684
473.96400,-7.856506314
473.96450,-4.804562237
473.96500,-1.142229345
473.96550,-0.5318405296
473.96600,-3.278590199
473.96650,-9.077283945
473.96700,-15.79156091
473.96750,-20.97986585
473.96800,-22.81103229
473.96850,-23.1162267
473.96900,-23.42142111
473.96950,-23.72661551
473.97000,-21.89544907
473.97050,-17.31753295
473.97100,-11.82403361
473.97150,-7.856506314
473.97200,-4.804562237
473.97250,-2.057812568
473.97300,0.07854828584
473.97350,1.604520324
473.97400,2.825297955
473.97450,4.961658809
473.97500,7.708408478
473.97550,9.539574925
473.97600,10.14996374
473.97650,10.76035256
473.97700,11.06554696
473.97750,11.37074137
473.97800,10.76035256
473.97850,9.539574925
473.97900,8.623991701
473.97950,8.013602886
473.98000,8.318797294
473.98050,7.708408478
473.98100,5.572047624
473.98150,2.520103547
473.98200,0.07854828584
473.98250,-0.5318405296
473.98300,-0.5318405296
473.98350,-1.447423753
473.98400,-3.278590199
473.98450,-4.49936783
473.98500,-5.414951053
473.98550,-6.330534276
473.98600,-8.161700722
473.98650,-9.382478353
473.98700,-9.382478353
473.98750,-8.772089538
473.98800,-8.161700722
473.98850,-6.940923091
473.98900,-4.194173422
473.98950,-2.057812568
473.99000,-2.668201383
473.99050,-3.888979014
473.99100,-2.668201383
473.99150,0.9941315089
473.99200,3.740881178
473.99250,3.740881178
473.99300,3.740881178
473.99350,5.572047624
473.99400,7.098019663
473.99450,5.572047624
473.99500,3.435686771
473.99550,4.046075586
473.99600,8.013602886
473.99650,10.76035256
473.99700,10.45515815
473.99750,9.234380517
473.99800,8.013602886
473.99850,7.708408478
473.99900,8.929186109
473.99950,12.28632459
474.00000,12.89671341
474.00050,6.792825255
474.00100,-2.057812568
474.00150,-3.888979014
474.00200,1.604520324
474.00250,5.266853217
474.00300,-0.2266461219
474.00350,-9.382478353
474.00400,-11.82403361
474.00450,-8.46689513
474.00500,-7.551311907
474.00550,-10.29806158
474.00600,-9.077283945
474.00650,0.07854828584
474.00700,10.45515815
474.00750,14.72787986
474.00800,12.591519
474.00850,8.623991701
474.00900,4.656464401
474.00950,0.3837426935
474.01000,-3.583784607
474.01050,-7.856506314
474.01100,-11.51883921
474.01150,-13.04481125
474.01200,-10.60325598
474.01250,-5.414951053
474.01300,-1.75261816
474.01350,-3.278590199
474.01400,-7.856506314
474.01450,-13.65520006
474.01500,-18.53831058
474.01550,-20.36947703
474.01600,-17.31753295
474.01650,-10.90845039
474.01700,-6.025339868
474.01750,-4.49936783
474.01800,-3.583784607
474.01850,-1.75261816
474.01900,0.07854828584
474.01950,1.909714732
474.02000,4.961658809
474.02050,8.623991701
474.02100,9.539574925
474.02150,8.013602886
474.02200,7.403214071
474.02250,9.539574925
474.02300,9.539574925
474.02350,4.656464401
474.02400,-1.142229345
474.02450,-3.888979014
474.02500,-5.72014546
474.02550,-9.992867168
474.02600,-15.79156091
474.02650,-18.84350499
474.02700,-18.23311618
474.02750,-17.31753295
474.02800,-20.06428262
474.02850,-25.86297637
474.02900,-31.0512813
474.02950,-30.74608689
474.03000,-21.59025466
474.03050,-7.551311907
474.03100,1.909714732
474.03150,3.435686771
474.03200,1.604520324
474.03250,2.21490914
474.03300,5.266853217
474.03350,7.098019663
474.03400,7.403214071
474.03450,8.623991701
474.03500,10.76035256
474.03550,11.98113019
474.03600,12.89671341
474.03650,15.03307426
474.03700,16.86424071
474.03750,16.25385189
474.03800,14.42268545
474.03850,13.50710222
474.03900,12.89671341
474.03950,10.45515815
474.04000,6.792825255
474.04050,4.046075586
474.04100,3.740881178
474.04150,3.130492363
474.04200,0.9941315089
474.04250,-0.5318405296
474.04300,-1.142229345
474.04350,-2.057812568
474.04400,-4.804562237
474.04450,-9.687672761
474.04500,-14.57078328
474.04550,-16.09675532
474.04600,-14.26558888
474.04650,-10.90845039
474.04700,-8.46689513
474.04750,-6.635728684
474.04800,-4.804562237
474.04850,-2.973395791
474.04900,-2.363006976
474.04950,-2.363006976
474.05000,-2.363006976
474.05050,-2.668201383
474.05100,-5.414951053
474.05150,-7.856506314
474.05200,-5.414951053
474.05250,0.9941315089
474.05300,6.792825255
474.05350,8.623991701
474.05400,8.318797294
474.05450,9.234380517
474.05500,10.45515815
474.05550,11.06554696
474.05600,11.06554696
474.05650,12.28632459
474.05700,13.20190782
474.05750,12.89671341
474.05800,12.591519
474.05850,12.89671341
474.05900,12.591519
474.05950,10.14996374
474.06000,6.792825255
474.06050,5.877242032
474.06100,6.18243644
474.06150,5.572047624
474.06200,2.825297955
474.06250,0.9941315089
474.06300,0.3837426935
474.06350,-0.2266461219
474.06400,-2.057812568
474.06450,-3.278590199
474.06500,-2.973395791
474.06550,-2.973395791
474.06600,-5.109756645
474.06650,-7.246117499
474.06700,-6.940923091
474.06750,-4.804562237
474.06800,-2.973395791
474.06850,-2.057812568
474.06900,-1.142229345
474.06950,0.3837426935
474.07000,1.604520324
474.07050,1.299325917
474.07100,1.604520324
474.07150,4.046075586
474.07200,7.403214071
474.07250,9.234380517
474.07300,8.929186109
474.07350,8.623991701
474.07400,10.14996374
474.07450,11.98113019
474.07500,12.591519
474.07550,11.37074137
474.07600,9.844769332
474.07650,10.76035256
474.07700,14.72787986
474.07750,19.61099038
474.07800,21.74735123
474.07850,19.91618479
474.07900,16.25385189
474.07950,13.20190782
474.08000,9.844769332
474.08050,4.656464401
474.08100,-1.447423753
474.08150,-6.025339868
474.08200,-7.856506314
474.08250,-8.161700722
474.08300,-8.161700722
474.08350,-7.551311907
474.08400,-6.635728684
474.08450,-7.551311907
474.08500,-10.60325598
474.08550,-12.43442243
474.08600,-11.2136448
474.08650,-8.46689513
474.08700,-7.246117499
474.08750,-7.246117499
474.08800,-6.025339868
474.08850,-4.49936783
474.08900,-4.194173422
474.08950,-5.414951053
474.09000,-6.330534276
474.09050,-6.330534276
474.09100,-6.635728684
474.09150,-6.635728684
474.09200,-4.49936783
474.09250,-1.447423753
474.09300,0.07854828584
474.09350,0.07854828584
474.09400,2.520103547
474.09450,7.708408478
474.09500,13.20190782
474.09550,16.5590463
474.09600,18.39021275
474.09650,19.00060156
474.09700,16.86424071
474.09750,12.591519
474.09800,8.318797294
474.09850,5.877242032
474.09900,4.046075586
474.09950,2.825297955
474.10000,3.130492363
474.10050,4.046075586
474.10100,2.21490914
474.10150,-4.49936783
474.10200,-13.35000565
474.10250,-20.06428262
474.10300,-23.72661551
474.10350,-24.94739315
474.10400,-23.42142111
474.10450,-19.1486994
474.10500,-14.87597769
474.10550,-13.96039447
474.10600,-14.87597769
474.10650,-15.48636651
474.10700,-14.26558888
474.10750,-12.43442243
474.10800,-11.2136448
474.10850,-9.992867168
474.10900,-9.077283945
474.10950,-8.772089538
474.11000,-7.856506314
474.11050,-3.888979014
474.11100,1.909714732
474.11150,6.792825255
474.11200,7.403214071
474.11250,6.18243644
474.11300,5.266853217
474.11350,5.572047624
474.11400,4.656464401
474.11450,2.520103547
474.11500,1.604520324
474.11550,2.825297955
474.11600,4.961658809
474.11650,7.098019663
474.11700,8.623991701
474.11750,10.14996374
474.11800,10.76035256
474.11850,9.539574925
474.11900,6.18243644
474.11950,1.909714732
474.12000,-1.447423753
474.12050,-2.973395791
474.12100,-2.973395791
474.12150,-2.973395791
474.12200,-3.888979014
474.12250,-5.109756645
474.12300,-5.109756645
474.12350,-3.583784607
474.12400,-2.057812568
474.12450,-1.142229345
474.12500,-2.363006976
474.12550,-4.804562237
474.12600,-7.551311907
474.12650,-8.772089538
474.12700,-8.161700722
474.12750,-6.635728684
474.12800,-6.025339868
474.12850,-6.025339868
474.12900,-5.414951053
474.12950,-4.194173422
474.13000,-2.973395791
474.13050,-2.057812568
474.13100,-1.142229345
474.13150,0.3837426935
474.13200,2.825297955
474.13250,4.961658809
474.13300,6.18243644
474.13350,6.792825255
474.13400,7.403214071
474.13450,8.318797294
474.13500,10.14996374
474.13550,11.98113019
474.13600,13.50710222
474.13650,14.42268545
474.13700,13.50710222
474.13750,11.67593578
474.13800,10.76035256
474.13850,10.76035256
474.13900,10.45515815
474.13950,9.234380517
474.14000,8.013602886
474.14050,7.098019663
474.14100,6.487630848
474.14150,4.656464401
474.14200,2.21490914
474.14250,0.07854828584
474.14300,-1.142229345
474.14350,-2.973395791
474.14400,-4.194173422
474.14450,-5.109756645
474.14500,-5.72014546
474.14550,-6.025339868
474.14600,-6.635728684
474.14650,-7.246117499
474.14700,-7.551311907
474.14750,-7.856506314
474.14800,-8.46689513
474.14850,-8.46689513
474.14900,-7.246117499
474.14950,-5.72014546
474.15000,-4.194173422
474.15050,-2.363006976
474.15100,0.07854828584
474.15150,1.909714732
474.15200,2.21490914
474.15250,3.130492363
474.15300,6.487630848
474.15350,11.98113019
474.15400,15.64346308
474.15450,15.64346308
474.15500,15.03307426
474.15550,15.64346308
474.15600,14.72787986
474.15650,10.14996374
474.15700,5.877242032
474.15750,7.708408478
474.15800,14.72787986
474.15850,20.83176801
474.15900,22.96812886
474.15950,23.57851768
474.16000,22.35774005
474.16050,15.33826867
474.16100,1.909714732
474.16150,-9.687672761
474.16200,-13.65520006
474.16250,-13.04481125
474.16300,-16.70714414
474.16350,-25.55778196
474.16400,-32.88244775
474.16450,-34.40841978
474.16500,-33.49283656
474.16550,-34.40841978
474.16600,-35.0188086
474.16650,-31.35647571
474.16700,-24.64219874
474.16750,-20.06428262
474.16800,-20.06428262
474.16850,-21.59025466
474.16900,-20.06428262
474.16950,-16.40194973
474.17000,-13.04481125
474.17050,-9.992867168
474.17100,-4.49936783
474.17150,2.21490914
474.17200,7.403214071
474.17250,7.403214071
474.17300,4.656464401
474.17350,2.520103547
474.17400,1.604520324
474.17450,1.604520324
474.17500,2.520103547
474.17550,5.572047624
474.17600,8.318797294
474.17650,10.45515815
474.17700,13.20190782
474.17750,17.16943512
474.17800,19.91618479
474.17850,18.39021275
474.17900,13.81229663
474.17950,11.37074137
474.18000,11.67593578
474.18050,11.06554696
474.18100,6.487630848
474.18150,0.07854828584
474.18200,-5.72014546
474.18250,-11.82403361
474.18300,-18.84350499
474.18350,-23.72661551
474.18400,-23.72661551
474.18450,-19.45389381
474.18500,-15.1811721
474.18550,-13.04481125
474.18600,-11.2136448
474.18650,-9.077283945
474.18700,-8.46689513
474.18750,-10.60325598
474.18800,-13.35000565
474.18850,-13.65520006
474.18900,-10.60325598
474.18950,-6.940923091
474.19000,-3.278590199
474.19050,0.07854828584
474.19100,4.046075586
474.19150,5.877242032
474.19200,5.877242032
474.19250,6.487630848
474.19300,9.844769332
474.19350,12.89671341
474.19400,13.81229663
474.19450,15.33826867
474.19500,21.13696242
474.19550,27.85123939
474.19600,31.20837787
474.19650,30.59798906
474.19700,30.59798906
474.19750,31.20837787
474.19800,29.07201702
474.19850,22.66293446
474.19900,15.03307426
474.19950,10.14996374
474.20000,6.487630848
474.20050,2.825297955
474.20100,-1.447423753
474.20150,-6.025339868
474.20200,-10.90845039
474.20250,-15.79156091
474.20300,-19.45389381
474.20350,-21.28506025
474.20400,-22.20064348
474.20450,-22.20064348
474.20500,-20.36947703
474.20550,-17.01233855
474.20600,-14.87597769
474.20650,-14.87597769
474.20700,-14.87597769
474.20750,-12.43442243
474.20800,-8.161700722
474.20850,-4.194173422
474.20900,-2.057812568
474.20950,-0.2266461219
474.21000,1.604520324
474.21050,3.740881178
474.21100,5.266853217
474.21150,6.18243644
474.21200,6.487630848
474.21250,7.403214071
474.21300,8.623991701
474.21350,10.14996374
474.21400,11.06554696
474.21450,11.98113019
474.21500,12.89671341
474.21550,13.20190782
474.21600,12.591519
474.21650,11.98113019
474.21700,12.591519
474.21750,14.11749104
474.21800,14.42268545
474.21850,12.28632459
474.21900,9.844769332
474.21950,8.318797294
474.22000,8.623991701
474.22050,9.234380517
474.22100,8.929186109
474.22150,7.708408478
474.22200,5.877242032
474.22250,3.740881178
474.22300,1.604520324
474.22350,0.07854828584
474.22400,-0.2266461219
474.22450,-0.8370349373
474.22500,-2.668201383
474.22550,-5.414951053
474.22600,-7.551311907
474.22650,-8.161700722
474.22700,-6.940923091
474.22750,-5.414951053
474.22800,-5.109756645
474.22850,-6.025339868
474.22900,-7.551311907
474.22950,-7.246117499
474.23000,-5.72014546
474.23050,-4.194173422
474.23100,-4.49936783
474.23150,-4.49936783
474.23200,-2.973395791
474.23250,-1.142229345
474.23300,-0.5318405296
474.23350,0.9941315089
474.23400,5.572047624
474.23450,11.67593578
474.23500,14.72787986
474.23550,13.20190782
474.23600,10.14996374
474.23650,8.623991701
474.23700,8.623991701
474.23750,9.234380517
474.23800,9.539574925
474.23850,9.539574925
474.23900,8.929186109
474.23950,7.708408478
474.24000,7.098019663
474.24050,6.18243644
474.24100,4.351269994
474.24150,1.604520324
474.24200,-0.2266461219
474.24250,-1.447423753
474.24300,-2.668201383
474.24350,-3.888979014
474.24400,-4.194173422
474.24450,-4.194173422
474.24500,-6.025339868
474.24550,-9.077283945
474.24600,-11.2136448
474.24650,-10.60325598
474.24700,-9.077283945
474.24750,-9.992867168
474.24800,-11.51883921
474.24850,-11.2136448
474.24900,-8.772089538
474.24950,-6.330534276
474.25000,-5.109756645
474.25050,-3.888979014
474.25100,-2.363006976
474.25150,-0.5318405296
474.25200,0.07854828584
474.25250,0.9941315089
474.25300,3.435686771
474.25350,6.487630848
474.25400,8.318797294
474.25450,7.708408478
474.25500,7.098019663
474.25550,8.013602886
474.25600,10.45515815
474.25650,12.28632459
474.25700,12.591519
474.25750,11.06554696
474.25800,8.623991701
474.25850,6.792825255
474.25900,5.266853217
474.25950,4.351269994
474.26000,3.740881178
474.26050,3.435686771
474.26100,2.520103547
474.26150,1.604520324
474.26200,0.07854828584
474.26250,-1.75261816
474.26300,-3.278590199
474.26350,-3.583784607
474.26400,-4.194173422
474.26450,-4.49936783
474.26500,-2.363006976
474.26550,1.604520324
474.26600,5.877242032
474.26650,6.792825255
474.26700,4.351269994
474.26750,0.9941315089
474.26800,-1.75261816
474.26850,-4.49936783
474.26900,-7.246117499
474.26950,-9.687672761
474.27000,-11.51883921
474.27050,-11.2136448
474.27100,-9.077283945
474.27150,-7.551311907
474.27200,-10.90845039
474.27250,-17.62272736
474.27300,-22.20064348
474.27350,-19.45389381
474.27400,-13.04481125
474.27450,-9.992867168
474.27500,-11.82403361
474.27550,-12.73961684
474.27600,-9.382478353
474.27650,-4.49936783
474.27700,-2.363006976
474.27750,-2.668201383
474.27800,-2.057812568
474.27850,0.07854828584
474.27900,1.299325917
474.27950,0.9941315089
474.28000,0.9941315089
474.28050,1.909714732
474.28100,2.520103547
474.28150,0.9941315089
474.28200,-1.142229345
474.28250,-2.668201383
474.28300,-3.583784607
474.28350,-4.49936783
474.28400,-5.109756645
474.28450,-6.025339868
474.28500,-7.551311907
474.28550,-9.687672761
474.28600,-11.82403361
474.28650,-12.73961684
474.28700,-11.82403361
474.28750,-9.992867168
474.28800,-8.161700722
474.28850,-6.330534276
474.28900,-4.194173422
474.28950,-2.057812568
474.29000,-0.2266461219
474.29050,0.3837426935
474.29100,-0.8370349373
474.29150,-3.278590199
474.29200,-5.109756645
474.29250,-4.194173422
474.29300,-0.8370349373
474.29350,2.825297955
474.29400,5.877242032
474.29450,7.708408478
474.29500,8.929186109
474.29550,10.45515815
474.29600,11.67593578
474.29650,11.98113019
474.29700,12.28632459
474.29750,12.591519
474.29800,13.20190782
474.29850,12.591519
474.29900,11.37074137
474.29950,10.14996374
474.30000,9.234380517
474.30050,7.403214071
474.30100,4.961658809
474.30150,2.825297955
474.30200,0.9941315089
474.30250,-0.2266461219
474.30300,-2.057812568
474.30350,-3.278590199
474.30400,-3.583784607
474.30450,-4.194173422
474.30500,-5.109756645
474.30550,-6.330534276
474.30600,-6.940923091
474.30650,-6.330534276
474.30700,-5.109756645
474.30750,-4.804562237
474.30800,-5.414951053
474.30850,-5.72014546
474.30900,-4.804562237
474.30950,-3.278590199
474.31000,-2.668201383
474.31050,-2.057812568
474.31100,-0.5318405296
474.31150,1.909714732
474.31200,3.740881178
474.31250,4.656464401
474.31300,5.877242032
474.31350,7.708408478
474.31400,9.539574925
474.31450,10.45515815
474.31500,11.06554696
474.31550,11.37074137
474.31600,11.06554696
474.31650,10.14996374
474.31700,10.45515815
474.31750,11.98113019
474.31800,12.89671341
474.31850,11.67593578
474.31900,9.539574925
474.31950,8.929186109
474.32000,8.318797294
474.32050,6.792825255
474.32100,5.266853217
474.32150,4.961658809
474.32200,4.961658809
474.32250,4.046075586
474.32300,1.604520324
474.32350,-0.2266461219
474.32400,-1.75261816
474.32450,-3.278590199
474.32500,-5.414951053
474.32550,-6.635728684
474.32600,-7.551311907
474.32650,-9.077283945
474.32700,-10.60325598
474.32750,-11.51883921
474.32800,-10.60325598
474.32850,-9.382478353
474.32900,-8.46689513
474.32950,-7.551311907
474.33000,-6.940923091
474.33050,-6.635728684
474.33100,-5.72014546
474.33150,-4.194173422
474.33200,-2.973395791
474.33250,-2.057812568
474.33300,-1.142229345
474.33350,0.9941315089
474.33400,4.656464401
474.33450,6.487630848
474.33500,6.792825255
474.33550,6.792825255
474.33600,8.623991701
474.33650,10.45515815
474.33700,9.844769332
474.33750,6.792825255
474.33800,3.435686771
474.33850,1.604520324
474.33900,0.9941315089
474.33950,0.6889371012
474.34000,0.3837426935
474.34050,0.07854828584
474.34100,0.07854828584
474.34150,-0.8370349373
474.34200,-2.668201383
474.34250,-5.414951053
474.34300,-7.856506314
474.34350,-9.687672761
474.34400,-10.60325598
474.34450,-10.60325598
474.34500,-9.992867168
474.34550,-9.687672761
474.34600,-9.687672761
474.34650,-9.992867168
474.34700,-9.992867168
474.34750,-9.382478353
474.34800,-8.772089538
474.34850,-8.46689513
474.34900,-7.246117499
474.34950,-5.109756645
474.35000,-2.668201383
474.35050,-2.057812568
474.35100,-2.668201383
474.35150,-1.75261816
474.35200,1.604520324
474.35250,7.098019663
474.35300,11.98113019
474.35350,15.64346308
474.35400,16.5590463
474.35450,14.72787986
474.35500,12.28632459
474.35550,9.844769332
474.35600,6.792825255
474.35650,2.520103547
474.35700,0.3837426935
474.35750,4.656464401
474.35800,12.591519
474.35850,15.94865749
474.35900,11.67593578
474.35950,4.961658809
474.36000,1.604520324
474.36050,0.07854828584
474.36100,-3.583784607
474.36150,-8.46689513
474.36200,-10.90845039
474.36250,-10.60325598
474.36300,-9.992867168
474.36350,-9.992867168
474.36400,-9.077283945
474.36450,-8.46689513
474.36500,-9.687672761
474.36550,-10.29806158
474.36600,-8.772089538
474.36650,-7.551311907
474.36700,-7.856506314
474.36750,-6.330534276
474.36800,1.299325917
474.36850,12.89671341
474.36900,19.00060156
474.36950,17.16943512
474.37000,12.89671341
474.37050,10.45515815
474.37100,8.318797294
474.37150,2.825297955
474.37200,-3.583784607
474.37250,-8.161700722
474.37300,-9.382478353
474.37350,-9.992867168
474.37400,-10.90845039
474.37450,-13.04481125
474.37500,-14.57078328
474.37550,-14.57078328
474.37600,-11.2136448
474.37650,-6.635728684
474.37700,-3.278590199
474.37750,-2.363006976
474.37800,-1.447423753
474.37850,0.07854828584
474.37900,2.825297955
474.37950,5.572047624
474.38000,7.403214071
474.38050,7.098019663
474.38100,5.266853217
474.38150,4.351269994
474.38200,4.961658809
474.38250,4.961658809
474.38300,2.825297955
474.38350,0.6889371012
474.38400,0.9941315089
474.38450,0.07854828584
474.38500,-5.109756645
474.38550,-12.43442243
474.38600,-15.1811721
474.38650,-13.04481125
474.38700,-12.73961684
474.38750,-16.40194973
474.38800,-19.75908821
474.38850,-18.23311618
474.38900,-13.96039447
474.38950,-9.992867168
474.39000,-6.635728684
474.39050,-2.973395791
474.39100,0.07854828584
474.39150,1.299325917
474.39200,1.909714732
474.39250,1.909714732
474.39300,2.520103547
474.39350,5.572047624
474.39400,14.11749104
474.39450,25.40968413
474.39500,33.34473873
474.39550,33.95512754
474.39600,30.90318346
474.39650,28.4616282
474.39700,26.02007294
474.39750,21.13696242
474.39800,14.42268545
474.39850,8.929186109
474.39900,5.877242032
474.39950,4.656464401
474.40000,5.266853217
474.40050,7.098019663
474.40100,6.792825255
474.40150,0.6889371012
474.40200,-10.60325598
474.40250,-20.97986585
474.40300,-24.94739315
474.40350,-21.28506025
474.40400,-15.1811721
474.40450,-11.2136448
474.40500,-11.2136448
474.40550,-12.43442243
474.40600,-12.43442243
474.40650,-11.2136448
474.40700,-10.29806158
474.40750,-9.687672761
474.40800,-8.46689513
474.40850,-5.72014546
474.40900,-2.363006976
474.40950,-0.8370349373
474.41000,-0.8370349373
474.41050,-1.447423753
474.41100,-0.8370349373
474.41150,0.9941315089
474.41200,3.130492363
474.41250,3.435686771
474.41300,3.435686771
474.41350,5.266853217
474.41400,8.013602886
474.41450,9.844769332
474.41500,9.539574925
474.41550,9.539574925
474.41600,11.67593578
474.41650,13.81229663
474.41700,13.50710222
474.41750,11.67593578
474.41800,11.06554696
474.41850,11.98113019
474.41900,11.98113019
474.41950,10.76035256
474.42000,9.844769332
474.42050,9.539574925
474.42100,8.013602886
474.42150,5.572047624
474.42200,3.740881178
474.42250,3.435686771
474.42300,2.825297955
474.42350,0.3837426935
474.42400,-1.75261816
474.42450,-2.668201383
474.42500,-2.668201383
474.42550,-3.583784607
474.42600,-5.414951053
474.42650,-5.72014546
474.42700,-4.804562237
474.42750,-4.194173422
474.42800,-4.49936783
474.42850,-5.109756645
474.42900,-4.49936783
474.42950,-2.057812568
474.43000,0.07854828584
474.43050,0.6889371012
474.43100,0.3837426935
474.43150,0.9941315089
474.43200,3.435686771
474.43250,6.18243644
474.43300,7.403214071
474.43350,7.403214071
474.43400,8.013602886
474.43450,9.844769332
474.43500,11.37074137
474.43550,11.98113019
474.43600,12.591519
474.43650,12.89671341
474.43700,12.28632459
474.43750,10.76035256
474.43800,9.844769332
474.43850,10.14996374
474.43900,9.234380517
474.43950,6.18243644
474.44000,2.825297955
474.44050,1.604520324
474.44100,1.299325917
474.44150,0.6889371012
474.44200,-1.142229345
474.44250,-2.363006976
474.44300,-2.668201383
474.44350,-3.278590199
474.44400,-5.109756645
474.44450,-6.635728684
474.44500,-7.246117499
474.44550,-7.856506314
474.44600,-8.46689513
474.44650,-8.46689513
474.44700,-7.246117499
474.44750,-5.72014546
474.44800,-4.49936783
474.44850,-4.49936783
474.44900,-5.414951053
474.44950,-5.72014546
474.45000,-4.804562237
474.45050,-2.363006976
474.45100,-0.2266461219
474.45150,0.6889371012
474.45200,1.909714732
474.45250,4.046075586
474.45300,5.572047624
474.45350,5.877242032
474.45400,4.656464401
474.45450,4.046075586
474.45500,3.435686771
474.45550,1.604520324
474.45600,0.07854828584
474.45650,-0.5318405296
474.45700,0.07854828584
474.45750,1.909714732
474.45800,4.046075586
474.45850,5.877242032
474.45900,6.792825255
474.45950,6.18243644
474.46000,4.656464401
474.46050,2.825297955
474.46100,1.299325917
474.46150,0.07854828584
474.46200,-1.447423753
474.46250,-2.363006976
474.46300,-3.278590199
474.46350,-6.025339868
474.46400,-9.077283945
474.46450,-11.2136448
474.46500,-12.73961684
474.46550,-15.1811721
474.46600,-18.23311618
474.46650,-19.75908821
474.46700,-18.84350499
474.46750,-17.31753295
474.46800,-16.09675532
474.46850,-14.87597769
474.46900,-13.96039447
474.46950,-13.04481125
474.47000,-11.51883921
474.47050,-8.46689513
474.47100,-5.109756645
474.47150,-2.973395791
474.47200,-1.75261816
474.47250,0.07854828584
474.47300,2.520103547
474.47350,5.266853217
474.47400,6.487630848
474.47450,6.792825255
474.47500,7.403214071
474.47550,8.929186109
474.47600,10.45515815
474.47650,10.45515815
474.47700,9.234380517
474.47750,8.623991701
474.47800,10.76035256
474.47850,14.42268545
474.47900,16.5590463
474.47950,14.72787986
474.48000,10.45515815
474.48050,7.098019663
474.48100,5.266853217
474.48150,3.740881178
474.48200,0.3837426935
474.48250,-3.278590199
474.48300,-6.330534276
474.48350,-6.635728684
474.48400,-6.025339868
474.48450,-6.025339868
474.48500,-6.635728684
474.48550,-7.246117499
474.48600,-8.772089538
474.48650,-13.65520006
474.48700,-20.97986585
474.48750,-27.083754
474.48800,-28.30453163
474.48850,-25.25258755
474.48900,-20.36947703
474.48950,-15.1811721
474.49000,-9.687672761
474.49050,-5.414951053
474.49100,-3.583784607
474.49150,-2.973395791
474.49200,-0.8370349373
474.49250,1.604520324
474.49300,2.825297955
474.49350,4.351269994
474.49400,10.45515815
474.49450,20.22137919
474.49500,28.15643379
474.49550,30.29279465
474.49600,28.76682261
474.49650,26.32526735
474.49700,22.96812886
474.49750,19.91618479
474.49800,19.61099038
474.49850,21.74735123
474.49900,22.66293446
474.49950,20.22137919
474.50000,17.47462952
474.50050,17.16943512
474.50100,15.94865749
474.50150,8.013602886
474.50200,-5.414951053
474.50250,-17.31753295
474.50300,-20.97986585
474.50350,-19.1486994
474.50400,-17.31753295
474.50450,-17.31753295
474.50500,-19.1486994
474.50550,-21.89544907
474.50600,-24.94739315
474.50650,-28.30453163
474.50700,-29.83050367
474.50750,-28.30453163
474.50800,-24.33700433
474.50850,-19.1486994
474.50900,-14.26558888
474.50950,-10.29806158
474.51000,-8.46689513
474.51050,-7.856506314
474.51100,-6.635728684
474.51150,-3.583784607
474.51200,-0.2266461219
474.51250,0.07854828584
474.51300,-2.057812568
474.51350,-4.194173422
474.51400,-2.668201383
474.51450,1.604520324
474.51500,6.18243644
474.51550,8.318797294
474.51600,9.234380517
474.51650,10.14996374
474.51700,11.37074137
474.51750,11.98113019
474.51800,11.98113019
474.51850,12.591519
474.51900,13.50710222
474.51950,13.81229663
474.52000,13.81229663
474.52050,15.33826867
474.52100,19.30579597
474.52150,22.35774005
474.52200,21.13696242
474.52250,15.33826867
474.52300,9.234380517
474.52350,4.961658809
474.52400,1.909714732
474.52450,-1.447423753
474.52500,-5.72014546
474.52550,-9.382478353
474.52600,-12.43442243
474.52650,-15.1811721
474.52700,-17.31753295
474.52750,-19.45389381
474.52800,-22.50583788
474.52850,-26.16817078
474.52900,-28.91492045
474.52950,-27.38894841
474.53000,-22.20064348
474.53050,-15.79156091
474.53100,-10.90845039
474.53150,-6.635728684
474.53200,-2.668201383
474.53250,0.3837426935
474.53300,2.520103547
474.53350,4.046075586
474.53400,5.266853217
474.53450,7.098019663
474.53500,9.234380517
474.53550,10.14996374
474.53600,10.45515815
474.53650,10.45515815
474.53700,11.06554696
474.53750,11.37074137
474.53800,11.67593578
474.53850,11.98113019
474.53900,12.591519
474.53950,12.89671341
474.54000,11.67593578
474.54050,9.234380517
474.54100,6.792825255
474.54150,4.961658809
474.54200,4.046075586
474.54250,3.130492363
474.54300,1.604520324
474.54350,0.3837426935
474.54400,-0.5318405296
474.54450,-1.447423753
474.54500,-2.057812568
474.54550,-2.973395791
474.54600,-4.194173422
474.54650,-5.414951053
474.54700,-6.025339868
474.54750,-5.72014546
474.54800,-5.109756645
474.54850,-4.804562237
474.54900,-5.109756645
474.54950,-5.414951053
474.55000,-3.888979014
474.55050,-2.057812568
474.55100,-1.447423753
474.55150,-1.447423753
474.55200,-0.2266461219
474.55250,3.130492363
474.55300,7.403214071
474.55350,10.76035256
474.55400,12.89671341
474.55450,13.50710222
474.55500,12.89671341
474.55550,11.06554696
474.55600,10.14996374
474.55650,11.37074137
474.55700,11.37074137
474.55750,8.623991701
474.55800,5.266853217
474.55850,4.351269994
474.55900,5.572047624
474.55950,6.18243644
474.56000,6.487630848
474.56050,8.318797294
474.56100,10.14996374
474.56150,8.929186109
474.56200,5.266853217
474.56250,3.130492363
474.56300,2.21490914
474.56350,-0.5318405296
474.56400,-6.940923091
474.56450,-10.90845039
474.56500,-9.687672761
474.56550,-6.635728684
474.56600,-6.330534276
474.56650,-8.772089538
474.56700,-9.687672761
474.56750,-8.161700722
474.56800,-6.635728684
474.56850,-6.940923091
474.56900,-6.635728684
474.56950,-5.72014546
474.57000,-5.72014546
474.57050,-7.856506314
474.57100,-9.687672761
474.57150,-9.077283945
474.57200,-6.330534276
474.57250,-3.278590199
474.57300,-0.5318405296
474.57350,1.299325917
474.57400,3.130492363
474.57450,4.046075586
474.57500,4.961658809
474.57550,6.18243644
474.57600,6.792825255
474.57650,6.792825255
474.57700,6.792825255
474.57750,7.098019663
474.57800,7.403214071
474.57850,6.487630848
474.57900,4.351269994
474.57950,2.520103547
474.58000,2.21490914
474.58050,1.604520324
474.58100,0.07854828584
474.58150,-0.8370349373
474.58200,-1.447423753
474.58250,-2.057812568
474.58300,-4.49936783
474.58350,-6.025339868
474.58400,-3.888979014
474.58450,0.07854828584
474.58500,1.909714732
474.58550,-0.5318405296
474.58600,-5.109756645
474.58650,-7.856506314
474.58700,-9.077283945
474.58750,-11.2136448
474.58800,-13.96039447
474.58850,-15.79156091
474.58900,-15.48636651
474.58950,-13.96039447
474.59000,-11.82403361
474.59050,-10.29806158
474.59100,-9.382478353
474.59150,-8.772089538
474.59200,-7.856506314
474.59250,-6.940923091
474.59300,-6.025339868
474.59350,-5.414951053
474.59400,-3.888979014
474.59450,-0.2266461219
474.59500,4.046075586
474.59550,7.708408478
474.59600,10.14996374
474.59650,11.67593578
474.59700,12.89671341
474.59750,13.50710222
474.59800,12.591519
474.59850,9.234380517
474.59900,5.572047624
474.59950,4.656464401
474.60000,7.403214071
474.60050,11.37074137
474.60100,12.28632459
474.60150,7.708408478
474.60200,0.3837426935
474.60250,-4.194173422
474.60300,-3.888979014
474.60350,-0.8370349373
474.60400,0.3837426935
474.60450,-1.142229345
474.60500,-3.583784607
474.60550,-4.804562237
474.60600,-4.49936783
474.60650,-3.583784607
474.60700,-3.583784607
474.60750,-3.888979014
474.60800,-4.804562237
474.60850,-6.025339868
474.60900,-6.330534276
474.60950,-5.414951053
474.61000,-4.194173422
474.61050,-2.973395791
474.61100,-1.75261816
474.61150,0.3837426935
474.61200,6.487630848
474.61250,15.33826867
474.61300,23.88371209
474.61350,27.54604498
474.61400,24.4941009
474.61450,19.30579597
474.61500,14.72787986
474.61550,11.37074137
474.61600,9.234380517
474.61650,9.234380517
474.61700,11.98113019
474.61750,12.591519
474.61800,9.539574925
474.61850,6.18243644
474.61900,7.098019663
474.61950,9.844769332
474.62000,7.403214071
474.62050,-0.2266461219
474.62100,-7.551311907
474.62150,-10.90845039
474.62200,-15.1811721
474.62250,-22.50583788
474.62300,-28.30453163
474.62350,-27.083754
474.62400,-20.36947703
474.62450,-12.73961684
474.62500,-6.330534276
474.62550,-2.973395791
474.62600,-4.49936783
474.62650,-10.60325598
474.62700,-17.62272736
474.62750,-21.59025466
474.62800,-21.59025466
474.62850,-19.75908821
474.62900,-15.79156091
474.62950,-9.992867168
474.63000,-4.804562237
474.63050,-2.973395791
474.63100,-3.278590199
474.63150,-2.973395791
474.63200,-0.8370349373
474.63250,0.6889371012
474.63300,2.21490914
474.63350,3.740881178
474.63400,5.266853217
474.63450,7.098019663
474.63500,8.929186109
474.63550,10.45515815
474.63600,11.67593578
474.63650,11.98113019
474.63700,12.28632459
474.63750,12.28632459
474.63800,10.45515815
474.63850,7.708408478
474.63900,6.18243644
474.63950,7.403214071
474.64000,8.623991701
474.64050,7.098019663
474.64100,4.046075586
474.64150,3.130492363
474.64200,4.351269994
474.64250,5.572047624
474.64300,4.961658809
474.64350,3.130492363
474.64400,1.299325917
474.64450,0.3837426935
474.64500,0.07854828584
474.64550,0.6889371012
474.64600,0.3837426935
474.64650,-1.447423753
474.64700,-3.888979014
474.64750,-5.109756645
474.64800,-5.72014546
474.64850,-6.940923091
474.64900,-7.551311907
474.64950,-5.72014546
474.65000,-2.973395791
474.65050,-2.363006976
474.65100,-2.973395791
474.65150,-1.447423753
474.65200,1.604520324
474.65250,3.740881178
474.65300,4.046075586
474.65350,6.18243644
474.65400,10.45515815
474.65450,13.20190782
474.65500,12.28632459
474.65550,10.14996374
474.65600,9.844769332
474.65650,9.539574925
474.65700,7.098019663
474.65750,4.351269994
474.65800,4.046075586
474.65850,3.435686771
474.65900,-0.8370349373
474.65950,-8.772089538
474.66000,-13.65520006
474.66050,-12.12922802
474.66100,-7.856506314
474.66150,-5.109756645
474.66200,-4.804562237
474.66250,-4.804562237
474.66300,-3.888979014
474.66350,-3.888979014
474.66400,-5.109756645
474.66450,-6.635728684
474.66500,-7.551311907
474.66550,-7.246117499
474.66600,-6.635728684
474.66650,-6.330534276
474.66700,-7.246117499
474.66750,-8.772089538
474.66800,-9.992867168
474.66850,-10.29806158
474.66900,-8.46689513
474.66950,-6.025339868
474.67000,-3.583784607
474.67050,-1.447423753
474.67100,0.07854828584
474.67150,0.9941315089
474.67200,1.299325917
474.67250,2.21490914
474.67300,4.351269994
474.67350,7.403214071
474.67400,10.14996374
474.67450,12.591519
474.67500,14.11749104
474.67550,14.11749104
474.67600,12.28632459
474.67650,11.37074137
474.67700,12.591519
474.67750,14.42268545
474.67800,13.81229663
474.67850,11.67593578
474.67900,10.45515815
474.67950,10.14996374
474.68000,8.623991701
474.68050,5.877242032
474.68100,3.740881178
474.68150,2.825297955
474.68200,1.909714732
474.68250,0.6889371012
474.68300,-0.8370349373
474.68350,-2.363006976
474.68400,-3.583784607
474.68450,-2.668201383
474.68500,-0.2266461219
474.68550,1.604520324
474.68600,0.07854828584
474.68650,-2.668201383
474.68700,-3.888979014
474.68750,-3.278590199
474.68800,-5.109756645
474.68850,-11.51883921
474.68900,-18.23311618
474.68950,-19.75908821
474.69000,-15.48636651
474.69050,-9.687672761
474.69100,-6.635728684
474.69150,-5.414951053
474.69200,-4.49936783
474.69250,-3.278590199
474.69300,-3.583784607
474.69350,-4.194173422
474.69400,-2.973395791
474.69450,0.3837426935
474.69500,4.656464401
474.69550,7.098019663
474.69600,7.403214071
474.69650,8.013602886
474.69700,9.844769332
474.69750,11.37074137
474.69800,11.98113019
474.69850,11.37074137
474.69900,11.37074137
474.69950,11.98113019
474.70000,11.37074137
474.70050,8.623991701
474.70100,4.656464401
474.70150,1.909714732
474.70200,1.299325917
474.70250,0.6889371012
474.70300,0.07854828584
474.70350,0.07854828584
474.70400,0.9941315089
474.70450,0.3837426935
474.70500,-3.583784607
474.70550,-9.382478353
474.70600,-12.12922802
474.70650,-9.992867168
474.70700,-6.330534276
474.70750,-4.194173422
474.70800,-4.49936783
474.70850,-5.414951053
474.70900,-6.025339868
474.70950,-5.72014546
474.71000,-4.194173422
474.71050,-3.278590199
474.71100,-4.194173422
474.71150,-6.940923091
474.71200,-8.46689513
474.71250,-6.635728684
474.71300,-2.668201383
474.71350,0.3837426935
474.71400,1.909714732
474.71450,2.825297955
474.71500,4.046075586
474.71550,5.266853217
474.71600,6.792825255
474.71650,7.708408478
474.71700,8.623991701
474.71750,9.539574925
474.71800,10.14996374
474.71850,9.844769332
474.71900,8.013602886
474.71950,5.877242032
474.72000,4.961658809
474.72050,4.351269994
474.72100,2.21490914
474.72150,-0.5318405296
474.72200,-2.668201383
474.72250,-2.057812568
474.72300,-1.142229345
474.72350,-2.057812568
474.72400,-3.583784607
474.72450,-2.973395791
474.72500,-0.5318405296
474.72550,-0.2266461219
474.72600,-3.583784607
474.72650,-7.856506314
474.72700,-9.382478353
474.72750,-8.772089538
474.72800,-8.161700722
474.72850,-7.856506314
474.72900,-7.246117499
474.72950,-6.025339868
474.73000,-5.414951053
474.73050,-4.804562237
474.73100,-3.278590199
474.73150,-1.447423753
474.73200,0.07854828584
474.73250,0.3837426935
474.73300,1.604520324
474.73350,3.130492363
474.73400,4.351269994
474.73450,4.656464401
474.73500,4.656464401
474.73550,5.266853217
474.73600,5.877242032
474.73650,6.18243644
474.73700,7.708408478
474.73750,9.539574925
474.73800,9.844769332
474.73850,8.623991701
474.73900,6.792825255
474.73950,6.18243644
474.74000,6.487630848
474.74050,5.266853217
474.74100,3.435686771
474.74150,1.909714732
474.74200,0.6889371012
474.74250,-0.2266461219
474.74300,-1.142229345
474.74350,-1.447423753
474.74400,-2.668201383
474.74450,-6.025339868
474.74500,-9.077283945
474.74550,-9.687672761
474.74600,-8.772089538
474.74650,-8.46689513
474.74700,-9.687672761
474.74750,-11.2136448
474.74800,-12.73961684
474.74850,-13.65520006
474.74900,-11.51883921
474.74950,-4.194173422
474.75000,5.572047624
474.75050,11.98113019
474.75100,11.67593578
474.75150,8.929186109
474.75200,6.487630848
474.75250,4.046075586
474.75300,0.07854828584
474.75350,-3.278590199
474.75400,-2.363006976
474.75450,0.6889371012
474.75500,1.604520324
474.75550,-2.057812568
474.75600,-7.551311907
474.75650,-10.90845039
474.75700,-12.73961684
474.75750,-13.96039447
474.75800,-13.96039447
474.75850,-12.12922802
474.75900,-8.161700722
474.75950,-2.057812568
474.76000,4.961658809
474.76050,11.06554696
474.76100,11.37074137
474.76150,4.351269994
474.76200,-4.49936783
474.76250,-9.077283945
474.76300,-5.72014546
474.76350,0.3837426935
474.76400,2.825297955
474.76450,-1.75261816
474.76500,-10.60325598
474.76550,-17.92792177
474.76600,-19.45389381
474.76650,-16.40194973
474.76700,-12.73961684
474.76750,-10.60325598
474.76800,-9.687672761
474.76850,-9.077283945
474.76900,-9.077283945
474.76950,-10.90845039
474.77000,-12.43442243
474.77050,-11.51883921
474.77100,-8.161700722
474.77150,-4.804562237
474.77200,-2.363006976
474.77250,0.07854828584
474.77300,2.520103547
474.77350,4.046075586
474.77400,2.825297955
474.77450,1.299325917
474.77500,1.909714732
474.77550,5.572047624
474.77600,10.14996374
474.77650,13.50710222
474.77700,15.94865749
474.77750,17.77982393
474.77800,17.77982393
474.77850,15.33826867
474.77900,12.591519
474.77950,12.28632459
474.78000,13.50710222
474.78050,14.11749104
474.78100,12.89671341
474.78150,10.76035256
474.78200,9.234380517
474.78250,8.623991701
474.78300,7.708408478
474.78350,7.098019663
474.78400,6.792825255
474.78450,6.792825255
474.78500,6.487630848
474.78550,5.572047624
474.78600,4.046075586
474.78650,1.604520324
474.78700,-2.363006976
474.78750,-7.856506314
474.78800,-12.43442243
474.78850,-14.26558888
474.78900,-13.65520006
474.78950,-11.51883921
474.79000,-9.382478353
474.79050,-7.856506314
474.79100,-7.246117499
474.79150,-7.246117499
474.79200,-7.246117499
474.79250,-6.025339868
474.79300,-3.888979014
474.79350,-0.5318405296
474.79400,2.825297955
474.79450,6.18243644
474.79500,8.013602886
474.79550,9.539574925
474.79600,13.81229663
474.79650,19.61099038
474.79700,22.66293446
474.79750,21.13696242
474.79800,17.77982393
474.79850,17.16943512
474.79900,17.77982393
474.79950,16.25385189
474.80000,12.89671341
474.80050,10.45515815
474.80100,8.623991701
474.80150,5.266853217
474.80200,0.07854828584
474.80250,-3.583784607
474.80300,-4.194173422
474.80350,-5.109756645
474.80400,-9.077283945
474.80450,-14.26558888
474.80500,-16.09675532
474.80550,-13.35000565
474.80600,-9.077283945
474.80650,-6.940923091
474.80700,-6.635728684
474.80750,-6.940923091
474.80800,-6.635728684
474.80850,-6.940923091
474.80900,-7.856506314
474.80950,-7.551311907
474.81000,-6.330534276
474.81050,-5.72014546
474.81100,-7.856506314
474.81150,-10.90845039
474.81200,-11.51883921
474.81250,-8.46689513
474.81300,-3.583784607
474.81350,0.07854828584
474.81400,2.520103547
474.81450,4.656464401
474.81500,6.487630848
474.81550,8.318797294
474.81600,9.539574925
474.81650,11.06554696
474.81700,12.28632459
474.81750,11.98113019
474.81800,10.45515815
474.81850,8.623991701
474.81900,8.013602886
474.81950,8.318797294
474.82000,8.318797294
474.82050,7.403214071
474.82100,6.792825255
474.82150,7.403214071
474.82200,7.403214071
474.82250,5.877242032
474.82300,2.825297955
474.82350,0.3837426935
474.82400,-0.8370349373
474.82450,-2.973395791
474.82500,-5.109756645
474.82550,-6.635728684
474.82600,-7.246117499
474.82650,-8.46689513
474.82700,-10.60325598
474.82750,-11.51883921
474.82800,-11.2136448
474.82850,-10.90845039
474.82900,-11.51883921
474.82950,-12.12922802
474.83000,-10.90845039
474.83050,-8.772089538
474.83100,-6.330534276
474.83150,-4.194173422
474.83200,-2.057812568
474.83250,-1.142229345
474.83300,-1.447423753
474.83350,-0.8370349373
474.83400,1.909714732
474.83450,4.656464401
474.83500,5.572047624
474.83550,5.877242032
474.83600,7.708408478
474.83650,9.844769332
474.83700,10.14996374
474.83750,9.234380517
474.83800,9.234380517
474.83850,10.45515815
474.83900,10.45515815
474.83950,8.929186109
474.84000,7.098019663
474.84050,5.877242032
474.84100,4.351269994
474.84150,2.21490914
474.84200,0.9941315089
474.84250,0.9941315089
474.84300,0.6889371012
474.84350,-0.2266461219
474.84400,-2.363006976
474.84450,-4.194173422
474.84500,-5.72014546
474.84550,-7.551311907
474.84600,-8.772089538
474.84650,-9.077283945
474.84700,-8.772089538
474.84750,-8.46689513
474.84800,-8.772089538
474.84850,-9.077283945
474.84900,-9.077283945
474.84950,-8.161700722
474.85000,-5.72014546
474.85050,-3.278590199
474.85100,-1.75261816
474.85150,-0.8370349373
474.85200,-0.5318405296
474.85250,-0.2266461219
474.85300,0.07854828584
474.85350,0.3837426935
474.85400,1.909714732
474.85450,4.656464401
474.85500,7.708408478
474.85550,9.539574925
474.85600,10.14996374
474.85650,10.45515815
474.85700,9.844769332
474.85750,7.708408478
474.85800,5.266853217
474.85850,4.656464401
474.85900,5.266853217
474.85950,5.572047624
474.86000,3.740881178
474.86050,0.9941315089
474.86100,0.07854828584
474.86150,0.3837426935
474.86200,0.3837426935
474.86250,0.07854828584
474.86300,0.07854828584
474.86350,-0.2266461219
474.86400,-1.75261816
474.86450,-4.49936783
474.86500,-6.635728684
474.86550,-6.635728684
474.86600,-5.72014546
474.86650,-6.025339868
474.86700,-6.940923091
474.86750,-8.46689513
474.86800,-9.077283945
474.86850,-9.077283945
474.86900,-8.161700722
474.86950,-6.635728684
474.87000,-5.72014546
474.87050,-5.109756645
474.87100,-3.583784607
474.87150,-1.142229345
474.87200,0.6889371012
474.87250,2.21490914
474.87300,3.435686771
474.87350,5.266853217
474.87400,7.403214071
474.87450,8.929186109
474.87500,9.234380517
474.87550,10.14996374
474.87600,13.20190782
474.87650,17.16943512
474.87700,19.30579597
474.87750,17.47462952
474.87800,14.11749104
474.87850,13.20190782
474.87900,14.42268545
474.87950,15.03307426
474.88000,13.50710222
474.88050,11.06554696
474.88100,9.844769332
474.88150,8.623991701
474.88200,5.572047624
474.88250,1.299325917
474.88300,-2.057812568
474.88350,-4.194173422
474.88400,-7.246117499
474.88450,-11.82403361
474.88500,-16.09675532
474.88550,-18.23311618
474.88600,-17.92792177
474.88650,-17.31753295
474.88700,-16.40194973
474.88750,-15.1811721
474.88800,-14.26558888
474.88850,-13.65520006
474.88900,-13.35000565
474.88950,-13.65520006
474.89000,-14.26558888
474.89050,-15.48636651
474.89100,-15.1811721
474.89150,-12.43442243
474.89200,-8.46689513
474.89250,-5.109756645
474.89300,-3.278590199
474.89350,-1.75261816
474.89400,0.07854828584
474.89450,1.604520324
474.89500,3.130492363
474.89550,7.403214071
474.89600,15.33826867
474.89650,24.18890649
474.89700,28.76682261
474.89750,28.15643379
474.89800,25.10448972
474.89850,22.05254564
474.89900,18.08501834
474.89950,13.20190782
474.90000,8.623991701
474.90050,5.572047624
474.90100,3.740881178
474.90150,2.520103547
474.90200,2.825297955
474.90250,4.656464401
474.90300,4.656464401
474.90350,0.07854828584
474.90400,-9.077283945
474.90450,-17.62272736
474.90500,-21.89544907
474.90550,-22.81103229
474.90600,-22.20064348
474.90650,-20.36947703
474.90700,-15.48636651
474.90750,-10.60325598
474.90800,-8.772089538
474.90850,-9.992867168
474.90900,-9.992867168
474.90950,-7.856506314
474.91000,-6.940923091
474.91050,-9.992867168
474.91100,-13.65520006
474.91150,-13.04481125
474.91200,-8.46689513
474.91250,-4.194173422
474.91300,-1.75261816
474.91350,0.07854828584
474.91400,3.435686771
474.91450,7.403214071
474.91500,10.14996374
474.91550,11.37074137
474.91600,11.06554696
474.91650,8.623991701
474.91700,4.656464401
474.91750,0.6889371012
474.91800,-0.8370349373
474.91850,0.07854828584
474.91900,2.21490914
474.91950,4.046075586
474.92000,5.572047624
474.92050,6.487630848
474.92100,6.487630848
474.92150,5.572047624
474.92200,4.351269994
474.92250,4.656464401
474.92300,6.18243644
474.92350,6.487630848
474.92400,4.046075586
474.92450,1.299325917
474.92500,-0.5318405296
474.92550,-2.363006976
474.92600,-6.025339868
474.92650,-9.992867168
474.92700,-11.51883921
474.92750,-10.60325598
474.92800,-9.687672761
474.92850,-10.60325598
474.92900,-10.90845039
474.92950,-9.992867168
474.93000,-9.382478353
474.93050,-10.60325598
474.93100,-12.43442243
474.93150,-12.12922802
474.93200,-8.46689513
474.93250,-3.583784607
474.93300,0.6889371012
474.93350,4.046075586
474.93400,6.487630848
474.93450,8.318797294
474.93500,10.14996374
474.93550,12.591519
474.93600,14.11749104
474.93650,13.50710222
474.93700,12.591519
474.93750,12.28632459
474.93800,12.89671341
474.93850,13.20190782
474.93900,11.98113019
474.93950,11.06554696
474.94000,9.539574925
474.94050,6.487630848
474.94100,1.604520324
474.94150,-1.75261816
474.94200,-2.363006976
474.94250,-0.8370349373
474.94300,0.07854828584
474.94350,-0.5318405296
474.94400,-1.75261816
474.94450,-3.583784607
474.94500,-6.025339868
474.94550,-8.46689513
474.94600,-8.46689513
474.94650,-7.246117499
474.94700,-7.246117499
474.94750,-8.772089538
474.94800,-9.077283945
474.94850,-7.246117499
474.94900,-5.414951053
474.94950,-5.414951053
474.95000,-5.109756645
474.95050,-2.973395791
474.95100,-0.5318405296
474.95150,0.07854828584
474.95200,0.07854828584
474.95250,1.604520324
474.95300,5.266853217
474.95350,7.708408478
474.95400,7.708408478
474.95450,7.403214071
474.95500,7.708408478
474.95550,8.013602886
474.95600,8.013602886
474.95650,8.318797294
474.95700,8.929186109
474.95750,9.234380517
474.95800,8.318797294
474.95850,7.708408478
474.95900,7.403214071
474.95950,6.18243644
474.96000,4.351269994
474.96050,3.435686771
474.96100,3.435686771
474.96150,1.604520324
474.96200,-1.75261816
474.96250,-4.194173422
474.96300,-3.583784607
474.96350,-2.973395791
474.96400,-5.414951053
474.96450,-8.772089538
474.96500,-9.687672761
474.96550,-8.46689513
474.96600,-8.46689513
474.96650,-10.29806158
474.96700,-10.90845039
474.96750,-9.077283945
474.96800,-8.161700722
474.96850,-8.46689513
474.96900,-8.46689513
474.96950,-6.940923091
474.97000,-5.72014546
474.97050,-5.72014546
474.97100,-5.109756645
474.97150,-2.363006976
474.97200,0.6889371012
474.97250,2.825297955
474.97300,4.351269994
474.97350,5.877242032
474.97400,8.318797294
474.97450,11.06554696
474.97500,12.28632459
474.97550,11.06554696
474.97600,8.013602886
474.97650,5.877242032
474.97700,6.792825255
474.97750,9.234380517
474.97800,10.76035256
474.97850,10.76035256
474.97900,10.45515815
474.97950,9.234380517
474.98000,7.098019663
474.98050,4.656464401
474.98100,4.961658809
474.98150,8.013602886
474.98200,11.37074137
474.98250,12.591519
474.98300,11.37074137
474.98350,8.318797294
474.98400,3.435686771
474.98450,-2.973395791
474.98500,-10.60325598
474.98550,-17.92792177
474.98600,-22.81103229
474.98650,-24.33700433
474.98700,-21.89544907
474.98750,-17.62272736
474.98800,-13.96039447
474.98850,-14.26558888
474.98900,-18.84350499
474.98950,-25.25258755
474.99000,-28.30453163
474.99050,-25.55778196
474.99100,-18.84350499
474.99150,-12.12922802
474.99200,-6.635728684
474.99250,-0.5318405296
474.99300,6.487630848
474.99350,12.89671341
474.99400,16.86424071
474.99450,18.69540716
474.99500,18.69540716
474.99550,16.5590463
474.99600,11.67593578
474.99650,7.098019663
474.99700,5.266853217
474.99750,5.877242032
474.99800,6.487630848
474.99850,6.487630848
474.99900,8.013602886
474.99950,11.67593578
475.00000,15.33826867
475.00050,15.94865749
475.00100,12.591519
475.00150,7.708408478
475.00200,3.740881178
475.00250,1.604520324
475.00300,0.07854828584
475.00350,-1.142229345
475.00400,-1.75261816
475.00450,-2.363006976
475.00500,-5.414951053
475.00550,-9.687672761
475.00600,-11.51883921
475.00650,-9.077283945
475.00700,-6.330534276
475.00750,-6.025339868
475.00800,-7.246117499
475.00850,-6.635728684
475.00900,-4.804562237
475.00950,-4.194173422
475.01000,-4.194173422
475.01050,-2.973395791
475.01100,-1.447423753
475.01150,-0.8370349373
475.01200,-0.5318405296
475.01250,0.9941315089
475.01300,3.435686771
475.01350,4.961658809
475.01400,5.266853217
475.01450,6.792825255
475.01500,8.318797294
475.01550,8.623991701
475.01600,8.318797294
475.01650,9.234380517
475.01700,9.844769332
475.01750,8.623991701
475.01800,6.18243644
475.01850,6.487630848
475.01900,9.234380517
475.01950,9.844769332
475.02000,7.708408478
475.02050,6.18243644
475.02100,7.403214071
475.02150,7.708408478
475.02200,4.961658809
475.02250,2.21490914
475.02300,2.520103547
475.02350,4.046075586
475.02400,2.21490914
475.02450,-1.447423753
475.02500,-3.888979014
475.02550,-3.583784607
475.02600,-2.668201383
475.02650,-3.888979014
475.02700,-6.940923091
475.02750,-9.992867168
475.02800,-11.51883921
475.02850,-11.2136448
475.02900,-10.60325598
475.02950,-10.60325598
475.03000,-10.90845039
475.03050,-9.687672761
475.03100,-6.330534276
475.03150,-2.363006976
475.03200,0.3837426935
475.03250,2.520103547
475.03300,2.825297955
475.03350,1.604520324
475.03400,0.6889371012
475.03450,2.21490914
475.03500,5.877242032
475.03550,8.318797294
475.03600,8.318797294
475.03650,7.098019663
475.03700,7.403214071
475.03750,8.623991701
475.03800,8.013602886
475.03850,6.487630848
475.03900,5.572047624
475.03950,5.572047624
475.04000,5.266853217
475.04050,3.740881178
475.04100,2.825297955
475.04150,2.520103547
475.04200,0.9941315089
475.04250,-2.363006976
475.04300,-5.72014546
475.04350,-6.940923091
475.04400,-6.940923091
475.04450,-8.772089538
475.04500,-12.12922802
475.04550,-14.26558888
475.04600,-14.26558888
475.04650,-13.04481125
475.04700,-12.12922802
475.04750,-11.2136448
475.04800,-11.2136448
475.04850,-11.82403361
475.04900,-12.12922802
475.04950,-10.29806158
475.05000,-6.330534276
475.05050,-2.363006976
475.05100,0.07854828584
475.05150,0.6889371012
475.05200,0.9941315089
475.05250,1.299325917
475.05300,0.9941315089
475.05350,1.299325917
475.05400,2.825297955
475.05450,4.656464401
475.05500,5.877242032
475.05550,6.792825255
475.05600,6.792825255
475.05650,5.266853217
475.05700,2.520103547
475.05750,-0.5318405296
475.05800,-2.668201383
475.05850,-2.668201383
475.05900,-1.447423753
475.05950,0.3837426935
475.06000,3.435686771
475.06050,5.877242032
475.06100,6.18243644
475.06150,4.961658809
475.06200,4.046075586
475.06250,4.046075586
475.06300,3.130492363
475.06350,0.07854828584
475.06400,-2.668201383
475.06450,-3.583784607
475.06500,-3.278590199
475.06550,-4.804562237
475.06600,-7.856506314
475.06650,-9.077283945
475.06700,-7.551311907
475.06750,-6.025339868
475.06800,-6.330534276
475.06850,-6.940923091
475.06900,-5.414951053
475.06950,-2.973395791
475.07000,-2.057812568
475.07050,-2.973395791
475.07100,-3.583784607
475.07150,-2.973395791
475.07200,-1.75261816
475.07250,-0.2266461219
475.07300,2.21490914
475.07350,4.961658809
475.07400,6.18243644
475.07450,6.792825255
475.07500,7.708408478
475.07550,9.539574925
475.07600,10.76035256
475.07650,10.45515815
475.07700,10.14996374
475.07750,11.37074137
475.07800,13.50710222
475.07850,13.50710222
475.07900,11.67593578
475.07950,9.844769332
475.08000,9.844769332
475.08050,10.76035256
475.08100,9.844769332
475.08150,7.098019663
475.08200,4.351269994
475.08250,2.825297955
475.08300,1.604520324
475.08350,0.3837426935
475.08400,-0.5318405296
475.08450,-1.142229345
475.08500,-2.363006976
475.08550,-3.888979014
475.08600,-5.72014546
475.08650,-6.635728684
475.08700,-8.161700722
475.08750,-10.29806158
475.08800,-10.90845039
475.08850,-9.382478353
475.08900,-7.856506314
475.08950,-7.551311907
475.09000,-8.161700722
475.09050,-7.246117499
475.09100,-5.414951053
475.09150,-4.194173422
475.09200,-3.278590199
475.09250,-1.447423753
475.09300,0.9941315089
475.09350,3.130492363
475.09400,4.351269994
475.09450,4.656464401
475.09500,5.572047624
475.09550,7.098019663
475.09600,8.318797294
475.09650,8.929186109
475.09700,8.929186109
475.09750,8.013602886
475.09800,8.013602886
475.09850,8.013602886
475.09900,7.098019663
475.09950,5.572047624
475.10000,4.961658809
475.10050,5.266853217
475.10100,5.266853217
475.10150,3.740881178
475.10200,2.21490914
475.10250,1.604520324
475.10300,1.604520324
475.10350,0.3837426935
475.10400,-0.5318405296
475.10450,-1.75261816
475.10500,-4.804562237
475.10550,-9.687672761
475.10600,-14.26558888
475.10650,-15.79156091
475.10700,-15.1811721
475.10750,-14.26558888
475.10800,-13.35000565
475.10850,-12.43442243
475.10900,-11.51883921
475.10950,-11.51883921
475.11000,-10.90845039
475.11050,-8.772089538
475.11100,-6.330534276
475.11150,-5.109756645
475.11200,-4.49936783
475.11250,-3.278590199
475.11300,-0.8370349373
475.11350,0.6889371012
475.11400,2.21490914
475.11450,4.046075586
475.11500,6.18243644
475.11550,7.403214071
475.11600,7.708408478
475.11650,8.623991701
475.11700,10.14996374
475.11750,11.98113019
475.11800,12.591519
475.11850,12.591519
475.11900,11.98113019
475.11950,10.76035256
475.12000,9.234380517
475.12050,6.792825255
475.12100,5.877242032
475.12150,6.487630848
475.12200,8.013602886
475.12250,8.013602886
475.12300,5.266853217
475.12350,2.21490914
475.12400,0.6889371012
475.12450,0.07854828584
475.12500,-2.668201383
475.12550,-7.246117499
475.12600,-10.90845039
475.12650,-10.90845039
475.12700,-8.161700722
475.12750,-6.940923091
475.12800,-9.382478353
475.12850,-14.26558888
475.12900,-18.84350499
475.12950,-21.28506025
475.13000,-21.89544907
475.13050,-21.89544907
475.13100,-20.67467144
475.13150,-17.31753295
475.13200,-12.73961684
475.13250,-7.856506314
475.13300,-3.278590199
475.13350,0.6889371012
475.13400,4.656464401
475.13450,6.792825255
475.13500,7.098019663
475.13550,7.098019663
475.13600,8.623991701
475.13650,11.98113019
475.13700,15.94865749
475.13750,19.30579597
475.13800,21.13696242
475.13850,20.22137919
475.13900,17.77982393
475.13950,15.94865749
475.14000,15.03307426
475.14050,12.591519
475.14100,7.708408478
475.14150,2.21490914
475.14200,0.3837426935
475.14250,1.299325917
475.14300,1.604520324
475.14350,0.07854828584
475.14400,-2.057812568
475.14450,-2.973395791
475.14500,-2.973395791
475.14550,-4.49936783
475.14600,-7.856506314
475.14650,-11.2136448
475.14700,-12.43442243
475.14750,-12.12922802
475.14800,-12.43442243
475.14850,-14.26558888
475.14900,-15.1811721
475.14950,-13.04481125
475.15000,-8.161700722
475.15050,-4.49936783
475.15100,-3.888979014
475.15150,-4.49936783
475.15200,-3.888979014
475.15250,-1.75261816
475.15300,0.07854828584
475.15350,2.21490914
475.15400,3.740881178
475.15450,5.877242032
475.15500,8.318797294
475.15550,10.45515815
475.15600,11.67593578
475.15650,11.98113019
475.15700,11.98113019
475.15750,12.89671341
475.15800,13.20190782
475.15850,11.98113019
475.15900,9.234380517
475.15950,7.403214071
475.16000,7.098019663
475.16050,6.792825255
475.16100,5.572047624
475.16150,4.656464401
475.16200,4.961658809
475.16250,4.656464401
475.16300,2.825297955
475.16350,0.3837426935
475.16400,-0.5318405296
475.16450,-0.8370349373
475.16500,-2.973395791
475.16550,-6.025339868
475.16600,-6.635728684
475.16650,-2.668201383
475.16700,2.825297955
475.16750,7.098019663
475.16800,8.318797294
475.16850,7.403214071
475.16900,4.961658809
475.16950,1.299325917
475.17000,-1.75261816
475.17050,-5.414951053
475.17100,-8.46689513
475.17150,-10.29806158
475.17200,-9.077283945
475.17250,-4.49936783
475.17300,0.9941315089
475.17350,4.046075586
475.17400,3.130492363
475.17450,-0.5318405296
475.17500,-5.414951053
475.17550,-8.772089538
475.17600,-7.856506314
475.17650,-3.583784607
475.17700,1.604520324
475.17750,6.487630848
475.17800,9.844769332
475.17850,11.67593578
475.17900,11.06554696
475.17950,8.318797294
475.18000,6.18243644
475.18050,5.572047624
475.18100,5.572047624
475.18150,4.046075586
475.18200,1.909714732
475.18250,0.9941315089
475.18300,0.3837426935
475.18350,-0.2266461219
475.18400,-1.75261816
475.18450,-2.057812568
475.18500,-2.057812568
475.18550,-3.583784607
475.18600,-5.72014546
475.18650,-7.246117499
475.18700,-8.46689513
475.18750,-10.60325598
475.18800,-13.35000565
475.18850,-13.65520006
475.18900,-10.90845039
475.18950,-8.161700722
475.19000,-8.161700722
475.19050,-9.382478353
475.19100,-9.077283945
475.19150,-8.161700722
475.19200,-8.46689513
475.19250,-8.772089538
475.19300,-6.940923091
475.19350,-3.278590199
475.19400,0.07854828584
475.19450,0.9941315089
475.19500,0.9941315089
475.19550,1.604520324
475.19600,2.825297955
475.19650,4.046075586
475.19700,4.656464401
475.19750,4.961658809
475.19800,5.877242032
475.19850,6.487630848
475.19900,5.877242032
475.19950,4.961658809
475.20000,4.656464401
475.20050,4.656464401
475.20100,4.656464401
475.20150,3.740881178
475.20200,1.909714732
475.20250,0.07854828584
475.20300,-0.8370349373
475.20350,-2.057812568
475.20400,-3.583784607
475.20450,-5.414951053
475.20500,-6.940923091
475.20550,-7.856506314
475.20600,-8.161700722
475.20650,-9.382478353
475.20700,-10.90845039
475.20750,-11.51883921
475.20800,-10.90845039
475.20850,-9.992867168
475.20900,-8.772089538
475.20950,-6.940923091
475.21000,-5.109756645
475.21050,-4.194173422
475.21100,-4.49936783
475.21150,-3.888979014
475.21200,-1.142229345
475.21250,0.9941315089
475.21300,0.9941315089
475.21350,-0.2266461219
475.21400,-0.8370349373
475.21450,0.6889371012
475.21500,3.740881178
475.21550,5.877242032
475.21600,6.792825255
475.21650,7.098019663
475.21700,7.403214071
475.21750,8.623991701
475.21800,9.539574925
475.21850,9.844769332
475.21900,8.929186109
475.21950,8.318797294
475.22000,8.013602886
475.22050,6.792825255
475.22100,3.740881178
475.22150,0.9941315089
475.22200,0.07854828584
475.22250,-0.2266461219
475.22300,-1.447423753
475.22350,-3.278590199
475.22400,-4.49936783
475.22450,-5.414951053
475.22500,-6.940923091
475.22550,-8.161700722
475.22600,-8.161700722
475.22650,-7.551311907
475.22700,-9.077283945
475.22750,-13.35000565
475.22800,-17.92792177
475.22850,-20.06428262
475.22900,-20.06428262
475.22950,-18.84350499
475.23000,-16.09675532
475.23050,-12.43442243
475.23100,-8.46689513
475.23150,-5.414951053
475.23200,-3.583784607
475.23250,-1.75261816
475.23300,0.07854828584
475.23350,2.21490914
475.23400,4.351269994
475.23450,5.572047624
475.23500,6.792825255
475.23550,8.318797294
475.23600,9.844769332
475.23650,10.14996374
475.23700,9.539574925
475.23750,9.234380517
475.23800,9.539574925
475.23850,9.234380517
475.23900,8.929186109
475.23950,8.929186109
475.24000,9.234380517
475.24050,8.929186109
475.24100,7.708408478
475.24150,6.487630848
475.24200,6.18243644
475.24250,4.961658809
475.24300,2.21490914
475.24350,-0.2266461219
475.24400,-1.142229345
475.24450,-0.2266461219
475.24500,0.3837426935
475.24550,0.3837426935
475.24600,-0.5318405296
475.24650,-3.278590199
475.24700,-6.330534276
475.24750,-8.46689513
475.24800,-7.246117499
475.24850,-5.109756645
475.24900,-4.804562237
475.24950,-6.635728684
475.25000,-6.940923091
475.25050,-3.278590199
475.25100,1.909714732
475.25150,6.487630848
475.25200,8.623991701
475.25250,9.844769332
475.25300,11.37074137
475.25350,12.89671341
475.25400,14.72787986
475.25450,14.72787986
475.25500,12.89671341
475.25550,9.234380517
475.25600,8.318797294
475.25650,11.67593578
475.25700,16.86424071
475.25750,18.69540716
475.25800,16.25385189
475.25850,13.81229663
475.25900,13.81229663
475.25950,13.81229663
475.26000,9.844769332
475.26050,1.604520324
475.26100,-6.940923091
475.26150,-13.96039447
475.26200,-17.31753295
475.26250,-16.40194973
475.26300,-13.35000565
475.26350,-10.29806158
475.26400,-9.687672761
475.26450,-10.60325598
475.26500,-11.2136448
475.26550,-10.29806158
475.26600,-8.46689513
475.26650,-6.940923091
475.26700,-6.330534276
475.26750,-6.940923091
475.26800,-7.856506314
475.26850,-7.856506314
475.26900,-6.330534276
475.26950,-3.888979014
475.27000,-2.363006976
475.27050,-2.057812568
475.27100,-2.363006976
475.27150,-1.447423753
475.27200,0.9941315089
475.27250,4.656464401
475.27300,7.708408478
475.27350,9.234380517
475.27400,9.539574925
475.27450,9.539574925
475.27500,10.45515815
475.27550,12.591519
475.27600,14.72787986
475.27650,15.33826867
475.27700,15.33826867
475.27750,16.5590463
475.27800,19.91618479
475.27850,23.27332327
475.27900,24.18890649
475.27950,21.74735123
475.28000,19.00060156
475.28050,17.16943512
475.28100,15.94865749
475.28150,13.50710222
475.28200,9.539574925
475.28250,5.266853217
475.28300,2.21490914
475.28350,0.07854828584
475.28400,-2.057812568
475.28450,-5.414951053
475.28500,-9.382478353
475.28550,-13.04481125
475.28600,-16.70714414
475.28650,-19.75908821
475.28700,-20.36947703
475.28750,-17.62272736
475.28800,-11.51883921
475.28850,-4.49936783
475.28900,1.909714732
475.28950,6.792825255
475.29000,7.708408478
475.29050,4.046075586
475.29100,-0.8370349373
475.29150,-2.973395791
475.29200,-0.5318405296
475.29250,3.130492363
475.29300,5.877242032
475.29350,8.013602886
475.29400,9.844769332
475.29450,9.844769332
475.29500,6.487630848
475.29550,0.9941315089
475.29600,-3.888979014
475.29650,-6.330534276
475.29700,-6.940923091
475.29750,-6.940923091
475.29800,-6.940923091
475.29850,-8.772089538
475.29900,-11.82403361
475.29950,-14.87597769
475.30000,-15.79156091
475.30050,-13.35000565
475.30100,-8.772089538
475.30150,-5.72014546
475.30200,-5.414951053
475.30250,-7.551311907
475.30300,-8.46689513
475.30350,-6.635728684
475.30400,-3.278590199
475.30450,0.07854828584
475.30500,0.9941315089
475.30550,-0.5318405296
475.30600,-5.414951053
475.30650,-10.60325598
475.30700,-13.04481125
475.30750,-12.43442243
475.30800,-10.60325598
475.30850,-9.382478353
475.30900,-8.46689513
475.30950,-7.246117499
475.31000,-5.72014546
475.31050,-4.49936783
475.31100,-3.278590199
475.31150,-1.75261816
475.31200,-0.2266461219
475.31250,0.6889371012
475.31300,2.21490914
475.31350,4.656464401
475.31400,6.487630848
475.31450,7.708408478
475.31500,8.623991701
475.31550,10.76035256
475.31600,12.591519
475.31650,13.50710222
475.31700,13.50710222
475.31750,13.20190782
475.31800,12.89671341
475.31850,12.28632459
475.31900,11.37074137
475.31950,11.37074137
475.32000,11.98113019
475.32050,11.06554696
475.32100,9.234380517
475.32150,6.792825255
475.32200,4.351269994
475.32250,2.21490914
475.32300,0.6889371012
475.32350,0.3837426935
475.32400,0.07854828584
475.32450,-0.8370349373
475.32500,-3.888979014
475.32550,-6.940923091
475.32600,-8.161700722
475.32650,-7.246117499
475.32700,-6.025339868
475.32750,-5.72014546
475.32800,-6.025339868
475.32850,-6.330534276
475.32900,-6.940923091
475.32950,-8.46689513
475.33000,-12.12922802
475.33050,-15.1811721
475.33100,-15.1811721
475.33150,-11.51883921
475.33200,-6.635728684
475.33250,-3.583784607
475.33300,-2.668201383
475.33350,-2.363006976
475.33400,-0.8370349373
475.33450,2.21490914
475.33500,5.266853217
475.33550,6.792825255
475.33600,6.792825255
475.33650,6.18243644
475.33700,6.487630848
475.33750,7.403214071
475.33800,7.403214071
475.33850,6.792825255
475.33900,5.877242032
475.33950,5.266853217
475.34000,4.351269994
475.34050,2.520103547
475.34100,0.3837426935
475.34150,-0.2266461219
475.34200,-0.8370349373
475.34250,-2.668201383
475.34300,-4.804562237
475.34350,-6.330534276
475.34400,-6.940923091
475.34450,-7.246117499
475.34500,-8.772089538
475.34550,-9.992867168
475.34600,-10.60325598
475.34650,-9.992867168
475.34700,-9.687672761
475.34750,-9.992867168
475.34800,-10.29806158
475.34850,-10.29806158
475.34900,-9.687672761
475.34950,-8.161700722
475.35000,-6.635728684
475.35050,-5.414951053
475.35100,-5.109756645
475.35150,-4.49936783
475.35200,-3.278590199
475.35250,-1.75261816
475.35300,-0.8370349373
475.35350,-0.2266461219
475.35400,0.6889371012
475.35450,2.520103547
475.35500,4.656464401
475.35550,5.877242032
475.35600,6.487630848
475.35650,6.792825255
475.35700,7.403214071
475.35750,7.403214071
475.35800,6.487630848
475.35850,4.961658809
475.35900,4.961658809
475.35950,5.877242032
475.36000,6.487630848
475.36050,4.656464401
475.36100,2.21490914
475.36150,1.604520324
475.36200,2.825297955
475.36250,2.825297955
475.36300,0.9941315089
475.36350,-1.75261816
475.36400,-3.583784607
475.36450,-4.49936783
475.36500,-5.109756645
475.36550,-5.414951053
475.36600,-5.414951053
475.36650,-4.49936783
475.36700,-3.888979014
475.36750,-3.583784607
475.36800,-4.194173422
475.36850,-5.414951053
475.36900,-6.330534276
475.36950,-6.025339868
475.37000,-5.109756645
475.37050,-3.888979014
475.37100,-2.973395791
475.37150,-1.142229345
475.37200,0.3837426935
475.37250,2.21490914
475.37300,3.435686771
475.37350,4.656464401
475.37400,5.877242032
475.37450,7.098019663
475.37500,8.013602886
475.37550,8.623991701
475.37600,8.929186109
475.37650,8.623991701
475.37700,8.623991701
475.37750,9.234380517
475.37800,9.844769332
475.37850,9.234380517
475.37900,8.929186109
475.37950,8.929186109
475.38000,8.929186109
475.38050,8.013602886
475.38100,6.792825255
475.38150,5.877242032
475.38200,4.656464401
475.38250,3.435686771
475.38300,4.046075586
475.38350,5.877242032
475.38400,7.098019663
475.38450,6.18243644
475.38500,4.351269994
475.38550,4.046075586
475.38600,3.435686771
475.38650,0.07854828584
475.38700,-6.330534276
475.38750,-12.73961684
475.38800,-16.40194973
475.38850,-16.40194973
475.38900,-13.96039447
475.38950,-11.51883921
475.39000,-12.12922802
475.39050,-16.09675532
475.39100,-19.1486994
475.39150,-17.92792177
475.39200,-14.26558888
475.39250,-11.2136448
475.39300,-9.077283945
475.39350,-5.109756645
475.39400,0.07854828584
475.39450,4.351269994
475.39500,5.877242032
475.39550,6.487630848
475.39600,7.708408478
475.39650,9.539574925
475.39700,11.06554696
475.39750,11.98113019
475.39800,11.67593578
475.39850,10.76035256
475.39900,10.45515815
475.39950,11.37074137
475.40000,11.67593578
475.40050,10.45515815
475.40100,8.318797294
475.40150,7.708408478
475.40200,7.403214071
475.40250,5.572047624
475.40300,2.825297955
475.40350,0.9941315089
475.40400,0.9941315089
475.40450,0.3837426935
475.40500,-1.142229345
475.40550,-2.973395791
475.40600,-3.278590199
475.40650,-2.973395791
475.40700,-4.194173422
475.40750,-6.940923091
475.40800,-8.161700722
475.40850,-6.635728684
475.40900,-4.804562237
475.40950,-4.804562237
475.41000,-5.72014546
475.41050,-6.025339868
475.41100,-5.109756645
475.41150,-4.49936783
475.41200,-4.194173422
475.41250,-3.583784607
475.41300,-1.75261816
475.41350,0.07854828584
475.41400,0.3837426935
475.41450,1.299325917
475.41500,3.740881178
475.41550,6.487630848
475.41600,7.708408478
475.41650,7.403214071
475.41700,8.013602886
475.41750,9.844769332
475.41800,10.76035256
475.41850,10.45515815
475.41900,10.14996374
475.41950,11.37074137
475.42000,12.591519
475.42050,12.591519
475.42100,11.06554696
475.42150,8.623991701
475.42200,6.18243644
475.42250,2.825297955
475.42300,0.6889371012
475.42350,0.9941315089
475.42400,2.21490914
475.42450,-0.5318405296
475.42500,-9.077283945
475.42550,-17.92792177
475.42600,-21.28506025
475.42650,-18.53831058
475.42700,-14.57078328
475.42750,-13.04481125
475.42800,-13.04481125
475.42850,-12.43442243
475.42900,-11.51883921
475.42950,-10.29806158
475.43000,-8.46689513
475.43050,-5.72014546
475.43100,-3.583784607
475.43150,-2.668201383
475.43200,-2.668201383
475.43250,-2.363006976
475.43300,-1.447423753
475.43350,-0.2266461219
475.43400,1.909714732
475.43450,5.266853217
475.43500,7.708408478
475.43550,8.013602886
475.43600,6.487630848
475.43650,4.961658809
475.43700,5.266853217
475.43750,6.487630848
475.43800,8.013602886
475.43850,8.929186109
475.43900,8.318797294
475.43950,7.403214071
475.44000,7.098019663
475.44050,6.487630848
475.44100,5.572047624
475.44150,4.656464401
475.44200,4.656464401
475.44250,4.656464401
475.44300,2.520103547
475.44350,-1.142229345
475.44400,-4.49936783
475.44450,-5.72014546
475.44500,-5.72014546
475.44550,-6.330534276
475.44600,-7.551311907
475.44650,-9.687672761
475.44700,-12.12922802
475.44750,-13.04481125
475.44800,-12.43442243
475.44850,-10.60325598
475.44900,-9.382478353
475.44950,-9.687672761
475.45000,-9.687672761
475.45050,-8.161700722
475.45100,-6.330534276
475.45150,-5.109756645
475.45200,-3.583784607
475.45250,-1.142229345
475.45300,0.07854828584
475.45350,-0.5318405296
475.45400,-2.973395791
475.45450,-1.75261816
475.45500,5.266853217
475.45550,14.72787986
475.45600,20.5265736
475.45650,19.91618479
475.45700,15.94865749
475.45750,12.28632459
475.45800,9.539574925
475.45850,4.656464401
475.45900,-1.75261816
475.45950,-6.940923091
475.46000,-6.330534276
475.46050,-1.447423753
475.46100,1.909714732
475.46150,0.6889371012
475.46200,-4.49936783
475.46250,-10.60325598
475.46300,-15.79156091
475.46350,-18.84350499
475.46400,-19.45389381
475.46450,-17.62272736
475.46500,-13.96039447
475.46550,-10.29806158
475.46600,-8.772089538
475.46650,-8.772089538
475.46700,-9.077283945
475.46750,-9.382478353
475.46800,-9.687672761
475.46850,-9.687672761
475.46900,-8.772089538
475.46950,-6.940923091
475.47000,-5.109756645
475.47050,-3.888979014
475.47100,-2.668201383
475.47150,-1.75261816
475.47200,-1.142229345
475.47250,-0.5318405296
475.47300,0.07854828584
475.47350,1.299325917
475.47400,3.130492363
475.47450,4.656464401
475.47500,5.266853217
475.47550,5.572047624
475.47600,7.098019663
475.47650,10.14996374
475.47700,12.28632459
475.47750,12.89671341
475.47800,12.89671341
475.47850,13.20190782
475.47900,13.81229663
475.47950,13.50710222
475.48000,11.98113019
475.48050,10.45515815
475.48100,8.929186109
475.48150,7.403214071
475.48200,5.266853217
475.48250,3.130492363
475.48300,1.604520324
475.48350,0.3837426935
475.48400,-1.142229345
475.48450,-2.668201383
475.48500,-3.583784607
475.48550,-4.49936783
475.48600,-4.804562237
475.48650,-5.414951053
475.48700,-6.025339868
475.48750,-7.246117499
475.48800,-8.46689513
475.48850,-8.161700722
475.48900,-6.025339868
475.48950,-4.194173422
475.49000,-4.49936783
475.49050,-6.025339868
475.49100,-5.72014546
475.49150,-2.668201383
475.49200,0.07854828584
475.49250,1.909714732
475.49300,2.825297955
475.49350,4.351269994
475.49400,6.18243644
475.49450,7.403214071
475.49500,8.013602886
475.49550,8.318797294
475.49600,8.318797294
475.49650,8.013602886
475.49700,8.318797294
475.49750,11.37074137
475.49800,17.47462952
475.49850,24.18890649
475.49900,27.54604498
475.49950,25.40968413
475.50000,19.91618479
475.50050,14.42268545
475.50100,11.37074137
475.50150,8.929186109
475.50200,5.266853217
475.50250,1.299325917
475.50300,-0.2266461219
475.50350,0.07854828584
475.50400,0.3837426935
475.50450,-0.2266461219
475.50500,-1.447423753
475.50550,-3.583784607
475.50600,-6.940923091
475.50650,-11.82403361
475.50700,-14.87597769
475.50750,-15.48636651
475.50800,-14.57078328
475.50850,-13.65520006
475.50900,-11.51883921
475.50950,-7.551311907
475.51000,-3.888979014
475.51050,-1.75261816
475.51100,-0.2266461219
475.51150,1.299325917
475.51200,2.825297955
475.51250,3.130492363
475.51300,4.656464401
475.51350,8.013602886
475.51400,10.45515815
475.51450,9.844769332
475.51500,8.623991701
475.51550,9.844769332
475.51600,11.98113019
475.51650,11.98113019
475.51700,11.67593578
475.51750,14.11749104
475.51800,17.47462952
475.51850,17.77982393
475.51900,14.72787986
475.51950,12.591519
475.52000,13.50710222
475.52050,13.81229663
475.52100,11.37074137
475.52150,7.708408478
475.52200,4.046075586
475.52250,-1.142229345
475.52300,-7.856506314
475.52350,-12.12922802
475.52400,-12.43442243
475.52450,-10.29806158
475.52500,-9.687672761
475.52550,-11.51883921
475.52600,-15.1811721
475.52650,-18.53831058
475.52700,-20.36947703
475.52750,-18.84350499
475.52800,-16.40194973
475.52850,-14.87597769
475.52900,-14.57078328
475.52950,-13.96039447
475.53000,-11.82403361
475.53050,-9.687672761
475.53100,-9.077283945
475.53150,-7.856506314
475.53200,-5.414951053
475.53250,-2.057812568
475.53300,0.07854828584
475.53350,0.9941315089
475.53400,1.909714732
475.53450,2.520103547
475.53500,3.740881178
475.53550,5.877242032
475.53600,8.013602886
475.53650,8.929186109
475.53700,8.929186109
475.53750,8.318797294
475.53800,8.013602886
475.53850,8.318797294
475.53900,8.623991701
475.53950,8.929186109
475.54000,8.318797294
475.54050,7.098019663
475.54100,7.098019663
475.54150,8.318797294
475.54200,8.623991701
475.54250,6.792825255
475.54300,4.656464401
475.54350,3.740881178
475.54400,3.130492363
475.54450,0.6889371012
475.54500,-2.363006976
475.54550,-4.804562237
475.54600,-5.72014546
475.54650,-6.635728684
475.54700,-8.46689513
475.54750,-9.992867168
475.54800,-11.82403361
475.54850,-13.04481125
475.54900,-13.04481125
475.54950,-10.60325598
475.55000,-7.856506314
475.55050,-6.940923091
475.55100,-7.551311907
475.55150,-6.635728684
475.55200,-4.194173422
475.55250,-2.973395791
475.55300,-2.973395791
475.55350,-2.363006976
475.55400,0.07854828584
475.55450,2.520103547
475.55500,4.046075586
475.55550,4.351269994
475.55600,4.351269994
475.55650,4.961658809
475.55700,6.18243644
475.55750,8.013602886
475.55800,9.539574925
475.55850,8.929186109
475.55900,7.403214071
475.55950,6.487630848
475.56000,7.098019663
475.56050,6.792825255
475.56100,5.266853217
475.56150,3.435686771
475.56200,1.909714732
475.56250,0.3837426935
475.56300,-0.5318405296
475.56350,-1.447423753
475.56400,-2.057812568
475.56450,-3.583784607
475.56500,-6.025339868
475.56550,-7.551311907
475.56600,-7.551311907
475.56650,-7.551311907
475.56700,-8.46689513
475.56750,-9.077283945
475.56800,-8.161700722
475.56850,-7.246117499
475.56900,-8.161700722
475.56950,-9.992867168
475.57000,-11.2136448
475.57050,-10.90845039
475.57100,-9.687672761
475.57150,-8.161700722
475.57200,-6.025339868
475.57250,-3.888979014
475.57300,-2.668201383
475.57350,-1.142229345
475.57400,0.3837426935
475.57450,2.520103547
475.57500,3.435686771
475.57550,3.130492363
475.57600,3.435686771
475.57650,4.961658809
475.57700,7.403214071
475.57750,9.539574925
475.57800,10.45515815
475.57850,11.06554696
475.57900,11.06554696
475.57950,10.76035256
475.58000,9.844769332
475.58050,8.623991701
475.58100,7.403214071
475.58150,5.572047624
475.58200,4.046075586
475.58250,3.435686771
475.58300,2.825297955
475.58350,1.909714732
475.58400,0.07854828584
475.58450,-1.75261816
475.58500,-2.668201383
