"type","name","time_units","begin_time","frequency","count","units"
"signal","Ultium EMG-EXT.DIG. RT","s",186.98000,2000,22000,"uV"

"time","value"
186.98000,-2.861750461
186.98050,9.346025847
186.98100,19.4174413
186.98150,17.58627486
186.98200,9.346025847
186.98250,4.768109732
186.98300,2.631748878
186.98350,-3.166944868
186.98400,-13.54355473
186.98450,-23.00458137
186.98500,-33.99158005
186.98550,-50.16688365
186.98600,-62.98504878
186.98650,-62.98504878
186.98700,-55.35518859
186.98750,-49.25130043
186.98800,-33.68638564
186.98850,7.514859401
186.98900,63.0602416
186.98950,92.05371033
186.99000,72.52126824
186.99050,28.87846794
186.99100,-0.1150007913
186.99150,-5.60850013
186.99200,-6.524083353
186.99250,-15.67991558
186.99300,-27.88769189
186.99350,-32.77080242
186.99400,-30.32924715
186.99450,-31.55002478
186.99500,-44.36818991
186.99550,-61.15388233
186.99600,-61.15388233
186.99650,-36.43313531
186.99700,-6.829277761
186.99750,1.716165655
186.99800,-3.166944868
186.99850,8.125248217
186.99900,43.52779951
186.99950,70.07971298
187.00000,59.0927143
187.00050,25.52132946
187.00100,5.988887363
187.00150,9.04083144
187.00200,12.09277552
187.00250,-0.7253896067
187.00300,-19.64744288
187.00350,-24.83574782
187.00400,-8.050055392
187.00450,19.72263571
187.00500,39.86546662
187.00550,35.2875505
187.00600,9.956414663
187.00650,-14.45913795
187.00700,-21.47860933
187.00750,-16.90069321
187.00800,-15.37472118
187.00850,-13.84874914
187.00900,1.410971247
187.00950,30.40443998
187.01000,50.85246529
187.01050,47.1901324
187.01100,31.62521761
187.01150,24.30055182
187.01200,25.52132946
187.01250,17.58627486
187.01300,-6.829277761
187.01350,-33.68638564
187.01400,-44.36818991
187.01450,-38.87469057
187.01500,-30.63444156
187.01550,-27.27730308
187.01600,-24.53055341
187.01650,-19.34224848
187.01700,-14.76433236
187.01750,-14.45913795
187.01800,-14.15394355
187.01850,-8.355249799
187.01900,-0.1150007913
187.01950,4.768109732
187.02000,6.904470586
187.02050,9.346025847
187.02100,13.31355315
187.02150,14.83952519
187.02200,13.31355315
187.02250,11.17719229
187.02300,9.651220255
187.02350,8.125248217
187.02400,5.683692955
187.02450,1.716165655
187.02500,-2.556556053
187.02550,-5.913694538
187.02600,-6.524083353
187.02650,-5.913694538
187.02700,-6.524083353
187.02750,-7.439666576
187.02800,-4.692916907
187.02850,1.410971247
187.02900,6.904470586
187.02950,9.346025847
187.03000,11.17719229
187.03050,13.61874756
187.03100,13.61874756
187.03150,9.956414663
187.03200,5.988887363
187.03250,0.4953880241
187.03300,-11.40719388
187.03350,-26.66691426
187.03400,-30.02405275
187.03450,-15.98510999
187.03500,-3.472139276
187.03550,-13.54355473
187.03600,-41.62144024
187.03650,-62.06946555
187.03700,-60.23829911
187.03750,-42.23182905
187.03800,-18.73185966
187.03850,2.936943286
187.03900,13.61874756
187.03950,9.346025847
187.04000,3.242137693
187.04050,11.78758111
187.04100,27.96288472
187.04150,30.40443998
187.04200,18.19666367
187.04250,13.92394196
187.04300,21.24860775
187.04350,11.78758111
187.04400,-30.32924715
187.04450,-75.19282509
187.04500,-80.38113002
187.04550,-46.80974517
187.04600,-14.15394355
187.04650,-6.524083353
187.04700,-8.660444207
187.04750,-0.420195199
187.04800,13.92394196
187.04850,20.63821893
187.04900,18.80705249
187.04950,19.72263571
187.05000,25.21613505
187.05050,23.69016301
187.05100,5.378498547
187.05150,-23.92016459
187.05200,-48.0305228
187.05250,-56.27077181
187.05300,-51.38766129
187.05350,-41.01105142
187.05400,-30.63444156
187.05450,-23.00458137
187.05500,-18.42666525
187.05550,-5.913694538
187.05600,31.62521761
187.05650,95.71604323
187.05700,156.7549248
187.05750,176.2873669
187.05800,145.7679261
187.05850,93.27448797
187.05900,51.1576597
187.05950,27.04730149
187.06000,12.09277552
187.06050,1.105776839
187.06100,-4.387722499
187.06150,-5.913694538
187.06200,-5.913694538
187.06250,-4.082528091
187.06300,-0.1150007913
187.06350,3.242137693
187.06400,2.936943286
187.06450,2.021360063
187.06500,4.157720917
187.06550,6.29408177
187.06600,2.936943286
187.06650,-3.777333684
187.06700,-8.050055392
187.06750,-7.744860984
187.06800,-6.524083353
187.06850,-5.303305722
187.06900,-3.166944868
187.06950,-3.472139276
187.07000,-13.23836032
187.07050,-30.63444156
187.07100,-44.67338432
187.07150,-46.50455076
187.07200,-39.17988498
187.07250,-30.02405275
187.07300,-21.78380374
187.07350,-13.54355473
187.07400,-8.355249799
187.07450,-8.355249799
187.07500,-12.3227771
187.07550,-15.98510999
187.07600,-17.20588762
187.07650,-17.51108203
187.07700,-19.34224848
187.07750,-23.61497018
187.07800,-28.49808071
187.07850,-32.77080242
187.07900,-35.21235768
187.07950,-33.99158005
187.08000,-19.34224848
187.08050,17.28108045
187.08100,67.0277689
187.08150,100.9043482
187.08200,95.71604323
187.08250,61.53426956
187.08300,29.48885676
187.08350,15.14471959
187.08400,8.125248217
187.08450,-1.64097283
187.08500,-9.881221838
187.08550,-8.965638615
187.08600,-4.082528091
187.08650,-4.387722499
187.08700,-8.050055392
187.08750,-10.18641625
187.08800,-12.62797151
187.08850,-18.42666525
187.08900,-23.61497018
187.08950,-24.225359
187.09000,-24.53055341
187.09050,-29.41366393
187.09100,-36.1279409
187.09150,-37.95910735
187.09200,-33.38119123
187.09250,-23.30977578
187.09300,-4.692916907
187.09350,19.4174413
187.09400,34.06677287
187.09450,22.77457979
187.09500,-7.744860984
187.09550,-31.24483038
187.09600,-26.66691426
187.09650,1.105776839
187.09700,32.54080083
187.09750,52.37843733
187.09800,62.7550472
187.09850,70.6901018
187.09900,77.70957317
187.09950,75.57321232
187.10000,56.65115904
187.10050,24.60574623
187.10100,-6.829277761
187.10150,-25.14094222
187.10200,-26.66691426
187.10250,-17.51108203
187.10300,-7.744860984
187.10350,-4.998111315
187.10400,-10.79680506
187.10450,-18.42666525
187.10500,-19.64744288
187.10550,-13.54355473
187.10600,-5.60850013
187.10650,-0.420195199
187.10700,1.410971247
187.10750,1.105776839
187.10800,-0.420195199
187.10850,-1.64097283
187.10900,-0.1150007913
187.10950,3.547332101
187.11000,5.683692955
187.11050,5.07330414
187.11100,2.631748878
187.11150,-2.556556053
187.11200,-12.62797151
187.11250,-24.53055341
187.11300,-33.07599682
187.11350,-38.56949616
187.11400,-44.0629955
187.11450,-48.0305228
187.11500,-45.28377313
187.11550,-36.1279409
187.11600,-28.80327512
187.11650,-26.97210867
187.11700,-24.83574782
187.11750,-15.67991558
187.11800,-1.030584014
187.11850,12.39796992
187.11900,22.77457979
187.11950,28.26807912
187.12000,27.04730149
187.12050,21.85899656
187.12100,19.4174413
187.12150,23.07977419
187.12200,26.74210709
187.12250,25.52132946
187.12300,23.3849686
187.12350,25.52132946
187.12400,29.48885676
187.12450,29.79405116
187.12500,25.52132946
187.12550,19.11224689
187.12600,7.820053809
187.12650,-9.270833022
187.12700,-21.17341492
187.12750,-14.76433236
187.12800,3.242137693
187.12850,10.26160907
187.12900,-3.472139276
187.12950,-22.39419255
187.13000,-26.66691426
187.13050,-19.95263729
187.13100,-18.12147085
187.13150,-26.97210867
187.13200,-42.53702346
187.13250,-62.67985437
187.13300,-83.12787969
187.13350,-89.23176784
187.13400,-69.39413134
187.13450,-35.82274649
187.13500,-18.42666525
187.13550,-27.58249748
187.13600,-45.58896754
187.13650,-51.08246688
187.13700,-40.70585702
187.13750,-22.08899815
187.13800,-2.251361645
187.13850,10.87199789
187.13900,12.39796992
187.13950,9.956414663
187.14000,20.94341334
187.14050,46.27454918
187.14100,65.19660246
187.14150,60.92388075
187.14200,41.08624425
187.14250,20.33302452
187.14300,2.631748878
187.14350,-11.40719388
187.14400,-15.06952677
187.14450,-2.861750461
187.14500,18.80705249
187.14550,40.78104984
187.14600,60.92388075
187.14650,74.04724028
187.14700,70.07971298
187.14750,47.80052122
187.14800,23.3849686
187.14850,10.26160907
187.14900,4.157720917
187.14950,0.4953880241
187.15000,3.852526509
187.15050,13.92394196
187.15100,12.39796992
187.15150,-10.79680506
187.15200,-39.48507938
187.15250,-46.80974517
187.15300,-30.63444156
187.15350,-8.965638615
187.15400,5.378498547
187.15450,12.70316433
187.15500,13.00835874
187.15550,7.209664994
187.15600,2.021360063
187.15650,4.768109732
187.15700,13.61874756
187.15750,23.07977419
187.15800,31.93041202
187.15850,38.33949458
187.15900,35.2875505
187.15950,16.36549722
187.16000,-12.3227771
187.16050,-37.04352412
187.16100,-47.11493958
187.16150,-39.79027379
187.16200,-24.53055341
187.16250,-17.81627644
187.16300,-23.61497018
187.16350,-19.95263729
187.16400,16.06030282
187.16450,72.52126824
187.16500,107.3134307
187.16550,97.24201527
187.16600,62.7550472
187.16650,34.06677287
187.16700,15.75510841
187.16750,-2.861750461
187.16800,-19.34224848
187.16850,-19.64744288
187.16900,-3.777333684
187.16950,9.651220255
187.17000,8.125248217
187.17050,-3.777333684
187.17100,-14.45913795
187.17150,-24.83574782
187.17200,-41.62144024
187.17250,-58.71232707
187.17300,-55.9655774
187.17350,-28.80327512
187.17400,-3.166944868
187.17450,-3.777333684
187.17500,-20.86822052
187.17550,-27.58249748
187.17600,-23.30977578
187.17650,-26.05652545
187.17700,-34.29677445
187.17750,-30.32924715
187.17800,-18.42666525
187.17850,-22.69938696
187.17900,-37.04352412
187.17950,-26.36171985
187.18000,11.78758111
187.18050,35.2875505
187.18100,27.3524959
187.18150,31.3200232
187.18200,80.45632284
187.18250,136.3068995
187.18300,140.8848156
187.18350,99.68357053
187.18400,63.67063042
187.18450,51.1576597
187.18500,39.86546662
187.18550,18.19666367
187.18600,-0.1150007913
187.18650,-11.71238828
187.18700,-30.93963597
187.18750,-55.04999418
187.18800,-62.06946555
187.18850,-45.58896754
187.18900,-26.97210867
187.18950,-23.92016459
187.19000,-30.63444156
187.19050,-34.90716327
187.19100,-32.77080242
187.19150,-26.05652545
187.19200,-14.76433236
187.19250,-5.913694538
187.19300,-6.524083353
187.19350,-11.71238828
187.19400,-10.18641625
187.19450,-1.030584014
187.19500,4.768109732
187.19550,2.021360063
187.19600,-1.030584014
187.19650,2.32655447
187.19700,6.29408177
187.19750,-0.1150007913
187.19800,-14.45913795
187.19850,-26.05652545
187.19900,-28.49808071
187.19950,-24.83574782
187.20000,-21.47860933
187.20050,-19.03705407
187.20100,-16.59549881
187.20150,-15.37472118
187.20200,-15.98510999
187.20250,-15.37472118
187.20300,-10.49161065
187.20350,-3.472139276
187.20400,0.1901936164
187.20450,-0.1150007913
187.20500,-0.7253896067
187.20550,-0.7253896067
187.20600,-1.64097283
187.20650,-2.861750461
187.20700,-2.556556053
187.20750,0.4953880241
187.20800,3.852526509
187.20850,5.683692955
187.20900,4.768109732
187.20950,1.716165655
187.21000,-0.1150007913
187.21050,4.768109732
187.21100,13.61874756
187.21150,16.67069163
187.21200,9.956414663
187.21250,5.683692955
187.21300,16.97588604
187.21350,38.64468899
187.21400,54.51479819
187.21450,57.26154786
187.21500,48.41091003
187.21550,31.01482879
187.21600,11.4823867
187.21650,2.021360063
187.21700,3.852526509
187.21750,-4.082528091
187.21800,-37.95910735
187.21850,-79.46554679
187.21900,-95.03046159
187.21950,-82.21229646
187.22000,-67.56296489
187.22050,-64.20582641
187.22100,-57.18635503
187.22150,-39.48507938
187.22200,-26.66691426
187.22250,-28.1928863
187.22300,-27.58249748
187.22350,-9.57602743
187.22400,14.83952519
187.22450,25.82652386
187.22500,22.16419097
187.22550,12.70316433
187.22600,-4.998111315
187.22650,-37.34871853
187.22700,-73.36165864
187.22750,-96.55643362
187.22800,-106.3226547
187.22850,-113.342126
187.22900,-113.6473205
187.22950,-87.09540699
187.23000,-26.05652545
187.23050,49.32649326
187.23100,111.8913468
187.23150,146.3783149
187.23200,152.1770087
187.23250,133.5601498
187.23300,99.07318171
187.23350,65.19660246
187.23400,47.1901324
187.23450,42.91741069
187.23500,36.20313373
187.23550,20.33302452
187.23600,8.125248217
187.23650,12.39796992
187.23700,25.82652386
187.23750,29.79405116
187.23800,21.24860775
187.23850,13.61874756
187.23900,13.61874756
187.23950,13.31355315
187.24000,7.514859401
187.24050,5.07330414
187.24100,10.56680348
187.24150,14.83952519
187.24200,7.514859401
187.24250,-4.387722499
187.24300,-9.270833022
187.24350,-6.829277761
187.24400,-5.303305722
187.24450,-5.303305722
187.24500,-4.692916907
187.24550,-4.692916907
187.24600,-7.134472168
187.24650,-6.218888945
187.24700,1.716165655
187.24750,9.956414663
187.24800,9.956414663
187.24850,5.683692955
187.24900,3.547332101
187.24950,2.32655447
187.25000,-0.1150007913
187.25050,-0.7253896067
187.25100,1.105776839
187.25150,1.105776839
187.25200,1.105776839
187.25250,11.78758111
187.25300,30.40443998
187.25350,37.72910576
187.25400,26.43691268
187.25450,16.67069163
187.25500,22.46938538
187.25550,20.02783012
187.25600,-14.45913795
187.25650,-65.12140963
187.25700,-91.6733231
187.25750,-84.34865732
187.25800,-65.12140963
187.25850,-52.60843892
187.25900,-47.42013399
187.25950,-49.55649484
187.26000,-53.52402214
187.26050,-37.65391294
187.26100,14.22913637
187.26150,77.40437876
187.26200,105.7874587
187.26250,86.25501659
187.26300,44.44338273
187.26350,6.904470586
187.26400,-18.73185966
187.26450,-31.24483038
187.26500,-28.80327512
187.26550,-21.17341492
187.26600,-17.20588762
187.26650,-6.829277761
187.26700,20.33302452
187.26750,50.54727089
187.26800,59.39790871
187.26850,49.63168766
187.26900,42.61221629
187.26950,39.2550778
187.27000,25.21613505
187.27050,11.17719229
187.27100,26.13171827
187.27150,66.41738009
187.27200,89.61215507
187.27250,72.21607383
187.27300,39.86546662
187.27350,22.77457979
187.27400,16.67069163
187.27450,4.768109732
187.27500,-8.355249799
187.27550,-9.57602743
187.27600,-4.082528091
187.27650,-4.998111315
187.27700,-10.79680506
187.27750,-10.79680506
187.27800,-6.218888945
187.27850,-8.355249799
187.27900,-20.2578317
187.27950,-30.93963597
187.28000,-32.46560801
187.28050,-27.58249748
187.28100,-25.14094222
187.28150,-31.55002478
187.28200,-42.53702346
187.28250,-46.50455076
187.28300,-35.82274649
187.28350,-19.95263729
187.28400,-16.90069321
187.28450,-28.80327512
187.28500,-40.0954682
187.28550,-40.0954682
187.28600,-33.38119123
187.28650,-30.32924715
187.28700,-32.1604136
187.28750,-34.29677445
187.28800,-31.85521919
187.28850,-24.225359
187.28900,-15.98510999
187.28950,-15.06952677
187.29000,-22.69938696
187.29050,-26.36171985
187.29100,-16.59549881
187.29150,-0.1150007913
187.29200,11.17719229
187.29250,22.77457979
187.29300,45.66416036
187.29350,66.41738009
187.29400,59.39790871
187.29450,25.52132946
187.29500,-3.166944868
187.29550,-9.57602743
187.29600,-8.660444207
187.29650,-17.51108203
187.29700,-28.49808071
187.29750,-29.71885834
187.29800,-29.10846952
187.29850,-37.65391294
187.29900,-43.45260668
187.29950,-28.1928863
187.30000,0.1901936164
187.30050,16.06030282
187.30100,8.430442624
187.30150,-8.355249799
187.30200,-16.2903044
187.30250,-12.3227771
187.30300,-4.998111315
187.30350,1.410971247
187.30400,9.04083144
187.30450,20.63821893
187.30500,31.3200232
187.30550,31.62521761
187.30600,20.94341334
187.30650,9.956414663
187.30700,8.430442624
187.30750,13.00835874
187.30800,15.75510841
187.30850,12.70316433
187.30900,4.462915324
187.30950,-9.881221838
187.31000,-27.58249748
187.31050,-37.95910735
187.31100,-36.1279409
187.31150,-31.55002478
187.31200,-33.07599682
187.31250,-31.85521919
187.31300,-19.95263729
187.31350,-6.218888945
187.31400,-1.64097283
187.31450,0.4953880241
187.31500,11.4823867
187.31550,22.46938538
187.31600,19.11224689
187.31650,8.735637032
187.31700,8.430442624
187.31750,13.00835874
187.31800,4.768109732
187.31850,-6.829277761
187.31900,3.852526509
187.31950,35.2875505
187.32000,49.93688207
187.32050,31.3200232
187.32100,8.735637032
187.32150,12.09277552
187.32200,29.48885676
187.32250,31.01482879
187.32300,13.92394196
187.32350,-0.420195199
187.32400,-4.387722499
187.32450,-7.439666576
187.32500,-15.06952677
187.32550,-21.17341492
187.32600,-19.95263729
187.32650,-15.37472118
187.32700,-12.3227771
187.32750,-8.355249799
187.32800,-1.030584014
187.32850,9.346025847
187.32900,19.4174413
187.32950,26.74210709
187.33000,30.09924557
187.33050,29.79405116
187.33100,26.43691268
187.33150,23.07977419
187.33200,20.02783012
187.33250,14.53433078
187.33300,2.631748878
187.33350,-17.20588762
187.33400,-41.31624583
187.33450,-60.84868792
187.33500,-66.95257608
187.33550,-56.57596622
187.33600,-34.90716327
187.33650,-15.06952677
187.33700,-7.134472168
187.33750,-7.439666576
187.33800,1.105776839
187.33850,28.57327353
187.33900,58.17713108
187.33950,62.7550472
187.34000,37.42391136
187.34050,6.904470586
187.34100,-4.998111315
187.34150,-2.251361645
187.34200,-0.7253896067
187.34250,-3.777333684
187.34300,-3.166944868
187.34350,1.716165655
187.34400,4.462915324
187.34450,4.768109732
187.34500,10.56680348
187.34550,22.77457979
187.34600,31.62521761
187.34650,31.01482879
187.34700,25.52132946
187.34750,20.63821893
187.34800,15.75510841
187.34850,9.651220255
187.34900,3.242137693
187.34950,-3.166944868
187.35000,-13.23836032
187.35050,-25.44613663
187.35100,-32.77080242
187.35150,-32.46560801
187.35200,-30.93963597
187.35250,-31.24483038
187.35300,-29.41366393
187.35350,-24.53055341
187.35400,-21.78380374
187.35450,-17.81627644
187.35500,-0.420195199
187.35550,31.01482879
187.35600,52.68363174
187.35650,40.17066103
187.35700,0.4953880241
187.35750,-35.21235768
187.35800,-50.77727247
187.35850,-53.21882773
187.35900,-51.69285569
187.35950,-41.31624583
187.36000,-16.2903044
187.36050,21.24860775
187.36100,69.77451857
187.36150,124.0991231
187.36200,165.910757
187.36250,165.3003682
187.36300,114.9432909
187.36350,44.74857714
187.36400,-7.134472168
187.36450,-33.07599682
187.36500,-46.80974517
187.36550,-54.43960536
187.36600,-50.47207806
187.36650,-37.65391294
187.36700,-29.71885834
187.36750,-26.66691426
187.36800,-12.01758269
187.36850,16.67069163
187.36900,37.72910576
187.36950,31.62521761
187.37000,9.04083144
187.37050,-8.355249799
187.37100,-18.12147085
187.37150,-29.10846952
187.37200,-29.71885834
187.37250,1.410971247
187.37300,56.95635345
187.37350,91.44332152
187.37400,72.21607383
187.37450,15.75510841
187.37500,-32.1604136
187.37550,-45.89416195
187.37600,-33.99158005
187.37650,-17.81627644
187.37700,-9.881221838
187.37750,-8.965638615
187.37800,-8.355249799
187.37850,-4.387722499
187.37900,0.1901936164
187.37950,-0.1150007913
187.38000,-4.998111315
187.38050,-6.829277761
187.38100,-4.998111315
187.38150,-8.355249799
187.38200,-15.98510999
187.38250,-13.54355473
187.38300,4.157720917
187.38350,22.16419097
187.38400,24.30055182
187.38450,16.36549722
187.38500,12.70316433
187.38550,10.56680348
187.38600,-2.251361645
187.38650,-21.17341492
187.38700,-30.63444156
187.38750,-37.34871853
187.38800,-63.59543759
187.38850,-108.1538211
187.38900,-138.6732619
187.38950,-134.0953458
187.39000,-108.1538211
187.39050,-83.12787969
187.39100,-61.15388233
187.39150,-36.1279409
187.39200,-12.3227771
187.39250,5.378498547
187.39300,21.55380216
187.39350,35.2875505
187.39400,33.76157846
187.39450,13.00835874
187.39500,-8.660444207
187.39550,-14.45913795
187.39600,-10.18641625
187.39650,-9.270833022
187.39700,-6.218888945
187.39750,10.87199789
187.39800,33.45638406
187.39850,41.69663306
187.39900,36.20313373
187.39950,31.01482879
187.40000,29.48885676
187.40050,27.04730149
187.40100,31.93041202
187.40150,55.125187
187.40200,80.45632284
187.40250,76.79398995
187.40300,43.2226051
187.40350,12.70316433
187.40400,7.820053809
187.40450,14.53433078
187.40500,12.39796992
187.40550,4.768109732
187.40600,3.242137693
187.40650,5.683692955
187.40700,3.547332101
187.40750,-1.64097283
187.40800,-4.082528091
187.40850,-6.829277761
187.40900,-14.76433236
187.40950,-23.92016459
187.41000,-27.88769189
187.41050,-26.66691426
187.41100,-23.61497018
187.41150,-22.69938696
187.41200,-29.41366393
187.41250,-45.28377313
187.41300,-58.10193825
187.41350,-52.91363332
187.41400,-35.82274649
187.41450,-26.05652545
187.41500,-21.47860933
187.41550,1.105776839
187.41600,45.66416036
187.41650,78.6251564
187.41700,74.9628235
187.41750,52.07324293
187.41800,38.03430017
187.41850,26.13171827
187.41900,-5.60850013
187.41950,-46.19935635
187.42000,-58.40713266
187.42050,-31.55002478
187.42100,2.936943286
187.42150,15.75510841
187.42200,9.651220255
187.42250,2.32655447
187.42300,-1.335778422
187.42350,-7.134472168
187.42400,-14.45913795
187.42450,-19.64744288
187.42500,-22.69938696
187.42550,-24.225359
187.42600,-20.2578317
187.42650,-10.79680506
187.42700,-2.251361645
187.42750,0.4953880241
187.42800,1.716165655
187.42850,5.683692955
187.42900,10.87199789
187.42950,13.00835874
187.43000,12.39796992
187.43050,12.09277552
187.43100,11.78758111
187.43150,9.956414663
187.43200,8.430442624
187.43250,9.651220255
187.43300,10.56680348
187.43350,7.209664994
187.43400,2.021360063
187.43450,-1.030584014
187.43500,-3.166944868
187.43550,-7.744860984
187.43600,-13.23836032
187.43650,-12.3227771
187.43700,-5.913694538
187.43750,-4.692916907
187.43800,-14.15394355
187.43850,-24.83574782
187.43900,-21.78380374
187.43950,-4.998111315
187.44000,11.78758111
187.44050,17.89146926
187.44100,17.89146926
187.44150,25.52132946
187.44200,44.74857714
187.44250,66.41738009
187.44300,76.48879554
187.44350,68.85893535
187.44400,43.83299392
187.44450,6.904470586
187.44500,-26.97210867
187.44550,-37.65391294
187.44600,-14.76433236
187.44650,23.07977419
187.44700,43.52779951
187.44750,34.06677287
187.44800,12.70316433
187.44850,3.547332101
187.44900,13.61874756
187.44950,34.98235609
187.45000,56.95635345
187.45050,65.80699127
187.45100,49.63168766
187.45150,14.53433078
187.45200,-16.90069321
187.45250,-31.55002478
187.45300,-37.65391294
187.45350,-46.50455076
187.45400,-56.57596622
187.45450,-61.45907674
187.45500,-62.06946555
187.45550,-51.08246688
187.45600,-14.45913795
187.45650,38.64468899
187.45700,68.24854653
187.45750,47.49532681
187.45800,3.547332101
187.45850,-17.51108203
187.45900,-8.355249799
187.45950,0.8005824318
187.46000,-6.218888945
187.46050,-17.81627644
187.46100,-21.17341492
187.46150,-18.73185966
187.46200,-15.37472118
187.46250,-9.57602743
187.46300,-1.946167238
187.46350,4.157720917
187.46400,12.09277552
187.46450,22.46938538
187.46500,26.13171827
187.46550,18.80705249
187.46600,15.449914
187.46650,27.3524959
187.46700,37.72910576
187.46750,21.55380216
187.46800,-12.93316591
187.46850,-32.46560801
187.46900,-25.75133104
187.46950,-14.15394355
187.47000,-14.76433236
187.47050,-21.17341492
187.47100,-25.44613663
187.47150,-33.68638564
187.47200,-48.0305228
187.47250,-55.35518859
187.47300,-44.0629955
187.47350,-23.92016459
187.47400,-9.270833022
187.47450,-0.7253896067
187.47500,6.29408177
187.47550,9.651220255
187.47600,6.29408177
187.47650,0.8005824318
187.47700,-1.64097283
187.47750,-5.913694538
187.47800,-17.20588762
187.47850,-29.10846952
187.47900,-32.1604136
187.47950,-26.97210867
187.48000,-21.47860933
187.48050,-18.12147085
187.48100,-11.40719388
187.48150,-1.946167238
187.48200,5.378498547
187.48250,8.735637032
187.48300,12.70316433
187.48350,19.11224689
187.48400,22.46938538
187.48450,17.28108045
187.48500,5.988887363
187.48550,-2.251361645
187.48600,-2.556556053
187.48650,2.631748878
187.48700,8.735637032
187.48750,14.83952519
187.48800,25.52132946
187.48850,43.2226051
187.48900,62.7550472
187.48950,70.38490739
187.49000,53.90440937
187.49050,9.651220255
187.49100,-48.33571721
187.49150,-91.97851751
187.49200,-98.38760007
187.49250,-73.66685305
187.49300,-48.0305228
187.49350,-43.14741228
187.49400,-47.11493958
187.49450,-35.21235768
187.49500,-3.166944868
187.49550,31.01482879
187.49600,52.68363174
187.49650,60.00829753
187.49700,51.1576597
187.49750,23.3849686
187.49800,-13.54355473
187.49850,-38.26430175
187.49900,-37.65391294
187.49950,-20.56302611
187.50000,0.8005824318
187.50050,25.21613505
187.50100,48.41091003
187.50150,53.29402056
187.50200,29.79405116
187.50250,-5.303305722
187.50300,-25.75133104
187.50350,-25.75133104
187.50400,-22.08899815
187.50450,-28.49808071
187.50500,-35.82274649
187.50550,-29.10846952
187.50600,-3.777333684
187.50650,29.79405116
187.50700,56.04077023
187.50750,62.44985279
187.50800,47.80052122
187.50850,23.07977419
187.50900,2.32655447
187.50950,-5.913694538
187.51000,-6.218888945
187.51050,-8.355249799
187.51100,-16.90069321
187.51150,-23.61497018
187.51200,-15.06952677
187.51250,9.651220255
187.51300,34.37196728
187.51350,38.33949458
187.51400,20.94341334
187.51450,-1.335778422
187.51500,-12.62797151
187.51550,-9.881221838
187.51600,-1.335778422
187.51650,3.242137693
187.51700,3.852526509
187.51750,12.09277552
187.51800,37.72910576
187.51850,69.16412976
187.51900,75.87840673
187.51950,45.66416036
187.52000,4.768109732
187.52050,-9.270833022
187.52100,7.209664994
187.52150,26.74210709
187.52200,25.52132946
187.52250,8.735637032
187.52300,-7.439666576
187.52350,-18.73185966
187.52400,-30.02405275
187.52450,-41.31624583
187.52500,-43.75780109
187.52550,-29.71885834
187.52600,-1.946167238
187.52650,29.18366235
187.52700,54.20960378
187.52750,69.16412976
187.52800,74.6576291
187.52850,70.38490739
187.52900,57.87193667
187.52950,41.39143866
187.53000,25.82652386
187.53050,10.56680348
187.53100,-7.439666576
187.53150,-29.10846952
187.53200,-51.08246688
187.53250,-73.36165864
187.53300,-95.94604481
187.53350,-110.290182
187.53400,-106.6278491
187.53450,-86.17982376
187.53500,-61.45907674
187.53550,-37.95910735
187.53600,-13.54355473
187.53650,6.904470586
187.53700,11.78758111
187.53750,1.410971247
187.53800,-7.134472168
187.53850,-2.556556053
187.53900,10.26160907
187.53950,23.99535742
187.54000,36.50832813
187.54050,38.64468899
187.54100,15.14471959
187.54150,-29.71885834
187.54200,-63.29024319
187.54250,-57.79674385
187.54300,-27.27730308
187.54350,-5.60850013
187.54400,-2.861750461
187.54450,-4.387722499
187.54500,-2.556556053
187.54550,-5.913694538
187.54600,-14.45913795
187.54650,-13.54355473
187.54700,3.547332101
187.54750,24.60574623
187.54800,33.15118965
187.54850,28.87846794
187.54900,18.50185808
187.54950,7.209664994
187.55000,-2.556556053
187.55050,-8.965638615
187.55100,-11.71238828
187.55150,-11.40719388
187.55200,-6.524083353
187.55250,3.547332101
187.55300,16.67069163
187.55350,25.52132946
187.55400,29.18366235
187.55450,30.70963439
187.55500,30.40443998
187.55550,25.21613505
187.55600,16.97588604
187.55650,9.651220255
187.55700,1.716165655
187.55750,-12.93316591
187.55800,-33.99158005
187.55850,-50.16688365
187.55900,-51.08246688
187.55950,-35.51755208
187.56000,-11.71238828
187.56050,8.430442624
187.56100,20.63821893
187.56150,24.91094064
187.56200,20.02783012
187.56250,-2.251361645
187.56300,-43.75780109
187.56350,-82.21229646
187.56400,-88.31618462
187.56450,-60.84868792
187.56500,-30.32924715
187.56550,-14.15394355
187.56600,6.904470586
187.56650,52.98882615
187.56700,101.514737
187.56750,110.0601804
187.56800,74.35243469
187.56850,32.23560643
187.56900,13.31355315
187.56950,11.78758111
187.57000,8.430442624
187.57050,2.936943286
187.57100,2.936943286
187.57150,6.904470586
187.57200,5.988887363
187.57250,-1.335778422
187.57300,-8.660444207
187.57350,-10.49161065
187.57400,-8.355249799
187.57450,-6.524083353
187.57500,-10.79680506
187.57550,-23.92016459
187.57600,-40.70585702
187.57650,-53.21882773
187.57700,-57.18635503
187.57750,-50.16688365
187.57800,-25.14094222
187.57850,21.24860775
187.57900,75.26801791
187.57950,107.9238195
187.58000,102.1251258
187.58050,67.63815772
187.58100,30.09924557
187.58150,8.735637032
187.58200,2.936943286
187.58250,2.936943286
187.58300,-0.420195199
187.58350,-8.965638615
187.58400,-19.03705407
187.58450,-28.80327512
187.58500,-36.43313531
187.58550,-37.34871853
187.58600,-24.53055341
187.58650,0.1901936164
187.58700,25.21613505
187.58750,33.15118965
187.58800,18.80705249
187.58850,-7.744860984
187.58900,-29.10846952
187.58950,-34.29677445
187.59000,-27.58249748
187.59050,-21.17341492
187.59100,-17.20588762
187.59150,-4.082528091
187.59200,23.99535742
187.59250,49.63168766
187.59300,48.10571563
187.59350,20.02783012
187.59400,-6.829277761
187.59450,-12.01758269
187.59500,-1.030584014
187.59550,6.904470586
187.59600,6.904470586
187.59650,1.716165655
187.59700,-6.218888945
187.59750,-19.34224848
187.59800,-31.24483038
187.59850,-32.1604136
187.59900,-22.39419255
187.59950,-11.10199947
187.60000,-4.082528091
187.60050,-0.1150007913
187.60100,3.242137693
187.60150,3.242137693
187.60200,-0.420195199
187.60250,-3.166944868
187.60300,-1.946167238
187.60350,-0.7253896067
187.60400,-2.861750461
187.60450,-2.556556053
187.60500,6.599276178
187.60550,20.02783012
187.60600,24.91094064
187.60650,20.02783012
187.60700,16.06030282
187.60750,18.19666367
187.60800,15.14471959
187.60850,0.4953880241
187.60900,-12.3227771
187.60950,-9.881221838
187.61000,0.4953880241
187.61050,2.32655447
187.61100,-3.472139276
187.61150,-3.166944868
187.61200,2.936943286
187.61250,1.410971247
187.61300,-7.134472168
187.61350,-4.998111315
187.61400,11.4823867
187.61450,19.4174413
187.61500,-2.861750461
187.61550,-45.58896754
187.61600,-80.68632442
187.61650,-93.80968396
187.61700,-88.31618462
187.61750,-73.66685305
187.61800,-59.01752148
187.61850,-46.80974517
187.61900,-32.1604136
187.61950,-11.10199947
187.62000,5.988887363
187.62050,8.125248217
187.62100,1.105776839
187.62150,4.157720917
187.62200,16.67069163
187.62250,16.06030282
187.62300,-3.777333684
187.62350,-16.2903044
187.62400,5.683692955
187.62450,49.93688207
187.62500,79.23554521
187.62550,77.70957317
187.62600,62.44985279
187.62650,54.51479819
187.62700,54.51479819
187.62750,52.37843733
187.62800,43.83299392
187.62850,33.15118965
187.62900,23.99535742
187.62950,16.67069163
187.63000,10.56680348
187.63050,5.378498547
187.63100,2.631748878
187.63150,2.021360063
187.63200,2.936943286
187.63250,4.157720917
187.63300,4.157720917
187.63350,-0.420195199
187.63400,-10.49161065
187.63450,-18.73185966
187.63500,-16.2903044
187.63550,-5.60850013
187.63600,0.8005824318
187.63650,-2.556556053
187.63700,-11.10199947
187.63750,-23.00458137
187.63800,-44.36818991
187.63850,-72.44607542
187.63900,-85.26424054
187.63950,-65.12140963
187.64000,-28.49808071
187.64050,-3.777333684
187.64100,8.125248217
187.64150,32.54080083
187.64200,71.30049061
187.64250,91.13812711
187.64300,69.16412976
187.64350,28.87846794
187.64400,9.04083144
187.64450,16.67069163
187.64500,29.48885676
187.64550,34.06677287
187.64600,30.09924557
187.64650,14.53433078
187.64700,-15.37472118
187.64750,-48.0305228
187.64800,-66.95257608
187.64850,-73.36165864
187.64900,-78.24476916
187.64950,-69.39413134
187.65000,-23.92016459
187.65050,46.27454918
187.65100,93.88487678
187.65150,90.5277383
187.65200,57.56674226
187.65250,30.70963439
187.65300,16.67069163
187.65350,6.599276178
187.65400,-0.1150007913
187.65450,-0.1150007913
187.65500,-2.861750461
187.65550,-16.90069321
187.65600,-29.10846952
187.65650,-21.47860933
187.65700,-0.1150007913
187.65750,14.22913637
187.65800,13.31355315
187.65850,5.683692955
187.65900,-3.777333684
187.65950,-18.42666525
187.66000,-30.93963597
187.66050,-30.63444156
187.66100,-19.64744288
187.66150,-13.84874914
187.66200,-16.90069321
187.66250,-18.73185966
187.66300,-16.90069321
187.66350,-21.47860933
187.66400,-35.21235768
187.66450,-45.89416195
187.66500,-44.0629955
187.66550,-38.26430175
187.66600,-41.01105142
187.66650,-49.55649484
187.66700,-52.60843892
187.66750,-45.58896754
187.66800,-28.1928863
187.66850,3.547332101
187.66900,53.59921496
187.66950,107.0082363
187.67000,139.3588435
187.67050,136.001705
187.67100,105.4822643
187.67150,65.19660246
187.67200,29.18366235
187.67250,5.07330414
187.67300,-9.270833022
187.67350,-24.225359
187.67400,-45.58896754
187.67450,-63.29024319
187.67500,-58.10193825
187.67550,-27.88769189
187.67600,6.904470586
187.67650,25.82652386
187.67700,25.82652386
187.67750,16.06030282
187.67800,2.32655447
187.67850,-14.76433236
187.67900,-28.49808071
187.67950,-29.71885834
187.68000,-20.2578317
187.68050,-10.18641625
187.68100,-5.60850013
187.68150,-3.166944868
187.68200,-0.420195199
187.68250,-0.1150007913
187.68300,-3.777333684
187.68350,-4.692916907
187.68400,-0.1150007913
187.68450,2.021360063
187.68500,-9.57602743
187.68550,-30.32924715
187.68600,-40.0954682
187.68650,-33.99158005
187.68700,-29.41366393
187.68750,-38.87469057
187.68800,-46.19935635
187.68850,-26.97210867
187.68900,9.651220255
187.68950,30.70963439
187.69000,23.69016301
187.69050,15.75510841
187.69100,30.70963439
187.69150,55.73557582
187.69200,61.53426956
187.69250,44.13818833
187.69300,24.60574623
187.69350,14.83952519
187.69400,9.651220255
187.69450,3.852526509
187.69500,0.4953880241
187.69550,-1.335778422
187.69600,-11.10199947
187.69650,-27.27730308
187.69700,-28.80327512
187.69750,-0.420195199
187.69800,45.05377155
187.69850,76.48879554
187.69900,74.6576291
187.69950,48.41091003
187.70000,16.97588604
187.70050,-8.050055392
187.70100,-25.14094222
187.70150,-34.60196886
187.70200,-40.70585702
187.70250,-51.69285569
187.70300,-72.44607542
187.70350,-91.6733231
187.70400,-92.89410073
187.70450,-71.8356866
187.70500,-40.40066261
187.70550,-11.10199947
187.70600,13.92394196
187.70650,33.76157846
187.70700,43.52779951
187.70750,40.17066103
187.70800,28.87846794
187.70850,16.06030282
187.70900,0.4953880241
187.70950,-18.42666525
187.71000,-36.43313531
187.71050,-47.72532839
187.71100,-52.91363332
187.71150,-55.9655774
187.71200,-57.18635503
187.71250,-51.38766129
187.71300,-34.29677445
187.71350,-4.692916907
187.71400,34.98235609
187.71450,74.35243469
187.71500,94.19007119
187.71550,84.11865573
187.71600,52.98882615
187.71650,21.55380216
187.71700,3.547332101
187.71750,-1.030584014
187.71800,-0.1150007913
187.71850,2.936943286
187.71900,6.599276178
187.71950,10.26160907
187.72000,14.53433078
187.72050,20.63821893
187.72100,25.52132946
187.72150,25.52132946
187.72200,21.85899656
187.72250,19.4174413
187.72300,20.33302452
187.72350,20.02783012
187.72400,13.31355315
187.72450,2.32655447
187.72500,-5.303305722
187.72550,-6.218888945
187.72600,-3.472139276
187.72650,-2.861750461
187.72700,-8.965638615
187.72750,-20.2578317
187.72800,-26.97210867
187.72850,-16.90069321
187.72900,10.87199789
187.72950,39.2550778
187.73000,47.1901324
187.73050,32.54080083
187.73100,13.31355315
187.73150,5.988887363
187.73200,8.125248217
187.73250,7.209664994
187.73300,-0.1150007913
187.73350,-4.998111315
187.73400,-2.556556053
187.73450,3.547332101
187.73500,8.430442624
187.73550,10.56680348
187.73600,12.70316433
187.73650,16.97588604
187.73700,21.55380216
187.73750,23.69016301
187.73800,21.85899656
187.73850,18.50185808
187.73900,16.36549722
187.73950,13.31355315
187.74000,5.988887363
187.74050,-5.60850013
187.74100,-18.12147085
187.74150,-28.49808071
187.74200,-36.43313531
187.74250,-39.79027379
187.74300,-36.43313531
187.74350,-27.88769189
187.74400,-19.64744288
187.74450,-16.2903044
187.74500,-18.73185966
187.74550,-24.53055341
187.74600,-29.71885834
187.74650,-28.80327512
187.74700,-21.17341492
187.74750,-12.93316591
187.74800,-8.965638615
187.74850,-6.524083353
187.74900,-0.7253896067
187.74950,6.904470586
187.75000,11.78758111
187.75050,15.14471959
187.75100,20.94341334
187.75150,24.91094064
187.75200,21.24860775
187.75250,11.78758111
187.75300,5.988887363
187.75350,5.378498547
187.75400,2.936943286
187.75450,-1.64097283
187.75500,-2.251361645
187.75550,0.8005824318
187.75600,-3.166944868
187.75650,-23.00458137
187.75700,-49.55649484
187.75750,-68.47854812
187.75800,-75.49801949
187.75850,-76.41360272
187.75900,-75.8032139
187.75950,-73.97204746
187.76000,-70.92010338
187.76050,-67.8681593
187.76100,-62.98504878
187.76150,-46.80974517
187.76200,-6.829277761
187.76250,54.81999259
187.76300,114.0277077
187.76350,136.001705
187.76400,111.280958
187.76450,70.07971298
187.76500,52.68363174
187.76550,70.07971298
187.76600,99.37837612
187.76650,113.1121245
187.76700,102.1251258
187.76750,73.74204587
187.76800,42.30702188
187.76850,20.33302452
187.76900,11.17719229
187.76950,8.125248217
187.77000,5.378498547
187.77050,4.462915324
187.77100,7.514859401
187.77150,11.17719229
187.77200,13.00835874
187.77250,18.80705249
187.77300,28.26807912
187.77350,25.82652386
187.77400,-1.64097283
187.77450,-39.17988498
187.77500,-54.74479977
187.77550,-39.48507938
187.77600,-20.2578317
187.77650,-25.14094222
187.77700,-50.47207806
187.77750,-71.53049219
187.77800,-74.88763068
187.77850,-65.42660404
187.77900,-54.74479977
187.77950,-48.0305228
187.78000,-43.14741228
187.78050,-36.1279409
187.78100,-26.05652545
187.78150,-15.06952677
187.78200,-9.57602743
187.78250,-12.3227771
187.78300,-22.08899815
187.78350,-35.51755208
187.78400,-51.69285569
187.78450,-70.00452015
187.78500,-84.65385172
187.78550,-88.62137902
187.78600,-81.60190765
187.78650,-69.69932575
187.78700,-51.38766129
187.78750,-13.23836032
187.78800,52.07324293
187.78850,120.1315958
187.78900,145.4627317
187.78950,108.8394028
187.79000,43.83299392
187.79050,4.157720917
187.79100,6.29408177
187.79150,19.11224689
187.79200,13.92394196
187.79250,-1.946167238
187.79300,-4.998111315
187.79350,6.599276178
187.79400,15.75510841
187.79450,14.22913637
187.79500,16.36549722
187.79550,31.93041202
187.79600,49.02129885
187.79650,48.71610444
187.79700,31.3200232
187.79750,15.449914
187.79800,16.97588604
187.79850,32.84599524
187.79900,46.57974359
187.79950,45.66416036
187.80000,34.06677287
187.80050,24.91094064
187.80100,21.24860775
187.80150,8.735637032
187.80200,-26.36171985
187.80250,-73.66685305
187.80300,-105.101877
187.80350,-104.7966826
187.80400,-85.26424054
187.80450,-66.34218726
187.80500,-51.08246688
187.80550,-33.07599682
187.80600,-14.76433236
187.80650,-6.218888945
187.80700,-6.829277761
187.80750,-5.303305722
187.80800,4.157720917
187.80850,14.53433078
187.80900,16.67069163
187.80950,13.00835874
187.81000,10.56680348
187.81050,13.00835874
187.81100,17.89146926
187.81150,19.4174413
187.81200,13.61874756
187.81250,3.242137693
187.81300,-3.472139276
187.81350,-2.251361645
187.81400,-0.1150007913
187.81450,-8.050055392
187.81500,-25.14094222
187.81550,-38.56949616
187.81600,-38.87469057
187.81650,-28.80327512
187.81700,-14.15394355
187.81750,1.716165655
187.81800,18.80705249
187.81850,34.67716169
187.81900,47.49532681
187.81950,56.04077023
187.82000,57.87193667
187.82050,52.37843733
187.82100,43.83299392
187.82150,38.33949458
187.82200,36.81352254
187.82250,33.76157846
187.82300,25.52132946
187.82350,14.22913637
187.82400,5.07330414
187.82450,-1.030584014
187.82500,-4.387722499
187.82550,-6.218888945
187.82600,-10.18641625
187.82650,-19.64744288
187.82700,-30.93963597
187.82750,-34.90716327
187.82800,-26.97210867
187.82850,-14.45913795
187.82900,-7.744860984
187.82950,-7.744860984
187.83000,-8.660444207
187.83050,-4.998111315
187.83100,2.936943286
187.83150,13.92394196
187.83200,24.60574623
187.83250,31.62521761
187.83300,32.23560643
187.83350,27.04730149
187.83400,19.4174413
187.83450,11.17719229
187.83500,2.936943286
187.83550,-3.472139276
187.83600,-10.49161065
187.83650,-20.2578317
187.83700,-29.71885834
187.83750,-28.80327512
187.83800,-13.54355473
187.83850,2.936943286
187.83900,4.768109732
187.83950,-5.60850013
187.84000,-10.49161065
187.84050,-2.556556053
187.84100,7.209664994
187.84150,5.988887363
187.84200,-4.692916907
187.84250,-14.15394355
187.84300,-15.06952677
187.84350,-8.965638615
187.84400,-4.082528091
187.84450,-8.965638615
187.84500,-24.83574782
187.84550,-41.31624583
187.84600,-46.50455076
187.84650,-41.62144024
187.84700,-36.1279409
187.84750,-30.63444156
187.84800,-19.64744288
187.84850,-5.60850013
187.84900,1.105776839
187.84950,-2.251361645
187.85000,-11.10199947
187.85050,-19.95263729
187.85100,-22.08899815
187.85150,-5.60850013
187.85200,31.62521761
187.85250,68.85893535
187.85300,83.50826692
187.85350,83.20307251
187.85400,89.91734948
187.85450,96.63162645
187.85500,74.35243469
187.85550,23.3849686
187.85600,-19.03705407
187.85650,-28.80327512
187.85700,-20.86822052
187.85750,-11.10199947
187.85800,12.39796992
187.85850,54.20960378
187.85900,79.23554521
187.85950,56.04077023
187.86000,3.852526509
187.86050,-29.41366393
187.86100,-29.41366393
187.86150,-17.81627644
187.86200,-12.01758269
187.86250,-8.660444207
187.86300,-6.524083353
187.86350,-11.10199947
187.86400,-19.34224848
187.86450,-22.08899815
187.86500,-20.56302611
187.86550,-27.58249748
187.86600,-42.23182905
187.86650,-48.64091162
187.86700,-39.79027379
187.86750,-24.225359
187.86800,-13.54355473
187.86850,-10.18641625
187.86900,-13.54355473
187.86950,-22.08899815
187.87000,-25.14094222
187.87050,-15.67991558
187.87100,-1.946167238
187.87150,5.07330414
187.87200,12.39796992
187.87250,34.67716169
187.87300,62.7550472
187.87350,70.07971298
187.87400,50.24207648
187.87450,28.87846794
187.87500,23.69016301
187.87550,17.89146926
187.87600,-7.744860984
187.87650,-41.92663465
187.87700,-55.9655774
187.87750,-44.97857872
187.87800,-28.49808071
187.87850,-24.53055341
187.87900,-32.77080242
187.87950,-41.31624583
187.88000,-35.51755208
187.88050,-7.134472168
187.88100,31.3200232
187.88150,50.24207648
187.88200,34.37196728
187.88250,6.29408177
187.88300,0.8005824318
187.88350,22.16419097
187.88400,42.91741069
187.88450,44.74857714
187.88500,34.37196728
187.88550,24.30055182
187.88600,14.83952519
187.88650,2.631748878
187.88700,-8.660444207
187.88750,-19.34224848
187.88800,-36.73832972
187.88850,-62.06946555
187.88900,-83.12787969
187.88950,-84.95904613
187.89000,-65.73179845
187.89050,-38.87469057
187.89100,-17.51108203
187.89150,-7.744860984
187.89200,-5.913694538
187.89250,-5.60850013
187.89300,-3.166944868
187.89350,1.105776839
187.89400,6.29408177
187.89450,13.61874756
187.89500,20.94341334
187.89550,21.85899656
187.89600,15.14471959
187.89650,7.820053809
187.89700,6.29408177
187.89750,5.378498547
187.89800,-0.7253896067
187.89850,-7.439666576
187.89900,-6.524083353
187.89950,-2.861750461
187.90000,-7.439666576
187.90050,-17.81627644
187.90100,-20.86822052
187.90150,-12.62797151
187.90200,-0.1150007913
187.90250,10.56680348
187.90300,16.36549722
187.90350,8.430442624
187.90400,-19.34224848
187.90450,-54.74479977
187.90500,-70.61490897
187.90550,-53.52402214
187.90600,-14.76433236
187.90650,24.91094064
187.90700,52.37843733
187.90750,57.87193667
187.90800,42.30702188
187.90850,27.3524959
187.90900,38.94988339
187.90950,73.43685146
187.91000,95.71604323
187.91050,83.20307251
187.91100,52.37843733
187.91150,31.01482879
187.91200,22.16419097
187.91250,10.26160907
187.91300,-7.134472168
187.91350,-19.64744288
187.91400,-22.08899815
187.91450,-21.17341492
187.91500,-19.95263729
187.91550,-14.45913795
187.91600,-4.082528091
187.91650,6.29408177
187.91700,14.22913637
187.91750,21.24860775
187.91800,26.74210709
187.91850,25.82652386
187.91900,16.97588604
187.91950,5.988887363
187.92000,-0.420195199
187.92050,-3.166944868
187.92100,-8.050055392
187.92150,-17.51108203
187.92200,-26.36171985
187.92250,-27.58249748
187.92300,-21.17341492
187.92350,-15.67991558
187.92400,-18.12147085
187.92450,-23.00458137
187.92500,-18.12147085
187.92550,0.8005824318
187.92600,27.96288472
187.92650,50.54727089
187.92700,57.26154786
187.92750,46.27454918
187.92800,28.57327353
187.92850,17.89146926
187.92900,13.00835874
187.92950,2.631748878
187.93000,-16.2903044
187.93050,-33.07599682
187.93100,-38.26430175
187.93150,-37.65391294
187.93200,-34.90716327
187.93250,-20.86822052
187.93300,7.820053809
187.93350,33.15118965
187.93400,31.01482879
187.93450,-2.251361645
187.93500,-46.50455076
187.93550,-74.88763068
187.93600,-72.14088101
187.93650,-43.45260668
187.93700,-16.90069321
187.93750,-18.42666525
187.93800,-38.56949616
187.93850,-36.1279409
187.93900,5.07330414
187.93950,48.41091003
187.94000,49.63168766
187.94050,13.92394196
187.94100,-16.59549881
187.94150,-22.39419255
187.94200,-18.12147085
187.94250,-18.73185966
187.94300,-19.34224848
187.94350,-14.15394355
187.94400,-9.57602743
187.94450,-10.49161065
187.94500,-12.01758269
187.94550,-10.18641625
187.94600,-7.439666576
187.94650,-4.387722499
187.94700,2.32655447
187.94750,10.26160907
187.94800,12.09277552
187.94850,8.735637032
187.94900,6.29408177
187.94950,6.599276178
187.95000,5.07330414
187.95050,1.410971247
187.95100,-2.861750461
187.95150,-12.93316591
187.95200,-35.21235768
187.95250,-61.45907674
187.95300,-69.39413134
187.95350,-44.97857872
187.95400,-1.946167238
187.95450,27.04730149
187.95500,18.19666367
187.95550,-19.95263729
187.95600,-46.80974517
187.95650,-23.92016459
187.95700,45.35896596
187.95750,115.8588741
187.95800,144.5471485
187.95850,126.5406784
187.95900,84.42385014
187.95950,36.50832813
187.96000,-6.524083353
187.96050,-36.73832972
187.96100,-51.08246688
187.96150,-59.32271589
187.96200,-69.69932575
187.96250,-74.88763068
187.96300,-60.84868792
187.96350,-28.80327512
187.96400,7.209664994
187.96450,38.94988339
187.96500,63.97582483
187.96550,78.31996199
187.96600,76.79398995
187.96650,64.58621364
187.96700,52.68363174
187.96750,43.2226051
187.96800,31.62521761
187.96850,19.4174413
187.96900,12.70316433
187.96950,11.78758111
187.97000,8.430442624
187.97050,-0.1150007913
187.97100,-9.270833022
187.97150,-11.10199947
187.97200,-4.998111315
187.97250,4.157720917
187.97300,11.78758111
187.97350,16.36549722
187.97400,22.46938538
187.97450,34.37196728
187.97500,47.49532681
187.97550,52.07324293
187.97600,46.27454918
187.97650,36.20313373
187.97700,25.82652386
187.97750,10.87199789
187.97800,-7.744860984
187.97850,-25.44613663
187.97900,-43.45260668
187.97950,-71.22529779
187.98000,-105.4070714
187.98050,-125.8550968
187.98100,-118.530431
187.98150,-97.16682244
187.98200,-84.34865732
187.98250,-80.99151883
187.98300,-73.36165864
187.98350,-55.35518859
187.98400,-36.73832972
187.98450,-24.53055341
187.98500,-15.37472118
187.98550,-0.7253896067
187.98600,25.21613505
187.98650,63.67063042
187.98700,103.6510978
187.98750,122.8783455
187.98800,108.5342084
187.98850,72.52126824
187.98900,39.86546662
187.98950,21.24860775
187.99000,10.56680348
187.99050,2.021360063
187.99100,-1.64097283
187.99150,-1.030584014
187.99200,0.4953880241
187.99250,3.852526509
187.99300,12.39796992
187.99350,20.63821893
187.99400,18.50185808
187.99450,6.599276178
187.99500,-2.861750461
187.99550,-5.303305722
187.99600,-8.660444207
187.99650,-18.73185966
187.99700,-28.1928863
187.99750,-30.32924715
187.99800,-28.1928863
187.99850,-27.27730308
187.99900,-26.66691426
187.99950,-25.14094222
188.00000,-23.00458137
188.00050,-20.56302611
188.00100,-15.06952677
188.00150,-8.050055392
188.00200,-5.303305722
188.00250,-5.60850013
188.00300,-1.64097283
188.00350,4.768109732
188.00400,6.599276178
188.00450,6.599276178
188.00500,15.75510841
188.00550,28.57327353
188.00600,23.07977419
188.00650,-6.218888945
188.00700,-35.21235768
188.00750,-38.26430175
188.00800,-20.56302611
188.00850,-6.829277761
188.00900,-5.60850013
188.00950,-8.355249799
188.01000,-8.355249799
188.01050,-9.881221838
188.01100,-14.15394355
188.01150,-15.98510999
188.01200,-13.23836032
188.01250,-7.744860984
188.01300,-1.946167238
188.01350,2.936943286
188.01400,3.547332101
188.01450,-0.7253896067
188.01500,-3.472139276
188.01550,3.547332101
188.01600,16.06030282
188.01650,20.94341334
188.01700,13.31355315
188.01750,2.021360063
188.01800,-1.946167238
188.01850,1.410971247
188.01900,6.599276178
188.01950,9.651220255
188.02000,12.39796992
188.02050,15.449914
188.02100,15.75510841
188.02150,9.04083144
188.02200,-0.420195199
188.02250,-5.303305722
188.02300,-5.60850013
188.02350,-9.270833022
188.02400,-16.90069321
188.02450,-19.03705407
188.02500,-13.84874914
188.02550,-17.81627644
188.02600,-40.0954682
188.02650,-62.06946555
188.02700,-56.88116062
188.02750,-28.1928863
188.02800,-6.829277761
188.02850,-9.57602743
188.02900,-22.39419255
188.02950,-23.30977578
188.03000,-8.660444207
188.03050,10.26160907
188.03100,25.82652386
188.03150,35.89793932
188.03200,42.91741069
188.03250,52.37843733
188.03300,66.41738009
188.03350,76.18360113
188.03400,67.33296331
188.03450,41.08624425
188.03500,15.14471959
188.03550,-0.7253896067
188.03600,-15.37472118
188.03650,-36.73832972
188.03700,-53.82921655
188.03750,-52.91363332
188.03800,-36.43313531
188.03850,-16.90069321
188.03900,-0.1150007913
188.03950,16.67069163
188.04000,30.09924557
188.04050,34.67716169
188.04100,32.84599524
188.04150,34.37196728
188.04200,38.64468899
188.04250,35.2875505
188.04300,20.63821893
188.04350,4.768109732
188.04400,-4.082528091
188.04450,-9.270833022
188.04500,-14.76433236
188.04550,-19.34224848
188.04600,-20.86822052
188.04650,-22.69938696
188.04700,-25.14094222
188.04750,-25.44613663
188.04800,-24.83574782
188.04850,-27.27730308
188.04900,-27.58249748
188.04950,-13.54355473
188.05000,13.92394196
188.05050,34.98235609
188.05100,31.93041202
188.05150,13.00835874
188.05200,-1.946167238
188.05250,-5.303305722
188.05300,-1.335778422
188.05350,5.683692955
188.05400,9.956414663
188.05450,-0.420195199
188.05500,-27.27730308
188.05550,-50.16688365
188.05600,-48.0305228
188.05650,-28.80327512
188.05700,-21.47860933
188.05750,-39.17988498
188.05800,-64.20582641
188.05850,-64.20582641
188.05900,-19.03705407
188.05950,65.80699127
188.06000,155.2289527
188.06050,199.4821418
188.06100,177.2029501
188.06150,114.0277077
188.06200,56.34596463
188.06250,27.3524959
188.06300,18.80705249
188.06350,11.78758111
188.06400,-8.355249799
188.06450,-45.28377313
188.06500,-79.46554679
188.06550,-79.7707412
188.06600,-41.31624583
188.06650,-1.64097283
188.06700,5.988887363
188.06750,-1.030584014
188.06800,11.17719229
188.06850,39.2550778
188.06900,49.32649326
188.06950,32.54080083
188.07000,13.92394196
188.07050,2.936943286
188.07100,-15.06952677
188.07150,-39.48507938
188.07200,-44.36818991
188.07250,-23.61497018
188.07300,-4.692916907
188.07350,-6.829277761
188.07400,-12.62797151
188.07450,-3.777333684
188.07500,11.17719229
188.07550,18.80705249
188.07600,22.77457979
188.07650,27.96288472
188.07700,24.91094064
188.07750,13.61874756
188.07800,14.22913637
188.07850,33.76157846
188.07900,47.80052122
188.07950,32.84599524
188.08000,2.021360063
188.08050,-16.90069321
188.08100,-22.08899815
188.08150,-27.58249748
188.08200,-33.38119123
188.08250,-28.49808071
188.08300,-16.2903044
188.08350,-9.57602743
188.08400,-8.965638615
188.08450,-9.270833022
188.08500,-13.84874914
188.08550,-26.97210867
188.08600,-33.07599682
188.08650,-16.59549881
188.08700,9.651220255
188.08750,16.06030282
188.08800,-0.7253896067
188.08850,-14.76433236
188.08900,-7.439666576
188.08950,9.346025847
188.09000,17.28108045
188.09050,16.97588604
188.09100,16.97588604
188.09150,16.67069163
188.09200,11.78758111
188.09250,6.29408177
188.09300,4.462915324
188.09350,2.32655447
188.09400,-3.472139276
188.09450,-8.965638615
188.09500,-9.57602743
188.09550,-10.79680506
188.09600,-19.03705407
188.09650,-28.80327512
188.09700,-31.55002478
188.09750,-29.41366393
188.09800,-30.93963597
188.09850,-35.21235768
188.09900,-33.38119123
188.09950,-24.83574782
188.10000,-19.03705407
188.10050,-18.42666525
188.10100,-14.45913795
188.10150,-1.946167238
188.10200,13.61874756
188.10250,23.69016301
188.10300,22.46938538
188.10350,8.430442624
188.10400,-14.15394355
188.10450,-32.77080242
188.10500,-35.21235768
188.10550,-28.1928863
188.10600,-32.46560801
188.10650,-54.13441095
188.10700,-71.53049219
188.10750,-63.59543759
188.10800,-35.51755208
188.10850,-8.660444207
188.10900,7.820053809
188.10950,17.58627486
188.11000,20.94341334
188.11050,14.53433078
188.11100,3.852526509
188.11150,1.716165655
188.11200,8.430442624
188.11250,9.346025847
188.11300,-4.692916907
188.11350,-24.83574782
188.11400,-34.60196886
188.11450,-30.02405275
188.11500,-16.59549881
188.11550,-1.946167238
188.11600,9.04083144
188.11650,13.61874756
188.11700,14.53433078
188.11750,18.19666367
188.11800,24.60574623
188.11850,25.52132946
188.11900,14.22913637
188.11950,-3.472139276
188.12000,-17.20588762
188.12050,-20.2578317
188.12100,-15.37472118
188.12150,-9.881221838
188.12200,-9.881221838
188.12250,-15.98510999
188.12300,-21.47860933
188.12350,-19.64744288
188.12400,-12.62797151
188.12450,-10.79680506
188.12500,-16.59549881
188.12550,-16.59549881
188.12600,1.105776839
188.12650,28.57327353
188.12700,43.52779951
188.12750,35.2875505
188.12800,15.14471959
188.12850,1.410971247
188.12900,-1.030584014
188.12950,-1.946167238
188.13000,-7.134472168
188.13050,-12.62797151
188.13100,-11.40719388
188.13150,-4.387722499
188.13200,1.716165655
188.13250,7.514859401
188.13300,17.89146926
188.13350,31.62521761
188.13400,39.86546662
188.13450,38.03430017
188.13500,30.09924557
188.13550,20.33302452
188.13600,9.346025847
188.13650,0.1901936164
188.13700,0.1901936164
188.13750,6.29408177
188.13800,-0.1150007913
188.13850,-27.88769189
188.13900,-56.88116062
188.13950,-53.52402214
188.14000,-10.49161065
188.14050,46.57974359
188.14100,87.78098863
188.14150,101.8199314
188.14200,94.4952656
188.14250,74.9628235
188.14300,53.59921496
188.14350,38.94988339
188.14400,36.50832813
188.14450,42.30702188
188.14500,48.10571563
188.14550,47.1901324
188.14600,40.17066103
188.14650,27.96288472
188.14700,8.125248217
188.14750,-20.2578317
188.14800,-49.55649484
188.14850,-65.73179845
188.14900,-66.03699285
188.14950,-60.54349352
188.15000,-57.79674385
188.15050,-54.43960536
188.15100,-47.42013399
188.15150,-37.65391294
188.15200,-19.03705407
188.15250,22.16419097
188.15300,79.84593403
188.15350,116.7744574
188.15400,103.6510978
188.15450,58.7875199
188.15500,23.99535742
188.15550,13.31355315
188.15600,6.599276178
188.15650,-8.660444207
188.15700,-24.53055341
188.15750,-33.38119123
188.15800,-40.0954682
188.15850,-46.80974517
188.15900,-47.72532839
188.15950,-44.67338432
188.16000,-43.45260668
188.16050,-40.70585702
188.16100,-27.27730308
188.16150,-8.355249799
188.16200,2.631748878
188.16250,10.26160907
188.16300,26.43691268
188.16350,46.57974359
188.16400,48.71610444
188.16450,31.3200232
188.16500,19.4174413
188.16550,29.18366235
188.16600,47.1901324
188.16650,52.68363174
188.16700,41.69663306
188.16750,24.91094064
188.16800,13.61874756
188.16850,15.14471959
188.16900,27.96288472
188.16950,35.59274491
188.17000,20.02783012
188.17050,-11.40719388
188.17100,-32.46560801
188.17150,-34.29677445
188.17200,-38.26430175
188.17250,-57.79674385
188.17300,-75.19282509
188.17350,-64.51102082
188.17400,-30.02405275
188.17450,-1.335778422
188.17500,4.462915324
188.17550,-1.030584014
188.17600,-1.946167238
188.17650,0.4953880241
188.17700,-5.303305722
188.17750,-24.83574782
188.17800,-47.11493958
188.17850,-59.32271589
188.17900,-61.15388233
188.17950,-59.9331047
188.18000,-57.18635503
188.18050,-48.0305228
188.18100,-33.68638564
188.18150,-23.61497018
188.18200,-21.17341492
188.18250,-14.76433236
188.18300,5.07330414
188.18350,29.79405116
188.18400,42.91741069
188.18450,40.17066103
188.18500,26.43691268
188.18550,4.157720917
188.18600,-20.56302611
188.18650,-27.27730308
188.18700,2.021360063
188.18750,53.59921496
188.18800,85.64462777
188.18850,76.79398995
188.18900,45.66416036
188.18950,20.63821893
188.19000,9.346025847
188.19050,2.631748878
188.19100,-2.556556053
188.19150,-5.303305722
188.19200,-11.10199947
188.19250,-21.78380374
188.19300,-26.66691426
188.19350,-12.3227771
188.19400,13.00835874
188.19450,28.57327353
188.19500,23.69016301
188.19550,6.29408177
188.19600,-12.62797151
188.19650,-28.49808071
188.19700,-34.29677445
188.19750,-23.00458137
188.19800,-1.030584014
188.19850,12.09277552
188.19900,7.209664994
188.19950,-4.998111315
188.20000,-10.79680506
188.20050,-8.965638615
188.20100,-8.355249799
188.20150,-14.45913795
188.20200,-26.05652545
188.20250,-42.53702346
188.20300,-59.62791029
188.20350,-68.78374252
188.20400,-62.06946555
188.20450,-43.14741228
188.20500,-20.56302611
188.20550,-0.1150007913
188.20600,16.36549722
188.20650,27.04730149
188.20700,33.15118965
188.20750,40.17066103
188.20800,48.41091003
188.20850,51.46285411
188.20900,44.13818833
188.20950,33.45638406
188.21000,25.21613505
188.21050,11.4823867
188.21100,-16.59549881
188.21150,-48.0305228
188.21200,-59.01752148
188.21250,-42.53702346
188.21300,-19.34224848
188.21350,-10.79680506
188.21400,-13.84874914
188.21450,-14.45913795
188.21500,-9.270833022
188.21550,-6.218888945
188.21600,-7.439666576
188.21650,-7.439666576
188.21700,-3.166944868
188.21750,0.8005824318
188.21800,1.410971247
188.21850,0.8005824318
188.21900,1.105776839
188.21950,0.4953880241
188.22000,-0.1150007913
188.22050,2.021360063
188.22100,4.768109732
188.22150,1.410971247
188.22200,-5.913694538
188.22250,-1.946167238
188.22300,21.85899656
188.22350,49.63168766
188.22400,56.04077023
188.22450,38.64468899
188.22500,19.72263571
188.22550,14.22913637
188.22600,12.70316433
188.22650,3.242137693
188.22700,-7.744860984
188.22750,-8.355249799
188.22800,-2.556556053
188.22850,-4.387722499
188.22900,-12.3227771
188.22950,-10.79680506
188.23000,1.410971247
188.23050,10.26160907
188.23100,8.125248217
188.23150,9.04083144
188.23200,26.43691268
188.23250,54.20960378
188.23300,71.30049061
188.23350,65.80699127
188.23400,41.69663306
188.23450,11.17719229
188.23500,-15.06952677
188.23550,-32.1604136
188.23600,-38.87469057
188.23650,-35.51755208
188.23700,-20.56302611
188.23750,4.768109732
188.23800,30.40443998
188.23850,41.39143866
188.23900,31.93041202
188.23950,13.92394196
188.24000,3.242137693
188.24050,6.29408177
188.24100,17.28108045
188.24150,26.43691268
188.24200,27.65769031
188.24250,19.72263571
188.24300,8.125248217
188.24350,-2.861750461
188.24400,-12.93316591
188.24450,-21.17341492
188.24500,-23.30977578
188.24550,-16.2903044
188.24600,-2.251361645
188.24650,8.430442624
188.24700,5.378498547
188.24750,-18.12147085
188.24800,-60.84868792
188.24850,-106.3226547
188.24900,-133.484957
188.24950,-130.7382073
188.25000,-104.7966826
188.25050,-68.78374252
188.25100,-32.1604136
188.25150,-3.777333684
188.25200,9.651220255
188.25250,14.22913637
188.25300,31.01482879
188.25350,74.04724028
188.25400,125.6250952
188.25450,147.9042869
188.25500,124.709512
188.25550,80.45632284
188.25600,52.98882615
188.25650,50.85246529
188.25700,49.93688207
188.25750,29.79405116
188.25800,5.07330414
188.25850,4.768109732
188.25900,32.84599524
188.25950,58.7875199
188.26000,55.43038141
188.26050,28.57327353
188.26100,-1.64097283
188.26150,-29.10846952
188.26200,-54.43960536
188.26250,-70.00452015
188.26300,-66.64738167
188.26350,-51.08246688
188.26400,-38.87469057
188.26450,-30.02405275
188.26500,-12.62797151
188.26550,11.78758111
188.26600,27.04730149
188.26650,25.21613505
188.26700,15.449914
188.26750,7.820053809
188.26800,3.242137693
188.26850,2.32655447
188.26900,5.683692955
188.26950,3.242137693
188.27000,-18.12147085
188.27050,-52.30324451
188.27100,-75.8032139
188.27150,-78.24476916
188.27200,-70.30971456
188.27250,-64.20582641
188.27300,-59.32271589
188.27350,-53.21882773
188.27400,-48.33571721
188.27450,-43.75780109
188.27500,-33.38119123
188.27550,-22.08899815
188.27600,-22.39419255
188.27650,-31.24483038
188.27700,-31.85521919
188.27750,-19.95263729
188.27800,-8.965638615
188.27850,-1.335778422
188.27900,18.80705249
188.27950,56.65115904
188.28000,87.17059981
188.28050,90.8329327
188.28100,76.48879554
188.28150,58.17713108
188.28200,29.79405116
188.28250,-10.49161065
188.28300,-39.48507938
188.28350,-32.77080242
188.28400,-4.387722499
188.28450,13.00835874
188.28500,11.4823867
188.28550,8.125248217
188.28600,9.346025847
188.28650,2.021360063
188.28700,-18.73185966
188.28750,-39.79027379
188.28800,-47.11493958
188.28850,-43.14741228
188.28900,-37.04352412
188.28950,-30.93963597
188.29000,-22.08899815
188.29050,-5.913694538
188.29100,18.19666367
188.29150,40.17066103
188.29200,43.2226051
188.29250,21.55380216
188.29300,-5.913694538
188.29350,-17.51108203
188.29400,-11.40719388
188.29450,-1.64097283
188.29500,2.936943286
188.29550,7.209664994
188.29600,13.92394196
188.29650,18.50185808
188.29700,17.58627486
188.29750,13.61874756
188.29800,8.735637032
188.29850,2.32655447
188.29900,-3.166944868
188.29950,-5.913694538
188.30000,-5.913694538
188.30050,-5.60850013
188.30100,-2.251361645
188.30150,7.514859401
188.30200,19.11224689
188.30250,22.46938538
188.30300,16.97588604
188.30350,9.651220255
188.30400,5.378498547
188.30450,1.105776839
188.30500,-3.472139276
188.30550,-1.946167238
188.30600,9.956414663
188.30650,25.82652386
188.30700,33.76157846
188.30750,31.01482879
188.30800,23.3849686
188.30850,17.28108045
188.30900,14.83952519
188.30950,13.92394196
188.31000,11.78758111
188.31050,7.820053809
188.31100,4.768109732
188.31150,4.768109732
188.31200,6.29408177
188.31250,2.936943286
188.31300,-6.218888945
188.31350,-15.37472118
188.31400,-16.2903044
188.31450,-10.79680506
188.31500,-8.355249799
188.31550,-15.37472118
188.31600,-30.02405275
188.31650,-43.45260668
188.31700,-48.94610602
188.31750,-48.33571721
188.31800,-52.60843892
188.31850,-66.95257608
188.31900,-80.68632442
188.31950,-77.32918594
188.32000,-52.30324451
188.32050,-15.98510999
188.32100,25.82652386
188.32150,74.04724028
188.32200,119.2160126
188.32250,136.9172883
188.32300,115.2484853
188.32350,73.74204587
188.32400,42.61221629
188.32450,28.26807912
188.32500,15.449914
188.32550,-1.030584014
188.32600,-9.881221838
188.32650,-3.166944868
188.32700,9.04083144
188.32750,13.31355315
188.32800,8.125248217
188.32850,2.936943286
188.32900,2.631748878
188.32950,1.410971247
188.33000,-7.439666576
188.33050,-23.61497018
188.33100,-36.43313531
188.33150,-36.1279409
188.33200,-24.83574782
188.33250,-12.62797151
188.33300,-7.744860984
188.33350,-9.270833022
188.33400,-13.84874914
188.33450,-19.64744288
188.33500,-21.78380374
188.33550,-15.67991558
188.33600,-7.134472168
188.33650,-8.355249799
188.33700,-21.47860933
188.33750,-33.68638564
188.33800,-36.1279409
188.33850,-31.85521919
188.33900,-27.58249748
188.33950,-20.86822052
188.34000,-9.270833022
188.34050,1.410971247
188.34100,6.29408177
188.34150,9.956414663
188.34200,18.19666367
188.34250,27.04730149
188.34300,29.48885676
188.34350,25.21613505
188.34400,19.4174413
188.34450,14.53433078
188.34500,9.04083144
188.34550,5.683692955
188.34600,5.988887363
188.34650,6.904470586
188.34700,5.07330414
188.34750,0.4953880241
188.34800,-3.472139276
188.34850,-6.524083353
188.34900,-7.439666576
188.34950,-4.387722499
188.35000,2.32655447
188.35050,11.4823867
188.35100,18.19666367
188.35150,17.28108045
188.35200,5.988887363
188.35250,-12.01758269
188.35300,-26.05652545
188.35350,-30.02405275
188.35400,-29.71885834
188.35450,-33.07599682
188.35500,-40.70585702
188.35550,-48.64091162
188.35600,-57.49154944
188.35650,-63.900632
188.35700,-48.33571721
188.35750,2.936943286
188.35800,70.38490739
188.35850,110.0601804
188.35900,101.2095426
188.35950,70.38490739
188.36000,55.125187
188.36050,62.14465838
188.36100,67.0277689
188.36150,52.07324293
188.36200,22.77457979
188.36250,-2.861750461
188.36300,-15.37472118
188.36350,-16.2903044
188.36400,-13.84874914
188.36450,-14.76433236
188.36500,-17.81627644
188.36550,-16.59549881
188.36600,-10.49161065
188.36650,-4.692916907
188.36700,-4.082528091
188.36750,-6.218888945
188.36800,-9.270833022
188.36850,-12.93316591
188.36900,-15.98510999
188.36950,-14.76433236
188.37000,-10.18641625
188.37050,-11.10199947
188.37100,-19.64744288
188.37150,-26.97210867
188.37200,-26.66691426
188.37250,-23.61497018
188.37300,-22.39419255
188.37350,-15.06952677
188.37400,8.430442624
188.37450,39.56027221
188.37500,59.0927143
188.37550,61.22907516
188.37600,57.26154786
188.37650,57.56674226
188.37700,57.87193667
188.37750,48.71610444
188.37800,27.3524959
188.37850,-1.030584014
188.37900,-27.88769189
188.37950,-42.23182905
188.38000,-39.79027379
188.38050,-31.85521919
188.38100,-32.77080242
188.38150,-43.14741228
188.38200,-49.55649484
188.38250,-41.31624583
188.38300,-23.30977578
188.38350,-11.10199947
188.38400,-16.59549881
188.38450,-37.04352412
188.38500,-54.43960536
188.38550,-53.52402214
188.38600,-38.87469057
188.38650,-29.71885834
188.38700,-28.80327512
188.38750,-13.23836032
188.38800,30.70963439
188.38850,77.09918436
188.38900,85.94982218
188.38950,52.98882615
188.39000,15.14471959
188.39050,2.021360063
188.39100,6.904470586
188.39150,7.514859401
188.39200,-2.251361645
188.39250,-13.84874914
188.39300,-20.86822052
188.39350,-24.53055341
188.39400,-26.36171985
188.39450,-24.225359
188.39500,-18.12147085
188.39550,-12.3227771
188.39600,-10.79680506
188.39650,-11.71238828
188.39700,-9.270833022
188.39750,-1.64097283
188.39800,5.07330414
188.39850,7.209664994
188.39900,6.599276178
188.39950,6.904470586
188.40000,7.514859401
188.40050,7.209664994
188.40100,10.56680348
188.40150,18.50185808
188.40200,20.33302452
188.40250,5.683692955
188.40300,-15.37472118
188.40350,-22.08899815
188.40400,-8.050055392
188.40450,9.04083144
188.40500,16.06030282
188.40550,17.28108045
188.40600,20.63821893
188.40650,21.55380216
188.40700,10.87199789
188.40750,-4.692916907
188.40800,-10.18641625
188.40850,-2.556556053
188.40900,5.378498547
188.40950,3.242137693
188.41000,-4.387722499
188.41050,-4.387722499
188.41100,5.988887363
188.41150,16.36549722
188.41200,16.67069163
188.41250,11.4823867
188.41300,10.56680348
188.41350,9.956414663
188.41400,-5.60850013
188.41450,-37.34871853
188.41500,-61.45907674
188.41550,-56.27077181
188.41600,-28.1928863
188.41650,-4.387722499
188.41700,2.32655447
188.41750,2.936943286
188.41800,10.56680348
188.41850,24.91094064
188.41900,35.59274491
188.41950,36.50832813
188.42000,30.09924557
188.42050,23.07977419
188.42100,19.72263571
188.42150,19.4174413
188.42200,18.80705249
188.42250,16.06030282
188.42300,11.78758111
188.42350,6.904470586
188.42400,-0.1150007913
188.42450,-10.18641625
188.42500,-19.34224848
188.42550,-23.92016459
188.42600,-20.86822052
188.42650,-6.829277761
188.42700,15.449914
188.42750,33.45638406
188.42800,35.2875505
188.42850,23.99535742
188.42900,12.39796992
188.42950,9.346025847
188.43000,11.78758111
188.43050,16.67069163
188.43100,21.24860775
188.43150,19.11224689
188.43200,6.904470586
188.43250,-5.913694538
188.43300,-8.660444207
188.43350,-7.744860984
188.43400,-19.95263729
188.43450,-46.50455076
188.43500,-66.64738167
188.43550,-69.08893693
188.43600,-61.45907674
188.43650,-54.13441095
188.43700,-45.28377313
188.43750,-32.1604136
188.43800,-17.81627644
188.43850,-0.7253896067
188.43900,25.52132946
188.43950,53.59921496
188.44000,63.36543601
188.44050,53.29402056
188.44100,46.27454918
188.44150,56.65115904
188.44200,70.6901018
188.44250,72.52126824
188.44300,67.63815772
188.44350,65.50179686
188.44400,56.95635345
188.44450,32.54080083
188.44500,4.157720917
188.44550,-10.18641625
188.44600,-15.06952677
188.44650,-23.92016459
188.44700,-33.68638564
188.44750,-31.55002478
188.44800,-20.2578317
188.44850,-14.45913795
188.44900,-16.59549881
188.44950,-15.37472118
188.45000,-7.439666576
188.45050,-2.251361645
188.45100,-6.524083353
188.45150,-15.67991558
188.45200,-23.30977578
188.45250,-27.27730308
188.45300,-25.14094222
188.45350,-18.73185966
188.45400,-13.23836032
188.45450,-11.10199947
188.45500,-9.270833022
188.45550,-7.744860984
188.45600,-15.67991558
188.45650,-36.1279409
188.45700,-55.35518859
188.45750,-60.23829911
188.45800,-56.27077181
188.45850,-55.9655774
188.45900,-57.49154944
188.45950,-52.60843892
188.46000,-43.75780109
188.46050,-36.73832972
188.46100,-21.47860933
188.46150,16.06030282
188.46200,67.63815772
188.46250,102.1251258
188.46300,99.98876493
188.46350,71.30049061
188.46400,35.59274491
188.46450,4.462915324
188.46500,-21.17341492
188.46550,-41.01105142
188.46600,-54.74479977
188.46650,-61.15388233
188.46700,-55.04999418
188.46750,-32.46560801
188.46800,-3.777333684
188.46850,18.19666367
188.46900,38.03430017
188.46950,67.33296331
188.47000,100.5991538
188.47050,112.8069301
188.47100,94.80046
188.47150,67.94335213
188.47200,57.56674226
188.47250,59.39790871
188.47300,54.20960378
188.47350,37.72910576
188.47400,17.89146926
188.47450,-1.64097283
188.47500,-21.78380374
188.47550,-31.24483038
188.47600,-20.56302611
188.47650,-3.472139276
188.47700,-2.861750461
188.47750,-15.98510999
188.47800,-16.90069321
188.47850,2.021360063
188.47900,18.80705249
188.47950,13.00835874
188.48000,-5.913694538
188.48050,-18.42666525
188.48100,-22.69938696
188.48150,-29.71885834
188.48200,-43.14741228
188.48250,-56.88116062
188.48300,-65.12140963
188.48350,-62.37465996
188.48400,-44.0629955
188.48450,-15.06952677
188.48500,7.820053809
188.48550,15.14471959
188.48600,13.00835874
188.48650,12.09277552
188.48700,12.70316433
188.48750,9.651220255
188.48800,1.716165655
188.48850,-9.270833022
188.48900,-23.61497018
188.48950,-36.1279409
188.49000,-38.87469057
188.49050,-32.1604136
188.49100,-27.88769189
188.49150,-35.21235768
188.49200,-49.25130043
188.49250,-59.01752148
188.49300,-59.32271589
188.49350,-51.69285569
188.49400,-42.23182905
188.49450,-37.34871853
188.49500,-38.87469057
188.49550,-35.51755208
188.49600,-18.42666525
188.49650,3.242137693
188.49700,14.53433078
188.49750,15.75510841
188.49800,19.72263571
188.49850,28.57327353
188.49900,31.62521761
188.49950,29.18366235
188.50000,33.76157846
188.50050,41.08624425
188.50100,34.06677287
188.50150,15.449914
188.50200,13.00835874
188.50250,35.89793932
188.50300,54.51479819
188.50350,43.83299392
188.50400,15.14471959
188.50450,-8.355249799
188.50500,-27.88769189
188.50550,-52.30324451
188.50600,-70.30971456
188.50650,-62.37465996
188.50700,-35.21235768
188.50750,-15.98510999
188.50800,-15.67991558
188.50850,-19.34224848
188.50900,-12.3227771
188.50950,2.631748878
188.51000,14.22913637
188.51050,15.449914
188.51100,9.956414663
188.51150,6.599276178
188.51200,13.92394196
188.51250,31.62521761
188.51300,50.54727089
188.51350,60.61868634
188.51400,58.17713108
188.51450,42.61221629
188.51500,18.50185808
188.51550,-3.472139276
188.51600,-15.06952677
188.51650,-18.42666525
188.51700,-22.69938696
188.51750,-28.1928863
188.51800,-27.88769189
188.51850,-21.17341492
188.51900,-15.67991558
188.51950,-15.37472118
188.52000,-14.76433236
188.52050,-8.355249799
188.52100,3.547332101
188.52150,18.50185808
188.52200,30.09924557
188.52250,30.09924557
188.52300,20.33302452
188.52350,12.09277552
188.52400,12.70316433
188.52450,14.53433078
188.52500,8.430442624
188.52550,0.4953880241
188.52600,-0.420195199
188.52650,2.021360063
188.52700,3.547332101
188.52750,9.956414663
188.52800,24.60574623
188.52850,32.84599524
188.52900,20.94341334
188.52950,0.4953880241
188.53000,-6.829277761
188.53050,-1.030584014
188.53100,1.716165655
188.53150,-3.777333684
188.53200,-9.57602743
188.53250,-12.01758269
188.53300,-13.84874914
188.53350,-11.40719388
188.53400,-1.946167238
188.53450,4.768109732
188.53500,-1.335778422
188.53550,-15.37472118
188.53600,-25.75133104
188.53650,-35.21235768
188.53700,-49.55649484
188.53750,-59.32271589
188.53800,-51.08246688
188.53850,-26.97210867
188.53900,2.32655447
188.53950,34.06677287
188.54000,61.83946397
188.54050,67.33296331
188.54100,45.96935477
188.54150,20.33302452
188.54200,11.17719229
188.54250,5.378498547
188.54300,-17.51108203
188.54350,-47.72532839
188.54400,-61.45907674
188.54450,-59.32271589
188.54500,-50.77727247
188.54550,-23.61497018
188.54600,29.48885676
188.54650,71.60568502
188.54700,57.87193667
188.54750,13.00835874
188.54800,7.820053809
188.54850,60.92388075
188.54900,111.8913468
188.54950,107.0082363
188.55000,64.58621364
188.55050,30.09924557
188.55100,13.92394196
188.55150,1.105776839
188.55200,-8.050055392
188.55250,-3.166944868
188.55300,9.651220255
188.55350,16.36549722
188.55400,15.14471959
188.55450,14.22913637
188.55500,15.75510841
188.55550,18.19666367
188.55600,25.52132946
188.55650,38.03430017
188.55700,44.74857714
188.55750,39.2550778
188.55800,31.01482879
188.55850,28.87846794
188.55900,26.74210709
188.55950,13.92394196
188.56000,-5.913694538
188.56050,-24.83574782
188.56100,-45.58896754
188.56150,-73.97204746
188.56200,-101.7447386
188.56250,-111.5109596
188.56300,-97.77721126
188.56350,-74.27724186
188.56400,-55.66038299
188.56450,-45.89416195
188.56500,-40.70585702
188.56550,-35.51755208
188.56600,-30.32924715
188.56650,-26.66691426
188.56700,-23.92016459
188.56750,-15.06952677
188.56800,4.768109732
188.56850,27.96288472
188.56900,36.20313373
188.56950,23.3849686
188.57000,2.631748878
188.57050,-11.10199947
188.57100,-18.42666525
188.57150,-22.39419255
188.57200,-15.37472118
188.57250,7.514859401
188.57300,32.84599524
188.57350,40.78104984
188.57400,34.06677287
188.57450,34.37196728
188.57500,49.63168766
188.57550,67.63815772
188.57600,75.87840673
188.57650,73.13165706
188.57700,57.26154786
188.57750,24.60574623
188.57800,-10.18641625
188.57850,-20.2578317
188.57900,-0.1150007913
188.57950,21.24860775
188.58000,18.50185808
188.58050,0.4953880241
188.58100,-14.15394355
188.58150,-30.63444156
188.58200,-59.32271589
188.58250,-86.48501817
188.58300,-85.26424054
188.58350,-56.88116062
188.58400,-31.24483038
188.58450,-24.225359
188.58500,-22.39419255
188.58550,-12.62797151
188.58600,-0.420195199
188.58650,2.021360063
188.58700,-2.556556053
188.58750,-8.050055392
188.58800,-10.49161065
188.58850,-7.439666576
188.58900,5.378498547
188.58950,25.21613505
188.59000,38.64468899
188.59050,37.11871695
188.59100,28.26807912
188.59150,24.60574623
188.59200,26.13171827
188.59250,24.91094064
188.59300,18.50185808
188.59350,9.956414663
188.59400,2.32655447
188.59450,-5.60850013
188.59500,-13.54355473
188.59550,-18.73185966
188.59600,-21.47860933
188.59650,-23.61497018
188.59700,-24.225359
188.59750,-21.78380374
188.59800,-20.56302611
188.59850,-25.75133104
188.59900,-32.77080242
188.59950,-30.63444156
188.60000,-14.45913795
188.60050,2.631748878
188.60100,3.547332101
188.60150,-13.84874914
188.60200,-37.34871853
188.60250,-51.38766129
188.60300,-51.08246688
188.60350,-40.40066261
188.60400,-26.05652545
188.60450,-16.2903044
188.60500,-11.71238828
188.60550,-1.335778422
188.60600,30.70963439
188.60650,83.20307251
188.60700,131.4237889
188.60750,149.7354534
188.60800,132.6445666
188.60850,96.32643204
188.60900,60.00829753
188.60950,34.98235609
188.61000,20.94341334
188.61050,10.87199789
188.61100,-0.420195199
188.61150,-8.965638615
188.61200,-4.082528091
188.61250,10.87199789
188.61300,18.50185808
188.61350,4.768109732
188.61400,-17.51108203
188.61450,-25.14094222
188.61500,-13.23836032
188.61550,-0.7253896067
188.61600,-1.335778422
188.61650,-8.050055392
188.61700,-7.439666576
188.61750,1.410971247
188.61800,11.4823867
188.61850,20.02783012
188.61900,26.74210709
188.61950,24.60574623
188.62000,5.378498547
188.62050,-23.92016459
188.62100,-45.89416195
188.62150,-47.42013399
188.62200,-32.77080242
188.62250,-12.01758269
188.62300,5.988887363
188.62350,12.70316433
188.62400,3.242137693
188.62450,-13.84874914
188.62500,-20.86822052
188.62550,-8.965638615
188.62600,7.209664994
188.62650,8.125248217
188.62700,-9.881221838
188.62750,-34.60196886
188.62800,-55.66038299
188.62850,-75.49801949
188.62900,-97.47201685
188.62950,-114.2577093
188.63000,-111.5109596
188.63050,-84.65385172
188.63100,-47.11493958
188.63150,-19.64744288
188.63200,-5.60850013
188.63250,10.56680348
188.63300,40.47585543
188.63350,67.94335213
188.63400,67.33296331
188.63450,35.59274491
188.63500,-4.387722499
188.63550,-35.82274649
188.63600,-58.40713266
188.63650,-72.75126982
188.63700,-70.61490897
188.63750,-51.69285569
188.63800,-26.97210867
188.63850,1.410971247
188.63900,44.74857714
188.63950,96.02123763
188.64000,119.8264014
188.64050,92.96929356
188.64100,43.2226051
188.64150,18.80705249
188.64200,29.48885676
188.64250,45.05377155
188.64300,42.91741069
188.64350,29.18366235
188.64400,14.53433078
188.64450,-3.472139276
188.64500,-24.225359
188.64550,-34.29677445
188.64600,-29.71885834
188.64650,-21.17341492
188.64700,-14.76433236
188.64750,0.4953880241
188.64800,30.70963439
188.64850,59.39790871
188.64900,64.58621364
188.64950,47.1901324
188.65000,27.65769031
188.65050,18.19666367
188.65100,14.83952519
188.65150,8.430442624
188.65200,1.105776839
188.65250,-0.1150007913
188.65300,7.820053809
188.65350,21.55380216
188.65400,33.45638406
188.65450,37.11871695
188.65500,30.70963439
188.65550,17.58627486
188.65600,2.936943286
188.65650,-10.18641625
188.65700,-24.225359
188.65750,-41.92663465
188.65800,-62.98504878
188.65850,-85.26424054
188.65900,-107.5434323
188.65950,-123.1083471
188.66000,-113.9525149
188.66050,-62.06946555
188.66100,20.02783012
188.66150,85.03423896
188.66200,89.91734948
188.66250,42.61221629
188.66300,-8.965638615
188.66350,-29.10846952
188.66400,-23.00458137
188.66450,-13.23836032
188.66500,-10.79680506
188.66550,-13.54355473
188.66600,-17.51108203
188.66650,-18.42666525
188.66700,-11.10199947
188.66750,3.852526509
188.66800,16.06030282
188.66850,18.19666367
188.66900,13.92394196
188.66950,8.430442624
188.67000,1.410971247
188.67050,-5.60850013
188.67100,-6.829277761
188.67150,-3.472139276
188.67200,-6.829277761
188.67250,-20.2578317
188.67300,-28.49808071
188.67350,-19.64744288
188.67400,-4.082528091
188.67450,0.1901936164
188.67500,-5.60850013
188.67550,-8.355249799
188.67600,-4.387722499
188.67650,-3.472139276
188.67700,-5.60850013
188.67750,-1.946167238
188.67800,8.430442624
188.67850,15.449914
188.67900,17.58627486
188.67950,25.82652386
188.68000,42.61221629
188.68050,54.51479819
188.68100,51.46285411
188.68150,40.17066103
188.68200,29.18366235
188.68250,13.92394196
188.68300,-5.303305722
188.68350,-15.67991558
188.68400,-7.744860984
188.68450,6.599276178
188.68500,10.56680348
188.68550,4.462915324
188.68600,-0.1150007913
188.68650,-1.335778422
188.68700,-7.134472168
188.68750,-15.06952677
188.68800,-16.2903044
188.68850,-12.93316591
188.68900,-16.2903044
188.68950,-26.05652545
188.69000,-30.32924715
188.69050,-24.225359
188.69100,-15.98510999
188.69150,-14.15394355
188.69200,-14.76433236
188.69250,-13.54355473
188.69300,-12.3227771
188.69350,-11.71238828
188.69400,-10.49161065
188.69450,-8.355249799
188.69500,-7.439666576
188.69550,-6.829277761
188.69600,-4.387722499
188.69650,-2.251361645
188.69700,-0.7253896067
188.69750,9.04083144
188.69800,34.06677287
188.69850,60.31349193
188.69900,64.28101923
188.69950,42.61221629
188.70000,19.11224689
188.70050,13.92394196
188.70100,21.55380216
188.70150,24.30055182
188.70200,18.80705249
188.70250,14.83952519
188.70300,18.19666367
188.70350,25.21613505
188.70400,29.18366235
188.70450,28.26807912
188.70500,25.82652386
188.70550,20.94341334
188.70600,5.988887363
188.70650,-25.44613663
188.70700,-64.51102082
188.70750,-86.17982376
188.70800,-76.41360272
188.70850,-49.86168925
188.70900,-30.63444156
188.70950,-21.78380374
188.71000,-11.10199947
188.71050,2.936943286
188.71100,10.56680348
188.71150,10.26160907
188.71200,15.14471959
188.71250,30.40443998
188.71300,46.88493799
188.71350,55.73557582
188.71400,57.26154786
188.71450,46.57974359
188.71500,14.83952519
188.71550,-29.71885834
188.71600,-58.40713266
188.71650,-52.91363332
188.71700,-24.53055341
188.71750,1.410971247
188.71800,14.53433078
188.71850,18.19666367
188.71900,13.92394196
188.71950,3.852526509
188.72000,-4.692916907
188.72050,-7.134472168
188.72100,-10.49161065
188.72150,-21.47860933
188.72200,-32.77080242
188.72250,-32.1604136
188.72300,-25.75133104
188.72350,-29.71885834
188.72400,-44.36818991
188.72450,-52.60843892
188.72500,-45.58896754
188.72550,-33.68638564
188.72600,-27.27730308
188.72650,-20.2578317
188.72700,-6.829277761
188.72750,2.021360063
188.72800,-3.472139276
188.72850,-8.660444207
188.72900,10.56680348
188.72950,51.46285411
188.73000,84.42385014
188.73050,89.00176626
188.73100,70.38490739
188.73150,40.17066103
188.73200,5.07330414
188.73250,-24.53055341
188.73300,-37.34871853
188.73350,-37.95910735
188.73400,-44.67338432
188.73450,-56.88116062
188.73500,-51.38766129
188.73550,-22.08899815
188.73600,7.514859401
188.73650,23.3849686
188.73700,43.83299392
188.73750,84.72904455
188.73800,120.1315958
188.73850,110.9757636
188.73900,59.70310312
188.73950,5.988887363
188.74000,-23.30977578
188.74050,-31.55002478
188.74100,-29.41366393
188.74150,-24.83574782
188.74200,-26.05652545
188.74250,-33.68638564
188.74300,-27.27730308
188.74350,11.78758111
188.74400,70.6901018
188.74450,113.1121245
188.74500,120.1315958
188.74550,102.7355146
188.74600,76.18360113
188.74650,45.96935477
188.74700,16.36549722
188.74750,-2.861750461
188.74800,-14.45913795
188.74850,-33.07599682
188.74900,-64.20582641
188.74950,-94.72526718
188.75000,-103.8810994
188.75050,-83.43307409
188.75100,-44.97857872
188.75150,-14.15394355
188.75200,-10.79680506
188.75250,-29.10846952
188.75300,-43.14741228
188.75350,-39.17988498
188.75400,-28.80327512
188.75450,-24.83574782
188.75500,-16.90069321
188.75550,8.125248217
188.75600,38.94988339
188.75650,51.1576597
188.75700,40.17066103
188.75750,22.16419097
188.75800,6.29408177
188.75850,-5.913694538
188.75900,-12.62797151
188.75950,-10.18641625
188.76000,-9.57602743
188.76050,-20.56302611
188.76100,-34.60196886
188.76150,-37.04352412
188.76200,-30.02405275
188.76250,-23.61497018
188.76300,-10.79680506
188.76350,20.94341334
188.76400,60.31349193
188.76450,81.06671166
188.76500,79.84593403
188.76550,74.9628235
188.76600,68.55374094
188.76650,40.47585543
188.76700,-11.10199947
188.76750,-57.49154944
188.76800,-76.10840831
188.76850,-76.41360272
188.76900,-71.8356866
188.76950,-56.88116062
188.77000,-27.27730308
188.77050,1.105776839
188.77100,14.22913637
188.77150,20.33302452
188.77200,31.3200232
188.77250,37.11871695
188.77300,22.77457979
188.77350,-2.861750461
188.77400,-17.81627644
188.77450,-16.90069321
188.77500,-15.06952677
188.77550,-21.78380374
188.77600,-29.10846952
188.77650,-29.10846952
188.77700,-21.47860933
188.77750,-10.49161065
188.77800,-0.1150007913
188.77850,3.547332101
188.77900,-3.472139276
188.77950,-14.45913795
188.78000,-16.59549881
188.78050,-8.355249799
188.78100,-1.64097283
188.78150,-7.439666576
188.78200,-20.2578317
188.78250,-25.44613663
188.78300,-19.95263729
188.78350,-16.90069321
188.78400,-24.83574782
188.78450,-31.55002478
188.78500,-18.12147085
188.78550,13.92394196
188.78600,41.08624425
188.78650,45.96935477
188.78700,36.50832813
188.78750,26.74210709
188.78800,17.28108045
188.78850,2.32655447
188.78900,-11.40719388
188.78950,-14.76433236
188.79000,-11.40719388
188.79050,-11.71238828
188.79100,-15.06952677
188.79150,-13.54355473
188.79200,-8.355249799
188.79250,-7.439666576
188.79300,-8.965638615
188.79350,-4.082528091
188.79400,5.07330414
188.79450,7.820053809
188.79500,5.683692955
188.79550,13.00835874
188.79600,30.09924557
188.79650,38.03430017
188.79700,24.91094064
188.79750,3.852526509
188.79800,-5.60850013
188.79850,-3.777333684
188.79900,-3.472139276
188.79950,-7.744860984
188.80000,-9.270833022
188.80050,-7.134472168
188.80100,-8.050055392
188.80150,-14.76433236
188.80200,-17.81627644
188.80250,-11.40719388
188.80300,-0.420195199
188.80350,8.125248217
188.80400,16.97588604
188.80450,30.09924557
188.80500,42.00182747
188.80550,41.08624425
188.80600,26.74210709
188.80650,11.17719229
188.80700,3.852526509
188.80750,0.4953880241
188.80800,-4.998111315
188.80850,-10.79680506
188.80900,-9.57602743
188.80950,-3.777333684
188.81000,-0.7253896067
188.81050,-1.946167238
188.81100,-2.861750461
188.81150,-1.030584014
188.81200,1.716165655
188.81250,4.768109732
188.81300,8.125248217
188.81350,8.735637032
188.81400,3.242137693
188.81450,-4.082528091
188.81500,-6.829277761
188.81550,-4.692916907
188.81600,-4.387722499
188.81650,-8.660444207
188.81700,-10.18641625
188.81750,-2.556556053
188.81800,8.125248217
188.81850,11.4823867
188.81900,6.904470586
188.81950,3.547332101
188.82000,7.514859401
188.82050,12.39796992
188.82100,9.956414663
188.82150,2.936943286
188.82200,-1.64097283
188.82250,-4.692916907
188.82300,-11.40719388
188.82350,-20.56302611
188.82400,-24.53055341
188.82450,-19.95263729
188.82500,-10.18641625
188.82550,3.242137693
188.82600,22.16419097
188.82650,37.11871695
188.82700,36.50832813
188.82750,23.3849686
188.82800,12.09277552
188.82850,3.547332101
188.82900,-16.90069321
188.82950,-53.21882773
188.83000,-78.54996357
188.83050,-72.75126982
188.83100,-53.52402214
188.83150,-55.35518859
188.83200,-80.68632442
188.83250,-93.80968396
188.83300,-65.12140963
188.83350,-0.1150007913
188.83400,70.9952962
188.83450,119.8264014
188.83500,132.3393722
188.83550,112.8069301
188.83600,80.45632284
188.83650,57.56674226
188.83700,52.98882615
188.83750,58.7875199
188.83800,60.61868634
188.83850,48.10571563
188.83900,20.33302452
188.83950,-12.01758269
188.84000,-30.63444156
188.84050,-23.92016459
188.84100,-0.1150007913
188.84150,22.16419097
188.84200,35.2875505
188.84250,44.74857714
188.84300,56.34596463
188.84350,63.0602416
188.84400,54.20960378
188.84450,28.26807912
188.84500,-1.946167238
188.84550,-25.14094222
188.84600,-41.01105142
188.84650,-57.79674385
188.84700,-78.24476916
188.84750,-94.42007277
188.84800,-102.9655162
188.84850,-106.0174603
188.84900,-102.049933
188.84950,-84.65385172
188.85000,-58.71232707
188.85050,-42.84221787
188.85100,-43.75780109
188.85150,-40.70585702
188.85200,-15.06952677
188.85250,17.58627486
188.85300,27.3524959
188.85350,12.70316433
188.85400,2.936943286
188.85450,16.97588604
188.85500,45.05377155
188.85550,72.82646265
188.85600,96.02123763
188.85650,110.3653748
188.85700,104.2614866
188.85750,77.40437876
188.85800,47.80052122
188.85850,29.79405116
188.85900,17.58627486
188.85950,1.716165655
188.86000,-18.12147085
188.86050,-35.51755208
188.86100,-44.97857872
188.86150,-42.53702346
188.86200,-26.36171985
188.86250,-7.744860984
188.86300,-3.166944868
188.86350,-12.01758269
188.86400,-14.15394355
188.86450,5.988887363
188.86500,42.30702188
188.86550,75.26801791
188.86600,88.08618303
188.86650,69.46932416
188.86700,24.60574623
188.86750,-19.03705407
188.86800,-34.60196886
188.86850,-26.97210867
188.86900,-27.88769189
188.86950,-48.0305228
188.87000,-62.98504878
188.87050,-52.30324451
188.87100,-29.71885834
188.87150,-19.03705407
188.87200,-19.95263729
188.87250,-19.34224848
188.87300,-14.45913795
188.87350,-10.79680506
188.87400,-4.998111315
188.87450,9.04083144
188.87500,21.85899656
188.87550,16.06030282
188.87600,-5.913694538
188.87650,-27.27730308
188.87700,-36.1279409
188.87750,-36.1279409
188.87800,-34.29677445
188.87850,-30.93963597
188.87900,-24.83574782
188.87950,-14.45913795
188.88000,-0.1150007913
188.88050,14.83952519
188.88100,22.46938538
188.88150,18.50185808
188.88200,8.430442624
188.88250,-1.946167238
188.88300,-12.62797151
188.88350,-20.56302611
188.88400,-19.64744288
188.88450,-9.270833022
188.88500,-0.1150007913
188.88550,-1.946167238
188.88600,-11.71238828
188.88650,-23.00458137
188.88700,-32.77080242
188.88750,-34.60196886
188.88800,-16.59549881
188.88850,19.11224689
188.88900,47.80052122
188.88950,45.66416036
188.89000,18.50185808
188.89050,-4.387722499
188.89100,-8.050055392
188.89150,-0.1150007913
188.89200,6.904470586
188.89250,9.956414663
188.89300,10.56680348
188.89350,9.346025847
188.89400,8.430442624
188.89450,9.651220255
188.89500,11.17719229
188.89550,10.56680348
188.89600,9.651220255
188.89650,10.87199789
188.89700,11.17719229
188.89750,5.988887363
188.89800,-3.472139276
188.89850,-12.3227771
188.89900,-15.06952677
188.89950,-9.57602743
188.90000,0.1901936164
188.90050,5.683692955
188.90100,3.547332101
188.90150,1.716165655
188.90200,5.988887363
188.90250,3.242137693
188.90300,-18.73185966
188.90350,-45.89416195
188.90400,-50.16688365
188.90450,-35.82274649
188.90500,-32.77080242
188.90550,-44.67338432
188.90600,-35.82274649
188.90650,8.125248217
188.90700,48.71610444
188.90750,46.88493799
188.90800,20.33302452
188.90850,10.56680348
188.90900,20.33302452
188.90950,23.99535742
188.91000,20.94341334
188.91050,29.48885676
188.91100,41.39143866
188.91150,24.60574623
188.91200,-20.56302611
188.91250,-53.52402214
188.91300,-47.72532839
188.91350,-21.47860933
188.91400,-3.166944868
188.91450,5.07330414
188.91500,13.61874756
188.91550,20.33302452
188.91600,21.85899656
188.91650,20.63821893
188.91700,12.70316433
188.91750,-13.23836032
188.91800,-55.35518859
188.91850,-90.14735106
188.91900,-101.7447386
188.91950,-95.6408504
188.92000,-80.99151883
188.92050,-57.49154944
188.92100,-27.88769189
188.92150,-0.420195199
188.92200,29.79405116
188.92250,75.57321232
188.92300,123.4887343
188.92350,133.8653442
188.92400,99.37837612
188.92450,64.58621364
188.92500,67.63815772
188.92550,85.33943337
188.92600,72.21607383
188.92650,31.3200232
188.92700,1.410971247
188.92750,-8.050055392
188.92800,-26.66691426
188.92850,-62.98504878
188.92900,-88.92657343
188.92950,-85.87462936
188.93000,-66.64738167
188.93050,-48.0305228
188.93100,-30.02405275
188.93150,-15.67991558
188.93200,-16.2903044
188.93250,-27.88769189
188.93300,-27.58249748
188.93350,-7.439666576
188.93400,12.70316433
188.93450,20.33302452
188.93500,27.04730149
188.93550,41.69663306
188.93600,49.63168766
188.93650,36.20313373
188.93700,12.09277552
188.93750,-2.556556053
188.93800,-0.1150007913
188.93850,20.94341334
188.93900,60.61868634
188.93950,103.9562922
188.94000,119.521207
188.94050,93.57968237
188.94100,49.02129885
188.94150,16.36549722
188.94200,-1.030584014
188.94250,-16.2903044
188.94300,-28.49808071
188.94350,-28.80327512
188.94400,-23.00458137
188.94450,-26.05652545
188.94500,-35.51755208
188.94550,-36.73832972
188.94600,-25.44613663
188.94650,-12.62797151
188.94700,-5.60850013
188.94750,-1.64097283
188.94800,-2.861750461
188.94850,-19.03705407
188.94900,-48.94610602
188.94950,-72.44607542
188.95000,-70.61490897
188.95050,-44.97857872
188.95100,-17.51108203
188.95150,-7.134472168
188.95200,-14.45913795
188.95250,-24.225359
188.95300,-19.95263729
188.95350,-0.1150007913
188.95400,21.85899656
188.95450,34.98235609
188.95500,39.56027221
188.95550,43.52779951
188.95600,44.74857714
188.95650,35.89793932
188.95700,19.4174413
188.95750,9.04083144
188.95800,11.78758111
188.95850,17.89146926
188.95900,17.28108045
188.95950,15.449914
188.96000,22.16419097
188.96050,32.23560643
188.96100,31.93041202
188.96150,18.80705249
188.96200,5.683692955
188.96250,0.8005824318
188.96300,-3.777333684
188.96350,-19.03705407
188.96400,-40.0954682
188.96450,-51.69285569
188.96500,-46.19935635
188.96550,-29.41366393
188.96600,-11.10199947
188.96650,3.242137693
188.96700,10.87199789
188.96750,11.17719229
188.96800,13.61874756
188.96850,31.01482879
188.96900,61.83946397
188.96950,82.8978781
188.97000,72.82646265
188.97050,39.86546662
188.97100,10.26160907
188.97150,-9.270833022
188.97200,-37.65391294
188.97250,-80.68632442
188.97300,-111.2057652
188.97350,-103.8810994
188.97400,-74.27724186
188.97450,-56.27077181
188.97500,-53.21882773
188.97550,-35.51755208
188.97600,8.430442624
188.97650,51.1576597
188.97700,62.14465838
188.97750,46.57974359
188.97800,29.48885676
188.97850,22.16419097
188.97900,17.58627486
188.97950,9.956414663
188.98000,0.8005824318
188.98050,-6.218888945
188.98100,-11.71238828
188.98150,-14.76433236
188.98200,-14.76433236
188.98250,-15.37472118
188.98300,-18.73185966
188.98350,-20.56302611
188.98400,-16.59549881
188.98450,-8.355249799
188.98500,-0.1150007913
188.98550,7.209664994
188.98600,10.87199789
188.98650,7.514859401
188.98700,0.8005824318
188.98750,-1.030584014
188.98800,2.32655447
188.98850,3.242137693
188.98900,-0.420195199
188.98950,5.07330414
188.99000,29.48885676
188.99050,52.68363174
188.99100,45.05377155
188.99150,5.988887363
188.99200,-30.32924715
188.99250,-36.1279409
188.99300,-19.95263729
188.99350,-6.524083353
188.99400,-3.777333684
188.99450,-1.946167238
188.99500,0.4953880241
188.99550,-6.524083353
188.99600,-24.53055341
188.99650,-37.04352412
188.99700,-33.07599682
188.99750,-22.08899815
188.99800,-18.42666525
188.99850,-21.78380374
188.99900,-20.2578317
188.99950,-9.57602743
189.00000,3.547332101
189.00050,10.87199789
189.00100,10.26160907
189.00150,5.07330414
189.00200,-0.420195199
189.00250,-3.472139276
189.00300,-4.692916907
189.00350,-6.524083353
189.00400,-9.57602743
189.00450,-8.660444207
189.00500,2.936943286
189.00550,23.3849686
189.00600,39.86546662
189.00650,42.30702188
189.00700,34.67716169
189.00750,30.09924557
189.00800,31.3200232
189.00850,26.13171827
189.00900,6.904470586
189.00950,-15.06952677
189.01000,-25.14094222
189.01050,-22.69938696
189.01100,-18.12147085
189.01150,-14.76433236
189.01200,-13.54355473
189.01250,-23.30977578
189.01300,-47.42013399
189.01350,-71.53049219
189.01400,-80.38113002
189.01450,-80.07593561
189.01500,-78.54996357
189.01550,-56.57596622
189.01600,-0.420195199
189.01650,56.95635345
189.01700,70.6901018
189.01750,56.34596463
189.01800,70.38490739
189.01850,113.4173189
189.01900,117.0796518
189.01950,45.66416036
189.02000,-47.11493958
189.02050,-96.86162803
189.02100,-105.4070714
189.02150,-100.2187665
189.02200,-70.92010338
189.02250,-3.777333684
189.02300,62.7550472
189.02350,76.79398995
189.02400,47.49532681
189.02450,31.3200232
189.02500,46.27454918
189.02550,59.39790871
189.02600,48.71610444
189.02650,34.67716169
189.02700,36.81352254
189.02750,44.44338273
189.02800,40.78104984
189.02850,29.79405116
189.02900,23.99535742
189.02950,21.55380216
189.03000,12.09277552
189.03050,-3.777333684
189.03100,-15.98510999
189.03150,-15.98510999
189.03200,-9.57602743
189.03250,-10.49161065
189.03300,-23.30977578
189.03350,-36.1279409
189.03400,-34.29677445
189.03450,-18.73185966
189.03500,-2.861750461
189.03550,1.716165655
189.03600,-1.64097283
189.03650,-6.218888945
189.03700,-6.524083353
189.03750,-1.64097283
189.03800,4.768109732
189.03850,8.125248217
189.03900,9.651220255
189.03950,16.97588604
189.04000,33.15118965
189.04050,53.59921496
189.04100,72.21607383
189.04150,83.20307251
189.04200,74.9628235
189.04250,36.20313373
189.04300,-19.34224848
189.04350,-59.9331047
189.04400,-69.08893693
189.04450,-64.81621522
189.04500,-70.00452015
189.04550,-82.51749087
189.04600,-87.40060139
189.04650,-81.90710206
189.04700,-68.78374252
189.04750,-42.23182905
189.04800,-0.1150007913
189.04850,37.72910576
189.04900,47.49532681
189.04950,30.09924557
189.05000,9.346025847
189.05050,1.716165655
189.05100,4.768109732
189.05150,9.346025847
189.05200,9.956414663
189.05250,5.07330414
189.05300,-3.166944868
189.05350,-8.965638615
189.05400,-9.270833022
189.05450,-8.050055392
189.05500,-6.829277761
189.05550,-2.251361645
189.05600,6.904470586
189.05650,13.92394196
189.05700,16.36549722
189.05750,20.63821893
189.05800,28.57327353
189.05850,31.01482879
189.05900,22.16419097
189.05950,11.4823867
189.06000,6.904470586
189.06050,5.07330414
189.06100,1.410971247
189.06150,1.105776839
189.06200,8.735637032
189.06250,14.83952519
189.06300,12.09277552
189.06350,6.599276178
189.06400,6.904470586
189.06450,7.514859401
189.06500,-3.166944868
189.06550,-24.83574782
189.06600,-44.97857872
189.06650,-56.88116062
189.06700,-59.62791029
189.06750,-57.49154944
189.06800,-57.18635503
189.06850,-61.15388233
189.06900,-54.13441095
189.06950,-19.34224848
189.07000,30.40443998
189.07050,58.17713108
189.07100,49.93688207
189.07150,34.06677287
189.07200,38.64468899
189.07250,49.32649326
189.07300,41.69663306
189.07350,23.3849686
189.07400,19.72263571
189.07450,25.52132946
189.07500,13.92394196
189.07550,-13.84874914
189.07600,-25.75133104
189.07650,-3.472139276
189.07700,32.54080083
189.07750,53.59921496
189.07800,51.46285411
189.07850,35.2875505
189.07900,17.58627486
189.07950,10.26160907
189.08000,20.02783012
189.08050,38.33949458
189.08100,47.80052122
189.08150,40.17066103
189.08200,24.91094064
189.08250,12.39796992
189.08300,4.462915324
189.08350,-1.946167238
189.08400,-10.79680506
189.08450,-23.00458137
189.08500,-35.82274649
189.08550,-36.73832972
189.08600,-17.81627644
189.08650,10.87199789
189.08700,28.87846794
189.08750,28.87846794
189.08800,20.33302452
189.08850,10.26160907
189.08900,-3.777333684
189.08950,-23.61497018
189.09000,-42.53702346
189.09050,-56.27077181
189.09100,-68.78374252
189.09150,-78.85515798
189.09200,-77.32918594
189.09250,-61.76427115
189.09300,-43.75780109
189.09350,-34.29677445
189.09400,-32.46560801
189.09450,-30.93963597
189.09500,-29.71885834
189.09550,-30.32924715
189.09600,-28.80327512
189.09650,-20.56302611
189.09700,-10.49161065
189.09750,-6.218888945
189.09800,-8.355249799
189.09850,-14.45913795
189.09900,-26.97210867
189.09950,-46.19935635
189.10000,-60.84868792
189.10050,-57.49154944
189.10100,-40.40066261
189.10150,-23.00458137
189.10200,-7.439666576
189.10250,17.89146926
189.10300,56.65115904
189.10350,91.74851593
189.10400,103.3459034
189.10450,90.5277383
189.10500,67.94335213
189.10550,52.07324293
189.10600,46.88493799
189.10650,44.74857714
189.10700,34.06677287
189.10750,11.78758111
189.10800,-11.71238828
189.10850,-26.97210867
189.10900,-33.38119123
189.10950,-35.82274649
189.11000,-33.07599682
189.11050,-24.83574782
189.11100,-20.86822052
189.11150,-28.49808071
189.11200,-40.40066261
189.11250,-44.67338432
189.11300,-43.14741228
189.11350,-44.97857872
189.11400,-45.28377313
189.11450,-30.32924715
189.11500,-4.387722499
189.11550,15.449914
189.11600,26.74210709
189.11650,43.83299392
189.11700,67.63815772
189.11750,78.31996199
189.11800,62.14465838
189.11850,33.15118965
189.11900,13.92394196
189.11950,11.4823867
189.12000,18.19666367
189.12050,27.96288472
189.12100,34.98235609
189.12150,33.76157846
189.12200,26.13171827
189.12250,22.16419097
189.12300,26.43691268
189.12350,31.3200232
189.12400,30.09924557
189.12450,28.26807912
189.12500,33.76157846
189.12550,40.17066103
189.12600,35.2875505
189.12650,18.19666367
189.12700,-0.1150007913
189.12750,-12.01758269
189.12800,-23.61497018
189.12850,-41.92663465
189.12900,-58.10193825
189.12950,-55.66038299
189.13000,-30.63444156
189.13050,-3.777333684
189.13100,-0.420195199
189.13150,-22.39419255
189.13200,-46.19935635
189.13250,-52.30324451
189.13300,-45.58896754
189.13350,-43.75780109
189.13400,-50.77727247
189.13450,-53.21882773
189.13500,-40.70585702
189.13550,-17.81627644
189.13600,1.105776839
189.13650,7.820053809
189.13700,4.157720917
189.13750,-2.861750461
189.13800,-9.57602743
189.13850,-13.84874914
189.13900,-14.45913795
189.13950,-9.881221838
189.14000,0.8005824318
189.14050,16.67069163
189.14100,33.45638406
189.14150,44.44338273
189.14200,41.39143866
189.14250,26.43691268
189.14300,16.97588604
189.14350,30.09924557
189.14400,57.87193667
189.14450,69.46932416
189.14500,50.54727089
189.14550,20.94341334
189.14600,9.346025847
189.14650,17.28108045
189.14700,21.55380216
189.14750,9.956414663
189.14800,-4.692916907
189.14850,-8.355249799
189.14900,-2.861750461
189.14950,-1.335778422
189.15000,-10.18641625
189.15050,-24.83574782
189.15100,-35.21235768
189.15150,-34.90716327
189.15200,-28.80327512
189.15250,-32.46560801
189.15300,-51.9980501
189.15350,-71.8356866
189.15400,-68.17335371
189.15450,-38.56949616
189.15500,-1.946167238
189.15550,22.46938538
189.15600,34.06677287
189.15650,35.2875505
189.15700,27.04730149
189.15750,13.31355315
189.15800,5.07330414
189.15850,7.209664994
189.15900,7.820053809
189.15950,-3.166944868
189.16000,-15.98510999
189.16050,-8.355249799
189.16100,23.07977419
189.16150,57.56674226
189.16200,71.60568502
189.16250,62.14465838
189.16300,43.2226051
189.16350,29.48885676
189.16400,25.52132946
189.16450,24.30055182
189.16500,12.70316433
189.16550,-16.2903044
189.16600,-53.21882773
189.16650,-75.49801949
189.16700,-68.78374252
189.16750,-43.45260668
189.16800,-23.61497018
189.16850,-20.56302611
189.16900,-25.75133104
189.16950,-23.92016459
189.17000,-12.01758269
189.17050,1.716165655
189.17100,9.956414663
189.17150,10.56680348
189.17200,4.462915324
189.17250,-6.829277761
189.17300,-20.86822052
189.17350,-29.41366393
189.17400,-26.97210867
189.17450,-16.90069321
189.17500,-10.79680506
189.17550,-17.20588762
189.17600,-31.85521919
189.17650,-42.84221787
189.17700,-44.0629955
189.17750,-40.0954682
189.17800,-34.29677445
189.17850,-19.03705407
189.17900,12.70316433
189.17950,52.37843733
189.18000,76.79398995
189.18050,73.74204587
189.18100,52.98882615
189.18150,30.70963439
189.18200,11.17719229
189.18250,-4.998111315
189.18300,-11.40719388
189.18350,-2.861750461
189.18400,9.346025847
189.18450,10.26160907
189.18500,-0.1150007913
189.18550,-6.829277761
189.18600,-4.692916907
189.18650,-3.472139276
189.18700,-8.660444207
189.18750,-12.93316591
189.18800,-11.10199947
189.18850,-7.439666576
189.18900,-4.082528091
189.18950,4.768109732
189.19000,19.72263571
189.19050,30.09924557
189.19100,32.54080083
189.19150,39.2550778
189.19200,59.0927143
189.19250,78.6251564
189.19300,78.31996199
189.19350,52.37843733
189.19400,12.39796992
189.19450,-27.58249748
189.19500,-58.10193825
189.19550,-73.05646423
189.19600,-72.75126982
189.19650,-61.15388233
189.19700,-39.17988498
189.19750,-11.71238828
189.19800,3.852526509
189.19850,-2.861750461
189.19900,-8.355249799
189.19950,26.43691268
189.20000,99.68357053
189.20050,152.4822031
189.20100,137.2224827
189.20150,75.87840673
189.20200,27.3524959
189.20250,13.61874756
189.20300,11.78758111
189.20350,2.021360063
189.20400,-8.050055392
189.20450,-10.18641625
189.20500,-9.881221838
189.20550,-13.84874914
189.20600,-17.51108203
189.20650,-13.84874914
189.20700,-6.218888945
189.20750,-0.1150007913
189.20800,5.07330414
189.20850,9.04083144
189.20900,9.04083144
189.20950,4.462915324
189.21000,0.1901936164
189.21050,0.1901936164
189.21100,1.716165655
189.21150,-1.64097283
189.21200,-13.54355473
189.21250,-30.32924715
189.21300,-44.0629955
189.21350,-49.25130043
189.21400,-49.55649484
189.21450,-49.25130043
189.21500,-47.72532839
189.21550,-40.40066261
189.21600,-29.10846952
189.21650,-22.69938696
189.21700,-23.92016459
189.21750,-25.14094222
189.21800,-19.64744288
189.21850,-10.18641625
189.21900,-4.082528091
189.21950,-5.60850013
189.22000,-14.15394355
189.22050,-28.1928863
189.22100,-41.31624583
189.22150,-38.56949616
189.22200,-8.965638615
189.22250,39.2550778
189.22300,78.31996199
189.22350,79.84593403
189.22400,40.17066103
189.22450,-11.71238828
189.22500,-41.62144024
189.22550,-38.56949616
189.22600,-20.56302611
189.22650,-7.439666576
189.22700,-0.1150007913
189.22750,12.09277552
189.22800,28.57327353
189.22850,36.50832813
189.22900,30.70963439
189.22950,17.58627486
189.23000,0.4953880241
189.23050,-22.39419255
189.23100,-48.0305228
189.23150,-61.15388233
189.23200,-55.9655774
189.23250,-44.67338432
189.23300,-40.0954682
189.23350,-37.34871853
189.23400,-22.69938696
189.23450,5.683692955
189.23500,43.83299392
189.23550,86.560211
189.23600,124.4043176
189.23650,135.3913162
189.23700,108.5342084
189.23750,67.33296331
189.23800,44.44338273
189.23850,38.03430017
189.23900,14.22913637
189.23950,-36.1279409
189.24000,-80.07593561
189.24050,-86.17982376
189.24100,-66.03699285
189.24150,-45.58896754
189.24200,-23.92016459
189.24250,14.53433078
189.24300,60.00829753
189.24350,82.8978781
189.24400,73.43685146
189.24450,51.1576597
189.24500,32.84599524
189.24550,15.449914
189.24600,-4.692916907
189.24650,-25.14094222
189.24700,-48.0305228
189.24750,-79.46554679
189.24800,-112.7317372
189.24850,-126.77068
189.24900,-112.1213484
189.24950,-83.12787969
189.25000,-59.32271589
189.25050,-46.80974517
189.25100,-41.01105142
189.25150,-36.43313531
189.25200,-24.225359
189.25250,-0.1150007913
189.25300,24.60574623
189.25350,30.40443998
189.25400,17.58627486
189.25450,7.209664994
189.25500,13.00835874
189.25550,22.46938538
189.25600,19.4174413
189.25650,6.599276178
189.25700,0.1901936164
189.25750,5.988887363
189.25800,16.67069163
189.25850,24.60574623
189.25900,28.26807912
189.25950,26.74210709
189.26000,21.24860775
189.26050,13.92394196
189.26100,8.125248217
189.26150,6.29408177
189.26200,8.735637032
189.26250,10.56680348
189.26300,4.462915324
189.26350,-8.660444207
189.26400,-18.12147085
189.26450,-12.93316591
189.26500,3.547332101
189.26550,20.33302452
189.26600,28.26807912
189.26650,20.33302452
189.26700,-9.57602743
189.26750,-55.04999418
189.26800,-88.01099021
189.26850,-84.34865732
189.26900,-52.60843892
189.26950,-21.47860933
189.27000,-1.64097283
189.27050,18.19666367
189.27100,43.52779951
189.27150,59.0927143
189.27200,54.51479819
189.27250,39.2550778
189.27300,25.52132946
189.27350,14.22913637
189.27400,7.820053809
189.27450,12.70316433
189.27500,25.52132946
189.27550,28.57327353
189.27600,13.61874756
189.27650,-2.251361645
189.27700,-3.472139276
189.27750,2.631748878
189.27800,0.1901936164
189.27850,-11.10199947
189.27900,-21.78380374
189.27950,-30.02405275
189.28000,-36.1279409
189.28050,-26.97210867
189.28100,7.514859401
189.28150,49.93688207
189.28200,64.58621364
189.28250,40.78104984
189.28300,5.378498547
189.28350,-11.71238828
189.28400,-10.79680506
189.28450,-8.355249799
189.28500,-8.965638615
189.28550,-1.946167238
189.28600,20.02783012
189.28650,48.41091003
189.28700,63.0602416
189.28750,51.1576597
189.28800,20.63821893
189.28850,-4.692916907
189.28900,-8.050055392
189.28950,5.07330414
189.29000,15.14471959
189.29050,12.39796992
189.29100,3.242137693
189.29150,-3.166944868
189.29200,-5.913694538
189.29250,-5.303305722
189.29300,1.105776839
189.29350,12.09277552
189.29400,18.80705249
189.29450,15.14471959
189.29500,7.514859401
189.29550,5.07330414
189.29600,6.904470586
189.29650,6.29408177
189.29700,3.547332101
189.29750,3.242137693
189.29800,3.547332101
189.29850,-2.861750461
189.29900,-18.73185966
189.29950,-33.99158005
189.30000,-39.48507938
189.30050,-34.90716327
189.30100,-26.97210867
189.30150,-21.17341492
189.30200,-20.56302611
189.30250,-21.47860933
189.30300,-16.59549881
189.30350,-2.861750461
189.30400,11.17719229
189.30450,16.36549722
189.30500,10.87199789
189.30550,0.8005824318
189.30600,-11.71238828
189.30650,-23.00458137
189.30700,-18.73185966
189.30750,9.651220255
189.30800,45.35896596
189.30850,56.34596463
189.30900,36.50832813
189.30950,10.26160907
189.31000,-1.030584014
189.31050,-0.1150007913
189.31100,0.4953880241
189.31150,-1.030584014
189.31200,-3.472139276
189.31250,-6.218888945
189.31300,-5.913694538
189.31350,-0.7253896067
189.31400,-1.030584014
189.31450,-17.51108203
189.31500,-39.79027379
189.31550,-45.28377313
189.31600,-36.73832972
189.31650,-35.82274649
189.31700,-45.28377313
189.31750,-39.17988498
189.31800,-10.18641625
189.31850,11.78758111
189.31900,2.32655447
189.31950,-22.69938696
189.32000,-35.51755208
189.32050,-33.07599682
189.32100,-22.08899815
189.32150,5.988887363
189.32200,54.20960378
189.32250,91.74851593
189.32300,83.20307251
189.32350,36.50832813
189.32400,-3.166944868
189.32450,-10.79680506
189.32500,-2.251361645
189.32550,-5.303305722
189.32600,-25.14094222
189.32650,-49.55649484
189.32700,-65.73179845
189.32750,-66.64738167
189.32800,-51.38766129
189.32850,-26.36171985
189.32900,-4.387722499
189.32950,6.599276178
189.33000,13.61874756
189.33050,24.91094064
189.33100,38.94988339
189.33150,42.91741069
189.33200,29.79405116
189.33250,9.04083144
189.33300,-0.1150007913
189.33350,15.14471959
189.33400,48.71610444
189.33450,81.06671166
189.33500,93.88487678
189.33550,83.20307251
189.33600,60.92388075
189.33650,45.05377155
189.33700,38.94988339
189.33750,27.04730149
189.33800,-1.946167238
189.33850,-34.60196886
189.33900,-47.11493958
189.33950,-40.0954682
189.34000,-39.79027379
189.34050,-59.32271589
189.34100,-75.8032139
189.34150,-61.45907674
189.34200,-22.69938696
189.34250,3.242137693
189.34300,-6.524083353
189.34350,-37.95910735
189.34400,-56.27077181
189.34450,-43.45260668
189.34500,-11.40719388
189.34550,14.83952519
189.34600,22.77457979
189.34650,20.02783012
189.34700,22.16419097
189.34750,33.15118965
189.34800,43.2226051
189.34850,42.00182747
189.34900,26.74210709
189.34950,1.105776839
189.35000,-28.80327512
189.35050,-53.82921655
189.35100,-60.54349352
189.35150,-46.50455076
189.35200,-24.53055341
189.35250,-8.660444207
189.35300,-2.251361645
189.35350,0.8005824318
189.35400,4.462915324
189.35450,6.29408177
189.35500,5.988887363
189.35550,3.547332101
189.35600,-1.335778422
189.35650,-10.49161065
189.35700,-16.59549881
189.35750,-11.71238828
189.35800,0.4953880241
189.35850,9.04083144
189.35900,9.956414663
189.35950,9.651220255
189.36000,10.26160907
189.36050,2.936943286
189.36100,-14.76433236
189.36150,-28.80327512
189.36200,-23.61497018
189.36250,-4.692916907
189.36300,5.988887363
189.36350,-1.335778422
189.36400,-17.20588762
189.36450,-25.75133104
189.36500,-25.44613663
189.36550,-27.88769189
189.36600,-39.79027379
189.36650,-53.21882773
189.36700,-53.82921655
189.36750,-39.48507938
189.36800,-21.17341492
189.36850,-5.303305722
189.36900,14.22913637
189.36950,39.2550778
189.37000,53.59921496
189.37050,46.27454918
189.37100,33.76157846
189.37150,42.91741069
189.37200,67.33296331
189.37250,73.74204587
189.37300,51.1576597
189.37350,25.82652386
189.37400,20.63821893
189.37450,23.69016301
189.37500,18.19666367
189.37550,11.78758111
189.37600,18.80705249
189.37650,30.40443998
189.37700,28.57327353
189.37750,18.50185808
189.37800,18.50185808
189.37850,27.96288472
189.37900,30.70963439
189.37950,24.60574623
189.38000,21.55380216
189.38050,22.16419097
189.38100,13.61874756
189.38150,-4.998111315
189.38200,-22.39419255
189.38250,-32.1604136
189.38300,-41.31624583
189.38350,-52.60843892
189.38400,-59.01752148
189.38450,-55.35518859
189.38500,-41.62144024
189.38550,-16.90069321
189.38600,17.28108045
189.38650,45.05377155
189.38700,47.49532681
189.38750,27.96288472
189.38800,9.651220255
189.38850,3.852526509
189.38900,1.716165655
189.38950,-5.913694538
189.39000,-13.84874914
189.39050,-14.76433236
189.39100,-11.71238828
189.39150,-10.18641625
189.39200,-8.050055392
189.39250,-3.166944868
189.39300,-0.420195199
189.39350,-2.861750461
189.39400,-5.60850013
189.39450,-2.861750461
189.39500,1.410971247
189.39550,1.410971247
189.39600,-3.166944868
189.39650,-7.744860984
189.39700,-8.660444207
189.39750,-7.134472168
189.39800,-6.218888945
189.39850,-5.913694538
189.39900,-5.60850013
189.39950,-4.387722499
189.40000,-2.861750461
189.40050,-1.946167238
189.40100,-0.420195199
189.40150,3.242137693
189.40200,7.820053809
189.40250,9.04083144
189.40300,5.988887363
189.40350,2.936943286
189.40400,1.410971247
189.40450,0.4953880241
189.40500,0.8005824318
189.40550,3.547332101
189.40600,6.29408177
189.40650,3.852526509
189.40700,-2.861750461
189.40750,-8.050055392
189.40800,-7.744860984
189.40850,-4.692916907
189.40900,-1.64097283
189.40950,-1.030584014
189.41000,-8.660444207
189.41050,-28.49808071
189.41100,-54.43960536
189.41150,-71.8356866
189.41200,-73.97204746
189.41250,-63.29024319
189.41300,-40.0954682
189.41350,-1.030584014
189.41400,40.17066103
189.41450,57.56674226
189.41500,45.96935477
189.41550,34.37196728
189.41600,46.57974359
189.41650,62.44985279
189.41700,42.61221629
189.41750,-13.84874914
189.41800,-66.95257608
189.41850,-85.26424054
189.41900,-75.8032139
189.41950,-57.49154944
189.42000,-29.10846952
189.42050,16.06030282
189.42100,61.22907516
189.42150,76.18360113
189.42200,55.125187
189.42250,21.85899656
189.42300,-0.7253896067
189.42350,-11.40719388
189.42400,-16.90069321
189.42450,-19.03705407
189.42500,-15.06952677
189.42550,-6.524083353
189.42600,7.209664994
189.42650,30.40443998
189.42700,58.48232549
189.42750,71.60568502
189.42800,54.51479819
189.42850,18.50185808
189.42900,-7.439666576
189.42950,-14.45913795
189.43000,-19.34224848
189.43050,-36.43313531
189.43100,-55.9655774
189.43150,-58.71232707
189.43200,-44.36818991
189.43250,-26.97210867
189.43300,-15.37472118
189.43350,-8.355249799
189.43400,-3.777333684
189.43450,1.410971247
189.43500,16.36549722
189.43550,43.52779951
189.43600,69.46932416
189.43650,78.01476758
189.43700,67.63815772
189.43750,47.80052122
189.43800,21.85899656
189.43850,-3.472139276
189.43900,-11.71238828
189.43950,1.105776839
189.44000,5.378498547
189.44050,-29.10846952
189.44100,-79.7707412
189.44150,-89.23176784
189.44200,-43.75780109
189.44250,9.651220255
189.44300,31.93041202
189.44350,35.59274491
189.44400,46.57974359
189.44450,55.125187
189.44500,39.86546662
189.44550,12.09277552
189.44600,-0.420195199
189.44650,3.852526509
189.44700,6.29408177
189.44750,-0.420195199
189.44800,-5.60850013
189.44850,-4.692916907
189.44900,-5.303305722
189.44950,-8.965638615
189.45000,-9.881221838
189.45050,-6.524083353
189.45100,-1.946167238
189.45150,3.852526509
189.45200,11.4823867
189.45250,13.31355315
189.45300,3.547332101
189.45350,-7.744860984
189.45400,-8.965638615
189.45450,-0.1150007913
189.45500,6.29408177
189.45550,6.904470586
189.45600,6.29408177
189.45650,6.599276178
189.45700,4.157720917
189.45750,-1.030584014
189.45800,-4.998111315
189.45850,-4.692916907
189.45900,-4.387722499
189.45950,-6.218888945
189.46000,-8.355249799
189.46050,-8.050055392
189.46100,-5.60850013
189.46150,-2.861750461
189.46200,0.8005824318
189.46250,7.514859401
189.46300,15.14471959
189.46350,17.58627486
189.46400,12.70316433
189.46450,6.29408177
189.46500,6.904470586
189.46550,10.87199789
189.46600,8.125248217
189.46650,-3.472139276
189.46700,-13.84874914
189.46750,-17.51108203
189.46800,-19.95263729
189.46850,-26.05652545
189.46900,-32.46560801
189.46950,-35.82274649
189.47000,-38.56949616
189.47050,-38.26430175
189.47100,-23.61497018
189.47150,5.378498547
189.47200,27.04730149
189.47250,17.28108045
189.47300,-15.67991558
189.47350,-40.70585702
189.47400,-35.21235768
189.47450,-7.134472168
189.47500,19.72263571
189.47550,31.62521761
189.47600,28.87846794
189.47650,22.16419097
189.47700,22.16419097
189.47750,31.62521761
189.47800,42.91741069
189.47850,45.66416036
189.47900,35.59274491
189.47950,19.11224689
189.48000,6.29408177
189.48050,0.1901936164
189.48100,-4.692916907
189.48150,-15.98510999
189.48200,-30.02405275
189.48250,-37.04352412
189.48300,-33.99158005
189.48350,-27.58249748
189.48400,-24.225359
189.48450,-21.17341492
189.48500,-16.59549881
189.48550,-13.84874914
189.48600,-13.54355473
189.48650,-8.965638615
189.48700,1.410971247
189.48750,8.125248217
189.48800,1.716165655
189.48850,-11.40719388
189.48900,-20.2578317
189.48950,-26.05652545
189.49000,-36.73832972
189.49050,-47.11493958
189.49100,-43.75780109
189.49150,-28.49808071
189.49200,-14.76433236
189.49250,-7.439666576
189.49300,2.936943286
189.49350,19.11224689
189.49400,29.79405116
189.49450,28.87846794
189.49500,23.69016301
189.49550,19.11224689
189.49600,9.346025847
189.49650,-6.218888945
189.49700,-15.37472118
189.49750,-11.10199947
189.49800,-5.913694538
189.49850,-12.93316591
189.49900,-28.1928863
189.49950,-39.17988498
189.50000,-43.45260668
189.50050,-45.58896754
189.50100,-42.53702346
189.50150,-33.38119123
189.50200,-26.66691426
189.50250,-27.88769189
189.50300,-22.69938696
189.50350,4.768109732
189.50400,43.2226051
189.50450,62.7550472
189.50500,55.43038141
189.50550,47.49532681
189.50600,60.61868634
189.50650,77.70957317
189.50700,66.41738009
189.50750,26.74210709
189.50800,-5.913694538
189.50850,-6.524083353
189.50900,9.651220255
189.50950,14.53433078
189.51000,7.209664994
189.51050,14.53433078
189.51100,51.1576597
189.51150,95.10565441
189.51200,112.8069301
189.51250,91.13812711
189.51300,44.74857714
189.51350,-0.1150007913
189.51400,-22.39419255
189.51450,-12.62797151
189.51500,14.83952519
189.51550,32.54080083
189.51600,21.55380216
189.51650,-9.57602743
189.51700,-38.56949616
189.51750,-53.52402214
189.51800,-60.54349352
189.51850,-69.39413134
189.51900,-83.12787969
189.51950,-95.94604481
189.52000,-95.03046159
189.52050,-67.56296489
189.52100,-19.34224848
189.52150,22.46938538
189.52200,38.33949458
189.52250,33.45638406
189.52300,23.07977419
189.52350,7.209664994
189.52400,-17.51108203
189.52450,-32.1604136
189.52500,-8.355249799
189.52550,46.27454918
189.52600,88.69657185
189.52650,84.11865573
189.52700,44.13818833
189.52750,2.32655447
189.52800,-22.39419255
189.52850,-32.77080242
189.52900,-33.07599682
189.52950,-23.61497018
189.53000,-9.881221838
189.53050,-1.335778422
189.53100,-0.1150007913
189.53150,-1.64097283
189.53200,-1.335778422
189.53250,-0.1150007913
189.53300,-0.1150007913
189.53350,2.631748878
189.53400,8.735637032
189.53450,14.53433078
189.53500,13.00835874
189.53550,3.242137693
189.53600,-8.355249799
189.53650,-14.45913795
189.53700,-12.3227771
189.53750,-8.050055392
189.53800,-8.355249799
189.53850,-14.45913795
189.53900,-20.56302611
189.53950,-21.17341492
189.54000,-15.98510999
189.54050,-8.965638615
189.54100,-4.387722499
189.54150,-5.60850013
189.54200,-13.54355473
189.54250,-21.17341492
189.54300,-20.86822052
189.54350,-13.54355473
189.54400,-10.49161065
189.54450,-14.45913795
189.54500,-11.40719388
189.54550,10.56680348
189.54600,39.56027221
189.54650,50.54727089
189.54700,35.89793932
189.54750,14.53433078
189.54800,5.988887363
189.54850,9.651220255
189.54900,14.22913637
189.54950,14.83952519
189.55000,14.83952519
189.55050,17.58627486
189.55100,22.46938538
189.55150,26.43691268
189.55200,24.30055182
189.55250,12.70316433
189.55300,-3.472139276
189.55350,-13.84874914
189.55400,-12.93316591
189.55450,-7.134472168
189.55500,-5.303305722
189.55550,-9.270833022
189.55600,-15.06952677
189.55650,-20.86822052
189.55700,-26.36171985
189.55750,-28.1928863
189.55800,-23.92016459
189.55850,-14.76433236
189.55900,-4.998111315
189.55950,-0.1150007913
189.56000,0.8005824318
189.56050,3.242137693
189.56100,14.22913637
189.56150,27.96288472
189.56200,27.3524959
189.56250,5.378498547
189.56300,-20.2578317
189.56350,-24.83574782
189.56400,-6.829277761
189.56450,9.04083144
189.56500,5.683692955
189.56550,-7.134472168
189.56600,-12.93316591
189.56650,-13.54355473
189.56700,-21.78380374
189.56750,-36.43313531
189.56800,-38.87469057
189.56850,-18.12147085
189.56900,12.09277552
189.56950,28.26807912
189.57000,18.80705249
189.57050,-4.998111315
189.57100,-24.83574782
189.57150,-30.02405275
189.57200,-24.225359
189.57250,-19.03705407
189.57300,-19.95263729
189.57350,-19.95263729
189.57400,-10.79680506
189.57450,2.631748878
189.57500,9.04083144
189.57550,7.514859401
189.57600,10.56680348
189.57650,22.77457979
189.57700,34.37196728
189.57750,34.37196728
189.57800,28.57327353
189.57850,27.96288472
189.57900,31.3200232
189.57950,27.65769031
189.58000,15.14471959
189.58050,3.852526509
189.58100,2.021360063
189.58150,7.820053809
189.58200,14.53433078
189.58250,18.80705249
189.58300,21.55380216
189.58350,23.99535742
189.58400,25.52132946
189.58450,17.58627486
189.58500,-4.692916907
189.58550,-34.29677445
189.58600,-49.86168925
189.58650,-42.23182905
189.58700,-25.75133104
189.58750,-20.86822052
189.58800,-28.49808071
189.58850,-34.29677445
189.58900,-31.24483038
189.58950,-27.27730308
189.59000,-28.1928863
189.59050,-30.32924715
189.59100,-27.88769189
189.59150,-22.08899815
189.59200,-17.20588762
189.59250,-16.59549881
189.59300,-19.64744288
189.59350,-19.64744288
189.59400,-6.218888945
189.59450,21.24860775
189.59500,48.71610444
189.59550,58.7875199
189.59600,51.76804852
189.59650,38.94988339
189.59700,27.96288472
189.59750,15.449914
189.59800,2.631748878
189.59850,-3.166944868
189.59900,1.716165655
189.59950,15.449914
189.60000,34.98235609
189.60050,57.56674226
189.60100,74.9628235
189.60150,74.04724028
189.60200,54.81999259
189.60250,32.84599524
189.60300,19.72263571
189.60350,11.17719229
189.60400,-3.166944868
189.60450,-22.39419255
189.60500,-35.21235768
189.60550,-36.1279409
189.60600,-26.66691426
189.60650,-8.660444207
189.60700,13.92394196
189.60750,25.82652386
189.60800,11.17719229
189.60850,-21.17341492
189.60900,-41.31624583
189.60950,-28.1928863
189.61000,4.462915324
189.61050,31.93041202
189.61100,49.63168766
189.61150,68.85893535
189.61200,85.64462777
189.61250,78.6251564
189.61300,40.17066103
189.61350,-6.829277761
189.61400,-41.01105142
189.61450,-68.47854812
189.61500,-102.9655162
189.61550,-136.8420954
189.61600,-148.4394829
189.61650,-134.4005402
189.61700,-107.8486267
189.61750,-70.92010338
189.61800,-15.06952677
189.61850,48.10571563
189.61900,85.94982218
189.61950,80.15112843
189.62000,48.10571563
189.62050,17.89146926
189.62100,-0.420195199
189.62150,-7.744860984
189.62200,1.410971247
189.62250,25.52132946
189.62300,45.96935477
189.62350,45.96935477
189.62400,33.76157846
189.62450,27.3524959
189.62500,28.57327353
189.62550,26.43691268
189.62600,20.33302452
189.62650,17.28108045
189.62700,15.14471959
189.62750,3.852526509
189.62800,-13.54355473
189.62850,-22.39419255
189.62900,-16.2903044
189.62950,-7.134472168
189.63000,-7.744860984
189.63050,-17.81627644
189.63100,-30.63444156
189.63150,-41.92663465
189.63200,-48.64091162
189.63250,-47.11493958
189.63300,-39.17988498
189.63350,-33.99158005
189.63400,-31.55002478
189.63450,-19.03705407
189.63500,13.00835874
189.63550,55.43038141
189.63600,85.03423896
189.63650,87.47579422
189.63700,68.85893535
189.63750,44.13818833
189.63800,23.07977419
189.63850,8.125248217
189.63900,-1.335778422
189.63950,-5.913694538
189.64000,-5.303305722
189.64050,-1.64097283
189.64100,1.410971247
189.64150,1.410971247
189.64200,-1.64097283
189.64250,-5.303305722
189.64300,-4.692916907
189.64350,0.4953880241
189.64400,8.430442624
189.64450,14.53433078
189.64500,16.97588604
189.64550,15.449914
189.64600,11.17719229
189.64650,3.852526509
189.64700,-5.913694538
189.64750,-15.98510999
189.64800,-20.2578317
189.64850,-20.56302611
