"type","name","time_units","begin_time","frequency","count","units"
"signal","Ultium EMG-EXT.DIG. RT","s",164.98000,2000,22000,"uV"

"time","value"
164.98000,3.852526509
164.98050,3.852526509
164.98100,1.716165655
164.98150,-1.946167238
164.98200,-5.303305722
164.98250,-5.303305722
164.98300,-4.082528091
164.98350,-1.946167238
164.98400,3.852526509
164.98450,12.09277552
164.98500,13.92394196
164.98550,7.820053809
164.98600,4.157720917
164.98650,9.956414663
164.98700,12.70316433
164.98750,-1.335778422
164.98800,-27.58249748
164.98850,-44.0629955
164.98900,-40.40066261
164.98950,-26.05652545
164.99000,-15.98510999
164.99050,-12.01758269
164.99100,-5.913694538
164.99150,4.768109732
164.99200,13.31355315
164.99250,11.78758111
164.99300,5.07330414
164.99350,7.514859401
164.99400,20.94341334
164.99450,25.82652386
164.99500,3.852526509
164.99550,-35.82274649
164.99600,-62.67985437
164.99650,-60.23829911
164.99700,-43.14741228
164.99750,-31.85521919
164.99800,-23.00458137
164.99850,-0.420195199
164.99900,34.98235609
164.99950,59.0927143
165.00000,53.90440937
165.00050,30.40443998
165.00100,14.53433078
165.00150,16.06030282
165.00200,19.72263571
165.00250,7.514859401
165.00300,-19.34224848
165.00350,-44.67338432
165.00400,-56.57596622
165.00450,-58.10193825
165.00500,-55.35518859
165.00550,-47.72532839
165.00600,-31.85521919
165.00650,-6.829277761
165.00700,27.04730149
165.00750,69.46932416
165.00800,112.5017357
165.00850,135.0861218
165.00900,116.469263
165.00950,58.7875199
165.01000,-5.913694538
165.01050,-41.31624583
165.01100,-36.73832972
165.01150,-10.79680506
165.01200,15.75510841
165.01250,38.94988339
165.01300,59.70310312
165.01350,69.46932416
165.01400,60.61868634
165.01450,42.30702188
165.01500,32.54080083
165.01550,29.18366235
165.01600,10.87199789
165.01650,-26.36171985
165.01700,-55.04999418
165.01750,-50.77727247
165.01800,-23.92016459
165.01850,-4.387722499
165.01900,-1.335778422
165.01950,-0.7253896067
165.02000,7.209664994
165.02050,14.53433078
165.02100,10.56680348
165.02150,-3.472139276
165.02200,-20.56302611
165.02250,-34.90716327
165.02300,-47.11493958
165.02350,-59.62791029
165.02400,-67.8681593
165.02450,-59.9331047
165.02500,-32.46560801
165.02550,-4.082528091
165.02600,-0.7253896067
165.02650,-17.81627644
165.02700,-23.30977578
165.02750,-2.861750461
165.02800,15.449914
165.02850,5.988887363
165.02900,-14.76433236
165.02950,-12.62797151
165.03000,11.4823867
165.03050,23.99535742
165.03100,11.78758111
165.03150,-1.030584014
165.03200,3.852526509
165.03250,16.06030282
165.03300,16.97588604
165.03350,9.346025847
165.03400,6.29408177
165.03450,5.07330414
165.03500,-2.556556053
165.03550,-12.93316591
165.03600,-13.84874914
165.03650,-4.692916907
165.03700,3.242137693
165.03750,4.157720917
165.03800,2.021360063
165.03850,-0.1150007913
165.03900,-3.472139276
165.03950,-7.744860984
165.04000,-7.744860984
165.04050,-1.64097283
165.04100,5.07330414
165.04150,8.430442624
165.04200,7.209664994
165.04250,3.547332101
165.04300,-1.64097283
165.04350,-6.218888945
165.04400,-7.134472168
165.04450,-3.777333684
165.04500,1.716165655
165.04550,8.430442624
165.04600,15.449914
165.04650,18.80705249
165.04700,14.83952519
165.04750,9.651220255
165.04800,15.75510841
165.04850,35.2875505
165.04900,52.07324293
165.04950,52.68363174
165.05000,44.74857714
165.05050,42.61221629
165.05100,44.44338273
165.05150,38.03430017
165.05200,23.3849686
165.05250,9.651220255
165.05300,-4.998111315
165.05350,-30.02405275
165.05400,-56.88116062
165.05450,-62.98504878
165.05500,-48.64091162
165.05550,-42.84221787
165.05600,-61.15388233
165.05650,-82.51749087
165.05700,-81.60190765
165.05750,-64.51102082
165.05800,-51.08246688
165.05850,-39.48507938
165.05900,-22.39419255
165.05950,-10.49161065
165.06000,-18.73185966
165.06050,-29.71885834
165.06100,-10.79680506
165.06150,36.81352254
165.06200,73.74204587
165.06250,69.46932416
165.06300,32.54080083
165.06350,-8.355249799
165.06400,-36.43313531
165.06450,-46.19935635
165.06500,-38.56949616
165.06550,-23.30977578
165.06600,-13.23836032
165.06650,-11.40719388
165.06700,-12.62797151
165.06750,-14.45913795
165.06800,-12.62797151
165.06850,5.07330414
165.06900,41.39143866
165.06950,69.46932416
165.07000,60.00829753
165.07050,25.52132946
165.07100,4.157720917
165.07150,5.378498547
165.07200,2.631748878
165.07250,-10.49161065
165.07300,-7.744860984
165.07350,19.72263571
165.07400,37.11871695
165.07450,23.07977419
165.07500,9.346025847
165.07550,29.18366235
165.07600,59.70310312
165.07650,58.17713108
165.07700,28.87846794
165.07750,11.4823867
165.07800,20.02783012
165.07850,33.45638406
165.07900,39.86546662
165.07950,45.96935477
165.08000,48.71610444
165.08050,38.64468899
165.08100,22.46938538
165.08150,13.61874756
165.08200,-1.030584014
165.08250,-43.14741228
165.08300,-93.80968396
165.08350,-109.3745987
165.08400,-81.90710206
165.08450,-50.16688365
165.08500,-40.0954682
165.08550,-35.21235768
165.08600,-19.03705407
165.08650,-3.472139276
165.08700,-2.251361645
165.08750,-3.166944868
165.08800,6.29408177
165.08850,16.06030282
165.08900,13.00835874
165.08950,4.157720917
165.09000,-1.335778422
165.09050,-12.01758269
165.09100,-36.1279409
165.09150,-60.23829911
165.09200,-66.34218726
165.09250,-54.13441095
165.09300,-37.04352412
165.09350,-20.2578317
165.09400,-1.946167238
165.09450,19.11224689
165.09500,43.2226051
165.09550,67.94335213
165.09600,84.72904455
165.09650,81.98229488
165.09700,60.31349193
165.09750,33.15118965
165.09800,12.70316433
165.09850,-2.556556053
165.09900,-19.64744288
165.09950,-38.56949616
165.10000,-52.30324451
165.10050,-48.33571721
165.10100,-13.84874914
165.10150,41.08624425
165.10200,81.67710047
165.10250,79.23554521
165.10300,45.66416036
165.10350,16.97588604
165.10400,5.378498547
165.10450,-3.472139276
165.10500,-14.15394355
165.10550,-9.881221838
165.10600,9.04083144
165.10650,15.14471959
165.10700,-6.829277761
165.10750,-32.46560801
165.10800,-30.63444156
165.10850,-7.134472168
165.10900,10.87199789
165.10950,15.449914
165.11000,19.11224689
165.11050,25.82652386
165.11100,25.82652386
165.11150,15.75510841
165.11200,8.125248217
165.11250,12.70316433
165.11300,23.3849686
165.11350,25.52132946
165.11400,9.956414663
165.11450,-19.95263729
165.11500,-50.16688365
165.11550,-64.51102082
165.11600,-60.54349352
165.11650,-49.86168925
165.11700,-43.75780109
165.11750,-38.87469057
165.11800,-28.1928863
165.11850,-13.54355473
165.11900,-3.472139276
165.11950,0.4953880241
165.12000,3.852526509
165.12050,8.430442624
165.12100,12.09277552
165.12150,13.92394196
165.12200,15.14471959
165.12250,13.61874756
165.12300,4.157720917
165.12350,-9.881221838
165.12400,-18.73185966
165.12450,-16.59549881
165.12500,-8.050055392
165.12550,-0.7253896067
165.12600,0.8005824318
165.12650,-1.335778422
165.12700,-3.166944868
165.12750,0.8005824318
165.12800,11.78758111
165.12850,17.28108045
165.12900,0.4953880241
165.12950,-37.65391294
165.13000,-75.19282509
165.13050,-86.17982376
165.13100,-67.25777049
165.13150,-35.82274649
165.13200,-12.93316591
165.13250,-2.251361645
165.13300,8.735637032
165.13350,35.59274491
165.13400,73.74204587
165.13450,98.7679873
165.13500,88.69657185
165.13550,52.07324293
165.13600,20.94341334
165.13650,12.70316433
165.13700,15.14471959
165.13750,10.87199789
165.13800,1.410971247
165.13850,-0.1150007913
165.13900,5.988887363
165.13950,13.31355315
165.14000,18.80705249
165.14050,21.85899656
165.14100,16.06030282
165.14150,-3.472139276
165.14200,-29.10846952
165.14250,-48.0305228
165.14300,-58.10193825
165.14350,-61.45907674
165.14400,-52.91363332
165.14450,-30.02405275
165.14500,-8.050055392
165.14550,-2.861750461
165.14600,-5.60850013
165.14650,5.378498547
165.14700,30.70963439
165.14750,45.05377155
165.14800,38.03430017
165.14850,27.3524959
165.14900,28.26807912
165.14950,31.3200232
165.15000,21.85899656
165.15050,8.125248217
165.15100,6.29408177
165.15150,14.22913637
165.15200,12.39796992
165.15250,-5.913694538
165.15300,-27.58249748
165.15350,-35.21235768
165.15400,-28.49808071
165.15450,-18.12147085
165.15500,-13.54355473
165.15550,-17.20588762
165.15600,-25.44613663
165.15650,-31.55002478
165.15700,-29.41366393
165.15750,-19.95263729
165.15800,-10.49161065
165.15850,-6.218888945
165.15900,-7.134472168
165.15950,-8.355249799
165.16000,-3.472139276
165.16050,6.904470586
165.16100,16.67069163
165.16150,20.33302452
165.16200,18.50185808
165.16250,14.22913637
165.16300,4.768109732
165.16350,-11.71238828
165.16400,-26.36171985
165.16450,-25.14094222
165.16500,-11.10199947
165.16550,-2.556556053
165.16600,-6.524083353
165.16650,-11.10199947
165.16700,-6.524083353
165.16750,-0.420195199
165.16800,-1.335778422
165.16850,-4.387722499
165.16900,-4.692916907
165.16950,-10.79680506
165.17000,-26.36171985
165.17050,-37.34871853
165.17100,-33.68638564
165.17150,-28.49808071
165.17200,-31.85521919
165.17250,-24.225359
165.17300,15.14471959
165.17350,66.11218568
165.17400,87.78098863
165.17450,75.26801791
165.17500,59.70310312
165.17550,53.90440937
165.17600,38.94988339
165.17650,6.904470586
165.17700,-13.23836032
165.17750,0.4953880241
165.17800,31.62521761
165.17850,44.13818833
165.17900,29.48885676
165.17950,6.29408177
165.18000,-7.134472168
165.18050,-9.881221838
165.18100,-6.829277761
165.18150,-2.251361645
165.18200,-0.1150007913
165.18250,-0.7253896067
165.18300,-1.030584014
165.18350,0.1901936164
165.18400,1.410971247
165.18450,-0.1150007913
165.18500,-1.335778422
165.18550,0.4953880241
165.18600,4.157720917
165.18650,3.242137693
165.18700,-3.472139276
165.18750,-11.10199947
165.18800,-12.01758269
165.18850,-3.166944868
165.18900,9.04083144
165.18950,12.70316433
165.19000,0.1901936164
165.19050,-21.78380374
165.19100,-38.87469057
165.19150,-41.01105142
165.19200,-32.1604136
165.19250,-22.69938696
165.19300,-17.81627644
165.19350,-15.67991558
165.19400,-12.3227771
165.19450,-5.303305722
165.19500,6.599276178
165.19550,20.94341334
165.19600,28.26807912
165.19650,23.3849686
165.19700,16.36549722
165.19750,18.50185808
165.19800,25.21613505
165.19850,19.11224689
165.19900,0.4953880241
165.19950,-8.050055392
165.20000,6.599276178
165.20050,28.87846794
165.20100,32.84599524
165.20150,16.67069163
165.20200,-5.913694538
165.20250,-30.93963597
165.20300,-61.15388233
165.20350,-90.75773988
165.20400,-106.3226547
165.20450,-104.4914882
165.20500,-88.31618462
165.20550,-53.21882773
165.20600,3.852526509
165.20650,64.89140805
165.20700,100.2939593
165.20750,104.2614866
165.20800,100.2939593
165.20850,106.7030419
165.20900,112.1965412
165.20950,92.66409915
165.21000,44.13818833
165.21050,-11.71238828
165.21100,-46.19935635
165.21150,-47.42013399
165.21200,-29.41366393
165.21250,-15.98510999
165.21300,-12.93316591
165.21350,-4.998111315
165.21400,18.80705249
165.21450,43.83299392
165.21500,49.02129885
165.21550,35.89793932
165.21600,23.07977419
165.21650,13.00835874
165.21700,-8.965638615
165.21750,-44.67338432
165.21800,-67.8681593
165.21850,-57.79674385
165.21900,-26.05652545
165.21950,-1.946167238
165.22000,5.07330414
165.22050,7.820053809
165.22100,16.67069163
165.22150,28.26807912
165.22200,34.06677287
165.22250,30.40443998
165.22300,17.58627486
165.22350,-3.472139276
165.22400,-31.24483038
165.22450,-59.01752148
165.22500,-81.90710206
165.22550,-92.28371192
165.22600,-80.07593561
165.22650,-45.58896754
165.22700,-5.60850013
165.22750,16.97588604
165.22800,14.83952519
165.22850,0.4953880241
165.22900,-13.84874914
165.22950,-24.53055341
165.23000,-30.63444156
165.23050,-29.71885834
165.23100,-25.14094222
165.23150,-20.2578317
165.23200,-8.355249799
165.23250,21.55380216
165.23300,60.61868634
165.23350,80.45632284
165.23400,66.7225745
165.23450,36.50832813
165.23500,11.17719229
165.23550,-8.355249799
165.23600,-27.27730308
165.23650,-30.93963597
165.23700,-6.218888945
165.23750,28.57327353
165.23800,41.39143866
165.23850,28.26807912
165.23900,18.80705249
165.23950,27.3524959
165.24000,28.57327353
165.24050,-2.556556053
165.24100,-48.64091162
165.24150,-67.8681593
165.24200,-54.74479977
165.24250,-45.89416195
165.24300,-66.64738167
165.24350,-88.92657343
165.24400,-68.47854812
165.24450,-6.829277761
165.24500,47.1901324
165.24550,59.39790871
165.24600,42.30702188
165.24650,25.52132946
165.24700,14.22913637
165.24750,0.4953880241
165.24800,-9.57602743
165.24850,-2.861750461
165.24900,13.61874756
165.24950,20.33302452
165.25000,16.36549722
165.25050,19.4174413
165.25100,31.62521761
165.25150,36.50832813
165.25200,29.79405116
165.25250,30.70963439
165.25300,45.05377155
165.25350,50.54727089
165.25400,27.3524959
165.25450,-9.57602743
165.25500,-32.46560801
165.25550,-37.65391294
165.25600,-38.87469057
165.25650,-37.95910735
165.25700,-24.225359
165.25750,-2.861750461
165.25800,7.820053809
165.25850,2.936943286
165.25900,-1.946167238
165.25950,2.936943286
165.26000,12.39796992
165.26050,18.80705249
165.26100,25.82652386
165.26150,36.81352254
165.26200,44.74857714
165.26250,42.30702188
165.26300,34.67716169
165.26350,27.96288472
165.26400,15.14471959
165.26450,-13.54355473
165.26500,-48.64091162
165.26550,-66.95257608
165.26600,-60.84868792
165.26650,-44.0629955
165.26700,-32.46560801
165.26750,-24.53055341
165.26800,-14.45913795
165.26850,-7.439666576
165.26900,-10.79680506
165.26950,-19.64744288
165.27000,-18.73185966
165.27050,-4.692916907
165.27100,7.209664994
165.27150,3.242137693
165.27200,-15.06952677
165.27250,-33.68638564
165.27300,-39.79027379
165.27350,-33.38119123
165.27400,-21.17341492
165.27450,-8.355249799
165.27500,3.547332101
165.27550,14.22913637
165.27600,21.55380216
165.27650,25.21613505
165.27700,29.79405116
165.27750,39.86546662
165.27800,52.37843733
165.27850,55.73557582
165.27900,42.30702188
165.27950,18.19666367
165.28000,-1.030584014
165.28050,-4.082528091
165.28100,6.29408177
165.28150,15.14471959
165.28200,9.956414663
165.28250,-7.439666576
165.28300,-25.75133104
165.28350,-39.79027379
165.28400,-51.9980501
165.28450,-57.79674385
165.28500,-47.11493958
165.28550,-22.69938696
165.28600,-7.134472168
165.28650,-13.84874914
165.28700,-28.49808071
165.28750,-30.63444156
165.28800,-24.225359
165.28850,-24.53055341
165.28900,-30.32924715
165.28950,-31.85521919
165.29000,-32.46560801
165.29050,-35.82274649
165.29100,-23.30977578
165.29150,23.99535742
165.29200,83.20307251
165.29250,102.1251258
165.29300,66.7225745
165.29350,19.11224689
165.29400,0.1901936164
165.29450,7.209664994
165.29500,17.58627486
165.29550,28.57327353
165.29600,45.66416036
165.29650,57.56674226
165.29700,47.1901324
165.29750,18.50185808
165.29800,-6.524083353
165.29850,-15.67991558
165.29900,-13.84874914
165.29950,-7.134472168
165.30000,2.32655447
165.30050,14.53433078
165.30100,24.30055182
165.30150,26.13171827
165.30200,20.02783012
165.30250,11.78758111
165.30300,9.346025847
165.30350,13.92394196
165.30400,16.06030282
165.30450,8.735637032
165.30500,-4.387722499
165.30550,-16.90069321
165.30600,-26.05652545
165.30650,-33.99158005
165.30700,-38.26430175
165.30750,-36.1279409
165.30800,-31.24483038
165.30850,-28.1928863
165.30900,-26.97210867
165.30950,-24.225359
165.31000,-20.56302611
165.31050,-15.98510999
165.31100,-10.49161065
165.31150,-11.10199947
165.31200,-28.80327512
165.31250,-58.71232707
165.31300,-76.41360272
165.31350,-62.37465996
165.31400,-21.17341492
165.31450,24.30055182
165.31500,54.51479819
165.31550,60.61868634
165.31600,51.46285411
165.31650,53.59921496
165.31700,83.50826692
165.31750,115.8588741
165.31800,106.0926531
165.31850,54.20960378
165.31900,14.22913637
165.31950,23.3849686
165.32000,52.37843733
165.32050,52.07324293
165.32100,26.13171827
165.32150,14.22913637
165.32200,26.43691268
165.32250,31.3200232
165.32300,11.78758111
165.32350,-15.98510999
165.32400,-35.82274649
165.32450,-51.38766129
165.32500,-65.12140963
165.32550,-65.73179845
165.32600,-48.94610602
165.32650,-31.55002478
165.32700,-28.1928863
165.32750,-33.99158005
165.32800,-33.99158005
165.32850,-25.14094222
165.32900,-15.06952677
165.32950,-7.744860984
165.33000,-1.64097283
165.33050,4.157720917
165.33100,6.904470586
165.33150,4.462915324
165.33200,2.631748878
165.33250,11.17719229
165.33300,29.18366235
165.33350,38.33949458
165.33400,22.16419097
165.33450,-9.881221838
165.33500,-33.99158005
165.33550,-39.79027379
165.33600,-39.48507938
165.33650,-43.45260668
165.33700,-46.80974517
165.33750,-44.36818991
165.33800,-41.62144024
165.33850,-42.84221787
165.33900,-43.14741228
165.33950,-40.0954682
165.34000,-33.38119123
165.34050,-13.84874914
165.34100,26.43691268
165.34150,70.07971298
165.34200,84.11865573
165.34250,63.0602416
165.34300,38.03430017
165.34350,29.48885676
165.34400,24.30055182
165.34450,11.17719229
165.34500,4.462915324
165.34550,12.39796992
165.34600,13.61874756
165.34650,-7.134472168
165.34700,-29.41366393
165.34750,-28.49808071
165.34800,-16.90069321
165.34850,-19.03705407
165.34900,-27.58249748
165.34950,-24.225359
165.35000,-15.37472118
165.35050,-14.45913795
165.35100,-2.861750461
165.35150,41.39143866
165.35200,94.4952656
165.35250,104.8718755
165.35300,63.67063042
165.35350,15.449914
165.35400,-1.64097283
165.35450,5.683692955
165.35500,16.97588604
165.35550,23.07977419
165.35600,25.82652386
165.35650,26.43691268
165.35700,25.52132946
165.35750,21.55380216
165.35800,11.78758111
165.35850,3.547332101
165.35900,13.00835874
165.35950,32.54080083
165.36000,28.26807912
165.36050,-12.93316591
165.36100,-49.86168925
165.36150,-36.73832972
165.36200,9.346025847
165.36250,29.18366235
165.36300,-4.082528091
165.36350,-60.84868792
165.36400,-103.2707106
165.36450,-120.3615974
165.36500,-117.3096533
165.36550,-99.91357211
165.36600,-78.85515798
165.36650,-62.98504878
165.36700,-46.19935635
165.36750,-22.69938696
165.36800,-6.218888945
165.36850,-8.965638615
165.36900,-12.01758269
165.36950,16.67069163
165.37000,70.38490739
165.37050,106.3978475
165.37100,102.1251258
165.37150,78.01476758
165.37200,61.22907516
165.37250,52.37843733
165.37300,38.64468899
165.37350,17.89146926
165.37400,-1.64097283
165.37450,-15.06952677
165.37500,-21.47860933
165.37550,-20.86822052
165.37600,-19.64744288
165.37650,-23.00458137
165.37700,-25.44613663
165.37750,-19.64744288
165.37800,-10.49161065
165.37850,-8.355249799
165.37900,-11.10199947
165.37950,-7.744860984
165.38000,-1.946167238
165.38050,-8.660444207
165.38100,-25.14094222
165.38150,-29.41366393
165.38200,-13.84874914
165.38250,1.410971247
165.38300,0.1901936164
165.38350,-8.355249799
165.38400,-8.965638615
165.38450,-6.218888945
165.38500,-12.62797151
165.38550,-24.53055341
165.38600,-28.80327512
165.38650,-28.1928863
165.38700,-29.71885834
165.38750,-17.51108203
165.38800,31.3200232
165.38850,101.514737
165.38900,134.7809274
165.38950,95.41084882
165.39000,19.11224689
165.39050,-27.58249748
165.39100,-23.00458137
165.39150,-2.861750461
165.39200,-6.524083353
165.39250,-31.55002478
165.39300,-51.69285569
165.39350,-53.21882773
165.39400,-41.31624583
165.39450,-21.47860933
165.39500,6.599276178
165.39550,37.72910576
165.39600,56.34596463
165.39650,51.46285411
165.39700,29.79405116
165.39750,11.17719229
165.39800,9.651220255
165.39850,22.46938538
165.39900,36.20313373
165.39950,42.61221629
165.40000,44.13818833
165.40050,44.44338273
165.40100,39.56027221
165.40150,23.99535742
165.40200,3.852526509
165.40250,-8.355249799
165.40300,-9.270833022
165.40350,-8.660444207
165.40400,-15.37472118
165.40450,-26.36171985
165.40500,-34.29677445
165.40550,-36.1279409
165.40600,-33.99158005
165.40650,-26.36171985
165.40700,-13.54355473
165.40750,-3.166944868
165.40800,-1.946167238
165.40850,-4.082528091
165.40900,-0.1150007913
165.40950,7.820053809
165.41000,10.26160907
165.41050,8.430442624
165.41100,9.956414663
165.41150,10.56680348
165.41200,-1.946167238
165.41250,-22.39419255
165.41300,-28.49808071
165.41350,-15.67991558
165.41400,-6.829277761
165.41450,-18.12147085
165.41500,-35.21235768
165.41550,-37.95910735
165.41600,-29.41366393
165.41650,-25.14094222
165.41700,-24.225359
165.41750,-15.37472118
165.41800,1.410971247
165.41850,16.36549722
165.41900,27.04730149
165.41950,34.06677287
165.42000,31.62521761
165.42050,16.06030282
165.42100,1.410971247
165.42150,3.242137693
165.42200,13.92394196
165.42250,10.26160907
165.42300,-12.3227771
165.42350,-33.68638564
165.42400,-37.04352412
165.42450,-26.97210867
165.42500,-14.76433236
165.42550,-0.1150007913
165.42600,18.19666367
165.42650,29.48885676
165.42700,20.94341334
165.42750,-0.1150007913
165.42800,-14.15394355
165.42850,-16.59549881
165.42900,-21.17341492
165.42950,-37.65391294
165.43000,-53.21882773
165.43050,-48.94610602
165.43100,-26.66691426
165.43150,-8.050055392
165.43200,-6.829277761
165.43250,-18.42666525
165.43300,-33.38119123
165.43350,-48.64091162
165.43400,-60.54349352
165.43450,-60.23829911
165.43500,-43.75780109
165.43550,-20.2578317
165.43600,1.410971247
165.43650,20.94341334
165.43700,37.42391136
165.43750,45.05377155
165.43800,42.30702188
165.43850,36.20313373
165.43900,32.54080083
165.43950,26.13171827
165.44000,13.31355315
165.44050,1.410971247
165.44100,-2.251361645
165.44150,-0.1150007913
165.44200,4.462915324
165.44250,13.92394196
165.44300,23.07977419
165.44350,18.80705249
165.44400,1.105776839
165.44450,-4.387722499
165.44500,20.63821893
165.44550,55.43038141
165.44600,56.65115904
165.44650,13.92394196
165.44700,-36.43313531
165.44750,-57.18635503
165.44800,-44.97857872
165.44850,-24.83574782
165.44900,-13.54355473
165.44950,-5.303305722
165.45000,14.53433078
165.45050,48.10571563
165.45100,80.15112843
165.45150,88.69657185
165.45200,67.0277689
165.45250,30.09924557
165.45300,1.410971247
165.45350,-7.744860984
165.45400,-6.524083353
165.45450,-7.439666576
165.45500,-10.79680506
165.45550,-6.218888945
165.45600,8.735637032
165.45650,23.07977419
165.45700,25.21613505
165.45750,21.85899656
165.45800,27.04730149
165.45850,35.2875505
165.45900,23.07977419
165.45950,-18.42666525
165.46000,-63.29024319
165.46050,-78.54996357
165.46100,-61.76427115
165.46150,-37.95910735
165.46200,-24.225359
165.46250,-17.51108203
165.46300,-11.71238828
165.46350,-8.660444207
165.46400,-8.660444207
165.46450,-7.439666576
165.46500,-4.082528091
165.46550,-3.472139276
165.46600,-6.829277761
165.46650,-8.660444207
165.46700,-3.777333684
165.46750,6.599276178
165.46800,19.11224689
165.46850,29.48885676
165.46900,33.76157846
165.46950,31.62521761
165.47000,30.09924557
165.47050,33.45638406
165.47100,37.72910576
165.47150,38.94988339
165.47200,39.56027221
165.47250,39.86546662
165.47300,26.74210709
165.47350,-8.660444207
165.47400,-50.47207806
165.47450,-67.8681593
165.47500,-53.21882773
165.47550,-30.32924715
165.47600,-22.69938696
165.47650,-28.80327512
165.47700,-31.85521919
165.47750,-26.36171985
165.47800,-19.34224848
165.47850,-16.2903044
165.47900,-15.98510999
165.47950,-15.98510999
165.48000,-14.45913795
165.48050,-5.303305722
165.48100,18.50185808
165.48150,50.85246529
165.48200,73.43685146
165.48250,73.74204587
165.48300,55.73557582
165.48350,31.3200232
165.48400,5.378498547
165.48450,-19.34224848
165.48500,-34.29677445
165.48550,-32.77080242
165.48600,-26.36171985
165.48650,-31.55002478
165.48700,-43.14741228
165.48750,-34.29677445
165.48800,2.021360063
165.48850,38.33949458
165.48900,42.00182747
165.48950,10.56680348
165.49000,-28.1928863
165.49050,-45.89416195
165.49100,-25.75133104
165.49150,28.57327353
165.49200,83.20307251
165.49250,92.05371033
165.49300,43.2226051
165.49350,-13.84874914
165.49400,-18.73185966
165.49450,34.06677287
165.49500,93.27448797
165.49550,111.280958
165.49600,89.61215507
165.49650,57.87193667
165.49700,36.20313373
165.49750,23.69016301
165.49800,14.83952519
165.49850,7.209664994
165.49900,-1.030584014
165.49950,-8.965638615
165.50000,-9.57602743
165.50050,0.8005824318
165.50100,16.36549722
165.50150,25.82652386
165.50200,26.13171827
165.50250,22.16419097
165.50300,14.83952519
165.50350,-1.030584014
165.50400,-24.53055341
165.50450,-40.0954682
165.50500,-37.65391294
165.50550,-26.66691426
165.50600,-25.75133104
165.50650,-35.21235768
165.50700,-38.87469057
165.50750,-31.55002478
165.50800,-29.71885834
165.50850,-39.17988498
165.50900,-39.48507938
165.50950,-9.57602743
165.51000,38.64468899
165.51050,70.07971298
165.51100,63.97582483
165.51150,27.96288472
165.51200,-18.73185966
165.51250,-58.40713266
165.51300,-77.63438035
165.51350,-76.41360272
165.51400,-73.66685305
165.51450,-85.56943495
165.51500,-101.4395441
165.51550,-94.42007277
165.51600,-60.54349352
165.51650,-25.44613663
165.51700,-12.3227771
165.51750,-14.76433236
165.51800,-9.881221838
165.51850,6.904470586
165.51900,22.77457979
165.51950,24.91094064
165.52000,15.449914
165.52050,3.547332101
165.52100,-6.218888945
165.52150,-17.81627644
165.52200,-31.85521919
165.52250,-41.01105142
165.52300,-36.1279409
165.52350,-19.03705407
165.52400,-4.082528091
165.52450,-0.7253896067
165.52500,-5.913694538
165.52550,-9.57602743
165.52600,-7.439666576
165.52650,-0.7253896067
165.52700,6.904470586
165.52750,12.70316433
165.52800,13.31355315
165.52850,8.430442624
165.52900,4.768109732
165.52950,5.683692955
165.53000,7.820053809
165.53050,8.125248217
165.53100,9.651220255
165.53150,12.09277552
165.53200,9.04083144
165.53250,-3.166944868
165.53300,-17.20588762
165.53350,-23.00458137
165.53400,-23.61497018
165.53450,-25.75133104
165.53500,-28.1928863
165.53550,-27.27730308
165.53600,-28.80327512
165.53650,-38.26430175
165.53700,-45.58896754
165.53750,-37.04352412
165.53800,-17.20588762
165.53850,-2.251361645
165.53900,4.768109732
165.53950,18.50185808
165.54000,44.74857714
165.54050,67.63815772
165.54100,70.38490739
165.54150,57.87193667
165.54200,51.76804852
165.54250,67.94335213
165.54300,101.2095426
165.54350,126.5406784
165.54400,117.0796518
165.54450,72.52126824
165.54500,25.52132946
165.54550,7.820053809
165.54600,15.75510841
165.54650,16.97588604
165.54700,-4.692916907
165.54750,-32.1604136
165.54800,-44.0629955
165.54850,-41.31624583
165.54900,-34.29677445
165.54950,-25.75133104
165.55000,-14.45913795
165.55050,-5.913694538
165.55100,-3.166944868
165.55150,-1.335778422
165.55200,2.021360063
165.55250,1.716165655
165.55300,-3.166944868
165.55350,-1.335778422
165.55400,12.70316433
165.55450,23.99535742
165.55500,15.14471959
165.55550,-4.387722499
165.55600,-11.40719388
165.55650,-1.030584014
165.55700,6.599276178
165.55750,-1.335778422
165.55800,-14.76433236
165.55850,-16.2903044
165.55900,-7.744860984
165.55950,-2.251361645
165.56000,-0.7253896067
165.56050,8.430442624
165.56100,26.13171827
165.56150,31.62521761
165.56200,8.735637032
165.56250,-26.05652545
165.56300,-39.48507938
165.56350,-21.47860933
165.56400,0.4953880241
165.56450,2.631748878
165.56500,-6.524083353
165.56550,-6.524083353
165.56600,-2.251361645
165.56650,-13.84874914
165.56700,-35.82274649
165.56750,-39.79027379
165.56800,-19.34224848
165.56850,-4.082528091
165.56900,-12.93316591
165.56950,-27.27730308
165.57000,-21.17341492
165.57050,-2.861750461
165.57100,1.410971247
165.57150,-10.49161065
165.57200,-19.64744288
165.57250,-15.67991558
165.57300,-8.965638615
165.57350,-8.050055392
165.57400,-6.524083353
165.57450,-0.1150007913
165.57500,9.04083144
165.57550,18.80705249
165.57600,28.26807912
165.57650,31.01482879
165.57700,20.33302452
165.57750,3.547332101
165.57800,-6.829277761
165.57850,-13.84874914
165.57900,-30.02405275
165.57950,-51.38766129
165.58000,-57.49154944
165.58050,-39.48507938
165.58100,-13.54355473
165.58150,6.904470586
165.58200,29.79405116
165.58250,59.70310312
165.58300,78.9303508
165.58350,59.70310312
165.58400,-0.420195199
165.58450,-70.92010338
165.58500,-106.6278491
165.58550,-82.21229646
165.58600,-19.03705407
165.58650,27.04730149
165.58700,23.07977419
165.58750,-1.030584014
165.58800,12.09277552
165.58850,68.24854653
165.58900,106.7030419
165.58950,85.03423896
165.59000,37.42391136
165.59050,25.52132946
165.59100,54.81999259
165.59150,78.31996199
165.59200,69.46932416
165.59250,47.1901324
165.59300,32.23560643
165.59350,19.11224689
165.59400,1.410971247
165.59450,-9.57602743
165.59500,-6.524083353
165.59550,-3.777333684
165.59600,-17.81627644
165.59650,-37.65391294
165.59700,-41.01105142
165.59750,-22.69938696
165.59800,2.021360063
165.59850,19.4174413
165.59900,25.52132946
165.59950,20.33302452
165.60000,5.683692955
165.60050,-10.49161065
165.60100,-21.17341492
165.60150,-27.58249748
165.60200,-38.56949616
165.60250,-57.18635503
165.60300,-76.41360272
165.60350,-84.65385172
165.60400,-75.19282509
165.60450,-51.69285569
165.60500,-27.88769189
165.60550,-15.37472118
165.60600,-11.40719388
165.60650,-5.303305722
165.60700,1.410971247
165.60750,-6.218888945
165.60800,-34.90716327
165.60850,-65.12140963
165.60900,-73.66685305
165.60950,-61.15388233
165.61000,-43.75780109
165.61050,-28.80327512
165.61100,-13.23836032
165.61150,1.105776839
165.61200,8.430442624
165.61250,16.97588604
165.61300,43.83299392
165.61350,86.8654054
165.61400,116.469263
165.61450,108.2290139
165.61500,74.6576291
165.61550,49.02129885
165.61600,43.52779951
165.61650,43.83299392
165.61700,36.81352254
165.61750,26.74210709
165.61800,19.4174413
165.61850,8.735637032
165.61900,-11.71238828
165.61950,-35.51755208
165.62000,-49.55649484
165.62050,-50.47207806
165.62100,-44.0629955
165.62150,-35.51755208
165.62200,-28.1928863
165.62250,-24.83574782
165.62300,-21.17341492
165.62350,-3.166944868
165.62400,31.3200232
165.62450,60.31349193
165.62500,58.48232549
165.62550,31.01482879
165.62600,5.988887363
165.62650,-2.556556053
165.62700,-4.082528091
165.62750,-6.829277761
165.62800,-11.40719388
165.62850,-22.08899815
165.62900,-41.62144024
165.62950,-53.52402214
165.63000,-36.73832972
165.63050,-2.556556053
165.63100,9.04083144
165.63150,-14.15394355
165.63200,-34.90716327
165.63250,-13.23836032
165.63300,39.86546662
165.63350,81.37190606
165.63400,91.74851593
165.63450,86.560211
165.63500,81.98229488
165.63550,72.82646265
165.63600,49.32649326
165.63650,18.50185808
165.63700,-0.420195199
165.63750,1.105776839
165.63800,9.346025847
165.63850,1.410971247
165.63900,-25.75133104
165.63950,-48.0305228
165.64000,-44.36818991
165.64050,-24.83574782
165.64100,-15.37472118
165.64150,-17.81627644
165.64200,-13.23836032
165.64250,3.547332101
165.64300,17.89146926
165.64350,23.07977419
165.64400,29.79405116
165.64450,35.59274491
165.64500,19.11224689
165.64550,-23.00458137
165.64600,-56.88116062
165.64650,-51.08246688
165.64700,-19.64744288
165.64750,-1.946167238
165.64800,-12.3227771
165.64850,-32.1604136
165.64900,-42.23182905
165.64950,-43.75780109
165.65000,-47.11493958
165.65050,-54.74479977
165.65100,-61.15388233
165.65150,-57.49154944
165.65200,-40.0954682
165.65250,-15.37472118
165.65300,5.988887363
165.65350,20.02783012
165.65400,27.96288472
165.65450,23.3849686
165.65500,-1.335778422
165.65550,-38.56949616
165.65600,-57.79674385
165.65650,-37.65391294
165.65700,6.904470586
165.65750,41.39143866
165.65800,47.80052122
165.65850,37.42391136
165.65900,32.23560643
165.65950,38.33949458
165.66000,44.13818833
165.66050,36.20313373
165.66100,14.53433078
165.66150,-6.829277761
165.66200,-15.06952677
165.66250,-12.93316591
165.66300,-11.71238828
165.66350,-15.06952677
165.66400,-15.06952677
165.66450,-7.134472168
165.66500,0.4953880241
165.66550,-0.1150007913
165.66600,-9.270833022
165.66650,-20.86822052
165.66700,-30.63444156
165.66750,-39.48507938
165.66800,-48.64091162
165.66850,-54.74479977
165.66900,-48.94610602
165.66950,-23.92016459
165.67000,12.09277552
165.67050,35.2875505
165.67100,28.57327353
165.67150,4.768109732
165.67200,-4.082528091
165.67250,14.22913637
165.67300,42.61221629
165.67350,53.59921496
165.67400,39.86546662
165.67450,16.36549722
165.67500,-0.1150007913
165.67550,-3.166944868
165.67600,-0.420195199
165.67650,1.716165655
165.67700,3.547332101
165.67750,6.904470586
165.67800,7.209664994
165.67850,-1.64097283
165.67900,-16.90069321
165.67950,-25.14094222
165.68000,-23.00458137
165.68050,-19.34224848
165.68100,-19.34224848
165.68150,-14.76433236
165.68200,-1.946167238
165.68250,9.956414663
165.68300,17.89146926
165.68350,36.81352254
165.68400,74.9628235
165.68450,108.2290139
165.68500,104.8718755
165.68550,66.11218568
165.68600,28.26807912
165.68650,15.14471959
165.68700,18.19666367
165.68750,18.50185808
165.68800,14.22913637
165.68850,12.39796992
165.68900,9.346025847
165.68950,-5.60850013
165.69000,-33.99158005
165.69050,-55.9655774
165.69100,-50.16688365
165.69150,-19.64744288
165.69200,6.599276178
165.69250,4.157720917
165.69300,-16.90069321
165.69350,-23.61497018
165.69400,-2.861750461
165.69450,24.91094064
165.69500,37.11871695
165.69550,34.98235609
165.69600,27.65769031
165.69650,14.22913637
165.69700,-4.387722499
165.69750,-13.23836032
165.69800,-4.692916907
165.69850,-3.166944868
165.69900,-37.65391294
165.69950,-92.58890632
165.70000,-118.8356254
165.70050,-92.89410073
165.70100,-44.67338432
165.70150,-13.84874914
165.70200,-4.082528091
165.70250,5.988887363
165.70300,22.77457979
165.70350,33.15118965
165.70400,29.18366235
165.70450,17.89146926
165.70500,7.514859401
165.70550,-0.7253896067
165.70600,-5.60850013
165.70650,-1.946167238
165.70700,5.07330414
165.70750,4.157720917
165.70800,-5.60850013
165.70850,-10.79680506
165.70900,-1.64097283
165.70950,12.09277552
165.71000,17.58627486
165.71050,15.449914
165.71100,13.61874756
165.71150,10.87199789
165.71200,4.157720917
165.71250,-1.335778422
165.71300,-1.335778422
165.71350,-1.030584014
165.71400,-12.01758269
165.71450,-33.38119123
165.71500,-53.21882773
165.71550,-59.9331047
165.71600,-45.28377313
165.71650,-11.10199947
165.71700,25.21613505
165.71750,38.03430017
165.71800,22.46938538
165.71850,5.683692955
165.71900,10.26160907
165.71950,26.43691268
165.72000,30.70963439
165.72050,25.52132946
165.72100,29.79405116
165.72150,43.83299392
165.72200,48.71610444
165.72250,36.81352254
165.72300,19.11224689
165.72350,2.936943286
165.72400,-12.93316591
165.72450,-25.44613663
165.72500,-28.80327512
165.72550,-29.41366393
165.72600,-37.65391294
165.72650,-44.36818991
165.72700,-26.66691426
165.72750,14.53433078
165.72800,49.32649326
165.72850,56.34596463
165.72900,47.49532681
165.72950,43.52779951
165.73000,42.91741069
165.73050,29.79405116
165.73100,4.157720917
165.73150,-15.06952677
165.73200,-19.03705407
165.73250,-20.56302611
165.73300,-35.21235768
165.73350,-53.52402214
165.73400,-48.33571721
165.73450,-13.54355473
165.73500,20.63821893
165.73550,21.85899656
165.73600,-6.218888945
165.73650,-33.07599682
165.73700,-39.48507938
165.73750,-33.68638564
165.73800,-26.36171985
165.73850,-18.42666525
165.73900,-8.660444207
165.73950,2.021360063
165.74000,20.94341334
165.74050,54.20960378
165.74100,88.39137744
165.74150,96.93682086
165.74200,73.13165706
165.74250,39.56027221
165.74300,16.67069163
165.74350,2.32655447
165.74400,-7.134472168
165.74450,-6.829277761
165.74500,2.32655447
165.74550,3.852526509
165.74600,-10.49161065
165.74650,-25.44613663
165.74700,-26.05652545
165.74750,-26.05652545
165.74800,-45.58896754
165.74850,-77.02399153
165.74900,-95.94604481
165.74950,-96.55643362
165.75000,-92.28371192
165.75050,-84.65385172
165.75100,-61.15388233
165.75150,-25.14094222
165.75200,-2.556556053
165.75250,-4.082528091
165.75300,-2.556556053
165.75350,28.87846794
165.75400,77.09918436
165.75450,100.2939593
165.75500,85.03423896
165.75550,61.22907516
165.75600,57.87193667
165.75650,66.41738009
165.75700,55.125187
165.75750,9.956414663
165.75800,-50.47207806
165.75850,-96.55643362
165.75900,-106.0174603
165.75950,-74.27724186
165.76000,-16.2903044
165.76050,38.64468899
165.76100,67.0277689
165.76150,67.63815772
165.76200,56.95635345
165.76250,49.93688207
165.76300,49.93688207
165.76350,55.73557582
165.76400,63.97582483
165.76450,65.80699127
165.76500,52.37843733
165.76550,27.04730149
165.76600,8.125248217
165.76650,6.29408177
165.76700,10.87199789
165.76750,3.242137693
165.76800,-17.51108203
165.76850,-37.95910735
165.76900,-48.0305228
165.76950,-49.55649484
165.77000,-45.58896754
165.77050,-34.90716327
165.77100,-23.00458137
165.77150,-17.20588762
165.77200,-11.71238828
165.77250,5.988887363
165.77300,32.84599524
165.77350,42.30702188
165.77400,15.75510841
165.77450,-31.85521919
165.77500,-71.22529779
165.77550,-86.17982376
165.77600,-78.24476916
165.77650,-53.52402214
165.77700,-19.34224848
165.77750,7.209664994
165.77800,11.17719229
165.77850,-4.082528091
165.77900,-23.00458137
165.77950,-36.1279409
165.78000,-45.58896754
165.78050,-56.57596622
165.78100,-66.34218726
165.78150,-68.17335371
165.78200,-58.10193825
165.78250,-40.0954682
165.78300,-24.225359
165.78350,-14.45913795
165.78400,1.716165655
165.78450,37.72910576
165.78500,81.37190606
165.78550,100.2939593
165.78600,79.84593403
165.78650,43.2226051
165.78700,23.07977419
165.78750,21.24860775
165.78800,15.449914
165.78850,-4.998111315
165.78900,-28.1928863
165.78950,-40.0954682
165.79000,-40.40066261
165.79050,-32.46560801
165.79100,-12.01758269
165.79150,19.4174413
165.79200,42.61221629
165.79250,32.54080083
165.79300,-6.829277761
165.79350,-39.48507938
165.79400,-34.90716327
165.79450,0.8005824318
165.79500,35.59274491
165.79550,45.96935477
165.79600,32.54080083
165.79650,6.904470586
165.79700,-14.45913795
165.79750,-21.17341492
165.79800,-18.12147085
165.79850,-25.44613663
165.79900,-45.28377313
165.79950,-44.97857872
165.80000,3.852526509
165.80050,73.43685146
165.80100,106.7030419
165.80150,88.69657185
165.80200,58.17713108
165.80250,42.61221629
165.80300,24.30055182
165.80350,-12.93316591
165.80400,-46.19935635
165.80450,-48.33571721
165.80500,-31.24483038
165.80550,-23.92016459
165.80600,-27.27730308
165.80650,-22.39419255
165.80700,-8.355249799
165.80750,-1.64097283
165.80800,-5.913694538
165.80850,-8.965638615
165.80900,-6.218888945
165.80950,-5.60850013
165.81000,-9.881221838
165.81050,-10.18641625
165.81100,-2.861750461
165.81150,2.631748878
165.81200,-2.251361645
165.81250,-12.3227771
165.81300,-10.49161065
165.81350,12.09277552
165.81400,45.66416036
165.81450,65.50179686
165.81500,55.73557582
165.81550,24.30055182
165.81600,-7.439666576
165.81650,-26.36171985
165.81700,-31.85521919
165.81750,-27.58249748
165.81800,-17.20588762
165.81850,-7.439666576
165.81900,-1.030584014
165.81950,5.988887363
165.82000,17.58627486
165.82050,26.74210709
165.82100,24.30055182
165.82150,14.53433078
165.82200,10.87199789
165.82250,19.11224689
165.82300,31.93041202
165.82350,39.86546662
165.82400,37.11871695
165.82450,20.63821893
165.82500,-6.218888945
165.82550,-30.02405275
165.82600,-39.48507938
165.82650,-42.53702346
165.82700,-52.91363332
165.82750,-65.73179845
165.82800,-62.67985437
165.82850,-40.40066261
165.82900,-16.59549881
165.82950,-2.251361645
165.83000,8.735637032
165.83050,23.3849686
165.83100,34.06677287
165.83150,34.06677287
165.83200,31.3200232
165.83250,35.59274491
165.83300,42.00182747
165.83350,38.64468899
165.83400,25.21613505
165.83450,11.17719229
165.83500,2.631748878
165.83550,-3.166944868
165.83600,-9.57602743
165.83650,-14.76433236
165.83700,-14.76433236
165.83750,-8.050055392
165.83800,2.936943286
165.83850,11.17719229
165.83900,12.09277552
165.83950,13.61874756
165.84000,22.77457979
165.84050,30.09924557
165.84100,15.14471959
165.84150,-23.92016459
165.84200,-60.84868792
165.84250,-68.47854812
165.84300,-50.77727247
165.84350,-33.38119123
165.84400,-31.55002478
165.84450,-34.29677445
165.84500,-23.92016459
165.84550,1.716165655
165.84600,27.3524959
165.84650,37.11871695
165.84700,30.09924557
165.84750,20.02783012
165.84800,16.97588604
165.84850,18.50185808
165.84900,16.97588604
165.84950,10.26160907
165.85000,-3.166944868
165.85050,-26.97210867
165.85100,-53.82921655
165.85150,-56.88116062
165.85200,-17.20588762
165.85250,43.83299392
165.85300,78.01476758
165.85350,60.00829753
165.85400,12.70316433
165.85450,-23.61497018
165.85500,-32.1604136
165.85550,-19.34224848
165.85600,4.462915324
165.85650,32.23560643
165.85700,57.26154786
165.85750,75.26801791
165.85800,80.45632284
165.85850,61.53426956
165.85900,16.06030282
165.85950,-31.24483038
165.86000,-41.31624583
165.86050,-5.303305722
165.86100,38.64468899
165.86150,46.27454918
165.86200,17.28108045
165.86250,-10.79680506
165.86300,-11.40719388
165.86350,5.988887363
165.86400,15.449914
165.86450,1.105776839
165.86500,-28.80327512
165.86550,-52.60843892
165.86600,-49.25130043
165.86650,-16.90069321
165.86700,24.91094064
165.86750,50.24207648
165.86800,48.41091003
165.86850,30.40443998
165.86900,16.36549722
165.86950,14.22913637
165.87000,15.75510841
165.87050,12.09277552
165.87100,7.209664994
165.87150,7.820053809
165.87200,6.904470586
165.87250,-9.57602743
165.87300,-36.1279409
165.87350,-49.55649484
165.87400,-41.31624583
165.87450,-30.63444156
165.87500,-32.77080242
165.87550,-34.29677445
165.87600,-19.95263729
165.87650,-4.692916907
165.87700,-11.71238828
165.87750,-34.90716327
165.87800,-46.50455076
165.87850,-35.82274649
165.87900,-20.86822052
165.87950,-17.51108203
165.88000,-23.61497018
165.88050,-30.93963597
165.88100,-37.65391294
165.88150,-44.36818991
165.88200,-50.77727247
165.88250,-51.69285569
165.88300,-36.1279409
165.88350,1.105776839
165.88400,41.08624425
165.88450,50.24207648
165.88500,27.65769031
165.88550,19.72263571
165.88600,60.61868634
165.88650,117.6900406
165.88700,127.4562616
165.88750,77.40437876
165.88800,15.449914
165.88850,-16.59549881
165.88900,-26.66691426
165.88950,-36.43313531
165.89000,-47.72532839
165.89050,-51.69285569
165.89100,-47.11493958
165.89150,-34.90716327
165.89200,-12.01758269
165.89250,13.92394196
165.89300,22.77457979
165.89350,7.514859401
165.89400,-8.965638615
165.89450,-2.861750461
165.89500,23.99535742
165.89550,48.71610444
165.89600,56.65115904
165.89650,51.1576597
165.89700,41.69663306
165.89750,32.54080083
165.89800,20.63821893
165.89850,0.4953880241
165.89900,-30.93963597
165.89950,-68.17335371
165.90000,-99.30318329
165.90050,-114.8680981
165.90100,-111.2057652
165.90150,-91.36812869
165.90200,-61.15388233
165.90250,-30.63444156
165.90300,-8.050055392
165.90350,3.547332101
165.90400,8.430442624
165.90450,10.26160907
165.90500,13.31355315
165.90550,19.11224689
165.90600,23.07977419
165.90650,17.89146926
165.90700,4.768109732
165.90750,-5.913694538
165.90800,-11.10199947
165.90850,-19.03705407
165.90900,-36.1279409
165.90950,-53.52402214
165.91000,-58.40713266
165.91050,-50.77727247
165.91100,-38.56949616
165.91150,-25.44613663
165.91200,-13.23836032
165.91250,-2.861750461
165.91300,8.125248217
165.91350,27.04730149
165.91400,47.49532681
165.91450,50.85246529
165.91500,34.37196728
165.91550,21.55380216
165.91600,33.76157846
165.91650,59.0927143
165.91700,71.30049061
165.91750,61.83946397
165.91800,44.13818833
165.91850,27.96288472
165.91900,15.449914
165.91950,7.820053809
165.92000,4.462915324
165.92050,-1.335778422
165.92100,-10.49161065
165.92150,-9.270833022
165.92200,7.820053809
165.92250,24.30055182
165.92300,22.16419097
165.92350,5.07330414
165.92400,-16.2903044
165.92450,-46.19935635
165.92500,-82.82268528
165.92550,-100.8291553
165.92600,-77.63438035
165.92650,-29.71885834
165.92700,10.26160907
165.92750,37.11871695
165.92800,63.67063042
165.92850,81.67710047
165.92900,67.33296331
165.92950,25.52132946
165.93000,-3.777333684
165.93050,5.683692955
165.93100,39.2550778
165.93150,66.41738009
165.93200,74.35243469
165.93250,65.50179686
165.93300,43.2226051
165.93350,16.36549722
165.93400,-1.335778422
165.93450,-4.998111315
165.93500,-2.556556053
165.93550,-3.166944868
165.93600,-7.134472168
165.93650,-13.84874914
165.93700,-27.58249748
165.93750,-47.42013399
165.93800,-59.32271589
165.93850,-52.30324451
165.93900,-31.85521919
165.93950,-16.2903044
165.94000,-12.93316591
165.94050,-11.71238828
165.94100,0.1901936164
165.94150,22.16419097
165.94200,38.03430017
165.94250,37.11871695
165.94300,22.16419097
165.94350,5.988887363
165.94400,-4.692916907
165.94450,-11.40719388
165.94500,-15.37472118
165.94550,-14.15394355
165.94600,-5.913694538
165.94650,3.547332101
165.94700,6.904470586
165.94750,3.547332101
165.94800,-0.1150007913
165.94850,-1.030584014
165.94900,-3.472139276
165.94950,-10.18641625
165.95000,-15.37472118
165.95050,-13.84874914
165.95100,-12.01758269
165.95150,-16.90069321
165.95200,-20.86822052
165.95250,-9.881221838
165.95300,10.56680348
165.95350,21.24860775
165.95400,21.85899656
165.95450,33.76157846
165.95500,61.83946397
165.95550,76.79398995
165.95600,55.125187
165.95650,13.00835874
165.95700,-16.59549881
165.95750,-27.27730308
165.95800,-32.1604136
165.95850,-33.38119123
165.95900,-26.97210867
165.95950,-25.44613663
165.96000,-44.36818991
165.96050,-70.00452015
165.96100,-74.58243627
165.96150,-60.54349352
165.96200,-59.9331047
165.96250,-85.56943495
165.96300,-112.1213484
165.96350,-109.6797932
165.96400,-79.46554679
165.96450,-43.14741228
165.96500,-16.2903044
165.96550,-1.946167238
165.96600,3.852526509
165.96650,9.346025847
165.96700,18.19666367
165.96750,27.3524959
165.96800,33.45638406
165.96850,48.41091003
165.96900,87.78098863
165.96950,144.2419541
165.97000,182.391255
165.97050,172.3198396
165.97100,120.7419847
165.97150,64.89140805
165.97200,33.76157846
165.97250,25.21613505
165.97300,19.11224689
165.97350,5.378498547
165.97400,-8.660444207
165.97450,-18.12147085
165.97500,-29.10846952
165.97550,-47.42013399
165.97600,-65.12140963
165.97650,-70.61490897
165.97700,-64.20582641
165.97750,-54.13441095
165.97800,-39.79027379
165.97850,-19.34224848
165.97900,-1.335778422
165.97950,6.904470586
165.98000,22.16419097
165.98050,64.58621364
165.98100,119.2160126
165.98150,139.3588435
165.98200,103.040709
165.98250,42.91741069
165.98300,3.852526509
165.98350,-7.134472168
165.98400,-12.01758269
165.98450,-18.12147085
165.98500,-13.23836032
165.98550,3.547332101
165.98600,15.14471959
165.98650,10.56680348
165.98700,1.105776839
165.98750,-1.030584014
165.98800,1.410971247
165.98850,2.32655447
165.98900,2.631748878
165.98950,6.29408177
165.99000,9.04083144
165.99050,3.547332101
165.99100,-8.355249799
165.99150,-19.95263729
165.99200,-26.36171985
165.99250,-29.41366393
165.99300,-33.38119123
165.99350,-41.62144024
165.99400,-52.91363332
165.99450,-65.42660404
165.99500,-77.02399153
165.99550,-87.09540699
165.99600,-90.75773988
165.99650,-76.71879712
165.99700,-39.48507938
165.99750,5.07330414
165.99800,32.23560643
165.99850,35.2875505
165.99900,32.84599524
165.99950,39.86546662
166.00000,44.13818833
166.00050,28.87846794
166.00100,0.1901936164
166.00150,-18.42666525
166.00200,-19.34224848
166.00250,-15.06952677
166.00300,-16.2903044
166.00350,-17.81627644
166.00400,-15.06952677
166.00450,-11.10199947
166.00500,-8.355249799
166.00550,-1.030584014
166.00600,11.17719229
166.00650,17.89146926
166.00700,13.00835874
166.00750,5.683692955
166.00800,5.988887363
166.00850,9.651220255
166.00900,9.04083144
166.00950,6.29408177
166.01000,4.768109732
166.01050,-3.777333684
166.01100,-26.36171985
166.01150,-49.25130043
166.01200,-51.08246688
166.01250,-30.93963597
166.01300,-7.439666576
166.01350,4.157720917
166.01400,4.768109732
166.01450,-0.7253896067
166.01500,-4.082528091
166.01550,7.820053809
166.01600,37.42391136
166.01650,60.00829753
166.01700,47.49532681
166.01750,9.346025847
166.01800,-16.90069321
166.01850,-15.37472118
166.01900,-3.777333684
166.01950,3.852526509
166.02000,18.50185808
166.02050,43.83299392
166.02100,57.87193667
166.02150,46.27454918
166.02200,27.65769031
166.02250,24.30055182
166.02300,23.07977419
166.02350,0.4953880241
166.02400,-34.90716327
166.02450,-52.60843892
166.02500,-40.40066261
166.02550,-17.81627644
166.02600,-2.556556053
166.02650,7.209664994
166.02700,18.80705249
166.02750,27.96288472
166.02800,25.52132946
166.02850,12.39796992
166.02900,0.1901936164
166.02950,2.021360063
166.03000,17.28108045
166.03050,30.70963439
166.03100,27.3524959
166.03150,10.87199789
166.03200,-4.692916907
166.03250,-15.98510999
166.03300,-30.63444156
166.03350,-49.86168925
166.03400,-62.06946555
166.03450,-59.62791029
166.03500,-47.72532839
166.03550,-32.46560801
166.03600,-15.67991558
166.03650,-3.166944868
166.03700,-1.946167238
166.03750,-8.355249799
166.03800,-9.57602743
166.03850,-8.050055392
166.03900,-18.42666525
166.03950,-40.40066261
166.04000,-54.43960536
166.04050,-44.97857872
166.04100,-19.03705407
166.04150,10.56680348
166.04200,35.89793932
166.04250,45.66416036
166.04300,29.79405116
166.04350,2.936943286
166.04400,-6.218888945
166.04450,5.07330414
166.04500,11.4823867
166.04550,-1.335778422
166.04600,-16.2903044
166.04650,-19.03705407
166.04700,-23.61497018
166.04750,-39.48507938
166.04800,-44.0629955
166.04850,-17.20588762
166.04900,22.16419097
166.04950,41.39143866
166.05000,35.59274491
166.05050,23.69016301
166.05100,19.4174413
166.05150,30.70963439
166.05200,69.16412976
166.05250,122.2679567
166.05300,140.8848156
166.05350,89.30696067
166.05400,4.157720917
166.05450,-40.0954682
166.05500,-22.39419255
166.05550,12.70316433
166.05600,23.99535742
166.05650,18.50185808
166.05700,17.28108045
166.05750,17.58627486
166.05800,10.87199789
166.05850,2.631748878
166.05900,-0.1150007913
166.05950,-3.472139276
166.06000,-12.62797151
166.06050,-17.81627644
166.06100,-15.37472118
166.06150,-20.86822052
166.06200,-40.40066261
166.06250,-50.47207806
166.06300,-28.80327512
166.06350,8.125248217
166.06400,22.46938538
166.06450,3.852526509
166.06500,-22.39419255
166.06550,-33.68638564
166.06600,-31.85521919
166.06650,-28.80327512
166.06700,-27.27730308
166.06750,-20.56302611
166.06800,-7.744860984
166.06850,2.021360063
166.06900,-0.420195199
166.06950,-15.06952677
166.07000,-24.83574782
166.07050,-14.76433236
166.07100,5.683692955
166.07150,10.56680348
166.07200,-8.660444207
166.07250,-33.38119123
166.07300,-46.80974517
166.07350,-51.38766129
166.07400,-45.58896754
166.07450,-10.79680506
166.07500,52.68363174
166.07550,99.68357053
166.07600,86.560211
166.07650,37.11871695
166.07700,15.14471959
166.07750,39.2550778
166.07800,63.36543601
166.07850,48.41091003
166.07900,9.346025847
166.07950,-19.34224848
166.08000,-31.24483038
166.08050,-33.68638564
166.08100,-21.17341492
166.08150,9.651220255
166.08200,37.11871695
166.08250,34.67716169
166.08300,4.462915324
166.08350,-26.05652545
166.08400,-39.48507938
166.08450,-36.1279409
166.08500,-21.78380374
166.08550,-3.472139276
166.08600,6.599276178
166.08650,2.631748878
166.08700,-0.420195199
166.08750,17.28108045
166.08800,54.20960378
166.08850,81.06671166
166.08900,74.04724028
166.08950,41.08624425
166.09000,6.904470586
166.09050,-14.15394355
166.09100,-27.27730308
166.09150,-38.87469057
166.09200,-46.80974517
166.09250,-44.97857872
166.09300,-35.82274649
166.09350,-25.75133104
166.09400,-15.37472118
166.09450,-1.946167238
166.09500,9.346025847
166.09550,9.04083144
166.09600,-3.166944868
166.09650,-16.59549881
166.09700,-21.47860933
166.09750,-17.51108203
166.09800,-8.660444207
166.09850,1.105776839
166.09900,5.378498547
166.09950,-3.777333684
166.10000,-22.08899815
166.10050,-32.1604136
166.10100,-25.44613663
166.10150,-12.93316591
166.10200,-10.18641625
166.10250,-18.12147085
166.10300,-24.225359
166.10350,-21.78380374
166.10400,-13.23836032
166.10450,-4.692916907
166.10500,1.410971247
166.10550,9.04083144
166.10600,19.11224689
166.10650,30.70963439
166.10700,38.94988339
166.10750,39.86546662
166.10800,32.23560643
166.10850,16.06030282
166.10900,-3.777333684
166.10950,-21.78380374
166.11000,-37.04352412
166.11050,-58.40713266
166.11100,-86.79021258
166.11150,-106.6278491
166.11200,-107.8486267
166.11250,-107.5434323
166.11300,-123.4135415
166.11350,-131.3485961
166.11400,-91.36812869
166.11450,-14.15394355
166.11500,43.2226051
166.11550,59.70310312
166.11600,75.87840673
166.11650,119.521207
166.11700,149.7354534
166.11750,120.7419847
166.11800,57.56674226
166.11850,22.16419097
166.11900,27.04730149
166.11950,38.33949458
166.12000,40.17066103
166.12050,49.93688207
166.12100,67.94335213
166.12150,72.52126824
166.12200,58.48232549
166.12250,42.00182747
166.12300,27.04730149
166.12350,2.32655447
166.12400,-23.61497018
166.12450,-28.49808071
166.12500,-14.15394355
166.12550,-6.524083353
166.12600,-11.10199947
166.12650,-4.692916907
166.12700,20.63821893
166.12750,40.47585543
166.12800,34.37196728
166.12850,13.61874756
166.12900,-1.030584014
166.12950,-6.524083353
166.13000,-8.355249799
166.13050,-6.829277761
166.13100,-4.387722499
166.13150,-6.524083353
166.13200,-11.40719388
166.13250,-11.71238828
166.13300,-7.134472168
166.13350,-8.965638615
166.13400,-19.34224848
166.13450,-27.27730308
166.13500,-25.14094222
166.13550,-16.59549881
166.13600,-8.050055392
166.13650,-0.7253896067
166.13700,2.32655447
166.13750,0.1901936164
166.13800,-2.556556053
166.13850,-0.1150007913
166.13900,3.242137693
166.13950,1.716165655
166.14000,-1.64097283
166.14050,1.410971247
166.14100,10.87199789
166.14150,13.61874756
166.14200,4.462915324
166.14250,-9.270833022
166.14300,-20.86822052
166.14350,-25.44613663
166.14400,-16.90069321
166.14450,4.462915324
166.14500,24.30055182
166.14550,22.16419097
166.14600,-1.030584014
166.14650,-22.69938696
166.14700,-23.92016459
166.14750,-7.134472168
166.14800,10.56680348
166.14850,16.67069163
166.14900,6.904470586
166.14950,-10.79680506
166.15000,-25.14094222
166.15050,-28.80327512
166.15100,-26.36171985
166.15150,-27.27730308
166.15200,-30.63444156
166.15250,-28.80327512
166.15300,-22.08899815
166.15350,-17.51108203
166.15400,-18.12147085
166.15450,-24.225359
166.15500,-39.17988498
166.15550,-63.29024319
166.15600,-80.07593561
166.15650,-65.42660404
166.15700,-22.39419255
166.15750,17.89146926
166.15800,33.76157846
166.15850,35.89793932
166.15900,44.74857714
166.15950,54.51479819
166.16000,49.32649326
166.16050,34.06677287
166.16100,28.57327353
166.16150,31.93041202
166.16200,22.16419097
166.16250,-8.660444207
166.16300,-42.84221787
166.16350,-61.76427115
166.16400,-65.42660404
166.16450,-58.10193825
166.16500,-41.62144024
166.16550,-24.53055341
166.16600,-19.03705407
166.16650,-15.37472118
166.16700,14.83952519
166.16750,71.60568502
166.16800,109.754986
166.16850,92.35890474
166.16900,38.64468899
166.16950,-1.335778422
166.17000,-8.660444207
166.17050,-0.420195199
166.17100,6.29408177
166.17150,12.39796992
166.17200,17.28108045
166.17250,17.58627486
166.17300,17.28108045
166.17350,25.21613505
166.17400,37.42391136
166.17450,40.47585543
166.17500,28.87846794
166.17550,10.87199789
166.17600,-3.777333684
166.17650,-11.40719388
166.17700,-5.60850013
166.17750,14.53433078
166.17800,40.78104984
166.17850,58.7875199
166.17900,61.53426956
166.17950,50.54727089
166.18000,29.48885676
166.18050,4.768109732
166.18100,-9.881221838
166.18150,-5.303305722
166.18200,13.92394196
166.18250,33.45638406
166.18300,40.17066103
166.18350,28.57327353
166.18400,0.1901936164
166.18450,-33.68638564
166.18500,-58.10193825
166.18550,-66.95257608
166.18600,-64.81621522
166.18650,-53.82921655
166.18700,-30.32924715
166.18750,2.936943286
166.18800,32.54080083
166.18850,43.2226051
166.18900,34.98235609
166.18950,19.4174413
166.19000,8.430442624
166.19050,6.599276178
166.19100,8.125248217
166.19150,-0.1150007913
166.19200,-28.49808071
166.19250,-75.19282509
166.19300,-123.7187359
166.19350,-151.491427
166.19400,-141.4200116
166.19450,-94.11487836
166.19500,-35.82274649
166.19550,-0.420195199
166.19600,2.631748878
166.19650,-3.777333684
166.19700,0.4953880241
166.19750,12.09277552
166.19800,19.4174413
166.19850,25.21613505
166.19900,31.3200232
166.19950,21.24860775
166.20000,-11.40719388
166.20050,-41.62144024
166.20100,-41.92663465
166.20150,-21.47860933
166.20200,-2.861750461
166.20250,25.21613505
166.20300,86.8654054
166.20350,153.7029807
166.20400,162.2484241
166.20450,101.2095426
166.20500,35.2875505
166.20550,19.11224689
166.20600,33.15118965
166.20650,29.48885676
166.20700,2.936943286
166.20750,-17.81627644
166.20800,-22.08899815
166.20850,-21.47860933
166.20900,-22.39419255
166.20950,-22.08899815
166.21000,-25.44613663
166.21050,-35.51755208
166.21100,-43.14741228
166.21150,-40.40066261
166.21200,-33.99158005
166.21250,-30.93963597
166.21300,-22.08899815
166.21350,-3.777333684
166.21400,4.768109732
166.21450,-7.744860984
166.21500,-18.42666525
166.21550,3.242137693
166.21600,44.74857714
166.21650,64.58621364
166.21700,48.41091003
166.21750,23.3849686
166.21800,10.87199789
166.21850,5.988887363
166.21900,2.32655447
166.21950,8.735637032
166.22000,26.13171827
166.22050,35.2875505
166.22100,23.07977419
166.22150,-0.1150007913
166.22200,-18.73185966
166.22250,-32.46560801
166.22300,-43.45260668
166.22350,-45.89416195
166.22400,-38.87469057
166.22450,-36.43313531
166.22500,-43.14741228
166.22550,-37.95910735
166.22600,-1.64097283
166.22650,47.49532681
166.22700,69.46932416
166.22750,52.68363174
166.22800,26.74210709
166.22850,19.72263571
166.22900,27.3524959
166.22950,31.93041202
166.23000,31.62521761
166.23050,34.06677287
166.23100,34.37196728
166.23150,19.4174413
166.23200,-7.134472168
166.23250,-25.75133104
166.23300,-23.00458137
166.23350,-6.218888945
166.23400,10.56680348
166.23450,23.3849686
166.23500,29.79405116
166.23550,21.55380216
166.23600,-6.218888945
166.23650,-42.23182905
166.23700,-63.59543759
166.23750,-57.79674385
166.23800,-33.38119123
166.23850,-9.270833022
166.23900,-0.1150007913
166.23950,-4.387722499
166.24000,-10.79680506
166.24050,-6.524083353
166.24100,8.125248217
166.24150,18.19666367
166.24200,7.820053809
166.24250,-17.81627644
166.24300,-36.1279409
166.24350,-32.46560801
166.24400,-15.98510999
166.24450,-3.777333684
166.24500,2.32655447
166.24550,13.00835874
166.24600,24.60574623
166.24650,21.55380216
166.24700,1.716165655
166.24750,-13.84874914
166.24800,-11.10199947
166.24850,-2.861750461
166.24900,-11.10199947
166.24950,-37.04352412
166.25000,-62.37465996
166.25050,-73.05646423
166.25100,-66.64738167
166.25150,-47.42013399
166.25200,-22.69938696
166.25250,-4.998111315
166.25300,-1.030584014
166.25350,-3.777333684
166.25400,-1.946167238
166.25450,4.768109732
166.25500,11.78758111
166.25550,18.19666367
166.25600,25.52132946
166.25650,26.43691268
166.25700,12.70316433
166.25750,-14.45913795
166.25800,-45.58896754
166.25850,-68.78374252
166.25900,-74.27724186
166.25950,-62.67985437
166.26000,-49.86168925
166.26050,-51.08246688
166.26100,-58.71232707
166.26150,-51.69285569
166.26200,-30.63444156
166.26250,-16.59549881
166.26300,-10.49161065
166.26350,15.75510841
166.26400,71.91087943
166.26450,118.9108182
166.26500,119.2160126
166.26550,89.61215507
166.26600,73.74204587
166.26650,80.15112843
166.26700,79.23554521
166.26750,52.68363174
166.26800,16.97588604
166.26850,-6.524083353
166.26900,-14.15394355
166.26950,-13.84874914
166.27000,-10.49161065
166.27050,-3.777333684
166.27100,11.17719229
166.27150,35.89793932
166.27200,58.48232549
166.27250,63.36543601
166.27300,52.68363174
166.27350,43.2226051
166.27400,39.86546662
166.27450,26.43691268
166.27500,-5.303305722
166.27550,-40.40066261
166.27600,-63.59543759
166.27650,-79.16035239
166.27700,-93.80968396
166.27750,-99.91357211
166.27800,-88.01099021
166.27850,-68.78374252
166.27900,-56.88116062
166.27950,-51.38766129
166.28000,-40.40066261
166.28050,-25.14094222
166.28100,-14.15394355
166.28150,-7.134472168
166.28200,4.768109732
166.28250,27.65769031
166.28300,55.73557582
166.28350,79.84593403
166.28400,91.74851593
166.28450,88.08618303
166.28500,69.77451857
166.28550,43.52779951
166.28600,20.94341334
166.28650,16.97588604
166.28700,35.59274491
166.28750,52.37843733
166.28800,32.54080083
166.28850,-25.44613663
166.28900,-76.10840831
166.28950,-77.93957476
166.29000,-43.14741228
166.29050,-12.93316591
166.29100,-3.777333684
166.29150,-2.251361645
166.29200,-0.1150007913
166.29250,-2.556556053
166.29300,-8.660444207
166.29350,-7.744860984
166.29400,-1.335778422
166.29450,-0.420195199
166.29500,-7.439666576
166.29550,-18.12147085
166.29600,-31.85521919
166.29650,-41.62144024
166.29700,-26.36171985
166.29750,24.30055182
166.29800,82.8978781
166.29850,104.8718755
166.29900,78.9303508
166.29950,31.62521761
166.30000,-6.524083353
166.30050,-19.64744288
166.30100,-2.556556053
166.30150,33.76157846
166.30200,60.92388075
166.30250,56.04077023
166.30300,31.62521761
166.30350,17.28108045
166.30400,20.02783012
166.30450,21.24860775
166.30500,13.61874756
166.30550,6.599276178
166.30600,3.547332101
166.30650,-5.60850013
166.30700,-21.78380374
166.30750,-31.55002478
166.30800,-31.85521919
166.30850,-36.43313531
166.30900,-51.08246688
166.30950,-60.84868792
166.31000,-54.13441095
166.31050,-40.0954682
166.31100,-29.41366393
166.31150,-17.20588762
166.31200,6.599276178
166.31250,34.06677287
166.31300,43.52779951
166.31350,30.70963439
166.31400,11.17719229
166.31450,-1.946167238
166.31500,-14.15394355
166.31550,-28.49808071
166.31600,-33.99158005
166.31650,-21.17341492
166.31700,-3.777333684
166.31750,-1.64097283
166.31800,-9.881221838
166.31850,-4.387722499
166.31900,18.80705249
166.31950,38.03430017
166.32000,35.89793932
166.32050,21.24860775
166.32100,9.04083144
166.32150,1.716165655
166.32200,-1.64097283
166.32250,2.631748878
166.32300,15.449914
166.32350,26.13171827
166.32400,26.43691268
166.32450,18.19666367
166.32500,5.07330414
166.32550,-10.49161065
166.32600,-22.69938696
166.32650,-28.1928863
166.32700,-35.82274649
166.32750,-51.9980501
166.32800,-58.71232707
166.32850,-35.21235768
166.32900,3.242137693
166.32950,18.19666367
166.33000,2.631748878
166.33050,-10.49161065
166.33100,-4.387722499
166.33150,-0.1150007913
166.33200,-9.57602743
166.33250,-8.965638615
166.33300,21.24860775
166.33350,56.95635345
166.33400,64.89140805
166.33450,49.32649326
166.33500,31.3200232
166.33550,10.26160907
166.33600,-22.08899815
166.33650,-53.21882773
166.33700,-61.15388233
166.33750,-53.21882773
166.33800,-55.04999418
166.33850,-70.30971456
166.33900,-77.32918594
166.33950,-62.98504878
166.34000,-34.90716327
166.34050,-4.692916907
166.34100,20.63821893
166.34150,29.79405116
166.34200,14.83952519
166.34250,-10.79680506
166.34300,-20.56302611
166.34350,-5.60850013
166.34400,11.4823867
166.34450,5.378498547
166.34500,-22.69938696
166.34550,-46.50455076
166.34600,-39.17988498
166.34650,-0.1150007913
166.34700,47.49532681
166.34750,74.6576291
166.34800,74.04724028
166.34850,62.14465838
166.34900,59.70310312
166.34950,67.63815772
166.35000,71.60568502
166.35050,63.0602416
166.35100,50.24207648
166.35150,42.30702188
166.35200,32.54080083
166.35250,9.04083144
166.35300,-22.39419255
166.35350,-44.36818991
166.35400,-51.9980501
166.35450,-60.54349352
166.35500,-78.85515798
166.35550,-90.75773988
166.35600,-76.41360272
166.35650,-43.14741228
166.35700,-15.98510999
166.35750,-4.998111315
166.35800,2.936943286
166.35850,18.50185808
166.35900,31.62521761
166.35950,28.57327353
166.36000,15.14471959
166.36050,9.346025847
166.36100,17.58627486
166.36150,25.52132946
166.36200,16.36549722
166.36250,-10.79680506
166.36300,-40.70585702
166.36350,-57.79674385
166.36400,-57.79674385
166.36450,-46.80974517
166.36500,-32.77080242
166.36550,-24.225359
166.36600,-24.53055341
166.36650,-23.30977578
166.36700,-1.335778422
166.36750,43.2226051
166.36800,80.76151725
166.36850,77.70957317
166.36900,39.56027221
166.36950,7.209664994
166.37000,9.346025847
166.37050,33.15118965
166.37100,47.49532681
166.37150,45.35896596
166.37200,41.69663306
166.37250,45.35896596
166.37300,47.80052122
166.37350,38.64468899
166.37400,20.33302452
166.37450,-0.1150007913
166.37500,-18.42666525
166.37550,-29.71885834
166.37600,-28.49808071
166.37650,-20.86822052
166.37700,-23.30977578
166.37750,-37.04352412
166.37800,-41.01105142
166.37850,-20.56302611
166.37900,9.651220255
166.37950,27.3524959
166.38000,33.15118965
166.38050,40.78104984
166.38100,44.44338273
166.38150,31.62521761
166.38200,14.83952519
166.38250,16.36549722
166.38300,24.91094064
166.38350,4.768109732
166.38400,-44.36818991
166.38450,-80.99151883
166.38500,-78.24476916
166.38550,-59.01752148
166.38600,-50.77727247
166.38650,-45.58896754
166.38700,-27.88769189
166.38750,-7.439666576
166.38800,0.1901936164
166.38850,5.988887363
166.38900,24.60574623
166.38950,44.13818833
166.39000,40.78104984
166.39050,13.00835874
166.39100,-16.90069321
166.39150,-27.58249748
166.39200,-11.10199947
166.39250,17.58627486
166.39300,25.82652386
166.39350,-5.303305722
166.39400,-44.36818991
166.39450,-36.1279409
166.39500,22.16419097
166.39550,70.9952962
166.39600,63.97582483
166.39650,25.52132946
166.39700,3.242137693
166.39750,3.852526509
166.39800,2.631748878
166.39850,-2.251361645
166.39900,4.768109732
166.39950,23.69016301
166.40000,32.23560643
166.40050,20.33302452
166.40100,0.1901936164
166.40150,-14.45913795
166.40200,-22.39419255
166.40250,-26.05652545
166.40300,-26.97210867
166.40350,-26.05652545
166.40400,-23.00458137
166.40450,-16.59549881
166.40500,-9.881221838
166.40550,-8.660444207
166.40600,-8.660444207
166.40650,-1.64097283
166.40700,10.56680348
166.40750,13.31355315
166.40800,-1.030584014
166.40850,-24.83574782
166.40900,-40.70585702
166.40950,-36.1279409
166.41000,-4.692916907
166.41050,45.66416036
166.41100,86.560211
166.41150,88.39137744
166.41200,52.98882615
166.41250,9.956414663
166.41300,-17.51108203
166.41350,-30.32924715
166.41400,-32.77080242
166.41450,-23.61497018
166.41500,-10.18641625
166.41550,-9.881221838
166.41600,-25.75133104
166.41650,-38.26430175
166.41700,-30.32924715
166.41750,-11.10199947
166.41800,-0.1150007913
166.41850,-1.946167238
166.41900,-11.10199947
166.41950,-23.61497018
166.42000,-37.04352412
166.42050,-44.67338432
166.42100,-43.45260668
166.42150,-37.95910735
166.42200,-33.99158005
166.42250,-29.10846952
166.42300,-20.56302611
166.42350,-11.40719388
166.42400,-4.387722499
166.42450,3.547332101
166.42500,13.31355315
166.42550,18.80705249
166.42600,16.06030282
166.42650,11.17719229
166.42700,10.26160907
166.42750,9.651220255
166.42800,4.157720917
166.42850,-2.556556053
166.42900,-4.387722499
166.42950,-4.998111315
166.43000,-9.270833022
166.43050,-11.40719388
166.43100,-0.1150007913
166.43150,20.33302452
166.43200,34.37196728
166.43250,31.93041202
166.43300,20.63821893
166.43350,11.78758111
166.43400,9.346025847
166.43450,13.00835874
166.43500,26.43691268
166.43550,46.27454918
166.43600,54.51479819
166.43650,37.42391136
166.43700,10.26160907
166.43750,4.462915324
166.43800,25.82652386
166.43850,39.86546662
166.43900,16.67069163
166.43950,-24.225359
166.44000,-38.56949616
166.44050,-12.93316591
166.44100,16.67069163
166.44150,20.33302452
166.44200,7.209664994
166.44250,1.410971247
166.44300,-0.1150007913
166.44350,-17.51108203
166.44400,-48.33571721
166.44450,-66.03699285
166.44500,-54.74479977
166.44550,-27.58249748
166.44600,-3.166944868
166.44650,15.449914
166.44700,32.84599524
166.44750,45.96935477
166.44800,48.71610444
166.44850,42.00182747
166.44900,30.70963439
166.44950,14.83952519
166.45000,-7.134472168
166.45050,-35.51755208
166.45100,-63.59543759
166.45150,-80.99151883
166.45200,-76.71879712
166.45250,-47.42013399
166.45300,-6.524083353
166.45350,26.13171827
166.45400,41.08624425
166.45450,43.52779951
166.45500,39.56027221
166.45550,28.87846794
166.45600,12.09277552
166.45650,-1.64097283
166.45700,-5.303305722
166.45750,-4.387722499
166.45800,-13.54355473
166.45850,-36.73832972
166.45900,-59.62791029
166.45950,-62.37465996
166.46000,-42.84221787
166.46050,-17.81627644
166.46100,-3.166944868
166.46150,5.07330414
166.46200,17.58627486
166.46250,31.3200232
166.46300,31.01482879
166.46350,13.61874756
166.46400,-8.965638615
166.46450,-27.58249748
166.46500,-42.23182905
166.46550,-49.25130043
166.46600,-38.56949616
166.46650,-13.54355473
166.46700,5.988887363
166.46750,15.449914
166.46800,34.98235609
166.46850,78.01476758
166.46900,120.4367903
166.46950,128.6770393
166.47000,102.7355146
166.47050,68.55374094
166.47100,42.00182747
166.47150,20.63821893
166.47200,2.32655447
166.47250,-13.84874914
166.47300,-35.21235768
166.47350,-59.9331047
166.47400,-68.78374252
166.47450,-51.08246688
166.47500,-28.1928863
166.47550,-23.00458137
166.47600,-16.90069321
166.47650,26.43691268
166.47700,97.54720967
166.47750,142.715982
166.47800,132.0341777
166.47850,90.8329327
166.47900,55.43038141
166.47950,32.23560643
166.48000,14.83952519
166.48050,7.209664994
166.48100,8.735637032
166.48150,4.768109732
166.48200,-12.3227771
166.48250,-25.75133104
166.48300,-16.90069321
166.48350,0.1901936164
166.48400,-2.861750461
166.48450,-33.68638564
166.48500,-66.64738167
166.48550,-75.8032139
166.48600,-63.59543759
166.48650,-51.9980501
166.48700,-51.9980501
166.48750,-55.04999418
166.48800,-52.60843892
166.48850,-53.52402214
166.48900,-65.12140963
166.48950,-67.25777049
166.49000,-31.24483038
166.49050,30.40443998
166.49100,66.41738009
166.49150,50.85246529
166.49200,18.19666367
166.49250,8.125248217
166.49300,7.514859401
166.49350,-20.56302611
166.49400,-68.47854812
166.49450,-88.01099021
166.49500,-60.54349352
166.49550,-19.34224848
166.49600,-0.1150007913
166.49650,-1.64097283
166.49700,-4.998111315
166.49750,3.242137693
166.49800,28.26807912
166.49850,65.50179686
166.49900,91.44332152
166.49950,77.09918436
166.50000,20.02783012
166.50050,-46.80974517
166.50100,-87.7057958
166.50150,-89.53696225
166.50200,-57.49154944
166.50250,-1.64097283
166.50300,60.61868634
166.50350,108.8394028
166.50400,126.5406784
166.50450,108.2290139
166.50500,61.22907516
166.50550,6.29408177
166.50600,-26.05652545
166.50650,-22.69938696
166.50700,-0.1150007913
166.50750,12.39796992
166.50800,8.430442624
166.50850,1.716165655
166.50900,-0.1150007913
166.50950,-4.692916907
166.51000,-14.45913795
166.51050,-18.42666525
166.51100,-11.40719388
166.51150,-5.913694538
166.51200,-14.15394355
166.51250,-30.32924715
166.51300,-36.1279409
166.51350,-24.83574782
166.51400,-7.744860984
166.51450,-0.1150007913
166.51500,-4.082528091
166.51550,-11.10199947
166.51600,-12.93316591
166.51650,-12.62797151
166.51700,-16.2903044
166.51750,-23.30977578
166.51800,-30.63444156
166.51850,-39.48507938
166.51900,-50.77727247
166.51950,-51.38766129
166.52000,-28.80327512
166.52050,6.599276178
166.52100,27.96288472
166.52150,26.13171827
166.52200,19.4174413
166.52250,23.3849686
166.52300,31.01482879
166.52350,32.23560643
166.52400,31.93041202
166.52450,37.11871695
166.52500,41.39143866
166.52550,37.72910576
166.52600,28.87846794
166.52650,16.97588604
166.52700,-6.829277761
166.52750,-41.31624583
166.52800,-63.29024319
166.52850,-55.66038299
166.52900,-35.21235768
166.52950,-29.10846952
166.53000,-37.04352412
166.53050,-34.60196886
166.53100,-10.49161065
166.53150,17.58627486
166.53200,31.3200232
166.53250,29.79405116
166.53300,22.77457979
166.53350,16.97588604
166.53400,12.09277552
166.53450,4.462915324
166.53500,-9.270833022
166.53550,-30.93963597
166.53600,-57.49154944
166.53650,-84.34865732
166.53700,-98.69279448
166.53750,-84.65385172
166.53800,-38.26430175
166.53850,14.83952519
166.53900,37.72910576
166.53950,23.99535742
166.54000,3.852526509
166.54050,6.29408177
166.54100,22.77457979
166.54150,27.3524959
166.54200,15.14471959
166.54250,4.462915324
166.54300,7.209664994
166.54350,15.449914
166.54400,17.89146926
166.54450,13.31355315
166.54500,6.29408177
166.54550,-1.946167238
166.54600,-14.76433236
166.54650,-29.41366393
166.54700,-36.1279409
166.54750,-26.05652545
166.54800,-2.861750461
166.54850,16.36549722
166.54900,16.97588604
166.54950,1.105776839
166.55000,-12.93316591
166.55050,-15.37472118
166.55100,-9.881221838
166.55150,-4.082528091
166.55200,4.462915324
166.55250,21.24860775
166.55300,40.47585543
166.55350,50.24207648
166.55400,50.85246529
166.55450,54.81999259
166.55500,67.94335213
166.55550,74.04724028
166.55600,52.68363174
166.55650,8.430442624
166.55700,-31.55002478
166.55750,-43.45260668
166.55800,-30.02405275
166.55850,-11.71238828
166.55900,-2.861750461
166.55950,-0.1150007913
166.56000,4.768109732
166.56050,14.22913637
166.56100,18.19666367
166.56150,10.26160907
166.56200,-3.777333684
166.56250,-11.40719388
166.56300,-8.050055392
166.56350,-4.998111315
166.56400,-14.45913795
166.56450,-34.29677445
166.56500,-49.25130043
166.56550,-47.72532839
166.56600,-31.55002478
166.56650,-15.06952677
166.56700,-10.18641625
166.56750,-11.40719388
166.56800,6.904470586
166.56850,59.0927143
166.56900,114.9432909
166.56950,123.7939287
166.57000,79.84593403
166.57050,31.3200232
166.57100,20.02783012
166.57150,29.18366235
166.57200,23.69016301
166.57250,4.157720917
166.57300,-6.829277761
166.57350,-14.15394355
166.57400,-38.87469057
166.57450,-73.66685305
166.57500,-89.53696225
166.57550,-77.02399153
166.57600,-52.91363332
166.57650,-26.66691426
166.57700,-1.030584014
166.57750,5.378498547
166.57800,-17.51108203
166.57850,-41.31624583
166.57900,-25.14094222
166.57950,20.02783012
166.58000,44.13818833
166.58050,33.15118965
166.58100,22.16419097
166.58150,31.62521761
166.58200,35.89793932
166.58250,17.28108045
166.58300,-4.998111315
166.58350,-11.71238828
166.58400,-14.45913795
166.58450,-24.225359
166.58500,-30.02405275
166.58550,-25.44613663
166.58600,-25.75133104
166.58650,-38.56949616
166.58700,-47.11493958
166.58750,-39.48507938
166.58800,-20.56302611
166.58850,13.31355315
166.58900,76.18360113
166.58950,147.5990925
166.59000,169.5730899
166.59050,117.0796518
166.59100,37.11871695
166.59150,-10.79680506
166.59200,-25.75133104
166.59250,-40.40066261
166.59300,-60.84868792
166.59350,-66.95257608
166.59400,-54.43960536
166.59450,-39.79027379
166.59500,-32.1604136
166.59550,-30.63444156
166.59600,-34.60196886
166.59650,-41.92663465
166.59700,-38.26430175
166.59750,-15.98510999
166.59800,6.599276178
166.59850,7.514859401
166.59900,-8.660444207
166.59950,-20.86822052
166.60000,-19.03705407
166.60050,-6.524083353
166.60100,18.80705249
166.60150,57.56674226
166.60200,89.61215507
166.60250,90.5277383
166.60300,61.53426956
166.60350,28.26807912
166.60400,8.125248217
166.60450,-0.420195199
166.60500,-1.335778422
166.60550,6.29408177
166.60600,17.28108045
166.60650,20.02783012
166.60700,14.83952519
166.60750,12.70316433
166.60800,16.06030282
166.60850,14.83952519
166.60900,3.547332101
166.60950,-8.050055392
166.61000,-12.62797151
166.61050,-13.23836032
166.61100,-14.15394355
166.61150,-13.23836032
166.61200,-8.355249799
166.61250,-2.861750461
166.61300,-0.420195199
166.61350,2.021360063
166.61400,8.430442624
166.61450,16.67069163
166.61500,20.33302452
166.61550,15.75510841
166.61600,5.378498547
166.61650,-1.335778422
166.61700,4.157720917
166.61750,20.33302452
166.61800,33.45638406
166.61850,34.37196728
166.61900,27.04730149
166.61950,14.53433078
166.62000,-8.965638615
166.62050,-41.62144024
166.62100,-63.59543759
166.62150,-65.42660404
166.62200,-71.53049219
166.62250,-105.4070714
166.62300,-145.0823444
166.62350,-142.6407892
166.62400,-89.84215666
166.62450,-30.32924715
166.62500,-0.420195199
166.62550,9.346025847
166.62600,23.07977419
166.62650,39.86546662
166.62700,48.71610444
166.62750,53.59921496
166.62800,60.31349193
166.62850,58.7875199
166.62900,35.59274491
166.62950,1.105776839
166.63000,-21.47860933
166.63050,-25.14094222
166.63100,-18.42666525
166.63150,-8.965638615
166.63200,0.1901936164
166.63250,4.462915324
166.63300,0.8005824318
166.63350,-4.387722499
166.63400,-1.946167238
166.63450,5.683692955
166.63500,10.56680348
166.63550,11.4823867
166.63600,12.09277552
166.63650,12.09277552
166.63700,5.988887363
166.63750,-2.556556053
166.63800,-5.303305722
166.63850,-1.946167238
166.63900,-1.946167238
166.63950,-10.49161065
166.64000,-21.47860933
166.64050,-29.41366393
166.64100,-34.60196886
166.64150,-35.82274649
166.64200,-23.00458137
166.64250,9.346025847
166.64300,51.46285411
166.64350,81.06671166
166.64400,86.25501659
166.64450,69.46932416
166.64500,38.94988339
166.64550,3.547332101
166.64600,-23.30977578
166.64650,-30.02405275
166.64700,-20.56302611
166.64750,-16.90069321
166.64800,-31.85521919
166.64850,-49.25130043
166.64900,-38.56949616
166.64950,2.32655447
166.65000,38.94988339
166.65050,38.33949458
166.65100,9.651220255
166.65150,-8.660444207
166.65200,4.462915324
166.65250,32.54080083
166.65300,47.80052122
166.65350,42.61221629
166.65400,29.79405116
166.65450,19.4174413
166.65500,11.17719229
166.65550,0.4953880241
166.65600,-11.10199947
166.65650,-19.95263729
166.65700,-24.53055341
166.65750,-23.92016459
166.65800,-19.34224848
166.65850,-12.01758269
166.65900,-1.946167238
166.65950,9.651220255
166.66000,16.97588604
166.66050,14.53433078
166.66100,5.378498547
166.66150,-0.7253896067
166.66200,1.410971247
166.66250,10.87199789
166.66300,20.63821893
166.66350,23.3849686
166.66400,16.06030282
166.66450,3.852526509
166.66500,0.4953880241
166.66550,8.430442624
166.66600,6.904470586
166.66650,-25.75133104
166.66700,-79.7707412
166.66750,-117.0044589
166.66800,-115.4784869
166.66850,-93.50448955
166.66900,-79.16035239
166.66950,-77.32918594
166.67000,-74.88763068
166.67050,-61.76427115
166.67100,-34.90716327
166.67150,8.430442624
166.67200,63.97582483
166.67250,108.2290139
166.67300,118.6056238
166.67350,99.07318171
166.67400,73.74204587
166.67450,54.81999259
166.67500,30.70963439
166.67550,-9.270833022
166.67600,-55.04999418
166.67650,-81.60190765
166.67700,-76.71879712
166.67750,-45.58896754
166.67800,-0.1150007913
166.67850,51.46285411
166.67900,95.10565441
166.67950,106.3978475
166.68000,69.77451857
166.68050,6.29408177
166.68100,-40.0954682
166.68150,-45.89416195
166.68200,-28.80327512
166.68250,-16.59549881
166.68300,-8.050055392
166.68350,13.31355315
166.68400,42.00182747
166.68450,51.1576597
166.68500,33.15118965
166.68550,12.39796992
166.68600,11.17719229
166.68650,27.65769031
166.68700,49.02129885
166.68750,69.46932416
166.68800,81.37190606
166.68850,70.07971298
166.68900,34.06677287
166.68950,-4.692916907
166.69000,-23.92016459
166.69050,-24.83574782
166.69100,-23.61497018
166.69150,-25.75133104
166.69200,-24.83574782
166.69250,-19.03705407
166.69300,-13.23836032
166.69350,-9.270833022
166.69400,-1.64097283
166.69450,11.78758111
166.69500,26.13171827
166.69550,31.93041202
166.69600,24.91094064
166.69650,8.735637032
166.69700,-6.829277761
166.69750,-16.59549881
166.69800,-22.69938696
166.69850,-31.24483038
166.69900,-42.23182905
166.69950,-47.72532839
166.70000,-45.58896754
166.70050,-38.87469057
166.70100,-29.41366393
166.70150,-15.98510999
166.70200,-1.030584014
166.70250,7.820053809
166.70300,8.125248217
166.70350,2.32655447
166.70400,-7.439666576
166.70450,-20.56302611
166.70500,-28.80327512
166.70550,-26.05652545
166.70600,-19.95263729
166.70650,-25.75133104
166.70700,-41.62144024
166.70750,-49.25130043
166.70800,-40.40066261
166.70850,-28.49808071
166.70900,-24.225359
166.70950,-19.03705407
166.71000,-0.7253896067
166.71050,21.24860775
166.71100,30.40443998
166.71150,24.91094064
166.71200,16.97588604
166.71250,15.14471959
166.71300,16.67069163
166.71350,16.97588604
166.71400,14.22913637
166.71450,5.378498547
166.71500,-7.134472168
166.71550,-11.71238828
166.71600,2.32655447
166.71650,28.57327353
166.71700,44.13818833
166.71750,36.20313373
166.71800,14.53433078
166.71850,0.1901936164
166.71900,2.32655447
166.71950,12.70316433
166.72000,17.28108045
166.72050,7.514859401
166.72100,-18.42666525
166.72150,-57.79674385
166.72200,-96.86162803
166.72250,-110.290182
166.72300,-82.51749087
166.72350,-26.36171985
166.72400,23.07977419
166.72450,45.66416036
166.72500,45.35896596
166.72550,35.2875505
166.72600,20.02783012
166.72650,3.547332101
166.72700,-3.166944868
166.72750,4.462915324
166.72800,15.14471959
166.72850,13.61874756
166.72900,-2.556556053
166.72950,-26.66691426
166.73000,-52.30324451
166.73050,-70.00452015
166.73100,-66.03699285
166.73150,-39.79027379
166.73200,-15.06952677
166.73250,-13.84874914
166.73300,-30.02405275
166.73350,-41.62144024
166.73400,-38.87469057
166.73450,-21.47860933
166.73500,13.31355315
166.73550,58.7875199
166.73600,84.11865573
166.73650,67.63815772
166.73700,37.42391136
166.73750,42.61221629
166.73800,85.03423896
166.73850,111.280958
166.73900,86.8654054
166.73950,40.78104984
166.74000,17.28108045
166.74050,16.97588604
166.74100,11.17719229
166.74150,-8.050055392
166.74200,-22.39419255
166.74250,-19.34224848
166.74300,-2.861750461
166.74350,22.16419097
166.74400,51.46285411
166.74450,71.30049061
166.74500,66.41738009
166.74550,42.00182747
166.74600,16.97588604
166.74650,-0.1150007913
166.74700,-18.12147085
166.74750,-38.26430175
166.74800,-47.72532839
166.74850,-38.26430175
166.74900,-20.56302611
166.74950,-9.270833022
166.75000,-6.218888945
166.75050,-2.251361645
166.75100,5.683692955
166.75150,12.39796992
166.75200,12.70316433
166.75250,10.56680348
166.75300,10.56680348
166.75350,9.956414663
166.75400,0.1901936164
166.75450,-17.81627644
166.75500,-29.10846952
166.75550,-21.47860933
166.75600,-1.946167238
166.75650,11.17719229
166.75700,10.56680348
166.75750,3.242137693
166.75800,-2.861750461
166.75850,-8.965638615
166.75900,-14.76433236
166.75950,-15.06952677
166.76000,-10.49161065
166.76050,-8.965638615
166.76100,-10.49161065
166.76150,-8.660444207
166.76200,-3.472139276
166.76250,-2.556556053
166.76300,-5.303305722
166.76350,-2.556556053
166.76400,2.631748878
166.76450,-1.335778422
166.76500,-14.45913795
166.76550,-19.03705407
166.76600,-12.3227771
166.76650,-14.76433236
166.76700,-38.26430175
166.76750,-61.76427115
166.76800,-61.76427115
166.76850,-41.92663465
166.76900,-21.47860933
166.76950,-9.881221838
166.77000,-9.270833022
166.77050,-18.73185966
166.77100,-22.39419255
166.77150,5.378498547
166.77200,61.83946397
166.77250,102.1251258
166.77300,92.05371033
166.77350,48.41091003
166.77400,9.04083144
166.77450,-15.06952677
166.77500,-33.38119123
166.77550,-40.70585702
166.77600,-29.10846952
166.77650,-11.40719388
166.77700,0.1901936164
166.77750,20.33302452
166.77800,57.87193667
166.77850,77.09918436
166.77900,41.69663306
166.77950,-18.73185966
166.78000,-35.51755208
166.78050,4.157720917
166.78100,43.52779951
166.78150,35.59274491
166.78200,0.1901936164
166.78250,-23.30977578
166.78300,-26.97210867
166.78350,-19.34224848
166.78400,-0.7253896067
166.78450,25.52132946
166.78500,41.69663306
166.78550,36.81352254
166.78600,23.99535742
166.78650,16.97588604
166.78700,11.4823867
166.78750,5.07330414
166.78800,5.378498547
166.78850,9.04083144
166.78900,-3.166944868
166.78950,-32.77080242
166.79000,-47.42013399
166.79050,-28.1928863
166.79100,-5.913694538
166.79150,-18.73185966
166.79200,-55.9655774
166.79250,-73.05646423
166.79300,-55.04999418
166.79350,-29.71885834
166.79400,-22.08899815
166.79450,-24.53055341
166.79500,-21.17341492
166.79550,-17.81627644
166.79600,-26.05652545
166.79650,-38.87469057
166.79700,-37.04352412
166.79750,-16.59549881
166.79800,5.683692955
166.79850,13.31355315
166.79900,7.514859401
166.79950,3.852526509
166.80000,12.39796992
166.80050,28.57327353
166.80100,39.86546662
166.80150,39.56027221
166.80200,31.62521761
166.80250,21.24860775
166.80300,8.430442624
166.80350,-7.134472168
166.80400,-22.69938696
166.80450,-30.02405275
166.80500,-26.36171985
166.80550,-16.90069321
166.80600,-9.881221838
166.80650,-9.57602743
166.80700,-11.40719388
166.80750,-9.57602743
166.80800,-1.030584014
166.80850,9.956414663
166.80900,16.67069163
166.80950,13.61874756
166.81000,2.936943286
166.81050,-7.439666576
166.81100,-12.3227771
166.81150,-12.3227771
166.81200,-11.40719388
166.81250,-10.18641625
166.81300,-4.998111315
166.81350,4.768109732
166.81400,15.449914
166.81450,20.33302452
166.81500,18.50185808
166.81550,13.61874756
166.81600,10.87199789
166.81650,14.53433078
166.81700,22.77457979
166.81750,27.65769031
166.81800,24.60574623
166.81850,17.89146926
166.81900,14.83952519
166.81950,14.53433078
166.82000,8.430442624
166.82050,-4.082528091
166.82100,-13.84874914
166.82150,-16.2903044
166.82200,-21.17341492
166.82250,-35.82274649
166.82300,-48.33571721
166.82350,-41.31624583
166.82400,-14.45913795
166.82450,13.92394196
166.82500,29.79405116
166.82550,33.76157846
166.82600,30.70963439
166.82650,24.30055182
166.82700,17.89146926
166.82750,15.75510841
166.82800,16.97588604
166.82850,15.14471959
166.82900,8.430442624
166.82950,2.021360063
166.83000,-0.7253896067
166.83050,-4.082528091
166.83100,-8.355249799
166.83150,-8.965638615
166.83200,-5.303305722
166.83250,-4.998111315
166.83300,-11.71238828
166.83350,-17.81627644
166.83400,-14.15394355
166.83450,-4.082528091
166.83500,3.547332101
166.83550,8.735637032
166.83600,14.53433078
166.83650,22.46938538
166.83700,35.2875505
166.83750,53.29402056
166.83800,67.63815772
166.83850,60.31349193
166.83900,31.62521761
166.83950,8.430442624
166.84000,13.00835874
166.84050,30.40443998
166.84100,27.3524959
166.84150,-1.64097283
166.84200,-31.24483038
166.84250,-42.23182905
166.84300,-43.45260668
166.84350,-46.80974517
166.84400,-47.42013399
166.84450,-38.56949616
166.84500,-29.71885834
166.84550,-33.68638564
166.84600,-47.42013399
166.84650,-54.74479977
166.84700,-48.0305228
166.84750,-33.99158005
166.84800,-23.92016459
166.84850,-20.2578317
166.84900,-16.90069321
166.84950,-6.218888945
166.85000,8.125248217
166.85050,16.36549722
166.85100,14.22913637
166.85150,10.26160907
166.85200,14.53433078
166.85250,23.3849686
166.85300,28.26807912
166.85350,29.79405116
166.85400,33.76157846
166.85450,37.72910576
166.85500,31.93041202
166.85550,14.83952519
166.85600,-1.335778422
166.85650,-8.355249799
166.85700,-9.881221838
166.85750,-13.23836032
166.85800,-14.76433236
166.85850,-5.913694538
166.85900,13.00835874
166.85950,28.57327353
166.86000,28.87846794
166.86050,19.11224689
166.86100,13.31355315
166.86150,14.22913637
166.86200,8.125248217
166.86250,-11.71238828
166.86300,-32.1604136
166.86350,-38.56949616
166.86400,-39.17988498
166.86450,-53.52402214
166.86500,-79.46554679
166.86550,-93.80968396
166.86600,-79.46554679
166.86650,-42.84221787
166.86700,2.021360063
166.86750,42.61221629
166.86800,61.83946397
166.86850,54.20960378
166.86900,44.13818833
166.86950,65.80699127
166.87000,114.6380965
166.87050,142.715982
166.87100,114.9432909
166.87150,50.85246529
166.87200,-6.524083353
166.87250,-38.56949616
166.87300,-52.30324451
166.87350,-51.69285569
166.87400,-34.90716327
166.87450,-7.134472168
166.87500,25.52132946
166.87550,62.14465838
166.87600,97.54720967
166.87650,113.4173189
166.87700,96.02123763
166.87750,56.04077023
166.87800,18.19666367
166.87850,-1.64097283
166.87900,-1.335778422
166.87950,14.22913637
166.88000,26.43691268
166.88050,8.430442624
166.88100,-38.87469057
166.88150,-77.32918594
166.88200,-74.58243627
166.88250,-47.72532839
166.88300,-36.1279409
166.88350,-43.14741228
166.88400,-39.17988498
166.88450,-12.01758269
166.88500,12.09277552
166.88550,10.87199789
166.88600,-7.134472168
166.88650,-24.225359
166.88700,-36.43313531
166.88750,-45.58896754
166.88800,-44.97857872
166.88850,-30.93963597
166.88900,-16.2903044
166.88950,-12.62797151
166.89000,-15.37472118
166.89050,-15.67991558
166.89100,-17.81627644
166.89150,-26.05652545
166.89200,-29.10846952
166.89250,-17.20588762
166.89300,-1.946167238
166.89350,-3.472139276
166.89400,-16.2903044
166.89450,-17.81627644
166.89500,-6.524083353
166.89550,-5.60850013
166.89600,-21.17341492
166.89650,-24.53055341
166.89700,5.07330414
166.89750,44.13818833
166.89800,53.90440937
166.89850,31.62521761
166.89900,8.125248217
166.89950,0.1901936164
166.90000,-4.998111315
166.90050,-19.34224848
166.90100,-33.07599682
166.90150,-33.99158005
166.90200,-25.14094222
166.90250,-16.2903044
166.90300,-10.79680506
166.90350,-7.744860984
166.90400,-9.270833022
166.90450,-12.93316591
166.90500,-11.40719388
166.90550,-1.335778422
166.90600,9.651220255
166.90650,13.31355315
166.90700,9.956414663
166.90750,3.242137693
166.90800,-4.998111315
166.90850,-14.45913795
166.90900,-19.03705407
166.90950,-14.45913795
166.91000,-6.218888945
166.91050,-3.166944868
166.91100,-7.744860984
166.91150,-12.62797151
166.91200,-8.965638615
166.91250,2.021360063
166.91300,10.87199789
166.91350,9.651220255
166.91400,1.105776839
166.91450,-5.913694538
166.91500,-9.881221838
166.91550,-13.54355473
166.91600,-16.59549881
166.91650,-13.54355473
166.91700,-3.166944868
166.91750,6.599276178
166.91800,11.78758111
166.91850,18.50185808
166.91900,29.79405116
166.91950,36.81352254
166.92000,30.70963439
166.92050,18.80705249
166.92100,13.61874756
166.92150,12.70316433
166.92200,5.378498547
166.92250,-8.050055392
166.92300,-15.37472118
166.92350,-12.3227771
166.92400,-6.218888945
166.92450,-0.7253896067
166.92500,5.07330414
166.92550,7.820053809
166.92600,-0.7253896067
166.92650,-15.67991558
166.92700,-19.03705407
166.92750,-4.082528091
166.92800,14.22913637
166.92850,21.85899656
166.92900,19.72263571
166.92950,17.89146926
166.93000,19.11224689
166.93050,18.50185808
166.93100,16.67069163
166.93150,15.75510841
166.93200,15.14471959
166.93250,13.61874756
166.93300,12.39796992
166.93350,12.70316433
166.93400,11.17719229
166.93450,6.599276178
166.93500,3.852526509
166.93550,6.29408177
166.93600,10.26160907
166.93650,12.39796992
166.93700,13.31355315
166.93750,12.70316433
166.93800,7.514859401
166.93850,-0.1150007913
166.93900,-4.387722499
166.93950,-2.861750461
166.94000,1.716165655
166.94050,7.514859401
166.94100,13.92394196
166.94150,14.53433078
166.94200,2.936943286
166.94250,-15.37472118
166.94300,-26.66691426
166.94350,-25.14094222
166.94400,-18.42666525
166.94450,-12.93316591
166.94500,-3.777333684
166.94550,7.820053809
166.94600,8.735637032
166.94650,-9.881221838
166.94700,-39.17988498
166.94750,-60.23829911
166.94800,-65.12140963
166.94850,-56.88116062
166.94900,-41.31624583
166.94950,-24.53055341
166.95000,-12.62797151
166.95050,-4.387722499
166.95100,5.988887363
166.95150,19.4174413
166.95200,30.09924557
166.95250,37.72910576
166.95300,47.49532681
166.95350,56.34596463
166.95400,53.59921496
166.95450,38.94988339
166.95500,27.04730149
166.95550,26.43691268
166.95600,23.69016301
166.95650,6.599276178
166.95700,-15.37472118
166.95750,-26.97210867
166.95800,-30.63444156
166.95850,-41.62144024
166.95900,-56.88116062
166.95950,-55.35518859
166.96000,-33.38119123
166.96050,-11.40719388
166.96100,-7.134472168
166.96150,-10.18641625
166.96200,-4.998111315
166.96250,4.157720917
166.96300,5.378498547
166.96350,5.378498547
166.96400,18.80705249
166.96450,35.59274491
166.96500,30.70963439
166.96550,7.820053809
166.96600,3.852526509
166.96650,38.33949458
166.96700,80.15112843
166.96750,87.78098863
166.96800,56.95635345
166.96850,16.06030282
166.96900,-14.15394355
166.96950,-33.38119123
166.97000,-45.89416195
166.97050,-54.74479977
166.97100,-64.81621522
166.97150,-73.66685305
166.97200,-72.44607542
166.97250,-62.98504878
166.97300,-62.37465996
166.97350,-74.27724186
166.97400,-74.58243627
166.97450,-48.33571721
166.97500,-17.20588762
166.97550,-4.692916907
166.97600,7.514859401
166.97650,53.59921496
166.97700,122.5731511
166.97750,161.6380353
166.97800,138.4432603
166.97850,72.52126824
166.97900,4.462915324
166.97950,-41.62144024
166.98000,-64.51102082
166.98050,-69.69932575
166.98100,-63.59543759
166.98150,-42.53702346
166.98200,-0.1150007913
166.98250,52.98882615
166.98300,85.03423896
166.98350,79.84593403
166.98400,59.0927143
166.98450,49.93688207
166.98500,45.96935477
166.98550,26.13171827
166.98600,-3.166944868
166.98650,-18.12147085
166.98700,-17.20588762
166.98750,-21.17341492
166.98800,-33.07599682
166.98850,-32.77080242
166.98900,-12.93316591
166.98950,12.70316433
166.99000,42.30702188
166.99050,84.72904455
166.99100,129.2874281
166.99150,142.1055932
166.99200,111.8913468
166.99250,70.38490739
166.99300,46.57974359
166.99350,31.93041202
166.99400,9.651220255
166.99450,-9.270833022
166.99500,-6.829277761
166.99550,1.716165655
166.99600,-15.06952677
166.99650,-56.27077181
166.99700,-84.34865732
166.99750,-76.41360272
166.99800,-51.38766129
166.99850,-37.65391294
166.99900,-37.34871853
166.99950,-37.65391294
167.00000,-37.04352412
167.00050,-42.53702346
167.00100,-52.60843892
167.00150,-57.18635503
167.00200,-52.30324451
167.00250,-40.0954682
167.00300,-22.69938696
167.00350,-1.64097283
167.00400,14.22913637
167.00450,17.58627486
167.00500,11.17719229
167.00550,6.599276178
167.00600,8.125248217
167.00650,9.346025847
167.00700,4.157720917
167.00750,-5.60850013
167.00800,-13.23836032
167.00850,-13.84874914
167.00900,-11.40719388
167.00950,-13.84874914
167.01000,-26.66691426
167.01050,-42.84221787
167.01100,-49.25130043
167.01150,-40.40066261
167.01200,-24.225359
167.01250,-13.23836032
167.01300,-9.57602743
167.01350,-5.913694538
167.01400,1.410971247
167.01450,8.735637032
167.01500,11.17719229
167.01550,9.956414663
167.01600,9.04083144
167.01650,6.29408177
167.01700,-2.251361645
167.01750,-15.06952677
167.01800,-21.78380374
167.01850,-14.76433236
167.01900,0.1901936164
167.01950,9.346025847
167.02000,1.716165655
167.02050,-17.20588762
167.02100,-33.38119123
167.02150,-36.73832972
167.02200,-30.32924715
167.02250,-26.05652545
167.02300,-29.10846952
167.02350,-32.77080242
167.02400,-27.58249748
167.02450,-14.45913795
167.02500,-3.777333684
167.02550,-1.335778422
167.02600,-0.1150007913
167.02650,5.988887363
167.02700,9.04083144
167.02750,-2.556556053
167.02800,-25.44613663
167.02850,-38.26430175
167.02900,-28.1928863
167.02950,-5.913694538
167.03000,8.430442624
167.03050,10.56680348
167.03100,12.39796992
167.03150,22.16419097
167.03200,32.84599524
167.03250,31.93041202
167.03300,21.55380216
167.03350,16.36549722
167.03400,26.74210709
167.03450,44.74857714
167.03500,52.07324293
167.03550,40.17066103
167.03600,20.63821893
167.03650,10.87199789
167.03700,10.26160907
167.03750,4.768109732
167.03800,-11.40719388
167.03850,-24.225359
167.03900,-17.81627644
167.03950,-0.420195199
167.04000,4.768109732
167.04050,-7.439666576
167.04100,-18.73185966
167.04150,-11.10199947
167.04200,7.209664994
167.04250,16.06030282
167.04300,10.56680348
167.04350,4.768109732
167.04400,8.735637032
167.04450,16.06030282
167.04500,17.89146926
167.04550,14.53433078
167.04600,10.87199789
167.04650,6.904470586
167.04700,-0.1150007913
167.04750,-9.57602743
167.04800,-17.81627644
167.04850,-17.81627644
167.04900,-5.913694538
167.04950,10.26160907
167.05000,15.449914
167.05050,6.29408177
167.05100,1.105776839
167.05150,19.4174413
167.05200,53.59921496
167.05250,76.79398995
167.05300,74.04724028
167.05350,54.81999259
167.05400,32.54080083
167.05450,9.651220255
167.05500,-14.45913795
167.05550,-36.73832972
167.05600,-56.88116062
167.05650,-77.32918594
167.05700,-90.45254547
167.05750,-80.99151883
167.05800,-51.08246688
167.05850,-24.225359
167.05900,-15.37472118
167.05950,-13.23836032
167.06000,-1.030584014
167.06050,13.31355315
167.06100,12.09277552
167.06150,-3.472139276
167.06200,-10.49161065
167.06250,5.378498547
167.06300,29.48885676
167.06350,40.47585543
167.06400,38.03430017
167.06450,33.76157846
167.06500,27.96288472
167.06550,11.4823867
167.06600,-9.57602743
167.06650,-16.59549881
167.06700,-11.71238828
167.06750,-21.17341492
167.06800,-55.04999418
167.06850,-83.12787969
167.06900,-75.49801949
167.06950,-48.33571721
167.07000,-34.90716327
167.07050,-32.77080242
167.07100,-13.54355473
167.07150,22.46938538
167.07200,48.41091003
167.07250,63.36543601
167.07300,95.71604323
167.07350,142.1055932
167.07400,151.8718142
167.07450,97.54720967
167.07500,20.33302452
167.07550,-20.56302611
167.07600,-19.64744288
167.07650,-10.49161065
167.07700,-9.881221838
167.07750,-7.134472168
167.07800,3.547332101
167.07850,11.4823867
167.07900,8.125248217
167.07950,-1.335778422
167.08000,-8.050055392
167.08050,-2.861750461
167.08100,19.11224689
167.08150,52.37843733
167.08200,79.84593403
167.08250,89.30696067
167.08300,83.50826692
167.08350,69.16412976
167.08400,49.02129885
167.08450,26.43691268
167.08500,9.04083144
167.08550,0.4953880241
167.08600,-5.60850013
167.08650,-13.54355473
167.08700,-17.81627644
167.08750,-14.45913795
167.08800,-10.49161065
167.08850,-12.3227771
167.08900,-15.98510999
167.08950,-15.37472118
167.09000,-12.93316591
167.09050,-15.06952677
167.09100,-21.17341492
167.09150,-25.14094222
167.09200,-25.14094222
167.09250,-24.53055341
167.09300,-24.53055341
167.09350,-20.86822052
167.09400,-13.54355473
167.09450,-10.49161065
167.09500,-19.03705407
167.09550,-33.99158005
167.09600,-39.17988498
167.09650,-26.05652545
167.09700,-4.387722499
167.09750,7.514859401
167.09800,3.852526509
167.09850,-7.134472168
167.09900,-16.90069321
167.09950,-24.225359
167.10000,-29.41366393
167.10050,-30.02405275
167.10100,-27.88769189
167.10150,-32.1604136
167.10200,-45.58896754
167.10250,-54.43960536
167.10300,-39.79027379
167.10350,-3.777333684
167.10400,27.65769031
167.10450,30.40443998
167.10500,5.07330414
167.10550,-26.36171985
167.10600,-46.80974517
167.10650,-52.91363332
167.10700,-50.47207806
167.10750,-44.97857872
167.10800,-40.40066261
167.10850,-37.34871853
167.10900,-29.41366393
167.10950,-10.18641625
167.11000,17.58627486
167.11050,40.47585543
167.11100,48.10571563
167.11150,41.39143866
167.11200,26.43691268
167.11250,10.56680348
167.11300,6.29408177
167.11350,26.13171827
167.11400,63.97582483
167.11450,94.19007119
167.11500,96.63162645
167.11550,77.40437876
167.11600,52.98882615
167.11650,27.3524959
167.11700,-3.777333684
167.11750,-33.07599682
167.11800,-42.23182905
167.11850,-25.75133104
167.11900,-0.1150007913
167.11950,15.75510841
167.12000,13.61874756
167.12050,-3.166944868
167.12100,-26.97210867
167.12150,-50.47207806
167.12200,-70.30971456
167.12250,-84.95904613
167.12300,-88.62137902
167.12350,-72.14088101
167.12400,-38.56949616
167.12450,-4.692916907
167.12500,15.14471959
167.12550,25.21613505
167.12600,34.37196728
167.12650,39.86546662
167.12700,32.54080083
167.12750,16.06030282
167.12800,4.157720917
167.12850,1.716165655
167.12900,0.1901936164
167.12950,-5.913694538
167.13000,-10.18641625
167.13050,-5.60850013
167.13100,0.1901936164
167.13150,-3.166944868
167.13200,-16.90069321
167.13250,-29.71885834
167.13300,-30.63444156
167.13350,-20.86822052
167.13400,-8.050055392
167.13450,0.8005824318
167.13500,5.683692955
167.13550,10.26160907
167.13600,14.53433078
167.13650,17.58627486
167.13700,20.33302452
167.13750,25.52132946
167.13800,31.62521761
167.13850,30.70963439
167.13900,16.67069163
167.13950,-1.64097283
167.14000,-9.270833022
167.14050,-2.251361645
167.14100,5.07330414
167.14150,-0.7253896067
167.14200,-18.42666525
167.14250,-31.85521919
167.14300,-29.10846952
167.14350,-11.40719388
167.14400,10.56680348
167.14450,27.65769031
167.14500,33.15118965
167.14550,28.57327353
167.14600,21.24860775
167.14650,16.97588604
167.14700,17.28108045
167.14750,22.16419097
167.14800,33.76157846
167.14850,47.1901324
167.14900,52.68363174
167.14950,46.88493799
167.15000,39.86546662
167.15050,40.78104984
167.15100,42.91741069
167.15150,34.98235609
167.15200,17.28108045
167.15250,-4.387722499
167.15300,-33.99158005
167.15350,-74.27724186
167.15400,-111.2057652
167.15450,-123.4135415
167.15500,-108.4590155
167.15550,-84.04346291
167.15600,-64.20582641
167.15650,-46.80974517
167.15700,-30.93963597
167.15750,-21.17341492
167.15800,-14.45913795
167.15850,-0.7253896067
167.15900,20.33302452
167.15950,34.67716169
167.16000,32.23560643
167.16050,18.19666367
167.16100,1.716165655
167.16150,-14.15394355
167.16200,-24.225359
167.16250,-21.17341492
167.16300,-10.18641625
167.16350,-8.050055392
167.16400,-19.64744288
167.16450,-27.88769189
167.16500,-16.2903044
167.16550,6.904470586
167.16600,21.85899656
167.16650,20.02783012
167.16700,13.00835874
167.16750,10.87199789
167.16800,10.26160907
167.16850,1.105776839
167.16900,-15.06952677
167.16950,-25.44613663
167.17000,-21.47860933
167.17050,-12.01758269
167.17100,-9.881221838
167.17150,-12.93316591
167.17200,-12.3227771
167.17250,-11.40719388
167.17300,-15.37472118
167.17350,-8.965638615
167.17400,25.82652386
167.17450,67.94335213
167.17500,69.46932416
167.17550,23.3849686
167.17600,-16.2903044
167.17650,-6.829277761
167.17700,27.3524959
167.17750,41.69663306
167.17800,32.84599524
167.17850,28.26807912
167.17900,27.04730149
167.17950,8.735637032
167.18000,-21.47860933
167.18050,-38.26430175
167.18100,-34.90716327
167.18150,-21.47860933
167.18200,6.904470586
167.18250,58.17713108
167.18300,107.0082363
167.18350,114.6380965
167.18400,85.03423896
167.18450,58.7875199
167.18500,51.46285411
167.18550,37.11871695
167.18600,3.242137693
167.18650,-21.47860933
167.18700,-13.23836032
167.18750,10.56680348
167.18800,13.92394196
167.18850,-10.79680506
167.18900,-36.73832972
167.18950,-34.60196886
167.19000,-0.7253896067
167.19050,38.33949458
167.19100,51.76804852
167.19150,34.37196728
167.19200,12.09277552
167.19250,5.07330414
167.19300,2.631748878
167.19350,-10.49161065
167.19400,-21.78380374
167.19450,-8.660444207
167.19500,20.63821893
167.19550,34.98235609
167.19600,22.77457979
167.19650,0.8005824318
167.19700,-17.20588762
167.19750,-34.60196886
167.19800,-49.55649484
167.19850,-50.77727247
167.19900,-38.26430175
167.19950,-26.05652545
167.20000,-21.17341492
167.20050,-15.37472118
167.20100,-5.60850013
167.20150,-0.7253896067
167.20200,-4.998111315
167.20250,-9.57602743
167.20300,-8.660444207
167.20350,-8.965638615
167.20400,-17.51108203
167.20450,-30.32924715
167.20500,-37.95910735
167.20550,-37.04352412
167.20600,-26.97210867
167.20650,-8.355249799
167.20700,17.58627486
167.20750,47.1901324
167.20800,69.46932416
167.20850,72.21607383
167.20900,53.59921496
167.20950,31.01482879
167.21000,27.96288472
167.21050,40.17066103
167.21100,38.33949458
167.21150,5.07330414
167.21200,-37.95910735
167.21250,-59.62791029
167.21300,-55.35518859
167.21350,-40.0954682
167.21400,-21.47860933
167.21450,-1.335778422
167.21500,6.599276178
167.21550,-7.744860984
167.21600,-27.27730308
167.21650,-25.44613663
167.21700,-8.050055392
167.21750,-8.355249799
167.21800,-34.90716327
167.21850,-56.27077181
167.21900,-48.64091162
167.21950,-27.27730308
167.22000,-19.64744288
167.22050,-28.1928863
167.22100,-35.21235768
167.22150,-31.85521919
167.22200,-20.86822052
167.22250,-7.134472168
167.22300,4.462915324
167.22350,7.514859401
167.22400,2.32655447
167.22450,-0.1150007913
167.22500,5.07330414
167.22550,11.4823867
167.22600,9.04083144
167.22650,0.4953880241
167.22700,-5.60850013
167.22750,-8.050055392
167.22800,-9.270833022
167.22850,-7.744860984
167.22900,-2.251361645
167.22950,2.021360063
167.23000,0.4953880241
167.23050,-5.60850013
167.23100,-11.71238828
167.23150,-9.881221838
167.23200,7.209664994
167.23250,38.33949458
167.23300,64.58621364
167.23350,65.19660246
167.23400,41.39143866
167.23450,17.28108045
167.23500,9.04083144
167.23550,9.956414663
167.23600,4.768109732
167.23650,-8.660444207
167.23700,-24.83574782
167.23750,-39.79027379
167.23800,-47.42013399
167.23850,-37.95910735
167.23900,-12.3227771
167.23950,9.651220255
167.24000,9.651220255
167.24050,-6.829277761
167.24100,-18.73185966
167.24150,-15.67991558
167.24200,-6.218888945
167.24250,0.1901936164
167.24300,5.07330414
167.24350,12.09277552
167.24400,20.02783012
167.24450,23.07977419
167.24500,18.80705249
167.24550,8.430442624
167.24600,-4.387722499
167.24650,-16.90069321
167.24700,-30.02405275
167.24750,-45.89416195
167.24800,-63.29024319
167.24850,-70.30971456
167.24900,-55.9655774
167.24950,-19.95263729
167.25000,25.52132946
167.25050,68.24854653
167.25100,105.1770699
167.25150,139.6640379
167.25200,168.6575067
167.25250,178.7289221
167.25300,160.1120633
167.25350,120.4367903
167.25400,78.01476758
167.25450,39.2550778
167.25500,-4.998111315
167.25550,-59.32271589
167.25600,-104.7966826
167.25650,-119.4460142
167.25700,-104.1862938
167.25750,-82.21229646
167.25800,-67.56296489
167.25850,-56.57596622
167.25900,-46.19935635
167.25950,-44.67338432
167.26000,-54.74479977
167.26050,-58.40713266
167.26100,-36.1279409
167.26150,6.904470586
167.26200,45.05377155
167.26250,56.34596463
167.26300,39.2550778
167.26350,9.651220255
167.26400,-9.57602743
167.26450,-4.082528091
167.26500,19.4174413
167.26550,38.03430017
167.26600,33.45638406
167.26650,10.87199789
167.26700,-10.49161065
167.26750,-22.69938696
167.26800,-27.27730308
167.26850,-25.14094222
167.26900,-12.3227771
167.26950,7.209664994
167.27000,22.16419097
167.27050,26.74210709
167.27100,26.13171827
167.27150,25.52132946
167.27200,20.63821893
167.27250,7.820053809
167.27300,-4.387722499
167.27350,-7.744860984
167.27400,-7.134472168
167.27450,-16.90069321
167.27500,-42.53702346
167.27550,-76.41360272
167.27600,-104.4914882
167.27650,-115.1732925
167.27700,-101.1343497
167.27750,-65.73179845
167.27800,-30.02405275
167.27850,-15.06952677
167.27900,-18.73185966
167.27950,-21.47860933
167.28000,-15.98510999
167.28050,-10.79680506
167.28100,-3.472139276
167.28150,24.30055182
167.28200,71.60568502
167.28250,99.07318171
167.28300,78.9303508
167.28350,40.47585543
167.28400,35.2875505
167.28450,65.80699127
167.28500,81.98229488
167.28550,54.20960378
167.28600,9.04083144
167.28650,-15.06952677
167.28700,-15.98510999
167.28750,-12.3227771
167.28800,-11.10199947
167.28850,-7.439666576
167.28900,-2.861750461
167.28950,-1.946167238
167.29000,-0.420195199
167.29050,7.820053809
167.29100,22.46938538
167.29150,35.59274491
167.29200,41.39143866
167.29250,32.84599524
167.29300,10.26160907
167.29350,-11.10199947
167.29400,-12.62797151
167.29450,1.716165655
167.29500,5.988887363
167.29550,-13.23836032
167.29600,-38.87469057
167.29650,-43.75780109
167.29700,-24.83574782
167.29750,0.1901936164
167.29800,13.92394196
167.29850,13.31355315
167.29900,6.904470586
167.29950,2.021360063
167.30000,-3.472139276
167.30050,-20.86822052
167.30100,-48.94610602
167.30150,-67.56296489
167.30200,-58.71232707
167.30250,-31.55002478
167.30300,-10.18641625
167.30350,-0.7253896067
167.30400,7.820053809
167.30450,17.89146926
167.30500,22.77457979
167.30550,29.48885676
167.30600,49.02129885
167.30650,68.85893535
167.30700,59.39790871
167.30750,20.33302452
167.30800,-12.01758269
167.30850,-14.45913795
167.30900,-2.251361645
167.30950,2.021360063
167.31000,2.021360063
167.31050,8.125248217
167.31100,13.31355315
167.31150,9.956414663
167.31200,5.988887363
167.31250,7.820053809
167.31300,7.209664994
167.31350,2.631748878
167.31400,9.651220255
167.31450,28.87846794
167.31500,30.09924557
167.31550,-7.134472168
167.31600,-54.43960536
167.31650,-70.00452015
167.31700,-54.74479977
167.31750,-39.48507938
167.31800,-31.85521919
167.31850,-20.56302611
167.31900,-11.71238828
167.31950,-24.53055341
167.32000,-45.89416195
167.32050,-36.73832972
167.32100,5.988887363
167.32150,43.2226051
167.32200,49.02129885
167.32250,42.00182747
167.32300,42.30702188
167.32350,34.06677287
167.32400,0.4953880241
167.32450,-38.56949616
167.32500,-51.08246688
167.32550,-34.90716327
167.32600,-15.06952677
167.32650,-6.524083353
167.32700,-5.303305722
167.32750,-6.524083353
167.32800,-9.881221838
167.32850,-9.57602743
167.32900,0.8005824318
167.32950,17.58627486
167.33000,29.18366235
167.33050,30.70963439
167.33100,25.82652386
167.33150,17.58627486
167.33200,7.820053809
167.33250,-0.1150007913
167.33300,-4.082528091
167.33350,-6.524083353
167.33400,-13.54355473
167.33450,-25.75133104
167.33500,-37.04352412
167.33550,-38.87469057
167.33600,-30.02405275
167.33650,-19.03705407
167.33700,-14.15394355
167.33750,-11.71238828
167.33800,5.07330414
167.33850,41.39143866
167.33900,74.6576291
167.33950,78.01476758
167.34000,53.29402056
167.34050,29.18366235
167.34100,22.46938538
167.34150,22.77457979
167.34200,13.92394196
167.34250,-0.7253896067
167.34300,-8.965638615
167.34350,-7.439666576
167.34400,-2.251361645
167.34450,2.021360063
167.34500,3.242137693
167.34550,-0.1150007913
167.34600,-5.913694538
167.34650,-3.166944868
167.34700,12.39796992
167.34750,32.54080083
167.34800,43.83299392
167.34850,43.83299392
167.34900,35.59274491
167.34950,21.24860775
167.35000,4.768109732
167.35050,-0.7253896067
167.35100,6.29408177
167.35150,11.17719229
167.35200,-2.556556053
167.35250,-27.88769189
167.35300,-43.45260668
167.35350,-45.89416195
167.35400,-45.89416195
167.35450,-42.53702346
167.35500,-20.86822052
167.35550,14.53433078
167.35600,32.84599524
167.35650,12.70316433
167.35700,-26.97210867
167.35750,-51.08246688
167.35800,-49.86168925
167.35850,-44.97857872
167.35900,-52.91363332
167.35950,-62.98504878
167.36000,-55.9655774
167.36050,-32.1604136
167.36100,-8.355249799
167.36150,8.125248217
167.36200,27.3524959
167.36250,56.04077023
167.36300,82.8978781
167.36350,90.22254389
167.36400,78.31996199
167.36450,66.11218568
167.36500,63.0602416
167.36550,58.48232549
167.36600,40.17066103
167.36650,13.92394196
167.36700,-4.692916907
167.36750,-11.71238828
167.36800,-12.93316591
167.36850,-12.62797151
167.36900,-10.49161065
167.36950,-8.965638615
167.37000,-11.71238828
167.37050,-17.20588762
167.37100,-21.17341492
167.37150,-25.75133104
167.37200,-34.90716327
167.37250,-43.75780109
167.37300,-41.31624583
167.37350,-28.1928863
167.37400,-20.2578317
167.37450,-28.49808071
167.37500,-42.23182905
167.37550,-41.62144024
167.37600,-21.78380374
167.37650,3.547332101
167.37700,18.80705249
167.37750,19.11224689
167.37800,7.820053809
167.37850,-4.998111315
167.37900,-3.472139276
167.37950,23.69016301
167.38000,60.92388075
167.38050,65.50179686
167.38100,17.89146926
167.38150,-42.84221787
167.38200,-55.66038299
167.38250,-9.881221838
167.38300,43.83299392
167.38350,59.39790871
167.38400,42.00182747
167.38450,23.07977419
167.38500,11.78758111
167.38550,1.410971247
167.38600,-1.335778422
167.38650,13.00835874
167.38700,31.3200232
167.38750,24.60574623
167.38800,-5.60850013
167.38850,-27.27730308
167.38900,-20.56302611
167.38950,-4.387722499
167.39000,-2.251361645
167.39050,-9.57602743
167.39100,-8.050055392
167.39150,3.547332101
167.39200,12.39796992
167.39250,12.39796992
167.39300,10.56680348
167.39350,10.26160907
167.39400,4.768109732
167.39450,-8.355249799
167.39500,-21.78380374
167.39550,-28.1928863
167.39600,-33.99158005
167.39650,-49.86168925
167.39700,-70.61490897
167.39750,-77.93957476
167.39800,-59.01752148
167.39850,-24.53055341
167.39900,5.07330414
167.39950,22.46938538
167.40000,33.15118965
167.40050,40.47585543
167.40100,37.72910576
167.40150,20.63821893
167.40200,-0.1150007913
167.40250,-7.744860984
167.40300,0.4953880241
167.40350,13.00835874
167.40400,16.97588604
167.40450,13.31355315
167.40500,9.04083144
167.40550,5.988887363
167.40600,-0.1150007913
167.40650,-9.57602743
167.40700,-18.12147085
167.40750,-24.83574782
167.40800,-29.71885834
167.40850,-31.24483038
167.40900,-28.49808071
167.40950,-26.97210867
167.41000,-30.93963597
167.41050,-30.32924715
167.41100,-12.62797151
167.41150,12.09277552
167.41200,21.55380216
167.41250,12.09277552
167.41300,9.346025847
167.41350,27.3524959
167.41400,46.88493799
167.41450,51.46285411
167.41500,56.34596463
167.41550,77.40437876
167.41600,88.69657185
167.41650,58.48232549
167.41700,6.29408177
167.41750,-20.2578317
167.41800,-15.67991558
167.41850,-19.64744288
167.41900,-47.42013399
167.41950,-68.47854812
167.42000,-62.67985437
167.42050,-53.82921655
167.42100,-62.67985437
167.42150,-65.73179845
167.42200,-34.90716327
167.42250,14.22913637
167.42300,42.91741069
167.42350,35.89793932
167.42400,6.599276178
167.42450,-28.80327512
167.42500,-58.10193825
167.42550,-68.78374252
167.42600,-61.15388233
167.42650,-52.30324451
167.42700,-51.9980501
167.42750,-45.89416195
167.42800,-23.30977578
167.42850,1.410971247
167.42900,10.56680348
167.42950,6.29408177
167.43000,1.105776839
167.43050,-3.166944868
167.43100,-6.218888945
167.43150,3.547332101
167.43200,29.79405116
167.43250,51.1576597
167.43300,43.2226051
167.43350,13.92394196
167.43400,-10.18641625
167.43450,-19.34224848
167.43500,-24.83574782
167.43550,-35.82274649
167.43600,-43.75780109
167.43650,-38.87469057
167.43700,-24.53055341
167.43750,-11.71238828
167.43800,-1.64097283
167.43850,20.94341334
167.43900,70.6901018
167.43950,132.6445666
167.44000,165.3003682
167.44050,142.1055932
167.44100,83.50826692
167.44150,33.76157846
167.44200,10.87199789
167.44250,1.716165655
167.44300,-4.692916907
167.44350,-3.166944868
167.44400,6.599276178
167.44450,13.92394196
167.44500,13.61874756
167.44550,14.22913637
167.44600,19.72263571
167.44650,21.55380216
167.44700,19.11224689
167.44750,22.77457979
167.44800,33.76157846
167.44850,34.67716169
167.44900,12.70316433
167.44950,-18.42666525
167.45000,-37.95910735
167.45050,-38.56949616
167.45100,-29.41366393
167.45150,-19.95263729
167.45200,-14.15394355
167.45250,-10.18641625
167.45300,-5.913694538
167.45350,-2.251361645
167.45400,-3.166944868
167.45450,-11.10199947
167.45500,-19.34224848
167.45550,-20.86822052
167.45600,-17.20588762
167.45650,-14.15394355
167.45700,-13.84874914
167.45750,-12.3227771
167.45800,-9.881221838
167.45850,-8.355249799
167.45900,-4.998111315
167.45950,1.410971247
167.46000,6.599276178
167.46050,5.07330414
167.46100,1.716165655
167.46150,2.631748878
167.46200,2.021360063
167.46250,-8.050055392
167.46300,-24.83574782
167.46350,-35.51755208
167.46400,-37.04352412
167.46450,-34.90716327
167.46500,-29.10846952
167.46550,-13.54355473
167.46600,8.125248217
167.46650,23.07977419
167.46700,25.52132946
167.46750,23.07977419
167.46800,23.07977419
167.46850,21.85899656
167.46900,13.00835874
167.46950,-1.030584014
167.47000,-10.79680506
167.47050,-7.439666576
167.47100,9.956414663
167.47150,32.23560643
167.47200,43.2226051
167.47250,39.86546662
167.47300,34.67716169
167.47350,36.20313373
167.47400,33.76157846
167.47450,15.75510841
167.47500,-8.050055392
167.47550,-22.08899815
167.47600,-29.71885834
167.47650,-47.42013399
167.47700,-72.75126982
167.47750,-86.79021258
167.47800,-87.09540699
167.47850,-92.28371192
167.47900,-101.4395441
167.47950,-87.09540699
167.48000,-35.82274649
167.48050,21.24860775
167.48100,49.63168766
167.48150,52.98882615
167.48200,56.95635345
167.48250,66.7225745
167.48300,67.0277689
167.48350,59.70310312
167.48400,63.67063042
167.48450,82.28748929
167.48500,93.88487678
167.48550,81.98229488
167.48600,56.95635345
167.48650,37.11871695
167.48700,29.48885676
167.48750,27.96288472
167.48800,23.99535742
167.48850,8.430442624
167.48900,-22.39419255
167.48950,-53.82921655
167.49000,-64.51102082
167.49050,-51.9980501
167.49100,-37.95910735
167.49150,-37.04352412
167.49200,-42.53702346
167.49250,-41.01105142
167.49300,-32.77080242
167.49350,-21.17341492
167.49400,-2.556556053
167.49450,25.82652386
167.49500,53.90440937
167.49550,67.63815772
167.49600,63.97582483
167.49650,47.49532681
167.49700,17.89146926
167.49750,-19.64744288
167.49800,-51.69285569
167.49850,-69.08893693
167.49900,-82.21229646
167.49950,-103.2707106
167.50000,-124.3291247
167.50050,-130.1278185
167.50100,-121.5823751
167.50150,-111.5109596
167.50200,-95.33565599
167.50250,-58.10193825
167.50300,-1.64097283
167.50350,49.02129885
167.50400,75.26801791
167.50450,78.6251564
167.50500,65.19660246
167.50550,37.72910576
167.50600,5.378498547
167.50650,-13.54355473
167.50700,-12.01758269
167.50750,1.105776839
167.50800,18.80705249
167.50850,44.74857714
167.50900,77.09918436
167.50950,95.10565441
167.51000,82.28748929
167.51050,52.98882615
167.51100,35.89793932
167.51150,36.81352254
167.51200,31.62521761
167.51250,4.768109732
167.51300,-26.97210867
167.51350,-35.82274649
167.51400,-21.47860933
167.51450,-11.10199947
167.51500,-21.47860933
167.51550,-36.43313531
167.51600,-31.24483038
167.51650,-8.355249799
167.51700,5.988887363
167.51750,0.4953880241
167.51800,-11.71238828
167.51850,-15.98510999
167.51900,-15.98510999
167.51950,-16.2903044
167.52000,-6.829277761
167.52050,21.24860775
167.52100,51.76804852
167.52150,60.31349193
167.52200,50.54727089
167.52250,49.02129885
167.52300,62.7550472
167.52350,64.89140805
167.52400,32.54080083
167.52450,-17.81627644
167.52500,-49.25130043
167.52550,-48.0305228
167.52600,-31.24483038
167.52650,-19.03705407
167.52700,-14.76433236
167.52750,-16.2903044
167.52800,-24.83574782
167.52850,-38.87469057
167.52900,-46.80974517
167.52950,-37.95910735
167.53000,-14.15394355
167.53050,13.61874756
167.53100,37.72910576
167.53150,53.59921496
167.53200,56.34596463
167.53250,41.69663306
167.53300,18.50185808
167.53350,2.936943286
167.53400,2.32655447
167.53450,6.599276178
167.53500,2.32655447
167.53550,-9.57602743
167.53600,-16.90069321
167.53650,-10.79680506
167.53700,1.410971247
167.53750,9.04083144
167.53800,8.125248217
167.53850,4.462915324
167.53900,2.631748878
167.53950,1.105776839
167.54000,-2.861750461
167.54050,-7.744860984
167.54100,-10.18641625
167.54150,-12.62797151
167.54200,-18.12147085
167.54250,-23.00458137
167.54300,-19.95263729
167.54350,-9.270833022
167.54400,-2.251361645
167.54450,-5.60850013
167.54500,-13.84874914
167.54550,-17.81627644
167.54600,-18.12147085
167.54650,-18.12147085
167.54700,-13.23836032
167.54750,2.631748878
167.54800,23.69016301
167.54850,38.03430017
167.54900,42.91741069
167.54950,45.05377155
167.55000,44.74857714
167.55050,31.3200232
167.55100,0.4953880241
167.55150,-31.55002478
167.55200,-41.62144024
167.55250,-25.14094222
167.55300,-2.251361645
167.55350,3.852526509
167.55400,-11.10199947
167.55450,-37.65391294
167.55500,-64.20582641
167.55550,-86.79021258
167.55600,-99.6083777
167.55650,-91.36812869
167.55700,-61.15388233
167.55750,-27.58249748
167.55800,-9.57602743
167.55850,-4.387722499
167.55900,6.599276178
167.55950,30.40443998
167.56000,53.29402056
167.56050,62.44985279
167.56100,60.00829753
167.56150,53.90440937
167.56200,45.66416036
167.56250,35.2875505
167.56300,27.3524959
167.56350,22.77457979
167.56400,13.61874756
167.56450,-3.166944868
167.56500,-17.81627644
167.56550,-18.42666525
167.56600,-9.57602743
167.56650,-8.355249799
167.56700,-20.56302611
167.56750,-32.46560801
167.56800,-28.1928863
167.56850,-11.10199947
167.56900,3.547332101
167.56950,11.17719229
167.57000,22.16419097
167.57050,42.30702188
167.57100,52.68363174
167.57150,32.23560643
167.57200,-9.270833022
167.57250,-35.51755208
167.57300,-23.92016459
167.57350,8.430442624
167.57400,30.70963439
167.57450,29.18366235
167.57500,11.78758111
167.57550,-8.050055392
167.57600,-23.92016459
167.57650,-33.99158005
167.57700,-43.14741228
167.57750,-53.52402214
167.57800,-55.35518859
167.57850,-39.48507938
167.57900,-13.54355473
167.57950,5.683692955
167.58000,22.77457979
167.58050,57.26154786
167.58100,105.4822643
167.58150,128.9822337
167.58200,100.9043482
167.58250,42.30702188
167.58300,-4.692916907
167.58350,-26.66691426
167.58400,-39.17988498
167.58450,-51.38766129
167.58500,-55.35518859
167.58550,-45.89416195
167.58600,-33.07599682
167.58650,-30.02405275
167.58700,-35.82274649
167.58750,-35.82274649
167.58800,-16.59549881
167.58850,16.97588604
167.58900,44.13818833
167.58950,47.49532681
167.59000,37.42391136
167.59050,35.59274491
167.59100,44.13818833
167.59150,42.91741069
167.59200,23.99535742
167.59250,5.683692955
167.59300,2.021360063
167.59350,4.157720917
167.59400,0.8005824318
167.59450,-1.030584014
167.59500,7.820053809
167.59550,19.11224689
167.59600,17.89146926
167.59650,7.209664994
167.59700,0.1901936164
167.59750,-0.1150007913
167.59800,-0.1150007913
167.59850,-0.1150007913
167.59900,-0.420195199
167.59950,-3.166944868
167.60000,-0.1150007913
167.60050,26.43691268
167.60100,70.07971298
167.60150,89.30696067
167.60200,56.34596463
167.60250,2.631748878
167.60300,-18.42666525
167.60350,-8.355249799
167.60400,-15.37472118
167.60450,-57.18635503
167.60500,-91.97851751
167.60550,-81.60190765
167.60600,-46.19935635
167.60650,-24.83574782
167.60700,-15.98510999
167.60750,7.209664994
167.60800,42.30702188
167.60850,53.29402056
167.60900,22.77457979
167.60950,-23.00458137
167.61000,-48.94610602
167.61050,-46.19935635
167.61100,-28.80327512
167.61150,-11.40719388
167.61200,2.021360063
167.61250,12.09277552
167.61300,16.36549722
167.61350,15.14471959
167.61400,15.449914
167.61450,23.99535742
167.61500,34.98235609
167.61550,30.40443998
167.61600,5.378498547
167.61650,-21.47860933
167.61700,-31.24483038
167.61750,-30.63444156
167.61800,-40.0954682
167.61850,-59.9331047
167.61900,-70.00452015
167.61950,-59.62791029
167.62000,-37.65391294
167.62050,-10.49161065
167.62100,22.77457979
167.62150,52.37843733
167.62200,58.7875199
167.62250,40.47585543
167.62300,19.11224689
167.62350,8.430442624
167.62400,0.4953880241
167.62450,-9.270833022
167.62500,-10.49161065
167.62550,-0.1150007913
167.62600,4.768109732
167.62650,-3.472139276
167.62700,-7.744860984
167.62750,5.07330414
167.62800,21.55380216
167.62850,24.60574623
167.62900,20.94341334
167.62950,20.94341334
167.63000,16.67069163
167.63050,1.410971247
167.63100,-11.10199947
167.63150,-9.270833022
167.63200,-8.050055392
167.63250,-24.53055341
167.63300,-43.75780109
167.63350,-41.92663465
167.63400,-26.36171985
167.63450,-23.30977578
167.63500,-33.99158005
167.63550,-36.43313531
167.63600,-22.39419255
167.63650,-7.134472168
167.63700,2.32655447
167.63750,13.31355315
167.63800,22.46938538
167.63850,13.31355315
167.63900,-14.76433236
167.63950,-38.26430175
167.64000,-38.56949616
167.64050,-25.14094222
167.64100,-17.51108203
167.64150,-19.95263729
167.64200,-24.83574782
167.64250,-25.75133104
167.64300,-21.17341492
167.64350,-9.881221838
167.64400,4.157720917
167.64450,14.83952519
167.64500,19.72263571
167.64550,20.02783012
167.64600,13.00835874
167.64650,-4.387722499
167.64700,-22.39419255
167.64750,-22.39419255
