"type","name","time_units","begin_time","frequency","count","units"
"signal","Ultium EMG-Ultium EMG.EMG 1","s",153.92000,2000,22000,"uV"

"time","value"
153.92000,-4.409227952
153.92050,-6.240394398
153.92100,-7.461172029
153.92150,-7.461172029
153.92200,-7.461172029
153.92250,-8.376755252
153.92300,-9.597532883
153.92350,-9.597532883
153.92400,-9.292338475
153.92450,-9.597532883
153.92500,-10.51311611
153.92550,-10.81831051
153.92600,-9.597532883
153.92650,-8.071560845
153.92700,-6.545588806
153.92750,-5.324811175
153.92800,-5.019616768
153.92850,-4.71442236
153.92900,-2.883255914
153.92950,-0.1365062443
153.93000,1.389465794
153.93050,1.084271386
153.93100,-0.1365062443
153.93150,0.1686881634
153.93200,1.99985461
153.93250,4.136215463
153.93300,5.662187502
153.93350,6.882965133
153.93400,6.882965133
153.93450,5.662187502
153.93500,4.136215463
153.93550,3.22063224
153.93600,3.22063224
153.93650,3.22063224
153.93700,1.99985461
153.93750,0.4738825711
153.93800,-0.7468950597
153.93850,-2.578061506
153.93900,-4.104033544
153.93950,-4.409227952
153.94000,-3.188450321
153.94050,-1.662478283
153.94100,-1.357283875
153.94150,-2.272867098
153.94200,-2.883255914
153.94250,-2.578061506
153.94300,-2.272867098
153.94350,-3.798839137
153.94400,-6.240394398
153.94450,-8.071560845
153.94500,-7.461172029
153.94550,-6.240394398
153.94600,-5.935199991
153.94650,-7.155977621
153.94700,-6.850783214
153.94750,-4.104033544
153.94800,-0.7468950597
153.94850,1.084271386
153.94900,1.99985461
153.94950,3.831021056
153.95000,6.577770725
153.95050,9.019325987
153.95100,9.324520394
153.95150,8.714131579
153.95200,7.798548356
153.95250,8.103742764
153.95300,8.714131579
153.95350,9.019325987
153.95400,8.408937171
153.95450,7.493353948
153.95500,6.577770725
153.95550,5.96738191
153.95600,5.051798687
153.95650,4.441409871
153.95700,3.831021056
153.95750,3.525826648
153.95800,2.610243425
153.95850,1.084271386
153.95900,0.7790769788
153.95950,1.084271386
153.96000,0.7790769788
153.96050,-1.052089467
153.96100,-3.493644729
153.96150,-4.71442236
153.96200,-5.019616768
153.96250,-5.324811175
153.96300,-6.850783214
153.96350,-8.987144068
153.96400,-9.902727291
153.96450,-10.2079217
153.96500,-9.292338475
153.96550,-7.766366437
153.96600,-6.240394398
153.96650,-4.71442236
153.96700,-3.493644729
153.96750,-2.272867098
153.96800,-1.357283875
153.96850,-1.052089467
153.96900,-0.441700652
153.96950,1.389465794
153.97000,4.136215463
153.97050,5.96738191
153.97100,5.356993094
153.97150,4.136215463
153.97200,4.136215463
153.97250,5.356993094
153.97300,7.493353948
153.97350,9.324520394
153.97400,9.93490921
153.97450,9.324520394
153.97500,7.798548356
153.97550,7.188159541
153.97600,7.493353948
153.97650,7.493353948
153.97700,6.577770725
153.97750,5.051798687
153.97800,3.831021056
153.97850,2.610243425
153.97900,1.389465794
153.97950,0.4738825711
153.98000,-0.441700652
153.98050,-2.578061506
153.98100,-4.409227952
153.98150,-5.324811175
153.98200,-5.019616768
153.98250,-5.630005583
153.98300,-8.071560845
153.98350,-10.51311611
153.98400,-11.42869933
153.98450,-11.12350492
153.98500,-10.51311611
153.98550,-9.902727291
153.98600,-7.766366437
153.98650,-5.324811175
153.98700,-4.104033544
153.98750,-5.019616768
153.98800,-5.935199991
153.98850,-4.409227952
153.98900,-0.1365062443
153.98950,5.051798687
153.99000,9.019325987
153.99050,10.54529803
153.99100,10.54529803
153.99150,10.24010362
153.99200,10.54529803
153.99250,10.85049243
153.99300,9.93490921
153.99350,7.798548356
153.99400,5.662187502
153.99450,4.441409871
153.99500,3.831021056
153.99550,3.831021056
153.99600,3.525826648
153.99650,3.525826648
153.99700,3.831021056
153.99750,4.136215463
153.99800,3.525826648
153.99850,1.694660202
153.99900,-0.1365062443
153.99950,-0.7468950597
154.00000,-1.052089467
154.00050,-1.357283875
154.00100,-2.578061506
154.00150,-3.798839137
154.00200,-4.409227952
154.00250,-4.71442236
154.00300,-5.324811175
154.00350,-5.324811175
154.00400,-5.630005583
154.00450,-6.240394398
154.00500,-7.155977621
154.00550,-6.850783214
154.00600,-5.324811175
154.00650,-3.493644729
154.00700,-3.188450321
154.00750,-3.188450321
154.00800,-2.578061506
154.00850,-1.052089467
154.00900,-0.441700652
154.00950,-0.1365062443
154.01000,0.4738825711
154.01050,2.610243425
154.01100,4.136215463
154.01150,3.831021056
154.01200,2.915437833
154.01250,2.610243425
154.01300,3.525826648
154.01350,4.441409871
154.01400,5.662187502
154.01450,6.577770725
154.01500,7.188159541
154.01550,6.577770725
154.01600,5.662187502
154.01650,5.051798687
154.01700,3.525826648
154.01750,1.389465794
154.01800,0.7790769788
154.01850,1.99985461
154.01900,2.915437833
154.01950,1.389465794
154.02000,-1.357283875
154.02050,-3.493644729
154.02100,-4.409227952
154.02150,-4.71442236
154.02200,-4.409227952
154.02250,-3.188450321
154.02300,-2.883255914
154.02350,-4.104033544
154.02400,-6.240394398
154.02450,-6.545588806
154.02500,-4.71442236
154.02550,-3.798839137
154.02600,-5.019616768
154.02650,-5.935199991
154.02700,-5.019616768
154.02750,-4.104033544
154.02800,-4.71442236
154.02850,-5.019616768
154.02900,-3.798839137
154.02950,-2.272867098
154.03000,-1.967672691
154.03050,-1.967672691
154.03100,-0.1365062443
154.03150,2.610243425
154.03200,4.441409871
154.03250,4.441409871
154.03300,5.051798687
154.03350,6.882965133
154.03400,8.408937171
154.03450,8.103742764
154.03500,6.577770725
154.03550,5.662187502
154.03600,5.662187502
154.03650,5.96738191
154.03700,5.96738191
154.03750,5.356993094
154.03800,4.136215463
154.03850,2.610243425
154.03900,1.389465794
154.03950,1.389465794
154.04000,0.7790769788
154.04050,-0.441700652
154.04100,-2.883255914
154.04150,-3.798839137
154.04200,-4.104033544
154.04250,-5.019616768
154.04300,-7.461172029
154.04350,-9.597532883
154.04400,-10.51311611
154.04450,-10.51311611
154.04500,-9.902727291
154.04550,-9.292338475
154.04600,-8.376755252
154.04650,-7.461172029
154.04700,-6.240394398
154.04750,-4.409227952
154.04800,-1.052089467
154.04850,1.99985461
154.04900,4.136215463
154.04950,4.441409871
154.05000,4.136215463
154.05050,4.136215463
154.05100,5.356993094
154.05150,6.882965133
154.05200,7.798548356
154.05250,7.798548356
154.05300,7.188159541
154.05350,6.272576317
154.05400,5.662187502
154.05450,5.356993094
154.05500,5.96738191
154.05550,6.577770725
154.05600,5.662187502
154.05650,3.525826648
154.05700,1.694660202
154.05750,2.610243425
154.05800,4.746604279
154.05850,4.746604279
154.05900,1.694660202
154.05950,-1.052089467
154.06000,-2.578061506
154.06050,-3.798839137
154.06100,-5.630005583
154.06150,-7.766366437
154.06200,-8.68194966
154.06250,-8.376755252
154.06300,-8.376755252
154.06350,-7.766366437
154.06400,-6.545588806
154.06450,-5.935199991
154.06500,-6.545588806
154.06550,-7.155977621
154.06600,-5.935199991
154.06650,-4.409227952
154.06700,-4.409227952
154.06750,-5.324811175
154.06800,-5.324811175
154.06850,-2.883255914
154.06900,-0.7468950597
154.06950,-0.1365062443
154.07000,0.1686881634
154.07050,2.305049017
154.07100,4.746604279
154.07150,5.662187502
154.07200,5.051798687
154.07250,5.356993094
154.07300,7.798548356
154.07350,10.24010362
154.07400,10.24010362
154.07450,7.188159541
154.07500,4.441409871
154.07550,4.441409871
154.07600,5.96738191
154.07650,5.356993094
154.07700,2.305049017
154.07750,-0.1365062443
154.07800,0.4738825711
154.07850,2.610243425
154.07900,2.610243425
154.07950,0.7790769788
154.08000,-0.7468950597
154.08050,-1.357283875
154.08100,-1.357283875
154.08150,-1.967672691
154.08200,-2.883255914
154.08250,-4.104033544
154.08300,-5.019616768
154.08350,-4.104033544
154.08400,-2.578061506
154.08450,-1.357283875
154.08500,-2.272867098
154.08550,-3.493644729
154.08600,-3.798839137
154.08650,-2.883255914
154.08700,-2.883255914
154.08750,-4.71442236
154.08800,-6.545588806
154.08850,-7.155977621
154.08900,-5.935199991
154.08950,-3.493644729
154.09000,-1.357283875
154.09050,-0.1365062443
154.09100,0.1686881634
154.09150,1.084271386
154.09200,2.610243425
154.09250,4.746604279
154.09300,5.662187502
154.09350,5.662187502
154.09400,4.441409871
154.09450,3.831021056
154.09500,4.136215463
154.09550,5.051798687
154.09600,5.356993094
154.09650,5.356993094
154.09700,5.96738191
154.09750,7.188159541
154.09800,7.188159541
154.09850,5.051798687
154.09900,2.305049017
154.09950,1.084271386
154.10000,0.1686881634
154.10050,-1.967672691
154.10100,-5.019616768
154.10150,-5.935199991
154.10200,-5.324811175
154.10250,-5.935199991
154.10300,-8.68194966
154.10350,-10.51311611
154.10400,-9.597532883
154.10450,-8.376755252
154.10500,-8.987144068
154.10550,-10.2079217
154.10600,-8.987144068
154.10650,-6.545588806
154.10700,-4.409227952
154.10750,-3.493644729
154.10800,-1.662478283
154.10850,1.389465794
154.10900,3.831021056
154.10950,3.831021056
154.11000,3.22063224
154.11050,2.915437833
154.11100,3.831021056
154.11150,4.746604279
154.11200,5.356993094
154.11250,5.96738191
154.11300,6.882965133
154.11350,7.188159541
154.11400,7.188159541
154.11450,7.188159541
154.11500,7.493353948
154.11550,8.103742764
154.11600,8.714131579
154.11650,8.103742764
154.11700,6.272576317
154.11750,4.136215463
154.11800,2.610243425
154.11850,1.084271386
154.11900,-0.1365062443
154.11950,-1.357283875
154.12000,-2.578061506
154.12050,-4.409227952
154.12100,-6.545588806
154.12150,-8.68194966
154.12200,-9.292338475
154.12250,-9.292338475
154.12300,-9.597532883
154.12350,-10.81831051
154.12400,-11.42869933
154.12450,-11.12350492
154.12500,-9.902727291
154.12550,-8.987144068
154.12600,-8.376755252
154.12650,-7.155977621
154.12700,-5.630005583
154.12750,-4.409227952
154.12800,-3.798839137
154.12850,-3.188450321
154.12900,-2.272867098
154.12950,-1.052089467
154.13000,-0.441700652
154.13050,-1.052089467
154.13100,-1.357283875
154.13150,-0.1365062443
154.13200,2.305049017
154.13250,3.831021056
154.13300,3.831021056
154.13350,3.22063224
154.13400,3.525826648
154.13450,5.051798687
154.13500,6.577770725
154.13550,6.882965133
154.13600,6.272576317
154.13650,5.051798687
154.13700,4.136215463
154.13750,3.22063224
154.13800,1.99985461
154.13850,0.4738825711
154.13900,0.1686881634
154.13950,1.084271386
154.14000,1.694660202
154.14050,0.7790769788
154.14100,-0.7468950597
154.14150,-2.578061506
154.14200,-4.409227952
154.14250,-6.545588806
154.14300,-8.376755252
154.14350,-9.292338475
154.14400,-8.68194966
154.14450,-7.766366437
154.14500,-7.766366437
154.14550,-7.461172029
154.14600,-5.935199991
154.14650,-2.883255914
154.14700,-0.441700652
154.14750,-0.441700652
154.14800,-1.662478283
154.14850,-1.967672691
154.14900,-0.7468950597
154.14950,0.7790769788
154.15000,1.389465794
154.15050,1.084271386
154.15100,0.7790769788
154.15150,1.389465794
154.15200,2.305049017
154.15250,4.441409871
154.15300,6.882965133
154.15350,7.798548356
154.15400,6.577770725
154.15450,3.831021056
154.15500,2.305049017
154.15550,2.305049017
154.15600,1.99985461
154.15650,1.99985461
154.15700,2.915437833
154.15750,3.831021056
154.15800,3.831021056
154.15850,2.305049017
154.15900,1.389465794
154.15950,1.99985461
154.16000,1.694660202
154.16050,-0.1365062443
154.16100,-2.272867098
154.16150,-3.493644729
154.16200,-5.019616768
154.16250,-6.545588806
154.16300,-7.461172029
154.16350,-5.935199991
154.16400,-4.409227952
154.16450,-4.104033544
154.16500,-4.71442236
154.16550,-4.71442236
154.16600,-4.409227952
154.16650,-5.019616768
154.16700,-5.935199991
154.16750,-5.630005583
154.16800,-3.493644729
154.16850,-1.662478283
154.16900,-1.052089467
154.16950,-1.052089467
154.17000,-0.1365062443
154.17050,2.610243425
154.17100,5.96738191
154.17150,8.408937171
154.17200,10.24010362
154.17250,11.46088125
154.17300,12.68165888
154.17350,13.29204769
154.17400,12.98685329
154.17450,12.07127006
154.17500,10.85049243
154.17550,10.24010362
154.17600,9.93490921
154.17650,9.629714802
154.17700,9.019325987
154.17750,8.103742764
154.17800,8.103742764
154.17850,7.493353948
154.17900,5.662187502
154.17950,3.831021056
154.18000,3.22063224
154.18050,3.831021056
154.18100,3.831021056
154.18150,2.610243425
154.18200,0.7790769788
154.18250,-0.7468950597
154.18300,-2.883255914
154.18350,-5.324811175
154.18400,-6.850783214
154.18450,-7.461172029
154.18500,-8.376755252
154.18550,-9.597532883
154.18600,-9.902727291
154.18650,-8.987144068
154.18700,-8.68194966
154.18750,-8.071560845
154.18800,-5.935199991
154.18850,-1.967672691
154.18900,0.4738825711
154.18950,0.7790769788
154.19000,0.4738825711
154.19050,1.99985461
154.19100,4.441409871
154.19150,5.356993094
154.19200,5.356993094
154.19250,6.272576317
154.19300,8.408937171
154.19350,9.629714802
154.19400,10.24010362
154.19450,10.24010362
154.19500,9.629714802
154.19550,8.408937171
154.19600,7.188159541
154.19650,6.577770725
154.19700,5.662187502
154.19750,4.136215463
154.19800,2.305049017
154.19850,1.694660202
154.19900,0.7790769788
154.19950,-1.357283875
154.20000,-3.798839137
154.20050,-4.71442236
154.20100,-4.104033544
154.20150,-4.104033544
154.20200,-5.019616768
154.20250,-6.850783214
154.20300,-8.376755252
154.20350,-10.81831051
154.20400,-12.64947696
154.20450,-12.95467137
154.20500,-12.64947696
154.20550,-12.64947696
154.20600,-12.95467137
154.20650,-12.34428255
154.20700,-10.51311611
154.20750,-8.987144068
154.20800,-8.376755252
154.20850,-8.071560845
154.20900,-7.155977621
154.20950,-5.935199991
154.21000,-5.019616768
154.21050,-4.104033544
154.21100,-3.188450321
154.21150,-1.967672691
154.21200,-1.052089467
154.21250,-0.441700652
154.21300,-0.7468950597
154.21350,-1.357283875
154.21400,-0.7468950597
154.21450,2.305049017
154.21500,6.577770725
154.21550,9.324520394
154.21600,9.629714802
154.21650,8.714131579
154.21700,8.103742764
154.21750,6.882965133
154.21800,5.662187502
154.21850,3.831021056
154.21900,2.610243425
154.21950,1.084271386
154.22000,-1.052089467
154.22050,-4.104033544
154.22100,-7.155977621
154.22150,-9.292338475
154.22200,-10.81831051
154.22250,-11.12350492
154.22300,-10.2079217
154.22350,-8.68194966
154.22400,-7.461172029
154.22450,-7.766366437
154.22500,-8.376755252
154.22550,-8.68194966
154.22600,-8.987144068
154.22650,-9.292338475
154.22700,-9.292338475
154.22750,-7.766366437
154.22800,-5.935199991
154.22850,-4.71442236
154.22900,-3.188450321
154.22950,-1.357283875
154.23000,0.1686881634
154.23050,1.389465794
154.23100,1.084271386
154.23150,1.389465794
154.23200,3.22063224
154.23250,5.662187502
154.23300,6.577770725
154.23350,6.272576317
154.23400,6.577770725
154.23450,8.103742764
154.23500,9.019325987
154.23550,8.408937171
154.23600,7.493353948
154.23650,7.493353948
154.23700,8.714131579
154.23750,9.019325987
154.23800,7.798548356
154.23850,6.272576317
154.23900,5.662187502
154.23950,5.662187502
154.24000,5.051798687
154.24050,3.831021056
154.24100,2.305049017
154.24150,0.7790769788
154.24200,-1.052089467
154.24250,-2.578061506
154.24300,-3.798839137
154.24350,-5.019616768
154.24400,-7.155977621
154.24450,-9.292338475
154.24500,-9.902727291
154.24550,-8.376755252
154.24600,-6.545588806
154.24650,-5.630005583
154.24700,-4.71442236
154.24750,-3.188450321
154.24800,-1.052089467
154.24850,-0.1365062443
154.24900,0.4738825711
154.24950,1.084271386
154.25000,1.694660202
154.25050,2.305049017
154.25100,2.915437833
154.25150,3.525826648
154.25200,4.746604279
154.25250,6.272576317
154.25300,7.188159541
154.25350,7.493353948
154.25400,8.103742764
154.25450,8.714131579
154.25500,9.324520394
154.25550,9.93490921
154.25600,9.93490921
154.25650,9.629714802
154.25700,8.714131579
154.25750,7.798548356
154.25800,5.96738191
154.25850,4.441409871
154.25900,3.22063224
154.25950,2.305049017
154.26000,1.389465794
154.26050,-0.1365062443
154.26100,-1.662478283
154.26150,-3.493644729
154.26200,-5.019616768
154.26250,-5.935199991
154.26300,-6.545588806
154.26350,-7.155977621
154.26400,-7.155977621
154.26450,-6.850783214
154.26500,-6.240394398
154.26550,-6.240394398
154.26600,-6.545588806
154.26650,-6.240394398
154.26700,-5.630005583
154.26750,-5.935199991
154.26800,-6.545588806
154.26850,-6.545588806
154.26900,-5.630005583
154.26950,-4.104033544
154.27000,-3.188450321
154.27050,-2.578061506
154.27100,-1.357283875
154.27150,0.1686881634
154.27200,1.389465794
154.27250,1.99985461
154.27300,2.610243425
154.27350,3.22063224
154.27400,4.136215463
154.27450,5.662187502
154.27500,7.798548356
154.27550,10.24010362
154.27600,11.46088125
154.27650,10.85049243
154.27700,8.714131579
154.27750,5.662187502
154.27800,3.525826648
154.27850,2.915437833
154.27900,3.525826648
154.27950,3.525826648
154.28000,1.99985461
154.28050,-0.1365062443
154.28100,-1.967672691
154.28150,-2.883255914
154.28200,-3.798839137
154.28250,-5.630005583
154.28300,-7.461172029
154.28350,-8.68194966
154.28400,-9.292338475
154.28450,-9.597532883
154.28500,-9.902727291
154.28550,-9.902727291
154.28600,-10.51311611
154.28650,-11.12350492
154.28700,-10.81831051
154.28750,-9.902727291
154.28800,-8.68194966
154.28850,-7.766366437
154.28900,-6.545588806
154.28950,-4.71442236
154.29000,-3.188450321
154.29050,-1.357283875
154.29100,0.4738825711
154.29150,3.22063224
154.29200,5.356993094
154.29250,5.662187502
154.29300,5.662187502
154.29350,6.577770725
154.29400,7.493353948
154.29450,7.188159541
154.29500,5.96738191
154.29550,6.272576317
154.29600,7.798548356
154.29650,9.019325987
154.29700,8.714131579
154.29750,7.798548356
154.29800,7.188159541
154.29850,6.577770725
154.29900,4.746604279
154.29950,2.305049017
154.30000,0.1686881634
154.30050,-0.441700652
154.30100,-1.052089467
154.30150,-1.662478283
154.30200,-2.883255914
154.30250,-4.409227952
154.30300,-6.240394398
154.30350,-7.461172029
154.30400,-8.68194966
154.30450,-9.902727291
154.30500,-10.51311611
154.30550,-9.597532883
154.30600,-6.545588806
154.30650,-2.578061506
154.30700,-0.1365062443
154.30750,1.084271386
154.30800,1.99985461
154.30850,3.22063224
154.30900,3.22063224
154.30950,1.99985461
154.31000,1.389465794
154.31050,2.915437833
154.31100,4.746604279
154.31150,5.051798687
154.31200,5.662187502
154.31250,7.798548356
154.31300,10.54529803
154.31350,10.54529803
154.31400,8.714131579
154.31450,9.019325987
154.31500,12.37646447
154.31550,14.51282533
154.31600,13.29204769
154.31650,11.15568684
154.31700,10.54529803
154.31750,10.54529803
154.31800,8.408937171
154.31850,5.356993094
154.31900,3.525826648
154.31950,2.305049017
154.32000,0.4738825711
154.32050,-1.662478283
154.32100,-3.188450321
154.32150,-3.798839137
154.32200,-5.019616768
154.32250,-6.850783214
154.32300,-8.071560845
154.32350,-8.68194966
154.32400,-8.987144068
154.32450,-8.987144068
154.32500,-8.68194966
154.32550,-8.376755252
154.32600,-9.292338475
154.32650,-10.51311611
154.32700,-10.81831051
154.32750,-10.2079217
154.32800,-9.902727291
154.32850,-9.597532883
154.32900,-8.68194966
154.32950,-7.155977621
154.33000,-5.935199991
154.33050,-4.409227952
154.33100,-1.662478283
154.33150,0.7790769788
154.33200,1.694660202
154.33250,1.389465794
154.33300,2.305049017
154.33350,5.356993094
154.33400,8.408937171
154.33450,9.93490921
154.33500,9.93490921
154.33550,9.019325987
154.33600,8.103742764
154.33650,7.493353948
154.33700,8.103742764
154.33750,9.019325987
154.33800,8.714131579
154.33850,6.577770725
154.33900,3.831021056
154.33950,1.99985461
154.34000,0.4738825711
154.34050,-1.052089467
154.34100,-2.883255914
154.34150,-4.409227952
154.34200,-5.935199991
154.34250,-7.461172029
154.34300,-8.987144068
154.34350,-9.292338475
154.34400,-8.376755252
154.34450,-7.766366437
154.34500,-8.376755252
154.34550,-9.597532883
154.34600,-9.902727291
154.34650,-8.376755252
154.34700,-5.019616768
154.34750,-1.967672691
154.34800,-0.7468950597
154.34850,-0.7468950597
154.34900,-0.7468950597
154.34950,0.1686881634
154.35000,2.610243425
154.35050,5.662187502
154.35100,7.493353948
154.35150,7.798548356
154.35200,7.798548356
154.35250,7.798548356
154.35300,8.103742764
154.35350,7.493353948
154.35400,6.577770725
154.35450,5.96738191
154.35500,5.662187502
154.35550,5.356993094
154.35600,5.051798687
154.35650,4.441409871
154.35700,4.136215463
154.35750,3.525826648
154.35800,2.915437833
154.35850,1.389465794
154.35900,-0.441700652
154.35950,-2.272867098
154.36000,-2.883255914
154.36050,-2.578061506
154.36100,-2.272867098
154.36150,-3.188450321
154.36200,-4.71442236
154.36250,-5.630005583
154.36300,-5.935199991
154.36350,-6.545588806
154.36400,-7.461172029
154.36450,-6.850783214
154.36500,-5.630005583
154.36550,-5.324811175
154.36600,-5.324811175
154.36650,-3.798839137
154.36700,-1.052089467
154.36750,0.1686881634
154.36800,-0.7468950597
154.36850,-1.967672691
154.36900,-1.052089467
154.36950,0.1686881634
154.37000,-0.1365062443
154.37050,-0.7468950597
154.37100,-0.1365062443
154.37150,2.305049017
154.37200,3.831021056
154.37250,4.136215463
154.37300,4.746604279
154.37350,5.356993094
154.37400,5.051798687
154.37450,5.051798687
154.37500,7.188159541
154.37550,10.24010362
154.37600,11.15568684
154.37650,10.24010362
154.37700,8.408937171
154.37750,6.882965133
154.37800,3.831021056
154.37850,0.4738825711
154.37900,-0.441700652
154.37950,-0.1365062443
154.38000,-0.7468950597
154.38050,-2.272867098
154.38100,-3.798839137
154.38150,-4.409227952
154.38200,-5.630005583
154.38250,-7.461172029
154.38300,-8.071560845
154.38350,-6.850783214
154.38400,-5.935199991
154.38450,-6.850783214
154.38500,-7.766366437
154.38550,-8.376755252
154.38600,-9.292338475
154.38650,-10.81831051
154.38700,-11.42869933
154.38750,-9.597532883
154.38800,-7.155977621
154.38850,-5.935199991
154.38900,-5.630005583
154.38950,-3.188450321
154.39000,0.4738825711
154.39050,3.22063224
154.39100,3.831021056
154.39150,4.441409871
154.39200,6.272576317
154.39250,7.188159541
154.39300,6.272576317
154.39350,4.746604279
154.39400,5.051798687
154.39450,6.272576317
154.39500,6.272576317
154.39550,4.136215463
154.39600,2.610243425
154.39650,2.610243425
154.39700,3.22063224
154.39750,1.99985461
154.39800,-0.1365062443
154.39850,-1.967672691
154.39900,-2.883255914
154.39950,-4.104033544
154.40000,-5.324811175
154.40050,-5.935199991
154.40100,-5.935199991
154.40150,-6.240394398
154.40200,-7.155977621
154.40250,-8.071560845
154.40300,-8.987144068
154.40350,-9.902727291
154.40400,-10.81831051
154.40450,-11.42869933
154.40500,-12.03908814
154.40550,-12.03908814
154.40600,-11.42869933
154.40650,-8.68194966
154.40700,-5.324811175
154.40750,-2.578061506
154.40800,-0.7468950597
154.40850,0.7790769788
154.40900,3.525826648
154.40950,4.746604279
154.41000,3.831021056
154.41050,2.610243425
154.41100,2.610243425
154.41150,4.746604279
154.41200,7.493353948
154.41250,9.93490921
154.41300,10.85049243
154.41350,9.93490921
154.41400,9.019325987
154.41450,10.24010362
154.41500,12.98685329
154.41550,12.68165888
154.41600,7.798548356
154.41650,1.084271386
154.41700,-2.578061506
154.41750,-3.188450321
154.41800,-2.883255914
154.41850,-2.578061506
154.41900,-1.662478283
154.41950,-0.441700652
154.42000,0.1686881634
154.42050,0.1686881634
154.42100,-0.1365062443
154.42150,-1.967672691
154.42200,-5.019616768
154.42250,-7.155977621
154.42300,-8.071560845
154.42350,-8.376755252
154.42400,-9.597532883
154.42450,-10.81831051
154.42500,-10.81831051
154.42550,-10.2079217
154.42600,-9.902727291
154.42650,-9.597532883
154.42700,-9.292338475
154.42750,-10.81831051
154.42800,-13.56506018
154.42850,-12.64947696
154.42900,-5.935199991
154.42950,3.525826648
154.43000,9.629714802
154.43050,11.15568684
154.43100,11.15568684
154.43150,11.46088125
154.43200,11.15568684
154.43250,10.85049243
154.43300,10.54529803
154.43350,9.019325987
154.43400,4.441409871
154.43450,-0.1365062443
154.43500,-2.272867098
154.43550,-0.441700652
154.43600,0.7790769788
154.43650,0.4738825711
154.43700,-0.1365062443
154.43750,0.1686881634
154.43800,0.1686881634
154.43850,-1.357283875
154.43900,-1.967672691
154.43950,1.694660202
154.44000,9.629714802
154.44050,15.42840855
154.44100,13.29204769
154.44150,4.746604279
154.44200,-4.409227952
154.44250,-10.2079217
154.44300,-12.03908814
154.44350,-11.12350492
154.44400,-10.2079217
154.44450,-8.987144068
154.44500,-7.155977621
154.44550,-4.409227952
154.44600,-1.662478283
154.44650,-0.1365062443
154.44700,-0.1365062443
154.44750,-1.967672691
154.44800,-5.324811175
154.44850,-9.292338475
154.44900,-11.73389374
154.44950,-10.51311611
154.45000,-6.850783214
154.45050,-4.104033544
154.45100,-4.104033544
154.45150,-4.409227952
154.45200,-2.883255914
154.45250,-0.1365062443
154.45300,3.525826648
154.45350,10.54529803
154.45400,20.92190789
154.45450,29.1621569
154.45500,28.24657367
154.45550,20.31151907
154.45600,13.5972421
154.45650,10.85049243
154.45700,8.714131579
154.45750,4.746604279
154.45800,1.694660202
154.45850,1.084271386
154.45900,0.7790769788
154.45950,-0.441700652
154.46000,-3.493644729
154.46050,-6.545588806
154.46100,-10.51311611
154.46150,-14.48064341
154.46200,-15.39622663
154.46250,-14.48064341
154.46300,-14.48064341
154.46350,-12.95467137
154.46400,-4.71442236
154.46450,9.019325987
154.46500,19.70113026
154.46550,20.61671348
154.46600,16.34399177
154.46650,14.20763092
154.46700,12.98685329
154.46750,8.408937171
154.46800,1.99985461
154.46850,-0.7468950597
154.46900,-0.1365062443
154.46950,1.084271386
154.47000,1.99985461
154.47050,3.831021056
154.47100,6.882965133
154.47150,7.798548356
154.47200,6.577770725
154.47250,5.96738191
154.47300,6.272576317
154.47350,6.272576317
154.47400,5.356993094
154.47450,5.051798687
154.47500,5.662187502
154.47550,5.356993094
154.47600,2.915437833
154.47650,0.4738825711
154.47700,-0.1365062443
154.47750,-0.1365062443
154.47800,-0.7468950597
154.47850,-1.662478283
154.47900,-1.662478283
154.47950,-0.7468950597
154.48000,-0.441700652
154.48050,-1.357283875
154.48100,-2.883255914
154.48150,-4.71442236
154.48200,-6.850783214
154.48250,-9.597532883
154.48300,-11.73389374
154.48350,-13.25986578
154.48400,-13.87025459
154.48450,-14.48064341
154.48500,-13.87025459
154.48550,-12.64947696
154.48600,-11.12350492
154.48650,-11.12350492
154.48700,-11.42869933
154.48750,-10.2079217
154.48800,-7.461172029
154.48850,-5.019616768
154.48900,-3.493644729
154.48950,-2.883255914
154.49000,-1.662478283
154.49050,0.4738825711
154.49100,2.915437833
154.49150,5.051798687
154.49200,5.662187502
154.49250,5.96738191
154.49300,6.882965133
154.49350,8.103742764
154.49400,9.629714802
154.49450,10.54529803
154.49500,11.15568684
154.49550,11.46088125
154.49600,10.54529803
154.49650,9.019325987
154.49700,8.714131579
154.49750,9.324520394
154.49800,8.714131579
154.49850,6.577770725
154.49900,4.441409871
154.49950,3.525826648
154.50000,2.305049017
154.50050,-0.1365062443
154.50100,-3.188450321
154.50150,-4.409227952
154.50200,-4.409227952
154.50250,-5.324811175
154.50300,-7.766366437
154.50350,-9.597532883
154.50400,-10.2079217
154.50450,-9.902727291
154.50500,-8.68194966
154.50550,-7.461172029
154.50600,-6.545588806
154.50650,-6.545588806
154.50700,-7.155977621
154.50750,-7.766366437
154.50800,-7.155977621
154.50850,-5.324811175
154.50900,-2.272867098
154.50950,0.4738825711
154.51000,2.610243425
154.51050,2.915437833
154.51100,1.99985461
154.51150,1.389465794
154.51200,1.694660202
154.51250,1.99985461
154.51300,2.305049017
154.51350,2.610243425
154.51400,2.610243425
154.51450,2.305049017
154.51500,1.99985461
154.51550,1.389465794
154.51600,0.7790769788
154.51650,0.1686881634
154.51700,-0.1365062443
154.51750,-0.1365062443
154.51800,0.1686881634
154.51850,0.1686881634
154.51900,0.4738825711
154.51950,1.389465794
154.52000,2.610243425
154.52050,2.915437833
154.52100,1.99985461
154.52150,1.084271386
154.52200,0.1686881634
154.52250,-0.1365062443
154.52300,-0.1365062443
154.52350,-0.1365062443
154.52400,-0.1365062443
154.52450,-0.1365062443
154.52500,0.1686881634
154.52550,-0.1365062443
154.52600,-2.578061506
154.52650,-5.630005583
154.52700,-6.545588806
154.52750,-4.409227952
154.52800,-1.967672691
154.52850,-1.357283875
154.52900,-2.578061506
154.52950,-2.578061506
154.53000,-0.7468950597
154.53050,1.389465794
154.53100,3.22063224
154.53150,4.136215463
154.53200,5.051798687
154.53250,7.188159541
154.53300,9.629714802
154.53350,11.76607566
154.53400,11.76607566
154.53450,9.629714802
154.53500,7.188159541
154.53550,6.577770725
154.53600,7.493353948
154.53650,8.103742764
154.53700,7.188159541
154.53750,5.051798687
154.53800,3.525826648
154.53850,2.915437833
154.53900,2.610243425
154.53950,0.4738825711
154.54000,-2.272867098
154.54050,-5.324811175
154.54100,-7.155977621
154.54150,-8.071560845
154.54200,-8.68194966
154.54250,-8.68194966
154.54300,-8.071560845
154.54350,-8.071560845
154.54400,-8.376755252
154.54450,-8.987144068
154.54500,-8.68194966
154.54550,-8.68194966
154.54600,-9.292338475
154.54650,-8.376755252
154.54700,-5.630005583
154.54750,-3.188450321
154.54800,-3.798839137
154.54850,-5.324811175
154.54900,-3.798839137
154.54950,0.7790769788
154.55000,4.441409871
154.55050,5.051798687
154.55100,5.051798687
154.55150,6.882965133
154.55200,9.019325987
154.55250,9.324520394
154.55300,8.714131579
154.55350,9.324520394
154.55400,11.46088125
154.55450,12.37646447
154.55500,11.15568684
154.55550,9.93490921
154.55600,9.629714802
154.55650,9.324520394
154.55700,7.493353948
154.55750,4.441409871
154.55800,2.305049017
154.55850,1.694660202
154.55900,1.389465794
154.55950,0.4738825711
154.56000,-1.052089467
154.56050,-4.104033544
154.56100,-6.545588806
154.56150,-8.071560845
154.56200,-9.292338475
154.56250,-10.81831051
154.56300,-11.42869933
154.56350,-10.51311611
154.56400,-9.292338475
154.56450,-9.902727291
154.56500,-11.42869933
154.56550,-11.42869933
154.56600,-9.597532883
154.56650,-7.461172029
154.56700,-6.240394398
154.56750,-5.019616768
154.56800,-3.493644729
154.56850,-2.272867098
154.56900,-1.662478283
154.56950,-0.441700652
154.57000,1.694660202
154.57050,3.831021056
154.57100,5.051798687
154.57150,6.272576317
154.57200,7.493353948
154.57250,8.408937171
154.57300,8.714131579
154.57350,9.629714802
154.57400,10.24010362
154.57450,9.93490921
154.57500,8.408937171
154.57550,7.493353948
154.57600,8.103742764
154.57650,7.798548356
154.57700,5.662187502
154.57750,2.610243425
154.57800,0.1686881634
154.57850,-1.357283875
154.57900,-4.104033544
154.57950,-6.850783214
154.58000,-8.376755252
154.58050,-8.376755252
154.58100,-9.597532883
154.58150,-11.42869933
154.58200,-12.95467137
154.58250,-13.25986578
154.58300,-12.64947696
154.58350,-12.03908814
154.58400,-11.73389374
154.58450,-11.42869933
154.58500,-11.12350492
154.58550,-9.902727291
154.58600,-7.155977621
154.58650,-4.104033544
154.58700,-1.662478283
154.58750,-0.1365062443
154.58800,1.389465794
154.58850,3.525826648
154.58900,5.051798687
154.58950,5.662187502
154.59000,6.272576317
154.59050,7.798548356
154.59100,9.019325987
154.59150,9.019325987
154.59200,7.798548356
154.59250,7.798548356
154.59300,9.324520394
154.59350,10.54529803
154.59400,10.54529803
154.59450,9.629714802
154.59500,9.019325987
154.59550,9.019325987
154.59600,7.493353948
154.59650,4.441409871
154.59700,1.389465794
154.59750,-0.1365062443
154.59800,-1.052089467
154.59850,-1.357283875
154.59900,-1.967672691
154.59950,-2.578061506
154.60000,-3.188450321
154.60050,-3.188450321
154.60100,-2.578061506
154.60150,-1.662478283
154.60200,-2.578061506
154.60250,-4.409227952
154.60300,-5.935199991
154.60350,-6.545588806
154.60400,-6.850783214
154.60450,-7.766366437
154.60500,-8.68194966
154.60550,-7.766366437
154.60600,-5.630005583
154.60650,-3.798839137
154.60700,-2.883255914
154.60750,-1.662478283
154.60800,-0.7468950597
154.60850,-0.1365062443
154.60900,0.1686881634
154.60950,0.1686881634
154.61000,-0.1365062443
154.61050,-1.357283875
154.61100,-1.967672691
154.61150,-1.662478283
154.61200,-0.7468950597
154.61250,0.1686881634
154.61300,2.305049017
154.61350,5.051798687
154.61400,6.577770725
154.61450,6.272576317
154.61500,5.662187502
154.61550,5.96738191
154.61600,5.96738191
154.61650,4.441409871
154.61700,2.610243425
154.61750,1.99985461
154.61800,2.305049017
154.61850,1.99985461
154.61900,1.389465794
154.61950,1.389465794
154.62000,1.389465794
154.62050,0.4738825711
154.62100,-1.357283875
154.62150,-3.798839137
154.62200,-5.630005583
154.62250,-7.461172029
154.62300,-9.292338475
154.62350,-10.81831051
154.62400,-11.42869933
154.62450,-11.42869933
154.62500,-10.51311611
154.62550,-9.597532883
154.62600,-8.68194966
154.62650,-8.376755252
154.62700,-8.071560845
154.62750,-8.071560845
154.62800,-8.071560845
154.62850,-8.071560845
154.62900,-6.850783214
154.62950,-4.104033544
154.63000,-1.662478283
154.63050,-0.7468950597
154.63100,0.1686881634
154.63150,1.99985461
154.63200,3.22063224
154.63250,3.22063224
154.63300,2.305049017
154.63350,2.610243425
154.63400,4.746604279
154.63450,6.577770725
154.63500,7.188159541
154.63550,7.493353948
154.63600,8.714131579
154.63650,9.019325987
154.63700,8.103742764
154.63750,6.272576317
154.63800,5.356993094
154.63850,5.051798687
154.63900,4.441409871
154.63950,2.610243425
154.64000,0.1686881634
154.64050,-1.357283875
154.64100,-2.272867098
154.64150,-2.883255914
154.64200,-4.409227952
154.64250,-6.545588806
154.64300,-8.071560845
154.64350,-8.68194966
154.64400,-8.68194966
154.64450,-8.376755252
154.64500,-8.071560845
154.64550,-7.155977621
154.64600,-6.545588806
154.64650,-5.935199991
154.64700,-5.324811175
154.64750,-4.409227952
154.64800,-3.798839137
154.64850,-2.883255914
154.64900,-2.272867098
154.64950,-1.052089467
154.65000,0.4738825711
154.65050,2.305049017
154.65100,4.136215463
154.65150,5.96738191
154.65200,7.493353948
154.65250,8.408937171
154.65300,8.103742764
154.65350,7.798548356
154.65400,7.188159541
154.65450,6.882965133
154.65500,6.882965133
154.65550,6.882965133
154.65600,6.882965133
154.65650,6.882965133
154.65700,7.188159541
154.65750,7.188159541
154.65800,5.662187502
154.65850,2.915437833
154.65900,-0.441700652
154.65950,-2.578061506
154.66000,-3.493644729
154.66050,-3.798839137
154.66100,-5.324811175
154.66150,-7.155977621
154.66200,-8.071560845
154.66250,-8.071560845
154.66300,-8.071560845
154.66350,-8.987144068
154.66400,-10.51311611
154.66450,-11.12350492
154.66500,-10.81831051
154.66550,-10.81831051
154.66600,-10.81831051
154.66650,-10.2079217
154.66700,-8.376755252
154.66750,-5.019616768
154.66800,-1.357283875
154.66850,1.389465794
154.66900,3.831021056
154.66950,5.356993094
154.67000,6.272576317
154.67050,7.188159541
154.67100,8.103742764
154.67150,8.714131579
154.67200,8.714131579
154.67250,9.019325987
154.67300,9.629714802
154.67350,9.629714802
154.67400,9.019325987
154.67450,9.019325987
154.67500,9.93490921
154.67550,11.15568684
154.67600,11.46088125
154.67650,11.15568684
154.67700,10.85049243
154.67750,9.93490921
154.67800,7.188159541
154.67850,3.831021056
154.67900,1.084271386
154.67950,-0.7468950597
154.68000,-3.493644729
154.68050,-6.545588806
154.68100,-7.766366437
154.68150,-6.545588806
154.68200,-5.630005583
154.68250,-6.545588806
154.68300,-8.68194966
154.68350,-10.51311611
154.68400,-11.12350492
154.68450,-10.51311611
154.68500,-9.292338475
154.68550,-8.376755252
154.68600,-8.376755252
154.68650,-9.292338475
154.68700,-8.987144068
154.68750,-6.545588806
154.68800,-2.578061506
154.68850,0.4738825711
154.68900,3.22063224
154.68950,5.051798687
154.69000,6.577770725
154.69050,7.188159541
154.69100,7.188159541
154.69150,6.882965133
154.69200,6.272576317
154.69250,5.662187502
154.69300,5.051798687
154.69350,3.525826648
154.69400,1.99985461
154.69450,1.99985461
154.69500,4.441409871
154.69550,7.493353948
154.69600,8.103742764
154.69650,5.356993094
154.69700,2.915437833
154.69750,2.305049017
154.69800,3.22063224
154.69850,2.610243425
154.69900,1.084271386
154.69950,-0.1365062443
154.70000,-0.7468950597
154.70050,-1.967672691
154.70100,-3.188450321
154.70150,-3.798839137
154.70200,-4.409227952
154.70250,-5.935199991
154.70300,-7.461172029
154.70350,-7.461172029
154.70400,-5.630005583
154.70450,-3.798839137
154.70500,-2.578061506
154.70550,-1.662478283
154.70600,-0.441700652
154.70650,-0.1365062443
154.70700,-0.441700652
154.70750,-1.662478283
154.70800,-1.662478283
154.70850,-0.1365062443
154.70900,0.1686881634
154.70950,-0.7468950597
154.71000,-1.662478283
154.71050,-0.1365062443
154.71100,3.831021056
154.71150,6.272576317
154.71200,5.662187502
154.71250,3.831021056
154.71300,4.136215463
154.71350,5.356993094
154.71400,5.356993094
154.71450,4.441409871
154.71500,3.22063224
154.71550,2.915437833
154.71600,2.915437833
154.71650,3.22063224
154.71700,3.831021056
154.71750,4.441409871
154.71800,2.915437833
154.71850,0.4738825711
154.71900,-0.7468950597
154.71950,-0.441700652
154.72000,-0.1365062443
154.72050,-0.441700652
154.72100,-1.357283875
154.72150,-1.967672691
154.72200,-2.272867098
154.72250,-3.188450321
154.72300,-4.104033544
154.72350,-4.409227952
154.72400,-5.019616768
154.72450,-6.240394398
154.72500,-7.155977621
154.72550,-6.545588806
154.72600,-5.630005583
154.72650,-5.019616768
154.72700,-5.935199991
154.72750,-6.545588806
154.72800,-5.324811175
154.72850,-2.578061506
154.72900,0.4738825711
154.72950,2.915437833
154.73000,4.441409871
154.73050,4.746604279
154.73100,5.051798687
154.73150,5.356993094
154.73200,5.96738191
154.73250,6.882965133
154.73300,6.882965133
154.73350,5.96738191
154.73400,4.746604279
154.73450,5.051798687
154.73500,6.577770725
154.73550,8.408937171
154.73600,9.93490921
154.73650,9.629714802
154.73700,8.103742764
154.73750,5.96738191
154.73800,5.051798687
154.73850,5.051798687
154.73900,4.441409871
154.73950,2.610243425
154.74000,0.4738825711
154.74050,-0.1365062443
154.74100,-1.052089467
154.74150,-2.883255914
154.74200,-5.935199991
154.74250,-7.155977621
154.74300,-6.545588806
154.74350,-5.630005583
154.74400,-5.935199991
154.74450,-7.155977621
154.74500,-8.68194966
154.74550,-9.902727291
154.74600,-9.902727291
154.74650,-8.68194966
154.74700,-8.071560845
154.74750,-8.68194966
154.74800,-9.597532883
154.74850,-8.376755252
154.74900,-4.71442236
154.74950,-1.662478283
154.75000,-0.7468950597
154.75050,-0.1365062443
154.75100,1.389465794
154.75150,2.915437833
154.75200,2.915437833
154.75250,2.305049017
154.75300,2.610243425
154.75350,3.22063224
154.75400,3.22063224
154.75450,2.610243425
154.75500,3.525826648
154.75550,5.356993094
154.75600,6.272576317
154.75650,5.96738191
154.75700,4.441409871
154.75750,3.22063224
154.75800,2.305049017
154.75850,1.694660202
154.75900,0.7790769788
154.75950,-0.441700652
154.76000,-1.662478283
154.76050,-2.272867098
154.76100,-2.578061506
154.76150,-2.578061506
154.76200,-2.883255914
154.76250,-2.578061506
154.76300,-2.578061506
154.76350,-3.493644729
154.76400,-5.019616768
154.76450,-5.324811175
154.76500,-5.324811175
154.76550,-5.324811175
154.76600,-5.324811175
154.76650,-4.104033544
154.76700,-1.662478283
154.76750,-0.1365062443
154.76800,-0.1365062443
154.76850,1.389465794
154.76900,3.831021056
154.76950,5.051798687
154.77000,4.136215463
154.77050,2.610243425
154.77100,3.22063224
154.77150,5.662187502
154.77200,7.188159541
154.77250,7.493353948
154.77300,7.493353948
154.77350,8.103742764
154.77400,8.714131579
154.77450,8.714131579
154.77500,7.798548356
154.77550,6.272576317
154.77600,4.746604279
154.77650,3.831021056
154.77700,3.831021056
154.77750,3.525826648
154.77800,2.915437833
154.77850,1.99985461
154.77900,1.389465794
154.77950,0.1686881634
154.78000,-1.357283875
154.78050,-2.578061506
154.78100,-2.883255914
154.78150,-3.798839137
154.78200,-5.935199991
154.78250,-8.376755252
154.78300,-8.071560845
154.78350,-6.850783214
154.78400,-6.850783214
154.78450,-8.987144068
154.78500,-10.81831051
154.78550,-10.2079217
154.78600,-8.68194966
154.78650,-8.68194966
154.78700,-9.597532883
154.78750,-9.597532883
154.78800,-8.071560845
154.78850,-6.545588806
154.78900,-5.324811175
154.78950,-3.493644729
154.79000,-0.7468950597
154.79050,1.99985461
154.79100,3.831021056
154.79150,4.746604279
154.79200,5.96738191
154.79250,8.408937171
154.79300,10.24010362
154.79350,10.85049243
154.79400,10.54529803
154.79450,10.24010362
154.79500,10.85049243
154.79550,11.76607566
154.79600,12.37646447
154.79650,12.37646447
154.79700,12.07127006
154.79750,10.54529803
154.79800,7.493353948
154.79850,4.441409871
154.79900,2.915437833
154.79950,3.22063224
154.80000,2.915437833
154.80050,1.389465794
154.80100,-0.1365062443
154.80150,-1.967672691
154.80200,-3.188450321
154.80250,-4.71442236
154.80300,-5.324811175
154.80350,-5.019616768
154.80400,-5.019616768
154.80450,-6.240394398
154.80500,-8.071560845
154.80550,-8.987144068
154.80600,-8.987144068
154.80650,-8.68194966
154.80700,-8.376755252
154.80750,-7.155977621
154.80800,-5.935199991
154.80850,-5.019616768
154.80900,-4.409227952
154.80950,-3.493644729
154.81000,-2.272867098
154.81050,-1.357283875
154.81100,-0.7468950597
154.81150,-0.7468950597
154.81200,-0.1365062443
154.81250,1.99985461
154.81300,4.441409871
154.81350,5.96738191
154.81400,6.272576317
154.81450,5.662187502
154.81500,5.051798687
154.81550,4.136215463
154.81600,3.22063224
154.81650,2.915437833
154.81700,3.22063224
154.81750,3.831021056
154.81800,4.441409871
154.81850,4.746604279
154.81900,4.136215463
154.81950,2.305049017
154.82000,0.1686881634
154.82050,-1.052089467
154.82100,-2.578061506
154.82150,-4.104033544
154.82200,-5.019616768
154.82250,-5.324811175
154.82300,-5.630005583
154.82350,-7.155977621
154.82400,-8.68194966
154.82450,-9.597532883
154.82500,-10.2079217
154.82550,-10.2079217
154.82600,-9.902727291
154.82650,-8.68194966
154.82700,-8.071560845
154.82750,-8.376755252
154.82800,-8.376755252
154.82850,-6.240394398
154.82900,-3.493644729
154.82950,-2.883255914
154.83000,-3.493644729
154.83050,-3.188450321
154.83100,-0.1365062443
154.83150,1.99985461
154.83200,2.305049017
154.83250,1.389465794
154.83300,1.694660202
154.83350,3.525826648
154.83400,5.051798687
154.83450,5.662187502
154.83500,5.356993094
154.83550,5.662187502
154.83600,5.96738191
154.83650,5.96738191
154.83700,5.051798687
154.83750,3.831021056
154.83800,2.610243425
154.83850,1.99985461
154.83900,1.694660202
154.83950,0.7790769788
154.84000,-0.1365062443
154.84050,-1.967672691
154.84100,-3.493644729
154.84150,-4.104033544
154.84200,-4.71442236
154.84250,-6.240394398
154.84300,-8.376755252
154.84350,-9.292338475
154.84400,-7.766366437
154.84450,-5.935199991
154.84500,-6.545588806
154.84550,-8.68194966
154.84600,-9.597532883
154.84650,-8.68194966
154.84700,-7.766366437
154.84750,-7.766366437
154.84800,-7.155977621
154.84850,-5.019616768
154.84900,-2.883255914
154.84950,-1.967672691
154.85000,-1.357283875
154.85050,-0.1365062443
154.85100,1.694660202
154.85150,2.305049017
154.85200,2.610243425
154.85250,3.831021056
154.85300,5.96738191
154.85350,7.493353948
154.85400,8.103742764
154.85450,8.714131579
154.85500,9.324520394
154.85550,9.93490921
154.85600,9.93490921
154.85650,9.93490921
154.85700,9.629714802
154.85750,8.714131579
154.85800,7.493353948
154.85850,6.577770725
154.85900,6.577770725
154.85950,6.272576317
154.86000,4.441409871
154.86050,2.305049017
154.86100,0.7790769788
154.86150,0.7790769788
154.86200,0.7790769788
154.86250,0.1686881634
154.86300,-0.441700652
154.86350,-1.357283875
154.86400,-2.272867098
154.86450,-3.798839137
154.86500,-4.409227952
154.86550,-5.019616768
154.86600,-6.240394398
154.86650,-7.766366437
154.86700,-7.461172029
154.86750,-5.630005583
154.86800,-4.104033544
154.86850,-4.409227952
154.86900,-4.409227952
154.86950,-2.272867098
154.87000,0.4738825711
154.87050,2.305049017
154.87100,2.915437833
154.87150,2.915437833
154.87200,3.22063224
154.87250,3.22063224
154.87300,3.525826648
154.87350,5.051798687
154.87400,6.882965133
154.87450,6.882965133
154.87500,4.441409871
154.87550,2.305049017
154.87600,1.389465794
154.87650,1.389465794
154.87700,0.4738825711
154.87750,-1.052089467
154.87800,-2.272867098
154.87850,-2.578061506
154.87900,-2.883255914
154.87950,-3.798839137
154.88000,-5.935199991
154.88050,-8.071560845
154.88100,-9.597532883
154.88150,-9.292338475
154.88200,-7.766366437
154.88250,-6.545588806
154.88300,-6.545588806
154.88350,-6.850783214
154.88400,-6.240394398
154.88450,-5.324811175
154.88500,-5.324811175
154.88550,-6.240394398
154.88600,-6.240394398
154.88650,-5.324811175
154.88700,-5.324811175
154.88750,-6.240394398
154.88800,-6.545588806
154.88850,-5.324811175
154.88900,-4.104033544
154.88950,-3.798839137
154.89000,-2.578061506
154.89050,0.4738825711
154.89100,3.831021056
154.89150,5.662187502
154.89200,5.96738191
154.89250,6.882965133
154.89300,9.324520394
154.89350,9.93490921
154.89400,8.408937171
154.89450,6.882965133
154.89500,6.882965133
154.89550,8.103742764
154.89600,8.714131579
154.89650,7.493353948
154.89700,5.356993094
154.89750,4.441409871
154.89800,5.051798687
154.89850,5.356993094
154.89900,3.831021056
154.89950,1.084271386
154.90000,-0.7468950597
154.90050,-1.052089467
154.90100,-1.052089467
154.90150,-2.272867098
154.90200,-3.798839137
154.90250,-4.409227952
154.90300,-5.630005583
154.90350,-8.071560845
154.90400,-9.597532883
154.90450,-9.597532883
154.90500,-8.987144068
154.90550,-8.987144068
154.90600,-8.987144068
154.90650,-7.766366437
154.90700,-6.240394398
154.90750,-5.630005583
154.90800,-5.324811175
154.90850,-3.493644729
154.90900,-1.052089467
154.90950,-0.441700652
154.91000,-0.7468950597
154.91050,-0.1365062443
154.91100,3.22063224
154.91150,5.356993094
154.91200,5.662187502
154.91250,5.356993094
154.91300,6.272576317
154.91350,7.493353948
154.91400,7.798548356
154.91450,7.493353948
154.91500,7.493353948
154.91550,7.798548356
154.91600,8.408937171
154.91650,9.324520394
154.91700,8.408937171
154.91750,5.356993094
154.91800,2.305049017
154.91850,1.084271386
154.91900,1.389465794
154.91950,0.1686881634
154.92000,-2.578061506
154.92050,-4.71442236
154.92100,-3.798839137
154.92150,-2.578061506
154.92200,-2.883255914
154.92250,-4.104033544
154.92300,-5.019616768
154.92350,-5.019616768
154.92400,-6.545588806
154.92450,-8.376755252
154.92500,-9.292338475
154.92550,-8.376755252
154.92600,-6.240394398
154.92650,-4.409227952
154.92700,-3.188450321
154.92750,-2.272867098
154.92800,-1.662478283
154.92850,-0.1365062443
154.92900,2.610243425
154.92950,4.136215463
154.93000,4.441409871
154.93050,4.441409871
154.93100,5.96738191
154.93150,7.493353948
154.93200,8.714131579
154.93250,9.324520394
154.93300,9.629714802
154.93350,9.324520394
154.93400,8.408937171
154.93450,8.408937171
154.93500,8.714131579
154.93550,8.714131579
154.93600,6.577770725
154.93650,4.441409871
154.93700,3.22063224
154.93750,2.915437833
154.93800,1.99985461
154.93850,0.7790769788
154.93900,0.7790769788
154.93950,1.084271386
154.94000,-0.1365062443
154.94050,-2.272867098
154.94100,-4.409227952
154.94150,-5.324811175
154.94200,-6.240394398
154.94250,-6.850783214
154.94300,-6.850783214
154.94350,-6.545588806
154.94400,-7.461172029
154.94450,-8.376755252
154.94500,-7.766366437
154.94550,-5.324811175
154.94600,-2.883255914
154.94650,-2.272867098
154.94700,-2.272867098
154.94750,-2.578061506
154.94800,-2.272867098
154.94850,-1.967672691
154.94900,-0.7468950597
154.94950,0.4738825711
154.95000,1.99985461
154.95050,3.22063224
154.95100,5.662187502
154.95150,8.408937171
154.95200,9.629714802
154.95250,8.408937171
154.95300,6.882965133
154.95350,6.882965133
154.95400,8.103742764
154.95450,7.798548356
154.95500,5.662187502
154.95550,4.136215463
154.95600,4.441409871
154.95650,5.356993094
154.95700,5.356993094
154.95750,3.22063224
154.95800,1.084271386
154.95850,0.1686881634
154.95900,0.1686881634
154.95950,0.4738825711
154.96000,-0.1365062443
154.96050,-1.357283875
154.96100,-3.188450321
154.96150,-4.104033544
154.96200,-4.71442236
154.96250,-5.019616768
154.96300,-5.935199991
154.96350,-6.850783214
154.96400,-7.766366437
154.96450,-8.376755252
154.96500,-8.376755252
154.96550,-7.766366437
154.96600,-6.850783214
154.96650,-6.240394398
154.96700,-5.630005583
154.96750,-4.71442236
154.96800,-3.188450321
154.96850,-1.052089467
154.96900,0.7790769788
154.96950,2.305049017
154.97000,3.22063224
154.97050,4.441409871
154.97100,6.577770725
154.97150,8.714131579
154.97200,10.24010362
154.97250,10.54529803
154.97300,10.54529803
154.97350,11.15568684
154.97400,12.37646447
154.97450,12.68165888
154.97500,11.76607566
154.97550,9.629714802
154.97600,8.714131579
154.97650,8.714131579
154.97700,7.798548356
154.97750,5.96738191
154.97800,4.136215463
154.97850,3.525826648
154.97900,3.831021056
154.97950,2.610243425
154.98000,-0.1365062443
154.98050,-1.967672691
154.98100,-3.188450321
154.98150,-4.409227952
154.98200,-5.935199991
154.98250,-7.766366437
154.98300,-9.292338475
154.98350,-10.2079217
154.98400,-11.12350492
154.98450,-11.73389374
154.98500,-11.73389374
154.98550,-10.81831051
154.98600,-9.597532883
154.98650,-8.071560845
154.98700,-7.461172029
154.98750,-7.155977621
154.98800,-6.850783214
154.98850,-6.545588806
154.98900,-6.850783214
154.98950,-7.461172029
154.99000,-6.545588806
154.99050,-3.493644729
154.99100,0.4738825711
154.99150,3.22063224
154.99200,4.136215463
154.99250,4.136215463
154.99300,3.525826648
154.99350,2.305049017
154.99400,1.389465794
154.99450,1.99985461
154.99500,3.525826648
154.99550,4.441409871
154.99600,3.525826648
154.99650,1.694660202
154.99700,1.389465794
154.99750,2.305049017
154.99800,3.22063224
154.99850,1.389465794
154.99900,-1.662478283
154.99950,-3.798839137
155.00000,-4.104033544
155.00050,-4.409227952
155.00100,-6.240394398
155.00150,-8.071560845
155.00200,-7.766366437
155.00250,-7.155977621
155.00300,-8.376755252
155.00350,-10.81831051
155.00400,-10.81831051
155.00450,-8.987144068
155.00500,-8.071560845
155.00550,-8.987144068
155.00600,-9.292338475
155.00650,-7.155977621
155.00700,-4.71442236
155.00750,-4.104033544
155.00800,-3.798839137
155.00850,-2.578061506
155.00900,-0.7468950597
155.00950,-0.1365062443
155.01000,-0.441700652
155.01050,-0.7468950597
155.01100,-0.7468950597
155.01150,-0.1365062443
155.01200,1.084271386
155.01250,2.915437833
155.01300,4.746604279
155.01350,6.882965133
155.01400,9.629714802
155.01450,11.15568684
155.01500,9.93490921
155.01550,6.577770725
155.01600,3.22063224
155.01650,1.389465794
155.01700,0.7790769788
155.01750,-0.1365062443
155.01800,-0.1365062443
155.01850,-0.1365062443
155.01900,-0.1365062443
155.01950,-1.357283875
155.02000,-3.188450321
155.02050,-4.71442236
155.02100,-5.630005583
155.02150,-6.850783214
155.02200,-8.071560845
155.02250,-7.766366437
155.02300,-7.461172029
155.02350,-8.68194966
155.02400,-10.81831051
155.02450,-11.73389374
155.02500,-10.2079217
155.02550,-8.376755252
155.02600,-6.545588806
155.02650,-5.019616768
155.02700,-3.188450321
155.02750,-1.357283875
155.02800,-0.441700652
155.02850,0.1686881634
155.02900,1.389465794
155.02950,2.610243425
155.03000,3.831021056
155.03050,5.356993094
155.03100,6.882965133
155.03150,8.103742764
155.03200,8.408937171
155.03250,9.019325987
155.03300,9.93490921
155.03350,9.93490921
155.03400,9.629714802
155.03450,9.019325987
155.03500,9.019325987
155.03550,9.019325987
155.03600,8.714131579
155.03650,8.714131579
155.03700,9.324520394
155.03750,9.629714802
155.03800,9.019325987
155.03850,8.103742764
155.03900,8.103742764
155.03950,8.103742764
155.04000,7.493353948
155.04050,6.272576317
155.04100,4.136215463
155.04150,1.694660202
155.04200,-0.7468950597
155.04250,-3.188450321
155.04300,-4.71442236
155.04350,-5.019616768
155.04400,-5.019616768
155.04450,-5.935199991
155.04500,-7.766366437
155.04550,-8.987144068
155.04600,-8.68194966
155.04650,-7.155977621
155.04700,-5.630005583
155.04750,-5.019616768
155.04800,-4.409227952
155.04850,-2.578061506
155.04900,-0.441700652
155.04950,0.4738825711
155.05000,0.4738825711
155.05050,0.7790769788
155.05100,1.694660202
155.05150,2.305049017
155.05200,2.915437833
155.05250,3.525826648
155.05300,4.441409871
155.05350,4.746604279
155.05400,5.051798687
155.05450,5.662187502
155.05500,6.577770725
155.05550,6.882965133
155.05600,6.272576317
155.05650,5.662187502
155.05700,4.746604279
155.05750,2.915437833
155.05800,1.084271386
155.05850,-0.1365062443
155.05900,-0.441700652
155.05950,-1.052089467
155.06000,-2.578061506
155.06050,-4.409227952
155.06100,-5.935199991
155.06150,-6.850783214
155.06200,-7.461172029
155.06250,-7.766366437
155.06300,-7.155977621
155.06350,-6.545588806
155.06400,-5.935199991
155.06450,-5.324811175
155.06500,-5.019616768
155.06550,-5.019616768
155.06600,-5.324811175
155.06650,-4.71442236
155.06700,-3.493644729
155.06750,-1.967672691
155.06800,-0.7468950597
155.06850,1.084271386
155.06900,3.525826648
155.06950,5.356993094
155.07000,5.356993094
155.07050,5.356993094
155.07100,7.188159541
155.07150,10.24010362
155.07200,11.76607566
155.07250,10.24010362
155.07300,8.714131579
155.07350,8.408937171
155.07400,9.019325987
155.07450,8.103742764
155.07500,6.882965133
155.07550,6.272576317
155.07600,6.882965133
155.07650,6.272576317
155.07700,4.746604279
155.07750,3.525826648
155.07800,2.915437833
155.07850,1.694660202
155.07900,0.7790769788
155.07950,0.1686881634
155.08000,0.1686881634
155.08050,-0.1365062443
155.08100,-1.052089467
155.08150,-2.272867098
155.08200,-3.188450321
155.08250,-5.019616768
155.08300,-7.461172029
155.08350,-8.987144068
155.08400,-8.376755252
155.08450,-6.545588806
155.08500,-5.630005583
155.08550,-5.935199991
155.08600,-6.545588806
155.08650,-6.240394398
155.08700,-5.630005583
155.08750,-4.409227952
155.08800,-3.188450321
155.08850,-1.662478283
155.08900,-1.357283875
155.08950,-1.662478283
155.09000,-1.052089467
155.09050,0.4738825711
155.09100,2.610243425
155.09150,3.525826648
155.09200,3.831021056
155.09250,4.441409871
155.09300,5.96738191
155.09350,6.272576317
155.09400,5.356993094
155.09450,4.441409871
155.09500,4.441409871
155.09550,4.136215463
155.09600,2.915437833
155.09650,2.305049017
155.09700,2.610243425
155.09750,2.915437833
155.09800,1.084271386
155.09850,-1.357283875
155.09900,-2.272867098
155.09950,-1.662478283
155.10000,-1.357283875
155.10050,-2.883255914
155.10100,-4.71442236
155.10150,-5.324811175
155.10200,-5.630005583
155.10250,-6.240394398
155.10300,-7.461172029
155.10350,-8.376755252
155.10400,-8.68194966
155.10450,-8.68194966
155.10500,-8.68194966
155.10550,-8.68194966
155.10600,-8.376755252
155.10650,-7.766366437
155.10700,-6.850783214
155.10750,-5.630005583
155.10800,-4.409227952
155.10850,-2.578061506
155.10900,-1.357283875
155.10950,-0.441700652
155.11000,-0.1365062443
155.11050,-0.1365062443
155.11100,0.4738825711
155.11150,1.084271386
155.11200,1.084271386
155.11250,1.084271386
155.11300,1.99985461
155.11350,3.831021056
155.11400,5.96738191
155.11450,8.714131579
155.11500,11.76607566
155.11550,14.20763092
155.11600,14.81801973
155.11650,13.29204769
155.11700,10.24010362
155.11750,6.272576317
155.11800,2.610243425
155.11850,0.1686881634
155.11900,0.1686881634
155.11950,0.4738825711
155.12000,-0.1365062443
155.12050,-1.967672691
155.12100,-4.104033544
155.12150,-5.935199991
155.12200,-8.376755252
155.12250,-11.12350492
155.12300,-12.64947696
155.12350,-12.34428255
155.12400,-10.81831051
155.12450,-9.597532883
155.12500,-9.292338475
155.12550,-10.2079217
155.12600,-11.42869933
155.12650,-11.42869933
155.12700,-9.597532883
155.12750,-7.461172029
155.12800,-5.935199991
155.12850,-4.71442236
155.12900,-3.188450321
155.12950,-1.052089467
155.13000,0.1686881634
155.13050,0.4738825711
155.13100,0.4738825711
155.13150,1.694660202
155.13200,2.610243425
155.13250,2.610243425
155.13300,2.305049017
155.13350,3.22063224
155.13400,4.746604279
155.13450,6.882965133
155.13500,8.714131579
155.13550,10.24010362
155.13600,10.24010362
155.13650,9.019325987
155.13700,7.798548356
155.13750,7.798548356
155.13800,8.103742764
155.13850,5.96738191
155.13900,1.694660202
155.13950,-0.7468950597
155.14000,-0.441700652
155.14050,1.389465794
155.14100,2.610243425
155.14150,1.99985461
155.14200,0.1686881634
155.14250,-1.357283875
155.14300,-3.188450321
155.14350,-4.71442236
155.14400,-5.019616768
155.14450,-5.324811175
155.14500,-6.850783214
155.14550,-8.987144068
155.14600,-9.902727291
155.14650,-8.987144068
155.14700,-7.155977621
155.14750,-5.630005583
155.14800,-3.798839137
155.14850,-0.7468950597
155.14900,1.084271386
155.14950,1.389465794
155.15000,1.084271386
155.15050,1.99985461
155.15100,4.136215463
155.15150,5.356993094
155.15200,4.746604279
155.15250,4.136215463
155.15300,4.746604279
155.15350,6.577770725
155.15400,7.798548356
155.15450,8.103742764
155.15500,7.188159541
155.15550,5.662187502
155.15600,4.441409871
155.15650,4.136215463
155.15700,3.831021056
155.15750,3.22063224
155.15800,2.610243425
155.15850,2.305049017
155.15900,2.305049017
155.15950,1.694660202
155.16000,-0.1365062443
155.16050,-1.052089467
155.16100,-1.357283875
155.16150,-2.272867098
155.16200,-4.104033544
155.16250,-5.935199991
155.16300,-6.240394398
155.16350,-6.545588806
155.16400,-7.766366437
155.16450,-9.597532883
155.16500,-10.2079217
155.16550,-9.292338475
155.16600,-8.071560845
155.16650,-6.850783214
155.16700,-5.630005583
155.16750,-4.409227952
155.16800,-3.798839137
155.16850,-3.493644729
155.16900,-3.798839137
155.16950,-3.188450321
155.17000,-1.662478283
155.17050,0.1686881634
155.17100,1.99985461
155.17150,3.525826648
155.17200,5.356993094
155.17250,7.493353948
155.17300,8.408937171
155.17350,7.798548356
155.17400,7.188159541
155.17450,8.103742764
155.17500,9.93490921
155.17550,10.54529803
155.17600,8.714131579
155.17650,5.96738191
155.17700,3.831021056
155.17750,2.305049017
155.17800,1.389465794
155.17850,1.084271386
155.17900,1.084271386
155.17950,0.7790769788
155.18000,-0.441700652
155.18050,-1.662478283
155.18100,-2.883255914
155.18150,-4.409227952
155.18200,-6.545588806
155.18250,-7.766366437
155.18300,-7.766366437
155.18350,-7.766366437
155.18400,-9.292338475
155.18450,-10.81831051
155.18500,-11.12350492
155.18550,-9.597532883
155.18600,-8.987144068
155.18650,-8.68194966
155.18700,-7.461172029
155.18750,-4.71442236
155.18800,-2.578061506
155.18850,-1.967672691
155.18900,-1.662478283
155.18950,-0.1365062443
155.19000,2.305049017
155.19050,4.136215463
155.19100,5.051798687
155.19150,5.96738191
155.19200,7.188159541
155.19250,8.103742764
155.19300,8.714131579
155.19350,9.93490921
155.19400,11.15568684
155.19450,10.24010362
155.19500,8.408937171
155.19550,7.188159541
155.19600,8.103742764
155.19650,9.324520394
155.19700,8.408937171
155.19750,5.662187502
155.19800,3.831021056
155.19850,3.525826648
155.19900,3.525826648
155.19950,2.305049017
155.20000,0.1686881634
155.20050,-1.662478283
155.20100,-3.188450321
155.20150,-4.104033544
155.20200,-4.71442236
155.20250,-5.630005583
155.20300,-7.155977621
155.20350,-8.071560845
155.20400,-8.376755252
155.20450,-8.376755252
155.20500,-8.987144068
155.20550,-8.376755252
155.20600,-6.545588806
155.20650,-5.324811175
155.20700,-6.240394398
155.20750,-7.461172029
155.20800,-5.324811175
155.20850,-1.052089467
155.20900,1.084271386
155.20950,1.389465794
155.21000,1.694660202
155.21050,3.831021056
155.21100,6.272576317
155.21150,6.882965133
155.21200,6.882965133
155.21250,7.188159541
155.21300,8.408937171
155.21350,8.408937171
155.21400,7.798548356
155.21450,7.798548356
155.21500,8.103742764
155.21550,7.798548356
155.21600,6.577770725
155.21650,5.051798687
155.21700,4.746604279
155.21750,4.746604279
155.21800,4.441409871
155.21850,3.22063224
155.21900,1.99985461
155.21950,1.084271386
155.22000,0.7790769788
155.22050,-0.1365062443
155.22100,-1.662478283
155.22150,-4.104033544
155.22200,-6.545588806
155.22250,-8.68194966
155.22300,-9.292338475
155.22350,-8.987144068
155.22400,-7.766366437
155.22450,-7.155977621
155.22500,-7.461172029
155.22550,-7.461172029
155.22600,-7.461172029
155.22650,-7.155977621
155.22700,-6.545588806
155.22750,-5.630005583
155.22800,-5.019616768
155.22850,-5.019616768
155.22900,-4.71442236
155.22950,-2.883255914
155.23000,-0.1365062443
155.23050,2.305049017
155.23100,3.22063224
155.23150,3.22063224
155.23200,4.441409871
155.23250,6.577770725
155.23300,8.408937171
155.23350,9.019325987
155.23400,8.103742764
155.23450,6.272576317
155.23500,5.051798687
155.23550,5.356993094
155.23600,5.356993094
155.23650,5.051798687
155.23700,5.051798687
155.23750,5.356993094
155.23800,4.441409871
155.23850,2.305049017
155.23900,-0.1365062443
155.23950,-1.967672691
155.24000,-3.493644729
155.24050,-5.630005583
155.24100,-8.68194966
155.24150,-10.2079217
155.24200,-10.51311611
155.24250,-10.2079217
155.24300,-10.51311611
155.24350,-10.51311611
155.24400,-10.2079217
155.24450,-10.2079217
155.24500,-10.2079217
155.24550,-9.597532883
155.24600,-8.376755252
155.24650,-7.155977621
155.24700,-5.630005583
155.24750,-4.104033544
155.24800,-2.578061506
155.24850,-1.052089467
155.24900,-0.1365062443
155.24950,0.7790769788
155.25000,1.99985461
155.25050,3.831021056
155.25100,5.96738191
155.25150,8.103742764
155.25200,9.93490921
155.25250,10.54529803
155.25300,10.54529803
155.25350,9.324520394
155.25400,8.408937171
155.25450,7.798548356
155.25500,7.798548356
155.25550,7.798548356
155.25600,8.103742764
155.25650,8.714131579
155.25700,9.93490921
155.25750,9.93490921
155.25800,8.408937171
155.25850,5.662187502
155.25900,2.305049017
155.25950,-0.1365062443
155.26000,-1.662478283
155.26050,-3.188450321
155.26100,-4.71442236
155.26150,-6.545588806
155.26200,-8.071560845
155.26250,-8.376755252
155.26300,-7.461172029
155.26350,-6.240394398
155.26400,-6.240394398
155.26450,-6.240394398
155.26500,-6.850783214
155.26550,-7.766366437
155.26600,-8.68194966
155.26650,-8.376755252
155.26700,-6.850783214
155.26750,-5.019616768
155.26800,-4.409227952
155.26850,-4.409227952
155.26900,-3.798839137
155.26950,-2.578061506
155.27000,-1.052089467
155.27050,0.1686881634
155.27100,1.084271386
155.27150,1.99985461
155.27200,3.22063224
155.27250,4.441409871
155.27300,4.441409871
155.27350,2.915437833
155.27400,1.694660202
155.27450,1.389465794
155.27500,1.694660202
155.27550,1.389465794
155.27600,1.084271386
155.27650,0.4738825711
155.27700,0.4738825711
155.27750,0.4738825711
155.27800,0.4738825711
155.27850,0.4738825711
155.27900,0.4738825711
155.27950,0.1686881634
155.28000,-0.7468950597
155.28050,-3.493644729
155.28100,-6.545588806
155.28150,-8.071560845
155.28200,-7.461172029
155.28250,-5.935199991
155.28300,-5.324811175
155.28350,-5.019616768
155.28400,-4.104033544
155.28450,-3.188450321
155.28500,-3.798839137
155.28550,-5.019616768
155.28600,-5.019616768
155.28650,-3.493644729
155.28700,-1.967672691
155.28750,-0.7468950597
155.28800,0.4738825711
155.28850,2.915437833
155.28900,5.356993094
155.28950,6.272576317
155.29000,6.272576317
155.29050,6.577770725
155.29100,7.188159541
155.29150,7.188159541
155.29200,7.493353948
155.29250,8.408937171
155.29300,9.629714802
155.29350,10.54529803
155.29400,9.629714802
155.29450,7.493353948
155.29500,5.356993094
155.29550,4.746604279
155.29600,5.662187502
155.29650,6.272576317
155.29700,5.662187502
155.29750,3.831021056
155.29800,2.305049017
155.29850,0.7790769788
155.29900,-0.7468950597
155.29950,-1.357283875
155.30000,-0.1365062443
155.30050,1.389465794
155.30100,1.084271386
155.30150,-1.052089467
155.30200,-2.578061506
155.30250,-2.883255914
155.30300,-2.578061506
155.30350,-3.188450321
155.30400,-3.493644729
155.30450,-3.493644729
155.30500,-4.409227952
155.30550,-6.545588806
155.30600,-7.155977621
155.30650,-5.019616768
155.30700,-2.272867098
155.30750,-1.052089467
155.30800,-1.357283875
155.30850,-1.052089467
155.30900,-0.441700652
155.30950,-0.441700652
155.31000,-0.7468950597
155.31050,0.1686881634
155.31100,3.22063224
155.31150,6.272576317
155.31200,7.798548356
155.31250,8.408937171
155.31300,9.019325987
155.31350,10.24010362
155.31400,10.85049243
155.31450,9.93490921
155.31500,7.798548356
155.31550,5.96738191
155.31600,5.662187502
155.31650,6.272576317
155.31700,5.96738191
155.31750,4.136215463
155.31800,2.305049017
155.31850,1.694660202
155.31900,1.694660202
155.31950,1.389465794
155.32000,1.084271386
155.32050,0.4738825711
155.32100,-0.441700652
155.32150,-3.188450321
155.32200,-5.935199991
155.32250,-7.155977621
155.32300,-8.071560845
155.32350,-9.902727291
155.32400,-12.03908814
155.32450,-12.03908814
155.32500,-9.597532883
155.32550,-7.766366437
155.32600,-7.461172029
155.32650,-6.850783214
155.32700,-5.630005583
155.32750,-5.324811175
155.32800,-6.545588806
155.32850,-7.461172029
155.32900,-6.545588806
155.32950,-5.324811175
155.33000,-5.324811175
155.33050,-5.324811175
155.33100,-3.493644729
155.33150,-1.052089467
155.33200,-0.1365062443
155.33250,-0.1365062443
155.33300,0.4738825711
155.33350,2.305049017
155.33400,3.831021056
155.33450,3.831021056
155.33500,4.136215463
155.33550,5.356993094
155.33600,5.96738191
155.33650,5.051798687
155.33700,3.831021056
155.33750,3.22063224
155.33800,2.915437833
155.33850,1.389465794
155.33900,-0.7468950597
155.33950,-2.578061506
155.34000,-2.883255914
155.34050,-3.188450321
155.34100,-2.883255914
155.34150,-2.272867098
155.34200,-2.272867098
155.34250,-2.578061506
155.34300,-2.272867098
155.34350,-1.052089467
155.34400,-1.052089467
155.34450,-4.409227952
155.34500,-9.292338475
155.34550,-11.12350492
155.34600,-9.902727291
155.34650,-8.987144068
155.34700,-9.292338475
155.34750,-9.597532883
155.34800,-8.071560845
155.34850,-6.850783214
155.34900,-6.850783214
155.34950,-5.630005583
155.35000,-1.967672691
155.35050,1.99985461
155.35100,4.136215463
155.35150,5.051798687
155.35200,6.577770725
155.35250,9.324520394
155.35300,11.46088125
155.35350,11.76607566
155.35400,10.24010362
155.35450,8.714131579
155.35500,7.798548356
155.35550,8.408937171
155.35600,9.629714802
155.35650,10.24010362
155.35700,9.019325987
155.35750,6.882965133
155.35800,4.746604279
155.35850,2.915437833
155.35900,0.4738825711
155.35950,-1.662478283
155.36000,-3.493644729
155.36050,-5.019616768
155.36100,-7.155977621
155.36150,-9.292338475
155.36200,-10.2079217
155.36250,-9.597532883
155.36300,-8.987144068
155.36350,-8.987144068
155.36400,-9.292338475
155.36450,-8.987144068
155.36500,-8.987144068
155.36550,-8.987144068
155.36600,-8.071560845
155.36650,-5.935199991
155.36700,-3.798839137
155.36750,-2.578061506
155.36800,-1.967672691
155.36850,-1.052089467
155.36900,-0.1365062443
155.36950,0.7790769788
155.37000,1.389465794
155.37050,2.305049017
155.37100,4.136215463
155.37150,6.272576317
155.37200,7.493353948
155.37250,7.493353948
155.37300,6.882965133
155.37350,7.188159541
155.37400,8.103742764
155.37450,7.798548356
155.37500,6.272576317
155.37550,4.746604279
155.37600,4.746604279
155.37650,4.746604279
155.37700,3.22063224
155.37750,1.389465794
155.37800,0.7790769788
155.37850,1.084271386
155.37900,0.4738825711
155.37950,-1.357283875
155.38000,-3.493644729
155.38050,-4.104033544
155.38100,-3.798839137
155.38150,-4.104033544
155.38200,-5.324811175
155.38250,-5.935199991
155.38300,-6.240394398
155.38350,-6.545588806
155.38400,-8.376755252
155.38450,-10.51311611
155.38500,-11.12350492
155.38550,-9.597532883
155.38600,-8.071560845
155.38650,-7.461172029
155.38700,-7.766366437
155.38750,-7.155977621
155.38800,-5.324811175
155.38850,-3.493644729
155.38900,-3.188450321
155.38950,-2.578061506
155.39000,-0.1365062443
155.39050,4.136215463
155.39100,6.882965133
155.39150,6.882965133
155.39200,5.662187502
155.39250,5.662187502
155.39300,6.272576317
155.39350,6.577770725
155.39400,5.96738191
155.39450,5.96738191
155.39500,6.272576317
155.39550,6.272576317
155.39600,6.272576317
155.39650,5.96738191
155.39700,5.051798687
155.39750,3.22063224
155.39800,1.694660202
155.39850,1.389465794
155.39900,1.99985461
155.39950,1.99985461
155.40000,1.389465794
155.40050,0.4738825711
155.40100,0.1686881634
155.40150,-0.7468950597
155.40200,-2.578061506
155.40250,-4.104033544
155.40300,-4.104033544
155.40350,-4.409227952
155.40400,-6.240394398
155.40450,-8.376755252
155.40500,-8.68194966
155.40550,-7.461172029
155.40600,-5.935199991
155.40650,-5.019616768
155.40700,-4.409227952
155.40750,-3.493644729
155.40800,-2.578061506
155.40850,-2.578061506
155.40900,-2.883255914
155.40950,-1.967672691
155.41000,-0.1365062443
155.41050,2.305049017
155.41100,4.136215463
155.41150,4.746604279
155.41200,5.356993094
155.41250,6.577770725
155.41300,8.103742764
155.41350,8.408937171
155.41400,7.493353948
155.41450,7.188159541
155.41500,7.798548356
155.41550,8.714131579
155.41600,9.324520394
155.41650,9.93490921
155.41700,10.85049243
155.41750,10.85049243
155.41800,9.629714802
155.41850,7.798548356
155.41900,6.882965133
155.41950,5.662187502
155.42000,3.831021056
155.42050,1.389465794
155.42100,-0.441700652
155.42150,-1.662478283
155.42200,-3.188450321
155.42250,-4.71442236
155.42300,-6.240394398
155.42350,-6.545588806
155.42400,-6.545588806
155.42450,-7.461172029
155.42500,-8.376755252
155.42550,-8.68194966
155.42600,-8.376755252
155.42650,-7.155977621
155.42700,-6.545588806
155.42750,-6.850783214
155.42800,-7.461172029
155.42850,-6.850783214
155.42900,-5.019616768
155.42950,-2.578061506
155.43000,-0.7468950597
155.43050,1.084271386
155.43100,4.136215463
155.43150,6.272576317
155.43200,6.272576317
155.43250,4.746604279
155.43300,3.831021056
155.43350,4.136215463
155.43400,5.051798687
155.43450,5.662187502
155.43500,6.882965133
155.43550,8.714131579
155.43600,9.93490921
155.43650,9.324520394
155.43700,8.408937171
155.43750,6.882965133
155.43800,4.746604279
155.43850,1.99985461
155.43900,-0.1365062443
155.43950,-0.441700652
155.44000,-0.441700652
155.44050,-0.441700652
155.44100,-0.7468950597
155.44150,-1.357283875
155.44200,-2.272867098
155.44250,-2.883255914
155.44300,-2.883255914
155.44350,-3.493644729
155.44400,-5.019616768
155.44450,-6.850783214
155.44500,-7.155977621
155.44550,-6.240394398
155.44600,-5.324811175
155.44650,-4.71442236
155.44700,-3.493644729
155.44750,-2.272867098
155.44800,-1.662478283
155.44850,-1.662478283
155.44900,-0.7468950597
155.44950,0.1686881634
155.45000,1.389465794
155.45050,1.99985461
155.45100,3.525826648
155.45150,5.662187502
155.45200,6.272576317
155.45250,5.356993094
155.45300,4.746604279
155.45350,6.272576317
155.45400,7.798548356
155.45450,7.188159541
155.45500,6.272576317
155.45550,6.882965133
155.45600,8.408937171
155.45650,8.408937171
155.45700,7.188159541
155.45750,6.577770725
155.45800,6.272576317
155.45850,5.356993094
155.45900,2.915437833
155.45950,1.694660202
155.46000,1.99985461
155.46050,2.610243425
155.46100,1.99985461
155.46150,0.1686881634
155.46200,-1.357283875
155.46250,-2.883255914
155.46300,-4.409227952
155.46350,-5.019616768
155.46400,-5.630005583
155.46450,-6.545588806
155.46500,-8.071560845
155.46550,-8.987144068
155.46600,-8.376755252
155.46650,-7.461172029
155.46700,-7.461172029
155.46750,-8.071560845
155.46800,-7.461172029
155.46850,-5.935199991
155.46900,-4.409227952
155.46950,-2.883255914
155.47000,-1.357283875
155.47050,-0.1365062443
155.47100,0.4738825711
155.47150,0.7790769788
155.47200,1.694660202
155.47250,3.22063224
155.47300,4.746604279
155.47350,5.356993094
155.47400,6.272576317
155.47450,6.272576317
155.47500,5.356993094
155.47550,4.746604279
155.47600,5.356993094
155.47650,5.662187502
155.47700,3.831021056
155.47750,0.7790769788
155.47800,-0.441700652
155.47850,-0.1365062443
155.47900,-0.441700652
155.47950,-2.272867098
155.48000,-3.493644729
155.48050,-2.578061506
155.48100,-1.967672691
155.48150,-4.104033544
155.48200,-7.461172029
155.48250,-8.68194966
155.48300,-7.766366437
155.48350,-7.155977621
155.48400,-7.155977621
155.48450,-6.545588806
155.48500,-5.935199991
155.48550,-5.935199991
155.48600,-6.545588806
155.48650,-5.935199991
155.48700,-3.798839137
155.48750,-1.662478283
155.48800,0.4738825711
155.48850,3.22063224
155.48900,5.051798687
155.48950,3.831021056
155.49000,1.389465794
155.49050,0.7790769788
155.49100,2.305049017
155.49150,3.22063224
155.49200,2.610243425
155.49250,1.99985461
155.49300,2.915437833
155.49350,4.441409871
155.49400,4.441409871
155.49450,3.525826648
155.49500,3.831021056
155.49550,4.441409871
155.49600,4.136215463
155.49650,2.915437833
155.49700,1.99985461
155.49750,1.694660202
155.49800,1.694660202
155.49850,1.389465794
155.49900,0.7790769788
155.49950,0.7790769788
155.50000,0.1686881634
155.50050,-1.357283875
155.50100,-4.409227952
155.50150,-6.545588806
155.50200,-7.155977621
155.50250,-7.461172029
155.50300,-8.071560845
155.50350,-8.376755252
155.50400,-8.071560845
155.50450,-6.850783214
155.50500,-7.155977621
155.50550,-8.987144068
155.50600,-10.2079217
155.50650,-9.597532883
155.50700,-8.987144068
155.50750,-8.987144068
155.50800,-8.376755252
155.50850,-5.935199991
155.50900,-2.272867098
155.50950,-0.7468950597
155.51000,-1.357283875
155.51050,-1.357283875
155.51100,0.4738825711
155.51150,2.610243425
155.51200,3.22063224
155.51250,3.22063224
155.51300,3.831021056
155.51350,4.136215463
155.51400,2.915437833
155.51450,1.694660202
155.51500,2.305049017
155.51550,4.136215463
155.51600,5.662187502
155.51650,5.96738191
155.51700,5.662187502
155.51750,4.746604279
155.51800,3.525826648
155.51850,1.694660202
155.51900,0.4738825711
155.51950,-0.1365062443
155.52000,-1.052089467
155.52050,-2.272867098
155.52100,-3.493644729
155.52150,-4.409227952
155.52200,-5.324811175
155.52250,-5.935199991
155.52300,-6.240394398
155.52350,-7.155977621
155.52400,-8.68194966
155.52450,-10.2079217
155.52500,-10.81831051
155.52550,-9.902727291
155.52600,-8.071560845
155.52650,-5.630005583
155.52700,-3.493644729
155.52750,-2.578061506
155.52800,-2.883255914
155.52850,-3.188450321
155.52900,-2.883255914
155.52950,-1.662478283
155.53000,0.1686881634
155.53050,1.99985461
155.53100,4.136215463
155.53150,6.577770725
155.53200,9.93490921
155.53250,13.29204769
155.53300,14.51282533
155.53350,12.98685329
155.53400,10.24010362
155.53450,9.629714802
155.53500,9.629714802
155.53550,7.493353948
155.53600,3.831021056
155.53650,1.389465794
155.53700,1.99985461
155.53750,2.915437833
155.53800,2.305049017
155.53850,1.389465794
155.53900,1.694660202
155.53950,1.389465794
155.54000,-0.1365062443
155.54050,-2.883255914
155.54100,-4.104033544
155.54150,-4.409227952
155.54200,-5.019616768
155.54250,-5.935199991
155.54300,-5.630005583
155.54350,-4.71442236
155.54400,-5.324811175
155.54450,-6.850783214
155.54500,-7.766366437
155.54550,-7.766366437
155.54600,-7.766366437
155.54650,-8.376755252
155.54700,-8.376755252
155.54750,-7.766366437
155.54800,-6.545588806
155.54850,-5.935199991
155.54900,-4.71442236
155.54950,-2.883255914
155.55000,-1.052089467
155.55050,-0.1365062443
155.55100,0.4738825711
155.55150,2.915437833
155.55200,5.662187502
155.55250,7.798548356
155.55300,7.798548356
155.55350,7.188159541
155.55400,6.577770725
155.55450,6.882965133
155.55500,7.188159541
155.55550,7.493353948
155.55600,8.714131579
155.55650,9.93490921
155.55700,10.24010362
155.55750,8.714131579
155.55800,6.577770725
155.55850,5.051798687
155.55900,4.746604279
155.55950,4.441409871
155.56000,3.22063224
155.56050,1.694660202
155.56100,0.1686881634
155.56150,-1.052089467
155.56200,-2.578061506
155.56250,-4.409227952
155.56300,-6.545588806
155.56350,-8.071560845
155.56400,-8.68194966
155.56450,-8.376755252
155.56500,-8.071560845
155.56550,-8.376755252
155.56600,-8.071560845
155.56650,-6.240394398
155.56700,-3.493644729
155.56750,-1.357283875
155.56800,-0.441700652
155.56850,0.1686881634
155.56900,0.7790769788
155.56950,0.1686881634
155.57000,-1.662478283
155.57050,-2.272867098
155.57100,-0.1365062443
155.57150,2.915437833
155.57200,4.441409871
155.57250,5.051798687
155.57300,6.272576317
155.57350,6.577770725
155.57400,5.051798687
155.57450,2.610243425
155.57500,1.389465794
155.57550,1.99985461
155.57600,2.915437833
155.57650,2.915437833
155.57700,3.22063224
155.57750,3.22063224
155.57800,2.305049017
155.57850,0.7790769788
155.57900,-0.441700652
155.57950,-1.357283875
155.58000,-2.272867098
155.58050,-3.188450321
155.58100,-3.188450321
155.58150,-3.493644729
155.58200,-4.71442236
155.58250,-6.240394398
155.58300,-6.545588806
155.58350,-6.545588806
155.58400,-6.850783214
155.58450,-7.766366437
155.58500,-8.376755252
155.58550,-8.68194966
155.58600,-10.2079217
155.58650,-11.42869933
155.58700,-11.12350492
155.58750,-7.766366437
155.58800,-3.798839137
155.58850,-0.441700652
155.58900,1.389465794
155.58950,2.610243425
155.59000,3.831021056
155.59050,5.356993094
155.59100,7.493353948
155.59150,9.629714802
155.59200,10.24010362
155.59250,9.629714802
155.59300,9.629714802
155.59350,10.54529803
155.59400,11.76607566
155.59450,11.76607566
155.59500,11.46088125
155.59550,10.85049243
155.59600,10.24010362
155.59650,9.019325987
155.59700,7.188159541
155.59750,5.051798687
155.59800,2.915437833
155.59850,1.694660202
155.59900,0.7790769788
155.59950,0.1686881634
155.60000,-1.052089467
155.60050,-3.188450321
155.60100,-4.71442236
155.60150,-5.935199991
155.60200,-7.461172029
155.60250,-9.597532883
155.60300,-11.42869933
155.60350,-12.64947696
155.60400,-13.25986578
155.60450,-12.95467137
155.60500,-10.81831051
155.60550,-7.461172029
155.60600,-3.493644729
155.60650,-0.7468950597
155.60700,-0.1365062443
155.60750,-0.7468950597
155.60800,-1.357283875
155.60850,-1.052089467
155.60900,-0.1365062443
155.60950,1.99985461
155.61000,4.136215463
155.61050,6.272576317
155.61100,7.188159541
155.61150,6.577770725
155.61200,5.356993094
155.61250,5.051798687
155.61300,5.356993094
155.61350,6.577770725
155.61400,7.493353948
155.61450,7.798548356
155.61500,7.493353948
155.61550,6.882965133
155.61600,6.577770725
155.61650,5.96738191
155.61700,4.746604279
155.61750,2.915437833
155.61800,1.389465794
155.61850,1.084271386
155.61900,1.389465794
155.61950,1.389465794
155.62000,1.084271386
155.62050,1.084271386
155.62100,1.084271386
155.62150,-0.1365062443
155.62200,-1.357283875
155.62250,-2.578061506
155.62300,-2.883255914
155.62350,-3.798839137
155.62400,-5.019616768
155.62450,-5.935199991
155.62500,-5.935199991
155.62550,-4.71442236
155.62600,-3.493644729
155.62650,-2.272867098
155.62700,-1.662478283
155.62750,-1.662478283
155.62800,-1.967672691
155.62850,-1.967672691
155.62900,-1.052089467
155.62950,0.4738825711
155.63000,2.305049017
155.63050,2.610243425
155.63100,2.305049017
155.63150,1.694660202
155.63200,1.99985461
155.63250,2.610243425
155.63300,2.915437833
155.63350,2.915437833
155.63400,2.915437833
155.63450,3.525826648
155.63500,3.831021056
155.63550,4.136215463
155.63600,4.136215463
155.63650,4.136215463
155.63700,3.22063224
155.63750,1.389465794
155.63800,-0.1365062443
155.63850,-0.7468950597
155.63900,-0.7468950597
155.63950,-1.357283875
155.64000,-1.967672691
155.64050,-3.493644729
155.64100,-5.630005583
155.64150,-8.071560845
155.64200,-8.987144068
155.64250,-7.461172029
155.64300,-4.71442236
155.64350,-2.883255914
155.64400,-3.188450321
155.64450,-4.409227952
155.64500,-4.104033544
155.64550,-2.272867098
155.64600,-1.052089467
155.64650,-2.272867098
155.64700,-4.71442236
155.64750,-5.019616768
155.64800,-3.188450321
155.64850,-1.357283875
155.64900,-1.357283875
155.64950,-1.357283875
155.65000,-0.1365062443
155.65050,1.084271386
155.65100,1.084271386
155.65150,0.1686881634
155.65200,0.7790769788
155.65250,2.915437833
155.65300,4.441409871
155.65350,4.441409871
155.65400,4.136215463
155.65450,4.746604279
155.65500,4.441409871
155.65550,3.22063224
155.65600,1.389465794
155.65650,0.4738825711
155.65700,0.7790769788
155.65750,1.084271386
155.65800,-0.1365062443
155.65850,-1.662478283
155.65900,-2.272867098
155.65950,-1.357283875
155.66000,-0.1365062443
155.66050,-0.1365062443
155.66100,-0.7468950597
155.66150,-0.441700652
155.66200,-0.1365062443
155.66250,-0.1365062443
155.66300,-2.272867098
155.66350,-4.104033544
155.66400,-5.019616768
155.66450,-5.324811175
155.66500,-6.545588806
155.66550,-7.766366437
155.66600,-8.071560845
155.66650,-7.155977621
155.66700,-5.935199991
155.66750,-5.019616768
155.66800,-4.104033544
155.66850,-3.798839137
155.66900,-4.409227952
155.66950,-4.409227952
155.67000,-3.188450321
155.67050,-1.662478283
155.67100,-0.7468950597
155.67150,-0.1365062443
155.67200,0.7790769788
155.67250,1.694660202
155.67300,1.694660202
155.67350,0.4738825711
155.67400,0.4738825711
155.67450,2.305049017
155.67500,5.356993094
155.67550,6.577770725
155.67600,6.272576317
155.67650,5.356993094
155.67700,4.746604279
155.67750,4.136215463
155.67800,2.915437833
155.67850,1.694660202
155.67900,1.084271386
155.67950,0.7790769788
155.68000,1.084271386
155.68050,1.084271386
155.68100,0.4738825711
155.68150,-0.7468950597
155.68200,-3.188450321
155.68250,-5.324811175
155.68300,-6.545588806
155.68350,-7.155977621
155.68400,-7.461172029
155.68450,-6.545588806
155.68500,-5.019616768
155.68550,-3.798839137
155.68600,-3.493644729
155.68650,-2.883255914
155.68700,-2.578061506
155.68750,-2.883255914
155.68800,-3.493644729
155.68850,-2.578061506
155.68900,-0.7468950597
155.68950,-0.1365062443
155.69000,-1.357283875
155.69050,-1.357283875
155.69100,1.99985461
155.69150,5.662187502
155.69200,5.96738191
155.69250,4.136215463
155.69300,3.831021056
155.69350,5.356993094
155.69400,5.96738191
155.69450,5.051798687
155.69500,4.746604279
155.69550,5.356993094
155.69600,5.96738191
155.69650,6.272576317
155.69700,6.577770725
155.69750,6.272576317
155.69800,4.746604279
155.69850,2.610243425
155.69900,1.99985461
155.69950,1.99985461
155.70000,1.694660202
155.70050,0.1686881634
155.70100,-0.1365062443
155.70150,-0.7468950597
155.70200,-1.967672691
155.70250,-3.798839137
155.70300,-4.409227952
155.70350,-4.104033544
155.70400,-4.409227952
155.70450,-6.850783214
155.70500,-8.68194966
155.70550,-8.071560845
155.70600,-6.545588806
155.70650,-5.324811175
155.70700,-4.71442236
155.70750,-3.798839137
155.70800,-2.272867098
155.70850,-1.052089467
155.70900,-0.1365062443
155.70950,0.7790769788
155.71000,2.610243425
155.71050,4.746604279
155.71100,6.577770725
155.71150,8.103742764
155.71200,8.103742764
155.71250,6.272576317
155.71300,4.746604279
155.71350,4.746604279
155.71400,6.272576317
155.71450,7.493353948
155.71500,7.798548356
155.71550,7.493353948
155.71600,8.103742764
155.71650,8.408937171
155.71700,6.577770725
155.71750,3.525826648
155.71800,1.389465794
155.71850,1.084271386
155.71900,1.084271386
155.71950,0.4738825711
155.72000,-0.441700652
155.72050,-1.357283875
155.72100,-2.272867098
155.72150,-4.104033544
155.72200,-5.630005583
155.72250,-5.935199991
155.72300,-5.324811175
155.72350,-4.409227952
155.72400,-3.493644729
155.72450,-3.493644729
155.72500,-4.71442236
155.72550,-6.850783214
155.72600,-7.155977621
155.72650,-5.324811175
155.72700,-3.188450321
155.72750,-2.883255914
155.72800,-2.883255914
155.72850,-1.052089467
155.72900,0.1686881634
155.72950,-0.1365062443
155.73000,-1.052089467
155.73050,-0.441700652
155.73100,2.305049017
155.73150,4.441409871
155.73200,4.441409871
155.73250,4.136215463
155.73300,4.136215463
155.73350,3.831021056
155.73400,2.915437833
155.73450,2.915437833
155.73500,4.746604279
155.73550,7.188159541
155.73600,8.103742764
155.73650,7.188159541
155.73700,5.051798687
155.73750,2.915437833
155.73800,1.389465794
155.73850,1.389465794
155.73900,2.305049017
155.73950,2.305049017
155.74000,0.7790769788
155.74050,-1.357283875
155.74100,-3.493644729
155.74150,-5.324811175
155.74200,-7.461172029
155.74250,-8.987144068
155.74300,-8.987144068
155.74350,-7.766366437
155.74400,-6.545588806
155.74450,-6.240394398
155.74500,-5.935199991
155.74550,-5.324811175
155.74600,-4.409227952
155.74650,-3.493644729
155.74700,-2.578061506
155.74750,-2.272867098
155.74800,-1.967672691
155.74850,-1.662478283
155.74900,-1.052089467
155.74950,-0.441700652
155.75000,0.1686881634
155.75050,1.99985461
155.75100,5.051798687
155.75150,9.019325987
155.75200,11.15568684
155.75250,11.15568684
155.75300,9.629714802
155.75350,9.324520394
155.75400,10.54529803
155.75450,10.85049243
155.75500,9.93490921
155.75550,8.714131579
155.75600,8.714131579
155.75650,9.019325987
155.75700,7.798548356
155.75750,6.272576317
155.75800,5.356993094
155.75850,3.831021056
155.75900,1.084271386
155.75950,-1.662478283
155.76000,-2.883255914
155.76050,-3.493644729
155.76100,-5.019616768
155.76150,-7.155977621
155.76200,-7.461172029
155.76250,-6.240394398
155.76300,-5.324811175
155.76350,-6.545588806
155.76400,-8.071560845
155.76450,-8.68194966
155.76500,-8.68194966
155.76550,-9.292338475
155.76600,-10.81831051
155.76650,-10.81831051
155.76700,-9.292338475
155.76750,-6.850783214
155.76800,-4.71442236
155.76850,-3.493644729
155.76900,-3.798839137
155.76950,-3.493644729
155.77000,-2.272867098
155.77050,-0.1365062443
155.77100,2.305049017
155.77150,3.525826648
155.77200,3.831021056
155.77250,4.746604279
155.77300,5.662187502
155.77350,5.662187502
155.77400,5.051798687
155.77450,4.136215463
155.77500,3.831021056
155.77550,3.22063224
155.77600,2.305049017
155.77650,1.694660202
155.77700,2.610243425
155.77750,4.441409871
155.77800,4.746604279
155.77850,2.610243425
155.77900,-0.1365062443
155.77950,-1.967672691
155.78000,-2.272867098
155.78050,-3.493644729
155.78100,-5.935199991
155.78150,-7.766366437
155.78200,-8.376755252
155.78250,-8.68194966
155.78300,-8.68194966
155.78350,-7.766366437
155.78400,-7.155977621
155.78450,-7.766366437
155.78500,-8.987144068
155.78550,-8.987144068
155.78600,-6.850783214
155.78650,-4.71442236
155.78700,-4.71442236
155.78750,-5.630005583
155.78800,-5.630005583
155.78850,-4.409227952
155.78900,-3.493644729
155.78950,-3.493644729
155.79000,-2.578061506
155.79050,-0.1365062443
155.79100,2.305049017
155.79150,3.831021056
155.79200,4.136215463
155.79250,4.746604279
155.79300,5.96738191
155.79350,7.493353948
155.79400,8.714131579
155.79450,9.629714802
155.79500,9.629714802
155.79550,8.714131579
155.79600,6.577770725
155.79650,5.662187502
155.79700,5.356993094
155.79750,4.136215463
155.79800,1.694660202
155.79850,-0.441700652
155.79900,-0.7468950597
155.79950,-0.1365062443
155.80000,-0.441700652
155.80050,-2.272867098
155.80100,-4.104033544
155.80150,-5.324811175
155.80200,-6.240394398
155.80250,-7.155977621
155.80300,-8.071560845
155.80350,-8.071560845
155.80400,-8.071560845
155.80450,-8.376755252
155.80500,-8.987144068
155.80550,-9.597532883
155.80600,-9.597532883
155.80650,-8.987144068
155.80700,-7.766366437
155.80750,-6.850783214
155.80800,-5.630005583
155.80850,-4.104033544
155.80900,-1.967672691
155.80950,-0.1365062443
155.81000,0.7790769788
155.81050,1.084271386
155.81100,1.389465794
155.81150,1.99985461
155.81200,2.915437833
155.81250,4.441409871
155.81300,6.272576317
155.81350,7.493353948
155.81400,7.493353948
155.81450,7.188159541
155.81500,7.493353948
155.81550,6.882965133
155.81600,5.051798687
155.81650,3.22063224
155.81700,3.22063224
155.81750,3.831021056
155.81800,3.525826648
155.81850,1.694660202
155.81900,-0.1365062443
155.81950,-0.7468950597
155.82000,-1.967672691
155.82050,-4.104033544
155.82100,-5.935199991
155.82150,-6.850783214
155.82200,-8.071560845
155.82250,-9.597532883
155.82300,-11.42869933
155.82350,-12.03908814
155.82400,-12.03908814
155.82450,-11.73389374
155.82500,-12.03908814
155.82550,-11.73389374
155.82600,-10.51311611
155.82650,-8.68194966
155.82700,-6.545588806
155.82750,-4.409227952
155.82800,-2.578061506
155.82850,-0.7468950597
155.82900,1.084271386
155.82950,3.525826648
155.83000,5.96738191
155.83050,8.408937171
155.83100,10.24010362
155.83150,12.07127006
155.83200,13.29204769
155.83250,13.90243651
155.83300,13.90243651
155.83350,13.29204769
155.83400,13.29204769
155.83450,13.5972421
155.83500,13.5972421
155.83550,12.68165888
155.83600,11.15568684
155.83650,9.324520394
155.83700,7.493353948
155.83750,5.662187502
155.83800,4.746604279
155.83850,5.96738191
155.83900,7.798548356
155.83950,7.493353948
155.84000,4.441409871
155.84050,1.084271386
155.84100,-0.441700652
155.84150,-0.441700652
155.84200,-1.357283875
155.84250,-3.188450321
155.84300,-4.71442236
155.84350,-5.019616768
155.84400,-5.019616768
155.84450,-5.324811175
155.84500,-6.240394398
155.84550,-7.155977621
155.84600,-8.071560845
155.84650,-8.376755252
155.84700,-7.461172029
155.84750,-5.630005583
155.84800,-3.493644729
155.84850,-1.662478283
155.84900,-0.1365062443
155.84950,0.7790769788
155.85000,1.389465794
155.85050,1.694660202
155.85100,2.305049017
155.85150,2.915437833
155.85200,3.525826648
155.85250,3.22063224
155.85300,2.610243425
155.85350,2.915437833
155.85400,4.136215463
155.85450,5.356993094
155.85500,5.662187502
155.85550,4.441409871
155.85600,3.525826648
155.85650,3.525826648
155.85700,4.441409871
155.85750,5.356993094
155.85800,5.356993094
155.85850,4.136215463
155.85900,1.99985461
155.85950,0.4738825711
155.86000,-0.1365062443
155.86050,-0.7468950597
155.86100,-2.578061506
155.86150,-3.798839137
155.86200,-3.493644729
155.86250,-2.883255914
155.86300,-4.104033544
155.86350,-6.240394398
155.86400,-7.155977621
155.86450,-6.240394398
155.86500,-6.240394398
155.86550,-6.850783214
155.86600,-6.545588806
155.86650,-4.71442236
155.86700,-3.798839137
155.86750,-4.409227952
155.86800,-4.71442236
155.86850,-2.883255914
155.86900,-0.7468950597
155.86950,-0.1365062443
155.87000,0.4738825711
155.87050,2.305049017
155.87100,4.746604279
155.87150,5.356993094
155.87200,5.051798687
155.87250,5.356993094
155.87300,5.96738191
155.87350,6.272576317
155.87400,5.96738191
155.87450,5.96738191
155.87500,6.577770725
155.87550,6.577770725
155.87600,6.272576317
155.87650,6.272576317
155.87700,6.272576317
155.87750,6.272576317
155.87800,4.746604279
155.87850,2.305049017
155.87900,0.1686881634
155.87950,-1.052089467
155.88000,-2.578061506
155.88050,-4.409227952
155.88100,-6.545588806
155.88150,-8.376755252
155.88200,-9.597532883
155.88250,-10.51311611
155.88300,-10.2079217
155.88350,-8.68194966
155.88400,-6.545588806
155.88450,-5.630005583
155.88500,-5.935199991
155.88550,-6.240394398
155.88600,-6.240394398
155.88650,-6.545588806
155.88700,-7.461172029
155.88750,-6.545588806
155.88800,-3.798839137
155.88850,-0.7468950597
155.88900,-0.1365062443
155.88950,0.4738825711
155.89000,1.99985461
155.89050,4.441409871
155.89100,5.662187502
155.89150,4.746604279
155.89200,3.525826648
155.89250,4.441409871
155.89300,6.272576317
155.89350,7.798548356
155.89400,7.798548356
155.89450,7.188159541
155.89500,6.577770725
155.89550,5.96738191
155.89600,5.662187502
155.89650,5.356993094
155.89700,5.356993094
155.89750,4.746604279
155.89800,3.831021056
155.89850,2.915437833
155.89900,2.610243425
155.89950,2.305049017
155.90000,0.7790769788
155.90050,-1.357283875
155.90100,-3.493644729
155.90150,-5.019616768
155.90200,-5.935199991
155.90250,-6.240394398
155.90300,-6.240394398
155.90350,-6.545588806
155.90400,-7.155977621
155.90450,-7.766366437
155.90500,-8.376755252
155.90550,-8.071560845
155.90600,-7.461172029
155.90650,-6.850783214
155.90700,-5.324811175
155.90750,-3.798839137
155.90800,-3.188450321
155.90850,-3.493644729
155.90900,-3.493644729
155.90950,-2.578061506
155.91000,-1.052089467
155.91050,1.084271386
155.91100,3.525826648
155.91150,5.96738191
155.91200,7.798548356
155.91250,8.103742764
155.91300,7.493353948
155.91350,6.882965133
155.91400,6.272576317
155.91450,5.662187502
155.91500,4.441409871
155.91550,2.915437833
155.91600,1.694660202
155.91650,0.7790769788
155.91700,0.4738825711
155.91750,0.4738825711
155.91800,0.1686881634
155.91850,-0.441700652
155.91900,-1.662478283
155.91950,-3.188450321
155.92000,-5.019616768
155.92050,-6.850783214
155.92100,-8.071560845
155.92150,-8.376755252
155.92200,-8.68194966
155.92250,-9.292338475
155.92300,-9.902727291
155.92350,-9.902727291
155.92400,-9.902727291
155.92450,-9.597532883
155.92500,-8.987144068
155.92550,-7.461172029
155.92600,-6.545588806
155.92650,-6.545588806
155.92700,-7.461172029
155.92750,-7.461172029
155.92800,-6.240394398
155.92850,-4.71442236
155.92900,-2.883255914
155.92950,-0.1365062443
155.93000,3.525826648
155.93050,5.96738191
155.93100,6.577770725
155.93150,6.577770725
155.93200,7.493353948
155.93250,9.019325987
155.93300,10.24010362
155.93350,9.93490921
155.93400,9.019325987
155.93450,8.714131579
155.93500,8.103742764
155.93550,7.493353948
155.93600,6.272576317
155.93650,4.746604279
155.93700,3.831021056
155.93750,3.525826648
155.93800,3.525826648
155.93850,3.525826648
155.93900,3.22063224
155.93950,2.915437833
155.94000,1.694660202
155.94050,0.1686881634
155.94100,-0.7468950597
155.94150,-1.662478283
155.94200,-3.188450321
155.94250,-5.324811175
155.94300,-6.850783214
155.94350,-6.240394398
155.94400,-5.019616768
155.94450,-5.019616768
155.94500,-5.935199991
155.94550,-5.630005583
155.94600,-4.104033544
155.94650,-3.798839137
155.94700,-4.71442236
155.94750,-5.935199991
155.94800,-5.324811175
155.94850,-3.798839137
155.94900,-1.967672691
155.94950,-0.441700652
155.95000,1.694660202
155.95050,3.831021056
155.95100,5.356993094
155.95150,6.577770725
155.95200,7.493353948
155.95250,7.188159541
155.95300,5.96738191
155.95350,5.356993094
155.95400,5.662187502
155.95450,5.96738191
155.95500,5.662187502
155.95550,5.662187502
155.95600,6.577770725
155.95650,7.188159541
155.95700,7.188159541
155.95750,6.272576317
155.95800,4.441409871
155.95850,2.305049017
155.95900,0.7790769788
155.95950,-0.1365062443
155.96000,-0.1365062443
155.96050,-1.662478283
155.96100,-4.104033544
155.96150,-5.630005583
155.96200,-5.324811175
155.96250,-5.019616768
155.96300,-5.630005583
155.96350,-6.545588806
155.96400,-7.461172029
155.96450,-8.071560845
155.96500,-8.68194966
155.96550,-8.987144068
155.96600,-8.68194966
155.96650,-8.071560845
155.96700,-6.850783214
155.96750,-5.324811175
155.96800,-3.798839137
155.96850,-2.272867098
155.96900,-0.1365062443
155.96950,2.610243425
155.97000,5.051798687
155.97050,5.662187502
155.97100,5.051798687
155.97150,4.746604279
155.97200,5.662187502
155.97250,6.882965133
155.97300,7.188159541
155.97350,6.577770725
155.97400,5.662187502
155.97450,5.662187502
155.97500,6.272576317
155.97550,7.188159541
155.97600,8.103742764
155.97650,8.408937171
155.97700,7.798548356
155.97750,6.577770725
155.97800,6.272576317
155.97850,6.577770725
155.97900,6.577770725
155.97950,4.441409871
155.98000,1.084271386
155.98050,-1.052089467
155.98100,-2.272867098
155.98150,-4.104033544
155.98200,-6.545588806
155.98250,-8.376755252
155.98300,-8.071560845
155.98350,-7.461172029
155.98400,-8.376755252
155.98450,-9.902727291
155.98500,-10.51311611
155.98550,-10.51311611
155.98600,-10.2079217
155.98650,-9.902727291
155.98700,-8.68194966
155.98750,-6.545588806
155.98800,-5.019616768
155.98850,-4.409227952
155.98900,-3.798839137
155.98950,-2.883255914
155.99000,-1.357283875
155.99050,-0.1365062443
155.99100,0.7790769788
155.99150,1.389465794
155.99200,2.610243425
155.99250,3.525826648
155.99300,4.441409871
155.99350,5.051798687
155.99400,5.662187502
155.99450,5.662187502
155.99500,5.356993094
155.99550,4.136215463
155.99600,2.610243425
155.99650,2.610243425
155.99700,4.441409871
155.99750,6.577770725
155.99800,7.493353948
155.99850,6.882965133
155.99900,5.051798687
155.99950,2.915437833
156.00000,1.084271386
156.00050,-0.1365062443
156.00100,-0.7468950597
156.00150,-1.052089467
156.00200,-1.052089467
156.00250,-1.052089467
156.00300,-1.967672691
156.00350,-3.493644729
156.00400,-4.71442236
156.00450,-5.324811175
156.00500,-5.935199991
156.00550,-6.545588806
156.00600,-7.461172029
156.00650,-7.461172029
156.00700,-7.461172029
156.00750,-7.766366437
156.00800,-8.071560845
156.00850,-7.155977621
156.00900,-5.630005583
156.00950,-4.104033544
156.01000,-3.493644729
156.01050,-2.883255914
156.01100,-0.7468950597
156.01150,1.99985461
156.01200,4.441409871
156.01250,4.746604279
156.01300,4.746604279
156.01350,5.051798687
156.01400,5.96738191
156.01450,6.577770725
156.01500,6.577770725
156.01550,6.272576317
156.01600,5.356993094
156.01650,3.525826648
156.01700,2.915437833
156.01750,3.525826648
156.01800,4.746604279
156.01850,4.441409871
156.01900,3.22063224
156.01950,1.694660202
156.02000,0.1686881634
156.02050,-0.441700652
156.02100,-1.052089467
156.02150,-1.052089467
156.02200,-1.662478283
156.02250,-2.883255914
156.02300,-3.188450321
156.02350,-2.883255914
156.02400,-2.883255914
156.02450,-4.409227952
156.02500,-5.630005583
156.02550,-5.630005583
156.02600,-4.71442236
156.02650,-4.409227952
156.02700,-5.324811175
156.02750,-5.935199991
156.02800,-5.935199991
156.02850,-5.630005583
156.02900,-4.71442236
156.02950,-3.798839137
156.03000,-2.883255914
156.03050,-1.662478283
156.03100,-0.441700652
156.03150,1.694660202
156.03200,4.136215463
156.03250,5.96738191
156.03300,6.577770725
156.03350,6.272576317
156.03400,5.356993094
156.03450,5.051798687
156.03500,5.356993094
156.03550,5.96738191
156.03600,5.356993094
156.03650,4.746604279
156.03700,5.356993094
156.03750,6.577770725
156.03800,7.188159541
156.03850,7.188159541
156.03900,6.272576317
156.03950,4.441409871
156.04000,1.99985461
156.04050,-0.7468950597
156.04100,-2.578061506
156.04150,-3.493644729
156.04200,-4.71442236
156.04250,-5.935199991
156.04300,-7.155977621
156.04350,-8.376755252
156.04400,-9.597532883
156.04450,-10.51311611
156.04500,-9.902727291
156.04550,-8.376755252
156.04600,-6.240394398
156.04650,-4.104033544
156.04700,-2.272867098
156.04750,-0.441700652
156.04800,1.084271386
156.04850,2.305049017
156.04900,3.525826648
156.04950,3.831021056
156.05000,3.831021056
156.05050,3.525826648
156.05100,3.22063224
156.05150,2.915437833
156.05200,3.22063224
156.05250,5.356993094
156.05300,8.408937171
156.05350,9.93490921
156.05400,9.93490921
156.05450,9.019325987
156.05500,9.019325987
156.05550,8.714131579
156.05600,8.103742764
156.05650,7.188159541
156.05700,6.272576317
156.05750,5.051798687
156.05800,2.915437833
156.05850,0.4738825711
156.05900,-1.052089467
156.05950,-1.967672691
156.06000,-3.188450321
156.06050,-4.71442236
156.06100,-5.324811175
156.06150,-5.630005583
156.06200,-6.240394398
156.06250,-7.155977621
156.06300,-7.766366437
156.06350,-7.766366437
156.06400,-7.461172029
156.06450,-7.155977621
156.06500,-7.155977621
156.06550,-8.376755252
156.06600,-9.902727291
156.06650,-10.81831051
156.06700,-10.51311611
156.06750,-9.292338475
156.06800,-8.071560845
156.06850,-6.545588806
156.06900,-4.409227952
156.06950,-2.272867098
156.07000,-1.052089467
156.07050,-0.441700652
156.07100,0.4738825711
156.07150,3.831021056
156.07200,7.493353948
156.07250,9.324520394
156.07300,8.714131579
156.07350,7.798548356
156.07400,8.714131579
156.07450,10.85049243
156.07500,12.68165888
156.07550,12.68165888
156.07600,10.85049243
156.07650,8.103742764
156.07700,6.272576317
156.07750,5.051798687
156.07800,4.746604279
156.07850,3.525826648
156.07900,1.084271386
156.07950,-1.357283875
156.08000,-2.272867098
156.08050,-1.357283875
156.08100,-1.357283875
156.08150,-3.798839137
156.08200,-7.155977621
156.08250,-8.376755252
156.08300,-7.766366437
156.08350,-7.766366437
156.08400,-8.987144068
156.08450,-9.902727291
156.08500,-9.597532883
156.08550,-9.292338475
156.08600,-8.68194966
156.08650,-7.461172029
156.08700,-5.630005583
156.08750,-4.71442236
156.08800,-4.409227952
156.08850,-2.883255914
156.08900,0.7790769788
156.08950,4.136215463
156.09000,5.662187502
156.09050,5.051798687
156.09100,5.051798687
156.09150,5.662187502
156.09200,6.272576317
156.09250,6.272576317
156.09300,6.577770725
156.09350,6.272576317
156.09400,5.356993094
156.09450,4.441409871
156.09500,5.051798687
156.09550,5.96738191
156.09600,6.272576317
156.09650,5.96738191
156.09700,5.051798687
156.09750,3.22063224
156.09800,0.7790769788
156.09850,-0.1365062443
156.09900,0.4738825711
156.09950,1.084271386
156.10000,-0.1365062443
156.10050,-2.272867098
156.10100,-3.798839137
156.10150,-4.104033544
156.10200,-4.71442236
156.10250,-6.240394398
156.10300,-7.155977621
156.10350,-7.766366437
156.10400,-7.461172029
156.10450,-7.461172029
156.10500,-7.461172029
156.10550,-7.461172029
156.10600,-6.850783214
156.10650,-6.240394398
156.10700,-5.935199991
156.10750,-5.630005583
156.10800,-4.71442236
156.10850,-3.493644729
156.10900,-2.578061506
156.10950,-2.578061506
156.11000,-2.272867098
156.11050,-0.441700652
156.11100,1.389465794
156.11150,2.915437833
156.11200,4.441409871
156.11250,6.577770725
156.11300,8.714131579
156.11350,9.324520394
156.11400,9.019325987
156.11450,8.714131579
156.11500,8.408937171
156.11550,7.493353948
156.11600,6.272576317
156.11650,5.662187502
156.11700,5.051798687
156.11750,3.831021056
156.11800,2.305049017
156.11850,1.389465794
156.11900,1.389465794
156.11950,1.389465794
156.12000,0.7790769788
156.12050,-0.1365062443
156.12100,-0.7468950597
156.12150,-1.357283875
156.12200,-1.662478283
156.12250,-2.272867098
156.12300,-3.798839137
156.12350,-5.935199991
156.12400,-7.766366437
156.12450,-8.68194966
156.12500,-8.68194966
156.12550,-8.68194966
156.12600,-8.376755252
156.12650,-7.461172029
156.12700,-6.545588806
156.12750,-6.850783214
156.12800,-7.461172029
156.12850,-5.935199991
156.12900,-3.493644729
156.12950,-1.967672691
156.13000,-1.662478283
156.13050,-1.052089467
156.13100,1.084271386
156.13150,3.831021056
156.13200,5.662187502
156.13250,5.96738191
156.13300,6.882965133
156.13350,8.408937171
156.13400,9.629714802
156.13450,9.629714802
156.13500,8.408937171
156.13550,7.188159541
156.13600,6.882965133
156.13650,8.408937171
156.13700,9.93490921
156.13750,9.93490921
156.13800,8.103742764
156.13850,5.662187502
156.13900,3.525826648
156.13950,1.389465794
156.14000,-1.052089467
156.14050,-3.188450321
156.14100,-4.71442236
156.14150,-5.324811175
156.14200,-6.850783214
156.14250,-9.292338475
156.14300,-11.12350492
156.14350,-11.42869933
156.14400,-11.42869933
156.14450,-12.95467137
156.14500,-14.48064341
156.14550,-14.48064341
156.14600,-12.64947696
156.14650,-10.2079217
156.14700,-7.766366437
156.14750,-4.71442236
156.14800,-1.662478283
156.14850,-0.1365062443
156.14900,0.4738825711
156.14950,0.7790769788
156.15000,1.99985461
156.15050,3.525826648
156.15100,4.136215463
156.15150,3.525826648
156.15200,3.525826648
156.15250,4.441409871
156.15300,5.051798687
156.15350,5.051798687
156.15400,5.356993094
156.15450,6.272576317
156.15500,7.493353948
156.15550,7.798548356
156.15600,6.882965133
156.15650,5.96738191
156.15700,5.662187502
156.15750,5.051798687
156.15800,3.831021056
156.15850,2.610243425
156.15900,1.99985461
156.15950,0.7790769788
156.16000,-0.7468950597
156.16050,-3.188450321
156.16100,-5.324811175
156.16150,-6.850783214
156.16200,-8.071560845
156.16250,-8.987144068
156.16300,-9.597532883
156.16350,-9.902727291
156.16400,-9.902727291
156.16450,-10.2079217
156.16500,-11.12350492
156.16550,-11.73389374
156.16600,-11.73389374
156.16650,-10.81831051
156.16700,-9.902727291
156.16750,-9.597532883
156.16800,-9.597532883
156.16850,-8.68194966
156.16900,-5.630005583
156.16950,-1.357283875
156.17000,1.389465794
156.17050,2.915437833
156.17100,3.831021056
156.17150,5.051798687
156.17200,5.356993094
156.17250,5.051798687
156.17300,5.051798687
156.17350,5.356993094
156.17400,6.577770725
156.17450,7.493353948
156.17500,8.408937171
156.17550,9.93490921
156.17600,10.24010362
156.17650,9.019325987
156.17700,7.188159541
156.17750,6.272576317
156.17800,5.356993094
156.17850,4.136215463
156.17900,2.305049017
156.17950,1.084271386
156.18000,0.7790769788
156.18050,0.1686881634
156.18100,-0.1365062443
156.18150,-0.7468950597
156.18200,-1.357283875
156.18250,-3.188450321
156.18300,-5.324811175
156.18350,-6.240394398
156.18400,-5.324811175
156.18450,-5.019616768
156.18500,-6.545588806
156.18550,-8.987144068
156.18600,-9.902727291
156.18650,-8.68194966
156.18700,-6.850783214
156.18750,-6.240394398
156.18800,-5.935199991
156.18850,-5.324811175
156.18900,-3.493644729
156.18950,-1.967672691
156.19000,-1.052089467
156.19050,-0.1365062443
156.19100,1.99985461
156.19150,4.746604279
156.19200,6.272576317
156.19250,5.96738191
156.19300,5.356993094
156.19350,6.577770725
156.19400,8.714131579
156.19450,9.629714802
156.19500,9.324520394
156.19550,9.629714802
156.19600,11.46088125
156.19650,12.07127006
156.19700,10.54529803
156.19750,8.408937171
156.19800,7.798548356
156.19850,7.798548356
156.19900,7.188159541
156.19950,5.96738191
156.20000,4.746604279
156.20050,3.22063224
156.20100,1.084271386
156.20150,-0.441700652
156.20200,-1.357283875
156.20250,-1.662478283
156.20300,-3.493644729
156.20350,-5.935199991
156.20400,-7.461172029
156.20450,-8.071560845
156.20500,-8.68194966
156.20550,-9.292338475
156.20600,-7.766366437
156.20650,-5.019616768
156.20700,-2.883255914
156.20750,-2.272867098
156.20800,-1.967672691
156.20850,-0.7468950597
156.20900,0.1686881634
156.20950,0.4738825711
156.21000,0.1686881634
156.21050,0.7790769788
156.21100,2.305049017
156.21150,3.525826648
156.21200,4.136215463
156.21250,4.441409871
156.21300,5.051798687
156.21350,6.272576317
156.21400,7.493353948
156.21450,8.408937171
156.21500,7.798548356
156.21550,6.272576317
156.21600,5.356993094
156.21650,5.356993094
156.21700,5.356993094
156.21750,4.746604279
156.21800,2.915437833
156.21850,1.694660202
156.21900,2.610243425
156.21950,3.831021056
156.22000,2.915437833
156.22050,0.4738825711
156.22100,-0.7468950597
156.22150,-0.7468950597
156.22200,-1.662478283
156.22250,-4.104033544
156.22300,-6.240394398
156.22350,-5.935199991
156.22400,-5.630005583
156.22450,-6.850783214
156.22500,-8.376755252
156.22550,-7.766366437
156.22600,-5.324811175
156.22650,-3.798839137
156.22700,-3.188450321
156.22750,-2.578061506
156.22800,-1.662478283
156.22850,-0.441700652
156.22900,0.4738825711
156.22950,2.305049017
156.23000,4.136215463
156.23050,4.746604279
156.23100,5.051798687
156.23150,5.662187502
156.23200,5.662187502
156.23250,4.746604279
156.23300,3.831021056
156.23350,4.136215463
156.23400,5.356993094
156.23450,5.662187502
156.23500,4.746604279
156.23550,3.831021056
156.23600,3.22063224
156.23650,2.305049017
156.23700,1.084271386
156.23750,0.4738825711
156.23800,0.7790769788
156.23850,1.084271386
156.23900,0.7790769788
156.23950,1.084271386
156.24000,1.694660202
156.24050,1.389465794
156.24100,-0.1365062443
156.24150,-3.188450321
156.24200,-5.324811175
156.24250,-6.240394398
156.24300,-6.545588806
156.24350,-7.766366437
156.24400,-9.902727291
156.24450,-11.42869933
156.24500,-11.42869933
156.24550,-11.42869933
156.24600,-11.73389374
156.24650,-12.03908814
156.24700,-10.51311611
156.24750,-8.376755252
156.24800,-6.850783214
156.24850,-5.935199991
156.24900,-4.409227952
156.24950,-1.052089467
156.25000,1.389465794
156.25050,2.610243425
156.25100,2.305049017
156.25150,3.22063224
156.25200,5.356993094
156.25250,7.188159541
156.25300,7.188159541
156.25350,6.272576317
156.25400,5.662187502
156.25450,5.96738191
156.25500,5.96738191
156.25550,5.662187502
156.25600,4.441409871
156.25650,3.22063224
156.25700,2.305049017
156.25750,1.99985461
156.25800,1.99985461
156.25850,1.694660202
156.25900,1.084271386
156.25950,0.1686881634
156.26000,-0.441700652
156.26050,-1.052089467
156.26100,-2.578061506
156.26150,-4.104033544
156.26200,-5.324811175
156.26250,-5.630005583
156.26300,-6.545588806
156.26350,-7.766366437
156.26400,-9.292338475
156.26450,-8.68194966
156.26500,-6.850783214
156.26550,-4.71442236
156.26600,-3.493644729
156.26650,-3.493644729
156.26700,-3.493644729
156.26750,-3.493644729
156.26800,-3.493644729
156.26850,-3.188450321
156.26900,-3.188450321
156.26950,-3.188450321
156.27000,-2.883255914
156.27050,-1.662478283
156.27100,-0.1365062443
156.27150,1.084271386
156.27200,2.915437833
156.27250,4.746604279
156.27300,5.356993094
156.27350,4.441409871
156.27400,3.525826648
156.27450,4.136215463
156.27500,5.051798687
156.27550,5.051798687
156.27600,4.441409871
156.27650,4.441409871
156.27700,5.356993094
156.27750,5.051798687
156.27800,3.22063224
156.27850,1.694660202
156.27900,1.389465794
156.27950,1.389465794
156.28000,0.1686881634
156.28050,-0.7468950597
156.28100,-0.7468950597
156.28150,-0.1365062443
156.28200,-0.1365062443
156.28250,-1.357283875
156.28300,-2.578061506
156.28350,-2.883255914
156.28400,-3.493644729
156.28450,-4.104033544
156.28500,-5.324811175
156.28550,-6.545588806
156.28600,-8.071560845
156.28650,-8.987144068
156.28700,-8.376755252
156.28750,-7.155977621
156.28800,-6.850783214
156.28850,-6.545588806
156.28900,-5.324811175
156.28950,-3.188450321
156.29000,-2.272867098
156.29050,-2.272867098
156.29100,-1.052089467
156.29150,1.389465794
156.29200,3.22063224
156.29250,3.525826648
156.29300,4.136215463
156.29350,6.272576317
156.29400,8.714131579
156.29450,9.93490921
156.29500,10.24010362
156.29550,10.54529803
156.29600,9.324520394
156.29650,7.493353948
156.29700,6.272576317
156.29750,6.577770725
156.29800,6.272576317
156.29850,3.525826648
156.29900,0.4738825711
156.29950,-0.1365062443
156.30000,-0.1365062443
156.30050,-1.967672691
156.30100,-4.71442236
156.30150,-5.324811175
156.30200,-2.883255914
156.30250,-1.052089467
156.30300,-1.357283875
156.30350,-2.578061506
156.30400,-3.188450321
156.30450,-4.409227952
156.30500,-6.240394398
156.30550,-7.155977621
156.30600,-6.545588806
156.30650,-6.545588806
156.30700,-7.766366437
156.30750,-8.071560845
156.30800,-6.850783214
156.30850,-5.324811175
156.30900,-5.019616768
156.30950,-3.798839137
156.31000,-1.357283875
156.31050,0.1686881634
156.31100,-0.1365062443
156.31150,-0.441700652
156.31200,1.084271386
156.31250,3.525826648
156.31300,3.525826648
156.31350,2.305049017
156.31400,1.99985461
156.31450,2.915437833
156.31500,3.22063224
156.31550,1.99985461
156.31600,2.305049017
156.31650,3.831021056
156.31700,3.831021056
156.31750,2.305049017
156.31800,0.7790769788
156.31850,1.389465794
156.31900,2.610243425
156.31950,2.915437833
156.32000,2.610243425
156.32050,1.694660202
156.32100,0.4738825711
156.32150,-0.1365062443
156.32200,-0.441700652
156.32250,-0.7468950597
156.32300,-2.578061506
156.32350,-5.019616768
156.32400,-5.935199991
156.32450,-5.324811175
156.32500,-5.324811175
156.32550,-6.545588806
156.32600,-6.850783214
156.32650,-5.324811175
156.32700,-4.104033544
156.32750,-4.104033544
156.32800,-3.798839137
156.32850,-2.578061506
156.32900,-1.967672691
156.32950,-2.272867098
156.33000,-1.967672691
156.33050,0.7790769788
156.33100,4.136215463
156.33150,5.662187502
156.33200,6.577770725
156.33250,9.324520394
156.33300,12.37646447
156.33350,13.90243651
156.33400,13.5972421
156.33450,13.29204769
156.33500,11.76607566
156.33550,8.408937171
156.33600,3.831021056
156.33650,1.694660202
156.33700,1.99985461
156.33750,2.305049017
156.33800,1.084271386
156.33850,0.4738825711
156.33900,1.99985461
156.33950,4.136215463
156.34000,4.746604279
156.34050,3.22063224
156.34100,0.7790769788
156.34150,-0.7468950597
156.34200,-1.662478283
156.34250,-2.272867098
156.34300,-2.883255914
156.34350,-3.493644729
156.34400,-3.798839137
156.34450,-4.409227952
156.34500,-5.324811175
156.34550,-6.240394398
156.34600,-5.019616768
156.34650,-3.188450321
156.34700,-2.578061506
156.34750,-3.798839137
156.34800,-4.104033544
156.34850,-2.578061506
156.34900,-1.357283875
156.34950,-1.357283875
156.35000,-1.662478283
156.35050,-0.441700652
156.35100,1.389465794
156.35150,3.22063224
156.35200,4.746604279
156.35250,5.96738191
156.35300,6.882965133
156.35350,6.882965133
156.35400,6.882965133
156.35450,7.493353948
156.35500,7.798548356
156.35550,7.493353948
156.35600,7.188159541
156.35650,7.188159541
156.35700,6.272576317
156.35750,3.22063224
156.35800,0.4738825711
156.35850,-0.441700652
156.35900,-0.1365062443
156.35950,-0.441700652
156.36000,-2.272867098
156.36050,-4.104033544
156.36100,-5.019616768
156.36150,-5.630005583
156.36200,-5.935199991
156.36250,-7.155977621
156.36300,-8.68194966
156.36350,-10.2079217
156.36400,-10.81831051
156.36450,-10.51311611
156.36500,-10.81831051
156.36550,-11.73389374
156.36600,-12.03908814
156.36650,-11.12350492
156.36700,-10.51311611
156.36750,-9.597532883
156.36800,-7.461172029
156.36850,-4.104033544
156.36900,-1.357283875
156.36950,-1.052089467
156.37000,-1.357283875
156.37050,0.1686881634
156.37100,3.22063224
156.37150,4.136215463
156.37200,3.525826648
156.37250,4.136215463
156.37300,6.577770725
156.37350,7.798548356
156.37400,7.188159541
156.37450,6.272576317
156.37500,7.493353948
156.37550,9.019325987
156.37600,8.103742764
156.37650,5.356993094
156.37700,3.525826648
156.37750,3.525826648
156.37800,2.915437833
156.37850,1.389465794
156.37900,0.4738825711
156.37950,0.4738825711
156.38000,0.7790769788
156.38050,-0.1365062443
156.38100,-1.662478283
156.38150,-3.188450321
156.38200,-3.798839137
156.38250,-4.409227952
156.38300,-5.324811175
156.38350,-6.545588806
156.38400,-8.376755252
156.38450,-9.597532883
156.38500,-9.597532883
156.38550,-8.071560845
156.38600,-6.545588806
156.38650,-6.240394398
156.38700,-5.630005583
156.38750,-4.104033544
156.38800,-2.883255914
156.38850,-2.883255914
156.38900,-2.578061506
156.38950,-0.1365062443
156.39000,2.915437833
156.39050,4.136215463
156.39100,2.915437833
156.39150,2.305049017
156.39200,3.831021056
156.39250,5.051798687
156.39300,5.051798687
156.39350,5.356993094
156.39400,6.882965133
156.39450,8.408937171
156.39500,8.103742764
156.39550,8.103742764
156.39600,9.324520394
156.39650,9.629714802
156.39700,7.188159541
156.39750,4.136215463
156.39800,3.22063224
156.39850,2.610243425
156.39900,0.1686881634
156.39950,-2.272867098
156.40000,-2.883255914
156.40050,-1.662478283
156.40100,-2.578061506
156.40150,-5.324811175
156.40200,-7.155977621
156.40250,-6.545588806
156.40300,-6.545588806
156.40350,-8.987144068
156.40400,-10.81831051
156.40450,-9.597532883
156.40500,-7.461172029
156.40550,-6.850783214
156.40600,-7.766366437
156.40650,-7.461172029
156.40700,-6.545588806
156.40750,-6.240394398
156.40800,-6.545588806
156.40850,-5.324811175
156.40900,-2.578061506
156.40950,0.1686881634
156.41000,1.99985461
156.41050,3.22063224
156.41100,4.746604279
156.41150,5.356993094
156.41200,5.356993094
156.41250,4.746604279
156.41300,4.746604279
156.41350,5.662187502
156.41400,6.882965133
156.41450,9.019325987
156.41500,11.46088125
156.41550,13.29204769
156.41600,13.29204769
156.41650,11.76607566
156.41700,10.24010362
156.41750,8.103742764
156.41800,5.96738191
156.41850,3.831021056
156.41900,2.305049017
156.41950,1.084271386
156.42000,-0.1365062443
156.42050,-2.272867098
156.42100,-4.409227952
156.42150,-5.630005583
156.42200,-6.545588806
156.42250,-8.071560845
156.42300,-9.597532883
156.42350,-9.597532883
156.42400,-8.376755252
156.42450,-7.461172029
156.42500,-7.461172029
156.42550,-6.850783214
156.42600,-4.409227952
156.42650,-1.662478283
156.42700,-1.052089467
156.42750,-1.967672691
156.42800,-2.272867098
156.42850,-1.357283875
156.42900,-1.052089467
156.42950,-1.662478283
156.43000,-1.357283875
156.43050,0.7790769788
156.43100,3.831021056
156.43150,5.96738191
156.43200,6.577770725
156.43250,6.882965133
156.43300,6.882965133
156.43350,6.577770725
156.43400,6.272576317
156.43450,6.882965133
156.43500,7.493353948
156.43550,7.493353948
156.43600,5.96738191
156.43650,4.746604279
156.43700,3.831021056
156.43750,3.831021056
156.43800,2.915437833
156.43850,1.389465794
156.43900,-0.1365062443
156.43950,-1.052089467
156.44000,-1.967672691
156.44050,-3.493644729
156.44100,-5.324811175
156.44150,-6.240394398
156.44200,-5.630005583
156.44250,-4.71442236
156.44300,-5.019616768
156.44350,-6.545588806
156.44400,-7.766366437
156.44450,-8.376755252
156.44500,-8.071560845
156.44550,-8.376755252
156.44600,-9.597532883
156.44650,-10.2079217
156.44700,-8.071560845
156.44750,-4.409227952
156.44800,-1.357283875
156.44850,-0.441700652
156.44900,0.7790769788
156.44950,4.441409871
156.45000,8.103742764
156.45050,9.324520394
156.45100,8.408937171
156.45150,8.103742764
156.45200,9.019325987
156.45250,9.324520394
156.45300,7.493353948
156.45350,6.272576317
156.45400,6.577770725
156.45450,7.493353948
156.45500,6.882965133
156.45550,5.96738191
156.45600,6.272576317
156.45650,6.577770725
156.45700,4.746604279
156.45750,2.610243425
156.45800,0.7790769788
156.45850,-0.441700652
156.45900,-2.272867098
156.45950,-3.798839137
156.46000,-4.104033544
156.46050,-4.104033544
156.46100,-5.324811175
156.46150,-5.630005583
156.46200,-4.104033544
156.46250,-1.967672691
156.46300,-2.883255914
156.46350,-6.240394398
156.46400,-8.68194966
156.46450,-8.987144068
156.46500,-8.987144068
156.46550,-10.51311611
156.46600,-11.12350492
156.46650,-9.597532883
156.46700,-7.155977621
156.46750,-5.630005583
156.46800,-5.019616768
156.46850,-3.798839137
156.46900,-2.578061506
156.46950,-2.272867098
156.47000,-1.357283875
156.47050,0.4738825711
156.47100,3.22063224
156.47150,5.356993094
156.47200,5.96738191
156.47250,5.662187502
156.47300,5.356993094
156.47350,5.96738191
156.47400,6.882965133
156.47450,7.798548356
156.47500,8.103742764
156.47550,8.103742764
156.47600,8.103742764
156.47650,8.714131579
156.47700,8.714131579
156.47750,7.188159541
156.47800,5.662187502
156.47850,4.746604279
156.47900,3.831021056
156.47950,1.694660202
156.48000,-0.7468950597
156.48050,-2.883255914
156.48100,-3.798839137
156.48150,-5.019616768
156.48200,-6.545588806
156.48250,-8.071560845
156.48300,-8.68194966
156.48350,-9.597532883
156.48400,-11.42869933
156.48450,-13.25986578
156.48500,-13.87025459
156.48550,-12.95467137
156.48600,-11.12350492
156.48650,-9.292338475
156.48700,-7.461172029
156.48750,-5.630005583
156.48800,-4.71442236
156.48850,-4.71442236
156.48900,-4.104033544
156.48950,-2.883255914
156.49000,-1.662478283
156.49050,-0.7468950597
156.49100,-0.1365062443
156.49150,1.084271386
156.49200,3.831021056
156.49250,7.493353948
156.49300,10.24010362
156.49350,11.46088125
156.49400,10.85049243
156.49450,9.629714802
156.49500,8.408937171
156.49550,7.493353948
156.49600,6.577770725
156.49650,5.662187502
156.49700,6.272576317
156.49750,8.714131579
156.49800,10.85049243
156.49850,10.24010362
156.49900,7.188159541
156.49950,3.22063224
156.50000,0.7790769788
156.50050,-0.1365062443
156.50100,-0.441700652
156.50150,-0.7468950597
156.50200,-1.052089467
156.50250,-2.272867098
156.50300,-3.188450321
156.50350,-4.104033544
156.50400,-4.71442236
156.50450,-5.935199991
156.50500,-7.155977621
156.50550,-7.461172029
156.50600,-7.461172029
156.50650,-7.155977621
156.50700,-6.545588806
156.50750,-5.324811175
156.50800,-3.493644729
156.50850,-1.662478283
156.50900,-0.441700652
156.50950,-0.1365062443
156.51000,0.7790769788
156.51050,1.99985461
156.51100,3.22063224
156.51150,3.831021056
156.51200,3.22063224
156.51250,2.305049017
156.51300,3.525826648
156.51350,7.188159541
156.51400,10.54529803
156.51450,10.85049243
156.51500,8.408937171
156.51550,5.96738191
156.51600,5.356993094
156.51650,5.356993094
156.51700,5.051798687
156.51750,3.831021056
156.51800,2.610243425
156.51850,0.7790769788
156.51900,-0.7468950597
156.51950,-2.272867098
156.52000,-3.188450321
156.52050,-4.104033544
156.52100,-5.630005583
156.52150,-6.240394398
156.52200,-5.935199991
156.52250,-5.935199991
156.52300,-6.850783214
156.52350,-7.766366437
156.52400,-7.155977621
156.52450,-5.935199991
156.52500,-6.240394398
156.52550,-7.155977621
156.52600,-6.240394398
156.52650,-4.409227952
156.52700,-3.493644729
156.52750,-4.409227952
156.52800,-4.409227952
156.52850,-1.357283875
156.52900,1.694660202
156.52950,2.610243425
156.53000,3.525826648
156.53050,6.272576317
156.53100,9.93490921
156.53150,10.85049243
156.53200,9.324520394
156.53250,9.019325987
156.53300,11.46088125
156.53350,12.68165888
156.53400,11.15568684
156.53450,9.019325987
156.53500,7.798548356
156.53550,7.188159541
156.53600,6.272576317
156.53650,4.746604279
156.53700,3.525826648
156.53750,1.389465794
156.53800,-1.052089467
156.53850,-3.188450321
156.53900,-3.493644729
156.53950,-3.798839137
156.54000,-5.324811175
156.54050,-6.850783214
156.54100,-7.155977621
156.54150,-6.850783214
156.54200,-7.461172029
156.54250,-8.376755252
156.54300,-9.292338475
156.54350,-9.902727291
156.54400,-11.73389374
156.54450,-12.95467137
156.54500,-12.03908814
156.54550,-10.51311611
156.54600,-9.902727291
156.54650,-9.902727291
156.54700,-8.68194966
156.54750,-6.545588806
156.54800,-4.71442236
156.54850,-3.188450321
156.54900,-1.967672691
156.54950,-1.052089467
156.55000,-0.1365062443
156.55050,0.7790769788
156.55100,3.525826648
156.55150,5.96738191
156.55200,5.662187502
156.55250,3.831021056
156.55300,3.22063224
156.55350,4.441409871
156.55400,5.96738191
156.55450,5.96738191
156.55500,5.662187502
156.55550,5.662187502
156.55600,4.746604279
156.55650,2.915437833
156.55700,2.610243425
156.55750,3.22063224
156.55800,2.610243425
156.55850,0.1686881634
156.55900,-1.052089467
156.55950,-0.7468950597
156.56000,-0.441700652
156.56050,-2.272867098
156.56100,-4.104033544
156.56150,-4.104033544
156.56200,-3.493644729
156.56250,-4.71442236
156.56300,-7.155977621
156.56350,-8.071560845
156.56400,-6.850783214
156.56450,-6.545588806
156.56500,-8.071560845
156.56550,-8.68194966
156.56600,-7.155977621
156.56650,-5.324811175
156.56700,-5.019616768
156.56750,-5.019616768
156.56800,-4.409227952
156.56850,-2.883255914
156.56900,-2.272867098
156.56950,-1.662478283
156.57000,-0.441700652
156.57050,1.084271386
156.57100,3.22063224
156.57150,5.356993094
156.57200,7.798548356
156.57250,8.408937171
156.57300,6.882965133
156.57350,4.746604279
156.57400,3.831021056
156.57450,3.831021056
156.57500,4.441409871
156.57550,5.051798687
156.57600,5.662187502
156.57650,5.051798687
156.57700,2.915437833
156.57750,0.7790769788
156.57800,-0.441700652
156.57850,-1.357283875
156.57900,-2.578061506
156.57950,-3.798839137
156.58000,-3.798839137
156.58050,-4.104033544
156.58100,-5.630005583
