"type","name","time_units","begin_time","frequency","count","units"
"signal","Ultium EMG-BRACHIORAD. RT","s",252.96000,2000,22000,"uV"

"time","value"
252.96000,66.81240933
252.96050,38.42932941
252.96100,24.69558107
252.96150,16.15013765
252.96200,10.96183272
252.96250,12.79299917
252.96300,15.84494324
252.96350,11.57222154
252.96400,3.026778121
252.96450,-1.245943586
252.96500,-0.9407491788
252.96550,-2.16152681
252.96600,-7.960220556
252.96650,-14.06410871
252.96700,-15.59008075
252.96750,-14.36930312
252.96800,-13.7589143
252.96850,-14.36930312
252.96900,-14.67449753
252.96950,-13.7589143
252.97000,-12.84333108
252.97050,-12.53813667
252.97100,-11.92774786
252.97150,-10.40177582
252.97200,-8.570609371
252.97250,-7.34983174
252.97300,-6.12905411
252.97350,-4.297887663
252.97400,-2.16152681
252.97450,-1.856332402
252.97500,-3.38230444
252.97550,-5.518665294
252.97600,-6.739442925
252.97650,-6.434248517
252.97700,-4.908276479
252.97750,-2.771915625
252.97800,-0.3303603634
252.97850,2.721583714
252.97900,6.078722198
252.97950,8.215083052
252.98000,7.604694237
252.98050,4.55275016
252.98100,0.8904172674
252.98150,-0.9407491788
252.98200,-0.9407491788
252.98250,0.280028452
252.98300,1.500806083
252.98350,-0.02516595566
252.98400,-5.823859702
252.98450,-12.84333108
252.98500,-16.20046956
252.98550,-13.7589143
252.98600,-10.09658141
252.98650,-9.791387002
252.98700,-13.14852549
252.98750,-15.59008075
252.98800,-15.59008075
252.98850,-13.45371989
252.98900,-11.62255345
252.98950,-9.791387002
252.99000,-7.655026148
252.99050,-5.518665294
252.99100,-2.466721217
252.99150,-0.02516595566
252.99200,-0.02516595566
252.99250,-2.771915625
252.99300,-5.518665294
252.99350,-4.908276479
252.99400,-1.245943586
252.99450,1.806000491
252.99500,3.331972529
252.99550,3.637166937
252.99600,3.331972529
252.99650,1.195611675
252.99700,-1.245943586
252.99750,-3.077110033
252.99800,-1.856332402
252.99850,0.280028452
252.99900,2.416389306
252.99950,3.942361344
253.00000,4.247555752
253.00050,3.637166937
253.00100,4.55275016
253.00150,9.130666275
253.00200,15.23455443
253.00250,17.67610969
253.00300,13.70858239
253.00350,6.994305421
253.00400,0.8904172674
253.00450,-4.603082071
253.00500,-11.01216463
253.00550,-15.28488634
253.00600,-14.67449753
253.00650,-11.01216463
253.00700,-8.265414964
253.00750,-8.875803779
253.00800,-11.01216463
253.00850,-10.70697023
253.00900,-7.655026148
253.00950,-3.687498848
253.01000,-1.551137994
253.01050,-1.551137994
253.01100,-2.466721217
253.01150,-1.856332402
253.01200,-0.3303603634
253.01250,0.5852228597
253.01300,2.721583714
253.01350,7.299499829
253.01400,14.0137768
253.01450,18.28649851
253.01500,17.67610969
253.01550,14.31897121
253.01600,11.87741594
253.01650,11.26702713
253.01700,10.96183272
253.01750,11.57222154
253.01800,12.79299917
253.01850,12.48780476
253.01900,8.825471868
253.01950,4.247555752
253.02000,2.111194898
253.02050,2.721583714
253.02100,2.721583714
253.02150,1.195611675
253.02200,0.280028452
253.02250,0.5852228597
253.02300,-0.02516595566
253.02350,-2.466721217
253.02400,-3.992693256
253.02450,-3.687498848
253.02500,-3.38230444
253.02550,-4.908276479
253.02600,-7.34983174
253.02650,-8.570609371
253.02700,-8.875803779
253.02750,-9.791387002
253.02800,-10.40177582
253.02850,-9.791387002
253.02900,-8.570609371
253.02950,-8.265414964
253.03000,-8.265414964
253.03050,-7.044637333
253.03100,-5.213470887
253.03150,-3.687498848
253.03200,-2.466721217
253.03250,-1.245943586
253.03300,-0.02516595566
253.03350,0.280028452
253.03400,-0.02516595566
253.03450,0.280028452
253.03500,0.5852228597
253.03550,0.280028452
253.03600,-0.6355547711
253.03650,-0.3303603634
253.03700,0.8904172674
253.03750,0.8904172674
253.03800,-1.856332402
253.03850,-5.823859702
253.03900,-6.12905411
253.03950,-1.551137994
253.04000,4.247555752
253.04050,8.215083052
253.04100,10.0462495
253.04150,10.0462495
253.04200,8.52027746
253.04250,5.468333383
253.04300,1.500806083
253.04350,-0.3303603634
253.04400,-0.9407491788
253.04450,-2.466721217
253.04500,-6.12905411
253.04550,-9.791387002
253.04600,-10.70697023
253.04650,-8.570609371
253.04700,-6.434248517
253.04750,-5.823859702
253.04800,-5.518665294
253.04850,-3.992693256
253.04900,-2.16152681
253.04950,-1.245943586
253.05000,-0.02516595566
253.05050,2.416389306
253.05100,3.942361344
253.05150,3.026778121
253.05200,-0.02516595566
253.05250,-2.16152681
253.05300,-3.077110033
253.05350,-3.992693256
253.05400,-3.38230444
253.05450,0.8904172674
253.05500,10.0462495
253.05550,17.67610969
253.05600,19.50727614
253.05650,16.15013765
253.05700,12.79299917
253.05750,11.87741594
253.05800,11.26702713
253.05850,9.741055091
253.05900,8.825471868
253.05950,10.65663831
253.06000,13.70858239
253.06050,13.70858239
253.06100,9.435860683
253.06150,4.247555752
253.06200,2.111194898
253.06250,2.721583714
253.06300,3.331972529
253.06350,1.806000491
253.06400,-0.02516595566
253.06450,-1.551137994
253.06500,-2.466721217
253.06550,-3.38230444
253.06600,-4.297887663
253.06650,-3.992693256
253.06700,-1.551137994
253.06750,1.806000491
253.06800,4.247555752
253.06850,4.247555752
253.06900,2.416389306
253.06950,0.280028452
253.07000,-0.02516595566
253.07050,0.8904172674
253.07100,0.280028452
253.07150,-1.245943586
253.07200,-2.466721217
253.07250,-3.077110033
253.07300,-2.466721217
253.07350,-0.3303603634
253.07400,3.026778121
253.07450,5.773527791
253.07500,3.331972529
253.07550,-2.466721217
253.07600,-4.603082071
253.07650,0.8904172674
253.07700,10.35144391
253.07750,17.37091528
253.07800,20.42285936
253.07850,19.81247054
253.07900,16.15013765
253.07950,9.130666275
253.08000,2.721583714
253.08050,-1.245943586
253.08100,-3.38230444
253.08150,-4.297887663
253.08200,-2.16152681
253.08250,3.637166937
253.08300,11.87741594
253.08350,21.03324818
253.08400,29.883886
253.08450,34.15660771
253.08500,26.83194192
253.08550,8.825471868
253.08600,-7.34983174
253.08650,-14.67449753
253.08700,-16.20046956
253.08750,-18.33683042
253.08800,-18.64202483
253.08850,-15.28488634
253.08900,-14.67449753
253.08950,-22.91474653
253.09000,-34.20693962
253.09050,-37.86927251
253.09100,-34.51213403
253.09150,-32.68096758
253.09200,-33.2913564
253.09250,-30.84980113
253.09300,-25.05110739
253.09350,-18.94721923
253.09400,-7.044637333
253.09450,19.50727614
253.09500,52.77346658
253.09550,70.77993663
253.09600,62.23449322
253.09650,39.65010705
253.09700,22.25402581
253.09750,15.23455443
253.09800,12.18261035
253.09850,7.909888645
253.09900,3.637166937
253.09950,1.195611675
253.10000,-0.02516595566
253.10050,-0.02516595566
253.10100,-0.02516595566
253.10150,-2.771915625
253.10200,-5.518665294
253.10250,-4.297887663
253.10300,-0.02516595566
253.10350,1.806000491
253.10400,-0.9407491788
253.10450,-4.603082071
253.10500,-5.518665294
253.10550,-6.12905411
253.10600,-9.180998187
253.10650,-11.92774786
253.10700,-11.62255345
253.10750,-8.570609371
253.10800,-7.655026148
253.10850,-9.180998187
253.10900,-11.01216463
253.10950,-11.01216463
253.11000,-9.791387002
253.11050,-10.09658141
253.11100,-11.62255345
253.11150,-13.14852549
253.11200,-13.7589143
253.11250,-13.45371989
253.11300,-13.45371989
253.11350,-14.97969193
253.11400,-17.11605279
253.11450,-17.11605279
253.11500,-13.45371989
253.11550,-5.823859702
253.11600,2.111194898
253.11650,8.215083052
253.11700,9.435860683
253.11750,6.689111014
253.11800,3.026778121
253.11850,0.280028452
253.11900,-0.3303603634
253.11950,-1.245943586
253.12000,-1.856332402
253.12050,-1.856332402
253.12100,-0.9407491788
253.12150,0.280028452
253.12200,0.8904172674
253.12250,-0.02516595566
253.12300,-2.16152681
253.12350,-3.992693256
253.12400,-4.603082071
253.12450,-5.213470887
253.12500,-7.960220556
253.12550,-11.92774786
253.12600,-14.97969193
253.12650,-15.59008075
253.12700,-14.67449753
253.12750,-14.36930312
253.12800,-13.45371989
253.12850,-11.31735904
253.12900,-9.486192594
253.12950,-9.486192594
253.13000,-9.486192594
253.13050,-7.044637333
253.13100,-3.38230444
253.13150,-2.466721217
253.13200,-4.297887663
253.13250,-4.297887663
253.13300,-0.02516595566
253.13350,6.994305421
253.13400,13.09819358
253.13450,17.67610969
253.13500,21.64363699
253.13550,23.16960903
253.13600,21.03324818
253.13650,17.67610969
253.13700,15.84494324
253.13750,15.84494324
253.13800,15.53974884
253.13850,13.09819358
253.13900,8.825471868
253.13950,4.247555752
253.14000,1.195611675
253.14050,2.111194898
253.14100,6.994305421
253.14150,13.09819358
253.14200,15.53974884
253.14250,12.48780476
253.14300,5.468333383
253.14350,-3.077110033
253.14400,-11.31735904
253.14450,-15.59008075
253.14500,-15.28488634
253.14550,-12.84333108
253.14600,-11.31735904
253.14650,-11.92774786
253.14700,-14.97969193
253.14750,-18.64202483
253.14800,-19.25241364
253.14850,-14.97969193
253.14900,-7.655026148
253.14950,-1.856332402
253.15000,-1.245943586
253.15050,-2.771915625
253.15100,-2.771915625
253.15150,-0.6355547711
253.15200,1.806000491
253.15250,3.942361344
253.15300,5.468333383
253.15350,6.689111014
253.15400,7.604694237
253.15450,8.825471868
253.15500,10.35144391
253.15550,10.0462495
253.15600,8.825471868
253.15650,7.299499829
253.15700,6.078722198
253.15750,3.637166937
253.15800,2.111194898
253.15850,4.857944568
253.15900,11.87741594
253.15950,17.37091528
253.16000,16.45533206
253.16050,11.57222154
253.16100,8.52027746
253.16150,9.130666275
253.16200,10.96183272
253.16250,10.65663831
253.16300,8.52027746
253.16350,5.163138975
253.16400,1.500806083
253.16450,-0.9407491788
253.16500,-3.38230444
253.16550,-5.518665294
253.16600,-7.655026148
253.16650,-8.875803779
253.16700,-9.486192594
253.16750,-10.70697023
253.16800,-10.70697023
253.16850,-7.655026148
253.16900,-3.077110033
253.16950,-0.3303603634
253.17000,-0.6355547711
253.17050,-3.077110033
253.17100,-5.213470887
253.17150,-7.960220556
253.17200,-9.791387002
253.17250,-9.180998187
253.17300,-6.434248517
253.17350,-5.518665294
253.17400,-7.044637333
253.17450,-8.265414964
253.17500,-7.044637333
253.17550,-6.434248517
253.17600,-8.265414964
253.17650,-10.09658141
253.17700,-6.739442925
253.17750,3.026778121
253.17800,16.76052647
253.17850,28.96830278
253.17900,34.76699652
253.17950,30.79946922
253.18000,21.03324818
253.18050,11.87741594
253.18100,6.689111014
253.18150,3.026778121
253.18200,-1.551137994
253.18250,-6.739442925
253.18300,-9.791387002
253.18350,-10.70697023
253.18400,-11.31735904
253.18450,-12.23294226
253.18500,-11.31735904
253.18550,-7.34983174
253.18600,0.5852228597
253.18650,10.35144391
253.18700,15.53974884
253.18750,13.70858239
253.18800,6.994305421
253.18850,1.500806083
253.18900,-0.9407491788
253.18950,-1.856332402
253.19000,0.280028452
253.19050,8.825471868
253.19100,19.20208173
253.19150,21.9488314
253.19200,13.40338798
253.19250,2.416389306
253.19300,-1.856332402
253.19350,-0.02516595566
253.19400,1.806000491
253.19450,2.111194898
253.19500,2.416389306
253.19550,3.026778121
253.19600,1.806000491
253.19650,0.280028452
253.19700,1.195611675
253.19750,3.637166937
253.19800,4.247555752
253.19850,1.806000491
253.19900,-1.551137994
253.19950,-5.213470887
253.20000,-6.739442925
253.20050,-5.213470887
253.20100,-1.551137994
253.20150,-0.3303603634
253.20200,-3.992693256
253.20250,-8.875803779
253.20300,-11.31735904
253.20350,-11.31735904
253.20400,-11.62255345
253.20450,-10.40177582
253.20500,-10.09658141
253.20550,-17.11605279
253.20600,-33.5965508
253.20650,-49.46666
253.20700,-50.38224323
253.20750,-38.47966133
253.20800,-26.88227383
253.20850,-23.83032976
253.20900,-26.27188502
253.20950,-28.71344028
253.21000,-26.27188502
253.21050,-11.31735904
253.21100,18.89688732
253.21150,54.90982743
253.21200,75.05265834
253.21250,68.33838137
253.21300,46.66957842
253.21350,27.44233074
253.21400,18.59169291
253.21450,15.84494324
253.21500,15.23455443
253.21550,14.92936002
253.21600,13.40338798
253.21650,9.435860683
253.21700,4.857944568
253.21750,1.500806083
253.21800,-1.551137994
253.21850,-6.12905411
253.21900,-11.31735904
253.21950,-13.45371989
253.22000,-13.45371989
253.22050,-13.7589143
253.22100,-16.50566397
253.22150,-19.86280246
253.22200,-20.47319127
253.22250,-16.50566397
253.22300,-9.180998187
253.22350,-3.38230444
253.22400,-2.16152681
253.22450,-4.297887663
253.22500,-7.044637333
253.22550,-8.570609371
253.22600,-10.09658141
253.22650,-11.01216463
253.22700,-10.09658141
253.22750,-8.570609371
253.22800,-7.960220556
253.22850,-8.875803779
253.22900,-8.570609371
253.22950,-6.12905411
253.23000,-3.077110033
253.23050,-1.245943586
253.23100,-0.02516595566
253.23150,0.8904172674
253.23200,1.195611675
253.23250,1.806000491
253.23300,2.111194898
253.23350,1.806000491
253.23400,1.195611675
253.23450,1.806000491
253.23500,2.721583714
253.23550,1.500806083
253.23600,-1.245943586
253.23650,-1.856332402
253.23700,5.163138975
253.23750,17.67610969
253.23800,28.35791396
253.23850,32.63063567
253.23900,31.71505245
253.23950,26.52674751
253.24000,17.9813041
253.24050,7.909888645
253.24100,0.5852228597
253.24150,-0.3303603634
253.24200,2.111194898
253.24250,5.163138975
253.24300,6.383916606
253.24350,5.163138975
253.24400,2.111194898
253.24450,-0.9407491788
253.24500,-3.38230444
253.24550,-4.908276479
253.24600,-6.12905411
253.24650,-7.044637333
253.24700,-7.960220556
253.24750,-10.09658141
253.24800,-12.84333108
253.24850,-13.7589143
253.24900,-11.31735904
253.24950,-8.265414964
253.25000,-7.655026148
253.25050,-8.875803779
253.25100,-9.180998187
253.25150,-7.34983174
253.25200,-6.12905411
253.25250,-5.823859702
253.25300,-4.908276479
253.25350,-2.466721217
253.25400,-0.9407491788
253.25450,-0.3303603634
253.25500,0.5852228597
253.25550,3.026778121
253.25600,4.857944568
253.25650,3.942361344
253.25700,1.500806083
253.25750,2.416389306
253.25800,10.35144391
253.25850,24.08519225
253.25900,36.59816297
253.25950,41.17607908
253.26000,36.90335738
253.26050,27.74752515
253.26100,19.20208173
253.26150,13.09819358
253.26200,9.130666275
253.26250,7.299499829
253.26300,6.994305421
253.26350,6.383916606
253.26400,3.942361344
253.26450,1.195611675
253.26500,-0.3303603634
253.26550,-0.9407491788
253.26600,-1.551137994
253.26650,-4.297887663
253.26700,-8.570609371
253.26750,-11.62255345
253.26800,-13.14852549
253.26850,-14.06410871
253.26900,-15.28488634
253.26950,-16.20046956
253.27000,-14.97969193
253.27050,-12.84333108
253.27100,-11.31735904
253.27150,-11.01216463
253.27200,-9.486192594
253.27250,-5.823859702
253.27300,-1.551137994
253.27350,1.806000491
253.27400,4.857944568
253.27450,7.909888645
253.27500,10.0462495
253.27550,10.0462495
253.27600,7.604694237
253.27650,5.163138975
253.27700,3.331972529
253.27750,1.806000491
253.27800,0.280028452
253.27850,-0.9407491788
253.27900,-2.16152681
253.27950,-2.771915625
253.28000,-3.38230444
253.28050,-4.297887663
253.28100,-5.518665294
253.28150,-6.12905411
253.28200,-5.213470887
253.28250,-2.771915625
253.28300,1.806000491
253.28350,8.215083052
253.28400,13.09819358
253.28450,12.48780476
253.28500,4.857944568
253.28550,-5.213470887
253.28600,-12.84333108
253.28650,-15.28488634
253.28700,-14.36930312
253.28750,-12.53813667
253.28800,-8.875803779
253.28850,-3.687498848
253.28900,1.195611675
253.28950,3.026778121
253.29000,0.8904172674
253.29050,-2.16152681
253.29100,-3.992693256
253.29150,-4.908276479
253.29200,-5.823859702
253.29250,-7.044637333
253.29300,-7.34983174
253.29350,-5.518665294
253.29400,-2.466721217
253.29450,0.8904172674
253.29500,3.331972529
253.29550,3.942361344
253.29600,4.55275016
253.29650,6.689111014
253.29700,9.741055091
253.29750,11.57222154
253.29800,10.0462495
253.29850,6.994305421
253.29900,4.55275016
253.29950,3.637166937
253.30000,3.331972529
253.30050,3.026778121
253.30100,1.806000491
253.30150,-0.6355547711
253.30200,-5.213470887
253.30250,-8.875803779
253.30300,-7.044637333
253.30350,-0.3303603634
253.30400,5.468333383
253.30450,6.383916606
253.30500,2.721583714
253.30550,-1.551137994
253.30600,-4.603082071
253.30650,-7.044637333
253.30700,-9.486192594
253.30750,-11.92774786
253.30800,-14.36930312
253.30850,-15.59008075
253.30900,-15.28488634
253.30950,-14.06410871
253.31000,-13.14852549
253.31050,-12.23294226
253.31100,-8.875803779
253.31150,-3.38230444
253.31200,1.195611675
253.31250,2.111194898
253.31300,1.195611675
253.31350,1.500806083
253.31400,3.026778121
253.31450,2.416389306
253.31500,1.806000491
253.31550,5.773527791
253.31600,15.23455443
253.31650,23.16960903
253.31700,21.9488314
253.31750,12.48780476
253.31800,1.500806083
253.31850,-5.213470887
253.31900,-8.265414964
253.31950,-7.655026148
253.32000,-5.518665294
253.32050,-3.077110033
253.32100,-2.16152681
253.32150,-2.771915625
253.32200,-2.466721217
253.32250,-0.3303603634
253.32300,2.111194898
253.32350,3.637166937
253.32400,2.416389306
253.32450,-2.16152681
253.32500,-7.34983174
253.32550,-7.655026148
253.32600,-1.551137994
253.32650,4.857944568
253.32700,5.468333383
253.32750,0.5852228597
253.32800,-3.077110033
253.32850,-2.466721217
253.32900,-0.02516595566
253.32950,-0.6355547711
253.33000,-4.297887663
253.33050,-5.823859702
253.33100,-2.466721217
253.33150,1.195611675
253.33200,3.331972529
253.33250,6.689111014
253.33300,14.92936002
253.33350,22.25402581
253.33400,17.9813041
253.33450,0.8904172674
253.33500,-15.59008075
253.33550,-22.60955213
253.33600,-24.13552416
253.33650,-28.71344028
253.33700,-34.20693962
253.33750,-33.90174521
253.33800,-30.23941232
253.33850,-26.57707943
253.33900,-16.20046956
253.33950,9.741055091
253.34000,43.61763435
253.34050,62.23449322
253.34100,53.99424421
253.34150,33.8514133
253.34200,20.11766495
253.34250,15.23455443
253.34300,10.65663831
253.34350,3.331972529
253.34400,-1.551137994
253.34450,-3.687498848
253.34500,-5.823859702
253.34550,-8.265414964
253.34600,-9.180998187
253.34650,-9.486192594
253.34700,-10.70697023
253.34750,-11.31735904
253.34800,-9.180998187
253.34850,-6.12905411
253.34900,-7.34983174
253.34950,-12.84333108
253.35000,-19.55760805
253.35050,-24.13552416
253.35100,-25.35630179
253.35150,-22.91474653
253.35200,-17.11605279
253.35250,-10.40177582
253.35300,-4.908276479
253.35350,1.806000491
253.35400,13.09819358
253.35450,26.52674751
253.35500,34.76699652
253.35550,34.46180211
253.35600,28.05271955
253.35650,21.33844258
253.35700,17.9813041
253.35750,16.45533206
253.35800,13.70858239
253.35850,10.0462495
253.35900,7.604694237
253.35950,6.994305421
253.36000,6.078722198
253.36050,2.721583714
253.36100,-0.6355547711
253.36150,-2.16152681
253.36200,-0.3303603634
253.36250,2.721583714
253.36300,5.163138975
253.36350,4.857944568
253.36400,-0.02516595566
253.36450,-7.655026148
253.36500,-13.14852549
253.36550,-14.06410871
253.36600,-12.84333108
253.36650,-12.23294226
253.36700,-11.62255345
253.36750,-10.09658141
253.36800,-9.791387002
253.36850,-12.53813667
253.36900,-15.59008075
253.36950,-14.06410871
253.37000,-8.265414964
253.37050,-0.3303603634
253.37100,7.299499829
253.37150,14.31897121
253.37200,16.76052647
253.37250,13.40338798
253.37300,7.909888645
253.37350,5.773527791
253.37400,5.163138975
253.37450,3.026778121
253.37500,-0.02516595566
253.37550,-0.02516595566
253.37600,2.416389306
253.37650,3.637166937
253.37700,3.331972529
253.37750,4.247555752
253.37800,7.299499829
253.37850,9.130666275
253.37900,8.215083052
253.37950,5.468333383
253.38000,2.721583714
253.38050,-0.02516595566
253.38100,-2.16152681
253.38150,-3.38230444
253.38200,-2.466721217
253.38250,-0.9407491788
253.38300,-0.02516595566
253.38350,1.195611675
253.38400,0.8904172674
253.38450,-1.245943586
253.38500,-3.992693256
253.38550,-3.992693256
253.38600,-1.856332402
253.38650,-1.551137994
253.38700,-3.38230444
253.38750,-4.603082071
253.38800,-3.38230444
253.38850,-1.856332402
253.38900,-0.6355547711
253.38950,0.280028452
253.39000,0.8904172674
253.39050,-0.3303603634
253.39100,-3.38230444
253.39150,-3.992693256
253.39200,-2.16152681
253.39250,-2.466721217
253.39300,-7.044637333
253.39350,-10.40177582
253.39400,-6.434248517
253.39450,2.416389306
253.39500,8.52027746
253.39550,7.604694237
253.39600,3.331972529
253.39650,1.806000491
253.39700,3.942361344
253.39750,5.468333383
253.39800,3.026778121
253.39850,-0.9407491788
253.39900,-1.551137994
253.39950,1.500806083
253.40000,3.637166937
253.40050,0.8904172674
253.40100,-2.16152681
253.40150,-0.3303603634
253.40200,4.55275016
253.40250,6.383916606
253.40300,4.857944568
253.40350,6.383916606
253.40400,12.48780476
253.40450,16.15013765
253.40500,12.18261035
253.40550,5.163138975
253.40600,1.195611675
253.40650,-0.3303603634
253.40700,-3.687498848
253.40750,-7.34983174
253.40800,-7.960220556
253.40850,-6.739442925
253.40900,-5.823859702
253.40950,-4.603082071
253.41000,-2.466721217
253.41050,-1.856332402
253.41100,-2.771915625
253.41150,-0.9407491788
253.41200,1.500806083
253.41250,-1.551137994
253.41300,-13.7589143
253.41350,-24.74591298
253.41400,-27.49266265
253.41450,-25.35630179
253.41500,-24.74591298
253.41550,-23.52513535
253.41600,-18.33683042
253.41650,-13.14852549
253.41700,-9.486192594
253.41750,3.942361344
253.41800,35.07219093
253.41850,68.33838137
253.41900,78.71499123
253.41950,63.15007644
253.42000,42.39685671
253.42050,31.71505245
253.42100,25.61116429
253.42150,15.84494324
253.42200,6.078722198
253.42250,2.111194898
253.42300,2.111194898
253.42350,-0.3303603634
253.42400,-6.434248517
253.42450,-11.01216463
253.42500,-14.06410871
253.42550,-18.33683042
253.42600,-24.44071857
253.42650,-29.3238291
253.42700,-28.10305146
253.42750,-21.08358009
253.42800,-13.14852549
253.42850,-10.40177582
253.42900,-14.36930312
253.42950,-18.33683042
253.43000,-16.20046956
253.43050,-8.875803779
253.43100,-1.551137994
253.43150,2.111194898
253.43200,3.637166937
253.43250,2.416389306
253.43300,-0.02516595566
253.43350,-0.6355547711
253.43400,1.806000491
253.43450,4.857944568
253.43500,6.078722198
253.43550,7.909888645
253.43600,12.79299917
253.43650,17.9813041
253.43700,17.9813041
253.43750,14.92936002
253.43800,15.84494324
253.43850,21.64363699
253.43900,25.9163587
253.43950,22.86441462
253.44000,15.23455443
253.44050,8.825471868
253.44100,3.331972529
253.44150,-4.603082071
253.44200,-15.28488634
253.44250,-22.60955213
253.44300,-22.91474653
253.44350,-18.94721923
253.44400,-15.59008075
253.44450,-14.67449753
253.44500,-14.36930312
253.44550,-14.36930312
253.44600,-14.67449753
253.44650,-14.97969193
253.44700,-14.36930312
253.44750,-15.28488634
253.44800,-18.94721923
253.44850,-24.13552416
253.44900,-26.88227383
253.44950,-26.27188502
253.45000,-24.44071857
253.45050,-22.60955213
253.45100,-18.94721923
253.45150,-14.67449753
253.45200,-12.84333108
253.45250,-11.92774786
253.45300,-4.297887663
253.45350,14.31897121
253.45400,36.29296856
253.45450,47.27996724
253.45500,41.7864679
253.45550,28.05271955
253.45600,17.37091528
253.45650,11.87741594
253.45700,9.741055091
253.45750,7.604694237
253.45800,4.247555752
253.45850,-0.02516595566
253.45900,-5.823859702
253.45950,-10.70697023
253.46000,-12.23294226
253.46050,-9.791387002
253.46100,-3.687498848
253.46150,2.721583714
253.46200,6.689111014
253.46250,5.163138975
253.46300,0.8904172674
253.46350,-2.16152681
253.46400,-3.687498848
253.46450,-5.518665294
253.46500,-9.486192594
253.46550,-12.84333108
253.46600,-12.53813667
253.46650,-10.09658141
253.46700,-9.180998187
253.46750,-10.70697023
253.46800,-12.23294226
253.46850,-11.31735904
253.46900,-8.570609371
253.46950,-6.434248517
253.47000,-6.434248517
253.47050,-7.34983174
253.47100,-6.739442925
253.47150,-5.213470887
253.47200,-4.908276479
253.47250,-5.518665294
253.47300,-4.297887663
253.47350,-0.02516595566
253.47400,4.857944568
253.47450,9.435860683
253.47500,13.70858239
253.47550,17.06572088
253.47600,17.37091528
253.47650,14.62416561
253.47700,12.79299917
253.47750,13.70858239
253.47800,14.0137768
253.47850,12.79299917
253.47900,12.18261035
253.47950,12.79299917
253.48000,8.215083052
253.48050,-3.38230444
253.48100,-15.28488634
253.48150,-19.55760805
253.48200,-18.94721923
253.48250,-20.16799686
253.48300,-21.38877449
253.48350,-18.33683042
253.48400,-14.06410871
253.48450,-12.53813667
253.48500,-5.518665294
253.48550,16.45533206
253.48600,43.00724553
253.48650,50.63710572
253.48700,33.54621889
253.48750,10.35144391
253.48800,-0.6355547711
253.48850,-3.077110033
253.48900,-6.434248517
253.48950,-10.40177582
253.49000,-9.180998187
253.49050,-4.297887663
253.49100,-2.466721217
253.49150,-2.466721217
253.49200,-0.9407491788
253.49250,1.195611675
253.49300,0.8904172674
253.49350,0.280028452
253.49400,3.637166937
253.49450,8.825471868
253.49500,10.0462495
253.49550,6.994305421
253.49600,5.163138975
253.49650,6.383916606
253.49700,8.215083052
253.49750,8.825471868
253.49800,9.435860683
253.49850,10.35144391
253.49900,10.65663831
253.49950,9.741055091
253.50000,9.435860683
253.50050,8.825471868
253.50100,5.773527791
253.50150,0.5852228597
253.50200,-2.466721217
253.50250,-3.992693256
253.50300,-5.518665294
253.50350,-7.655026148
253.50400,-7.044637333
253.50450,-2.771915625
253.50500,0.280028452
253.50550,-1.551137994
253.50600,-7.655026148
253.50650,-11.62255345
253.50700,-11.62255345
253.50750,-11.62255345
253.50800,-13.14852549
253.50850,-14.06410871
253.50900,-11.62255345
253.50950,-7.960220556
253.51000,-6.12905411
253.51050,-6.12905411
253.51100,-5.213470887
253.51150,-2.16152681
253.51200,0.5852228597
253.51250,1.500806083
253.51300,0.5852228597
253.51350,-0.02516595566
253.51400,0.8904172674
253.51450,2.111194898
253.51500,2.111194898
253.51550,-0.02516595566
253.51600,-3.077110033
253.51650,-4.908276479
253.51700,-5.518665294
253.51750,-5.213470887
253.51800,-4.908276479
253.51850,-3.077110033
253.51900,2.111194898
253.51950,12.18261035
253.52000,25.30596988
253.52050,36.29296856
253.52100,39.65010705
253.52150,33.54621889
253.52200,22.25402581
253.52250,11.26702713
253.52300,2.721583714
253.52350,-5.823859702
253.52400,-14.97969193
253.52450,-19.86280246
253.52500,-16.50566397
253.52550,-8.570609371
253.52600,-3.687498848
253.52650,-3.992693256
253.52700,-4.297887663
253.52750,-0.3303603634
253.52800,5.163138975
253.52850,7.299499829
253.52900,4.55275016
253.52950,-0.9407491788
253.53000,-5.823859702
253.53050,-8.265414964
253.53100,-7.960220556
253.53150,-6.434248517
253.53200,-4.297887663
253.53250,-2.771915625
253.53300,-1.856332402
253.53350,-2.466721217
253.53400,-4.603082071
253.53450,-5.213470887
253.53500,-3.38230444
253.53550,-0.02516595566
253.53600,2.111194898
253.53650,3.026778121
253.53700,4.247555752
253.53750,6.383916606
253.53800,7.909888645
253.53850,8.825471868
253.53900,9.130666275
253.53950,8.52027746
253.54000,5.163138975
253.54050,0.280028452
253.54100,-2.16152681
253.54150,-2.16152681
253.54200,-1.856332402
253.54250,-2.771915625
253.54300,-3.687498848
253.54350,-3.077110033
253.54400,-2.771915625
253.54450,-3.077110033
253.54500,-3.077110033
253.54550,-2.16152681
253.54600,-1.856332402
253.54650,-4.297887663
253.54700,-8.570609371
253.54750,-11.31735904
253.54800,-11.92774786
253.54850,-11.62255345
253.54900,-10.40177582
253.54950,-7.34983174
253.55000,-2.16152681
253.55050,3.331972529
253.55100,6.994305421
253.55150,6.689111014
253.55200,3.026778121
253.55250,-0.9407491788
253.55300,-3.077110033
253.55350,-1.856332402
253.55400,0.5852228597
253.55450,3.331972529
253.55500,4.857944568
253.55550,4.857944568
253.55600,3.637166937
253.55650,2.721583714
253.55700,2.721583714
253.55750,3.026778121
253.55800,1.500806083
253.55850,-1.551137994
253.55900,-4.603082071
253.55950,-5.213470887
253.56000,-2.466721217
253.56050,1.500806083
253.56100,5.163138975
253.56150,5.163138975
253.56200,4.55275016
253.56250,8.215083052
253.56300,17.06572088
253.56350,23.16960903
253.56400,18.89688732
253.56450,6.689111014
253.56500,-3.38230444
253.56550,-6.739442925
253.56600,-6.12905411
253.56650,-7.044637333
253.56700,-8.265414964
253.56750,-8.265414964
253.56800,-7.34983174
253.56850,-7.960220556
253.56900,-8.875803779
253.56950,-8.570609371
253.57000,-7.960220556
253.57050,-6.739442925
253.57100,-4.908276479
253.57150,-2.16152681
253.57200,-1.245943586
253.57250,-2.16152681
253.57300,-2.16152681
253.57350,1.195611675
253.57400,6.078722198
253.57450,7.909888645
253.57500,6.689111014
253.57550,3.942361344
253.57600,1.195611675
253.57650,-0.9407491788
253.57700,-1.856332402
253.57750,-0.6355547711
253.57800,1.806000491
253.57850,3.331972529
253.57900,3.026778121
253.57950,-0.02516595566
253.58000,-4.297887663
253.58050,-6.434248517
253.58100,-3.077110033
253.58150,1.500806083
253.58200,1.195611675
253.58250,-3.077110033
253.58300,-2.466721217
253.58350,6.078722198
253.58400,15.23455443
253.58450,16.76052647
253.58500,13.40338798
253.58550,10.65663831
253.58600,6.383916606
253.58650,-1.551137994
253.58700,-9.180998187
253.58750,-11.31735904
253.58800,-14.36930312
253.58850,-25.05110739
253.58900,-38.78485573
253.58950,-43.97316066
253.59000,-39.39524455
253.59050,-32.37577317
253.59100,-27.79785706
253.59150,-25.6614962
253.59200,-26.88227383
253.59250,-28.40824587
253.59300,-18.03163601
253.59350,12.18261035
253.59400,49.11113368
253.59450,66.50721492
253.59500,58.87735473
253.59550,45.7539952
253.59600,43.61763435
253.59650,45.7539952
253.59700,40.56569027
253.59750,29.27349718
253.59800,21.64363699
253.59850,18.28649851
253.59900,14.0137768
253.59950,8.52027746
253.60000,6.078722198
253.60050,7.299499829
253.60100,8.52027746
253.60150,6.994305421
253.60200,4.247555752
253.60250,2.416389306
253.60300,-0.02516595566
253.60350,-2.771915625
253.60400,-5.823859702
253.60450,-8.875803779
253.60500,-11.92774786
253.60550,-14.97969193
253.60600,-16.81085838
253.60650,-18.03163601
253.60700,-19.25241364
253.60750,-20.47319127
253.60800,-21.99916331
253.60850,-24.74591298
253.60900,-28.71344028
253.60950,-31.46018995
253.61000,-30.23941232
253.61050,-25.05110739
253.61100,-18.03163601
253.61150,-12.53813667
253.61200,-10.70697023
253.61250,-11.01216463
253.61300,-11.62255345
253.61350,-9.791387002
253.61400,-6.434248517
253.61450,-2.771915625
253.61500,-0.02516595566
253.61550,3.331972529
253.61600,6.383916606
253.61650,7.909888645
253.61700,7.604694237
253.61750,5.773527791
253.61800,3.637166937
253.61850,3.331972529
253.61900,4.857944568
253.61950,6.994305421
253.62000,7.299499829
253.62050,5.773527791
253.62100,5.163138975
253.62150,6.383916606
253.62200,7.909888645
253.62250,7.299499829
253.62300,4.857944568
253.62350,2.721583714
253.62400,1.500806083
253.62450,1.195611675
253.62500,1.806000491
253.62550,3.026778121
253.62600,2.721583714
253.62650,-0.9407491788
253.62700,-5.518665294
253.62750,-7.044637333
253.62800,-4.908276479
253.62850,-2.466721217
253.62900,-3.077110033
253.62950,-4.603082071
253.63000,-4.908276479
253.63050,-4.297887663
253.63100,-3.992693256
253.63150,-3.992693256
253.63200,-2.16152681
253.63250,2.111194898
253.63300,7.299499829
253.63350,11.57222154
253.63400,13.70858239
253.63450,14.31897121
253.63500,12.79299917
253.63550,9.741055091
253.63600,6.994305421
253.63650,6.689111014
253.63700,9.435860683
253.63750,13.09819358
253.63800,15.23455443
253.63850,14.0137768
253.63900,10.35144391
253.63950,6.383916606
253.64000,3.942361344
253.64050,3.331972529
253.64100,2.721583714
253.64150,1.195611675
253.64200,-1.245943586
253.64250,-3.077110033
253.64300,-3.38230444
253.64350,-1.856332402
253.64400,-0.02516595566
253.64450,0.5852228597
253.64500,-0.3303603634
253.64550,-3.687498848
253.64600,-7.960220556
253.64650,-11.01216463
253.64700,-11.31735904
253.64750,-11.01216463
253.64800,-12.84333108
253.64850,-17.11605279
253.64900,-20.47319127
253.64950,-20.47319127
253.65000,-18.33683042
253.65050,-15.89527516
253.65100,-14.06410871
253.65150,-11.31735904
253.65200,-7.960220556
253.65250,-4.297887663
253.65300,1.195611675
253.65350,12.79299917
253.65400,28.66310837
253.65450,39.95530145
253.65500,39.34491264
253.65550,31.10466363
253.65600,24.39038666
253.65650,21.9488314
253.65700,19.50727614
253.65750,14.31897121
253.65800,9.741055091
253.65850,9.130666275
253.65900,11.87741594
253.65950,15.53974884
253.66000,16.45533206
253.66050,13.70858239
253.66100,6.994305421
253.66150,0.5852228597
253.66200,-0.9407491788
253.66250,1.195611675
253.66300,1.806000491
253.66350,-1.245943586
253.66400,-5.518665294
253.66450,-7.044637333
253.66500,-5.823859702
253.66550,-4.908276479
253.66600,-4.908276479
253.66650,-6.739442925
253.66700,-11.01216463
253.66750,-14.67449753
253.66800,-14.97969193
253.66850,-11.92774786
253.66900,-10.70697023
253.66950,-12.84333108
253.67000,-13.7589143
253.67050,-9.486192594
253.67100,-3.077110033
253.67150,-0.02516595566
253.67200,-1.245943586
253.67250,-3.687498848
253.67300,-4.908276479
253.67350,-4.603082071
253.67400,-3.687498848
253.67450,-2.16152681
253.67500,-0.9407491788
253.67550,0.280028452
253.67600,1.806000491
253.67650,3.026778121
253.67700,2.416389306
253.67750,0.8904172674
253.67800,1.500806083
253.67850,3.942361344
253.67900,4.857944568
253.67950,2.721583714
253.68000,1.195611675
253.68050,2.416389306
253.68100,3.942361344
253.68150,1.806000491
253.68200,-2.16152681
253.68250,-5.213470887
253.68300,-6.434248517
253.68350,-7.34983174
253.68400,-7.655026148
253.68450,-7.34983174
253.68500,-6.739442925
253.68550,-7.044637333
253.68600,-8.265414964
253.68650,-10.40177582
253.68700,-11.31735904
253.68750,-10.40177582
253.68800,-7.655026148
253.68850,-5.823859702
253.68900,-6.12905411
253.68950,-5.518665294
253.69000,-2.16152681
253.69050,-0.3303603634
253.69100,-7.34983174
253.69150,-21.6939689
253.69200,-32.98616199
253.69250,-36.03810606
253.69300,-35.12252284
253.69350,-33.5965508
253.69400,-30.23941232
253.69450,-24.74591298
253.69500,-19.86280246
253.69550,-9.180998187
253.69600,17.67610969
253.69650,57.6565771
253.69700,86.34485142
253.69750,83.59810175
253.69800,57.35138269
253.69850,32.32544126
253.69900,20.72805377
253.69950,17.06572088
253.70000,14.0137768
253.70050,12.18261035
253.70100,11.87741594
253.70150,9.435860683
253.70200,3.942361344
253.70250,-0.3303603634
253.70300,-1.551137994
253.70350,-3.077110033
253.70400,-5.823859702
253.70450,-7.960220556
253.70500,-7.34983174
253.70550,-7.655026148
253.70600,-9.791387002
253.70650,-12.23294226
253.70700,-12.53813667
253.70750,-12.53813667
253.70800,-14.06410871
253.70850,-15.28488634
253.70900,-14.67449753
253.70950,-13.7589143
253.71000,-14.97969193
253.71050,-15.89527516
253.71100,-14.06410871
253.71150,-10.09658141
253.71200,-7.655026148
253.71250,-7.34983174
253.71300,-7.655026148
253.71350,-7.34983174
253.71400,-7.960220556
253.71450,-8.265414964
253.71500,-5.823859702
253.71550,-0.6355547711
253.71600,2.416389306
253.71650,0.5852228597
253.71700,-4.908276479
253.71750,-11.01216463
253.71800,-13.45371989
253.71850,-11.62255345
253.71900,-5.518665294
253.71950,2.416389306
253.72000,10.35144391
253.72050,15.23455443
253.72100,17.67610969
253.72150,18.59169291
253.72200,17.06572088
253.72250,12.79299917
253.72300,8.215083052
253.72350,6.689111014
253.72400,7.604694237
253.72450,7.604694237
253.72500,3.331972529
253.72550,-1.856332402
253.72600,-3.38230444
253.72650,-0.6355547711
253.72700,1.806000491
253.72750,2.111194898
253.72800,0.280028452
253.72850,-0.3303603634
253.72900,-0.9407491788
253.72950,-2.16152681
253.73000,-3.38230444
253.73050,-1.245943586
253.73100,3.637166937
253.73150,7.909888645
253.73200,7.909888645
253.73250,4.857944568
253.73300,2.111194898
253.73350,1.195611675
253.73400,1.195611675
253.73450,1.806000491
253.73500,2.721583714
253.73550,3.942361344
253.73600,2.721583714
253.73650,-0.6355547711
253.73700,-4.908276479
253.73750,-6.434248517
253.73800,-3.992693256
253.73850,-0.02516595566
253.73900,3.942361344
253.73950,6.383916606
253.74000,7.299499829
253.74050,6.383916606
253.74100,3.942361344
253.74150,2.416389306
253.74200,3.026778121
253.74250,4.857944568
253.74300,5.468333383
253.74350,3.637166937
253.74400,1.500806083
253.74450,1.195611675
253.74500,2.111194898
253.74550,3.026778121
253.74600,1.806000491
253.74650,-0.9407491788
253.74700,-5.518665294
253.74750,-9.486192594
253.74800,-11.01216463
253.74850,-11.31735904
253.74900,-10.70697023
253.74950,-9.791387002
253.75000,-8.265414964
253.75050,-7.960220556
253.75100,-9.791387002
253.75150,-10.09658141
253.75200,-4.603082071
253.75250,5.468333383
253.75300,13.09819358
253.75350,14.31897121
253.75400,11.26702713
253.75450,9.130666275
253.75500,9.130666275
253.75550,10.35144391
253.75600,11.57222154
253.75650,11.57222154
253.75700,9.741055091
253.75750,6.078722198
253.75800,1.500806083
253.75850,-1.551137994
253.75900,-3.077110033
253.75950,-2.466721217
253.76000,-0.3303603634
253.76050,1.806000491
253.76100,2.416389306
253.76150,2.111194898
253.76200,2.111194898
253.76250,2.721583714
253.76300,2.721583714
253.76350,3.026778121
253.76400,6.383916606
253.76450,11.87741594
253.76500,13.09819358
253.76550,6.994305421
253.76600,-0.6355547711
253.76650,-2.771915625
253.76700,-1.245943586
253.76750,-2.771915625
253.76800,-10.70697023
253.76850,-18.64202483
253.76900,-19.25241364
253.76950,-13.7589143
253.77000,-8.265414964
253.77050,-4.908276479
253.77100,-1.551137994
253.77150,2.416389306
253.77200,4.247555752
253.77250,2.721583714
253.77300,0.5852228597
253.77350,2.416389306
253.77400,6.689111014
253.77450,9.741055091
253.77500,9.741055091
253.77550,9.130666275
253.77600,9.741055091
253.77650,10.65663831
253.77700,10.0462495
253.77750,8.215083052
253.77800,6.689111014
253.77850,5.163138975
253.77900,3.331972529
253.77950,0.8904172674
253.78000,-0.02516595566
253.78050,-0.02516595566
253.78100,-0.3303603634
253.78150,-2.771915625
253.78200,-5.518665294
253.78250,-6.739442925
253.78300,-7.34983174
253.78350,-8.875803779
253.78400,-10.70697023
253.78450,-10.70697023
253.78500,-9.180998187
253.78550,-9.180998187
253.78600,-10.09658141
253.78650,-7.34983174
253.78700,-2.466721217
253.78750,-3.992693256
253.78800,-17.11605279
253.78850,-34.51213403
253.78900,-43.66796626
253.78950,-44.27835507
253.79000,-43.36277185
253.79050,-44.58354948
253.79100,-44.88874389
253.79150,-42.44718863
253.79200,-34.81732843
253.79250,-12.53813667
253.79300,31.10466363
253.79350,81.76693531
253.79400,108.9292376
253.79450,98.55262773
253.79500,67.72799255
253.79550,42.70205112
253.79600,30.79946922
253.79650,23.47480344
253.79700,15.84494324
253.79750,11.87741594
253.79800,12.79299917
253.79850,12.79299917
253.79900,9.435860683
253.79950,6.383916606
253.80000,5.468333383
253.80050,4.55275016
253.80100,2.111194898
253.80150,-0.02516595566
253.80200,-0.9407491788
253.80250,-2.466721217
253.80300,-6.12905411
253.80350,-10.09658141
253.80400,-11.31735904
253.80450,-11.31735904
253.80500,-12.53813667
253.80550,-15.28488634
253.80600,-17.11605279
253.80650,-18.03163601
253.80700,-19.55760805
253.80750,-23.52513535
253.80800,-27.18746824
253.80850,-27.18746824
253.80900,-23.52513535
253.80950,-18.94721923
253.81000,-15.89527516
253.81050,-14.36930312
253.81100,-13.14852549
253.81150,-11.31735904
253.81200,-8.570609371
253.81250,-5.213470887
253.81300,-2.466721217
253.81350,-0.9407491788
253.81400,-0.02516595566
253.81450,1.500806083
253.81500,3.026778121
253.81550,1.806000491
253.81600,-0.3303603634
253.81650,-0.6355547711
253.81700,1.806000491
253.81750,4.857944568
253.81800,4.55275016
253.81850,1.500806083
253.81900,-1.856332402
253.81950,-3.687498848
253.82000,-3.992693256
253.82050,-3.077110033
253.82100,-3.077110033
253.82150,-5.213470887
253.82200,-7.655026148
253.82250,-5.213470887
253.82300,3.942361344
253.82350,15.84494324
253.82400,23.47480344
253.82450,23.16960903
253.82500,15.84494324
253.82550,6.689111014
253.82600,-0.3303603634
253.82650,-3.077110033
253.82700,-2.771915625
253.82750,-1.856332402
253.82800,-1.856332402
253.82850,-1.856332402
253.82900,-0.9407491788
253.82950,-0.02516595566
253.83000,0.280028452
253.83050,0.280028452
253.83100,0.8904172674
253.83150,2.111194898
253.83200,3.637166937
253.83250,5.468333383
253.83300,6.383916606
253.83350,6.078722198
253.83400,4.857944568
253.83450,4.247555752
253.83500,4.857944568
253.83550,6.383916606
253.83600,7.909888645
253.83650,9.130666275
253.83700,9.741055091
253.83750,10.35144391
253.83800,10.0462495
253.83850,7.909888645
253.83900,4.55275016
253.83950,1.806000491
253.84000,0.8904172674
253.84050,1.195611675
253.84100,0.5852228597
253.84150,-0.3303603634
253.84200,-1.856332402
253.84250,-3.687498848
253.84300,-6.434248517
253.84350,-9.791387002
253.84400,-12.23294226
253.84450,-12.23294226
253.84500,-10.40177582
253.84550,-8.875803779
253.84600,-9.486192594
253.84650,-11.31735904
253.84700,-12.53813667
253.84750,-11.31735904
253.84800,-7.960220556
253.84850,-4.297887663
253.84900,-3.687498848
253.84950,-6.434248517
253.85000,-11.01216463
253.85050,-14.36930312
253.85100,-15.28488634
253.85150,-15.59008075
253.85200,-14.97969193
253.85250,-11.31735904
253.85300,-3.992693256
253.85350,3.026778121
253.85400,5.773527791
253.85450,4.857944568
253.85500,7.299499829
253.85550,15.84494324
253.85600,24.69558107
253.85650,26.22155311
253.85700,21.64363699
253.85750,15.84494324
253.85800,11.57222154
253.85850,8.215083052
253.85900,7.299499829
253.85950,11.26702713
253.86000,17.06572088
253.86050,17.67610969
253.86100,11.57222154
253.86150,3.026778121
253.86200,-2.771915625
253.86250,-5.518665294
253.86300,-5.518665294
253.86350,-3.38230444
253.86400,-2.16152681
253.86450,-2.466721217
253.86500,-2.466721217
253.86550,0.5852228597
253.86600,4.55275016
253.86650,4.857944568
253.86700,0.280028452
253.86750,-5.213470887
253.86800,-10.09658141
253.86850,-16.20046956
253.86900,-20.77838568
253.86950,-20.16799686
253.87000,-15.59008075
253.87050,-13.7589143
253.87100,-17.42124719
253.87150,-21.6939689
253.87200,-20.77838568
253.87250,-15.89527516
253.87300,-9.791387002
253.87350,-1.245943586
253.87400,11.87741594
253.87450,28.05271955
253.87500,39.95530145
253.87550,43.00724553
253.87600,39.03971823
253.87650,32.02024685
253.87700,25.00077548
253.87750,19.20208173
253.87800,15.53974884
253.87850,13.70858239
253.87900,12.18261035
253.87950,9.741055091
253.88000,7.299499829
253.88050,6.078722198
253.88100,6.078722198
253.88150,5.773527791
253.88200,3.942361344
253.88250,0.8904172674
253.88300,-3.38230444
253.88350,-7.960220556
253.88400,-11.31735904
253.88450,-13.14852549
253.88500,-14.67449753
253.88550,-16.50566397
253.88600,-18.33683042
253.88650,-18.33683042
253.88700,-16.81085838
253.88750,-16.20046956
253.88800,-17.11605279
253.88850,-18.03163601
253.88900,-18.03163601
253.88950,-17.42124719
253.89000,-17.42124719
253.89050,-16.50566397
253.89100,-13.14852549
253.89150,-8.570609371
253.89200,-5.518665294
253.89250,-4.908276479
253.89300,-5.518665294
253.89350,-6.12905411
253.89400,-5.823859702
253.89450,-4.908276479
253.89500,-3.687498848
253.89550,-2.466721217
253.89600,-0.6355547711
253.89650,1.500806083
253.89700,3.637166937
253.89750,4.247555752
253.89800,4.55275016
253.89850,5.468333383
253.89900,7.299499829
253.89950,8.825471868
253.90000,9.435860683
253.90050,8.52027746
253.90100,6.994305421
253.90150,5.163138975
253.90200,3.637166937
253.90250,1.500806083
253.90300,-0.9407491788
253.90350,-3.38230444
253.90400,-3.38230444
253.90450,-2.16152681
253.90500,-2.771915625
253.90550,-5.823859702
253.90600,-7.044637333
253.90650,-3.077110033
253.90700,3.637166937
253.90750,8.52027746
253.90800,8.825471868
253.90850,6.383916606
253.90900,2.721583714
253.90950,-0.02516595566
253.91000,-1.856332402
253.91050,-2.771915625
253.91100,-3.077110033
253.91150,-1.551137994
253.91200,1.500806083
253.91250,4.857944568
253.91300,5.163138975
253.91350,4.55275016
253.91400,5.163138975
253.91450,7.604694237
253.91500,8.52027746
253.91550,8.215083052
253.91600,8.215083052
253.91650,7.909888645
253.91700,6.689111014
253.91750,7.299499829
253.91800,11.26702713
253.91850,10.65663831
253.91900,-1.551137994
253.91950,-19.55760805
253.92000,-29.6290235
253.92050,-29.3238291
253.92100,-28.71344028
253.92150,-32.07057876
253.92200,-33.5965508
253.92250,-29.6290235
253.92300,-23.83032976
253.92350,-12.84333108
253.92400,14.31897121
253.92450,53.99424421
253.92500,80.85135209
253.92550,74.44226952
253.92600,45.14360638
253.92650,19.50727614
253.92700,8.52027746
253.92750,3.637166937
253.92800,-2.16152681
253.92850,-7.960220556
253.92900,-9.486192594
253.92950,-7.960220556
253.93000,-5.518665294
253.93050,-2.771915625
253.93100,-1.245943586
253.93150,-1.245943586
253.93200,-1.856332402
253.93250,-1.551137994
253.93300,-0.6355547711
253.93350,0.280028452
253.93400,2.721583714
253.93450,5.773527791
253.93500,6.994305421
253.93550,4.857944568
253.93600,3.637166937
253.93650,5.468333383
253.93700,9.741055091
253.93750,13.70858239
253.93800,17.67610969
253.93850,21.33844258
253.93900,21.33844258
253.93950,16.76052647
253.94000,10.65663831
253.94050,5.773527791
253.94100,1.195611675
253.94150,-5.518665294
253.94200,-12.84333108
253.94250,-17.7264416
253.94300,-18.64202483
253.94350,-17.11605279
253.94400,-12.23294226
253.94450,-7.044637333
253.94500,-5.518665294
253.94550,-10.40177582
253.94600,-17.7264416
253.94650,-21.08358009
253.94700,-19.55760805
253.94750,-17.42124719
253.94800,-17.42124719
253.94850,-18.03163601
253.94900,-15.89527516
253.94950,-11.31735904
253.95000,-7.044637333
253.95050,-5.518665294
253.95100,-6.12905411
253.95150,-6.739442925
253.95200,-5.823859702
253.95250,-4.603082071
253.95300,-2.771915625
253.95350,-1.551137994
253.95400,-0.9407491788
253.95450,-3.38230444
253.95500,-7.34983174
253.95550,-8.875803779
253.95600,-3.992693256
253.95650,5.468333383
253.95700,17.37091528
253.95750,28.05271955
253.95800,33.8514133
253.95850,32.02024685
253.95900,23.16960903
253.95950,13.40338798
253.96000,7.604694237
253.96050,4.247555752
253.96100,-0.02516595566
253.96150,-4.603082071
253.96200,-6.12905411
253.96250,-5.213470887
253.96300,-6.12905411
253.96350,-10.40177582
253.96400,-14.67449753
253.96450,-15.59008075
253.96500,-14.67449753
253.96550,-15.28488634
253.96600,-17.11605279
253.96650,-18.33683042
253.96700,-18.03163601
253.96750,-15.59008075
253.96800,-10.09658141
253.96850,-3.38230444
253.96900,1.195611675
253.96950,1.806000491
253.97000,0.280028452
253.97050,0.280028452
253.97100,2.721583714
253.97150,4.55275016
253.97200,4.247555752
253.97250,3.331972529
253.97300,3.026778121
253.97350,4.857944568
253.97400,7.909888645
253.97450,9.741055091
253.97500,9.130666275
253.97550,7.604694237
253.97600,7.604694237
253.97650,8.52027746
253.97700,8.825471868
253.97750,8.215083052
253.97800,9.435860683
253.97850,11.87741594
253.97900,10.96183272
253.97950,5.468333383
253.98000,0.8904172674
253.98050,3.026778121
253.98100,8.52027746
253.98150,8.825471868
253.98200,1.806000491
253.98250,-7.34983174
253.98300,-14.06410871
253.98350,-16.50566397
253.98400,-16.20046956
253.98450,-14.06410871
253.98500,-11.62255345
253.98550,-11.31735904
253.98600,-12.84333108
253.98650,-13.7589143
253.98700,-14.06410871
253.98750,-12.53813667
253.98800,-7.960220556
253.98850,1.195611675
253.98900,11.26702713
253.98950,14.62416561
253.99000,10.65663831
253.99050,3.331972529
253.99100,-1.551137994
253.99150,-3.687498848
253.99200,-3.077110033
253.99250,-0.6355547711
253.99300,2.416389306
253.99350,5.163138975
253.99400,6.994305421
253.99450,9.130666275
253.99500,11.87741594
253.99550,14.0137768
253.99600,14.62416561
253.99650,14.31897121
253.99700,14.62416561
253.99750,14.62416561
253.99800,13.70858239
253.99850,10.65663831
253.99900,6.689111014
253.99950,4.55275016
254.00000,6.383916606
254.00050,10.0462495
254.00100,10.35144391
254.00150,5.773527791
254.00200,0.280028452
254.00250,-2.16152681
254.00300,-3.38230444
254.00350,-5.518665294
254.00400,-7.960220556
254.00450,-8.265414964
254.00500,-7.655026148
254.00550,-7.960220556
254.00600,-8.570609371
254.00650,-8.265414964
254.00700,-7.34983174
254.00750,-7.34983174
254.00800,-8.570609371
254.00850,-9.180998187
254.00900,-9.791387002
254.00950,-10.70697023
254.01000,-11.01216463
254.01050,-8.570609371
254.01100,-3.687498848
254.01150,-0.02516595566
254.01200,0.8904172674
254.01250,-0.02516595566
254.01300,0.280028452
254.01350,2.416389306
254.01400,5.163138975
254.01450,7.299499829
254.01500,8.825471868
254.01550,10.0462495
254.01600,9.130666275
254.01650,5.773527791
254.01700,1.195611675
254.01750,-0.02516595566
254.01800,3.026778121
254.01850,6.383916606
254.01900,6.078722198
254.01950,2.416389306
254.02000,-0.9407491788
254.02050,-1.856332402
254.02100,-1.551137994
254.02150,-2.16152681
254.02200,-3.38230444
254.02250,-4.297887663
254.02300,-3.687498848
254.02350,-2.16152681
254.02400,-1.245943586
254.02450,-3.38230444
254.02500,-7.655026148
254.02550,-11.31735904
254.02600,-12.53813667
254.02650,-12.23294226
254.02700,-12.23294226
254.02750,-13.14852549
254.02800,-14.06410871
254.02850,-15.28488634
254.02900,-15.28488634
254.02950,-12.23294226
254.03000,-5.823859702
254.03050,2.111194898
254.03100,8.52027746
254.03150,10.65663831
254.03200,8.215083052
254.03250,3.331972529
254.03300,0.280028452
254.03350,1.500806083
254.03400,6.689111014
254.03450,11.26702713
254.03500,11.26702713
254.03550,8.52027746
254.03600,6.383916606
254.03650,5.773527791
254.03700,5.163138975
254.03750,3.331972529
254.03800,1.195611675
254.03850,1.195611675
254.03900,3.637166937
254.03950,6.383916606
254.04000,7.604694237
254.04050,6.383916606
254.04100,3.942361344
254.04150,-0.02516595566
254.04200,-3.687498848
254.04250,-5.213470887
254.04300,-3.077110033
254.04350,-0.02516595566
254.04400,0.8904172674
254.04450,-0.02516595566
254.04500,0.8904172674
254.04550,3.942361344
254.04600,4.247555752
254.04650,-0.02516595566
254.04700,-4.297887663
254.04750,-5.213470887
254.04800,-4.297887663
254.04850,-3.687498848
254.04900,-3.077110033
254.04950,-0.02516595566
254.05000,3.637166937
254.05050,6.383916606
254.05100,8.52027746
254.05150,10.96183272
254.05200,10.65663831
254.05250,6.383916606
254.05300,3.942361344
254.05350,7.909888645
254.05400,13.09819358
254.05450,10.96183272
254.05500,3.637166937
254.05550,-1.856332402
254.05600,-6.739442925
254.05650,-18.33683042
254.05700,-34.81732843
254.05750,-45.1939383
254.05800,-46.10952152
254.05850,-45.1939383
254.05900,-44.88874389
254.05950,-37.86927251
254.06000,-21.08358009
254.06050,-3.687498848
254.06100,10.96183272
254.06150,32.32544126
254.06200,63.45527085
254.06250,85.4292682
254.06300,78.40979682
254.06350,47.58516165
254.06400,18.59169291
254.06450,5.773527791
254.06500,3.331972529
254.06550,1.806000491
254.06600,0.5852228597
254.06650,0.5852228597
254.06700,-0.6355547711
254.06750,-4.908276479
254.06800,-8.265414964
254.06850,-7.655026148
254.06900,-5.518665294
254.06950,-4.603082071
254.07000,-3.992693256
254.07050,-2.16152681
254.07100,-0.9407491788
254.07150,-0.9407491788
254.07200,-1.551137994
254.07250,-0.6355547711
254.07300,0.8904172674
254.07350,2.721583714
254.07400,3.026778121
254.07450,2.721583714
254.07500,3.026778121
254.07550,5.468333383
254.07600,8.52027746
254.07650,7.909888645
254.07700,2.721583714
254.07750,-1.856332402
254.07800,-0.6355547711
254.07850,3.331972529
254.07900,3.942361344
254.07950,-0.6355547711
254.08000,-4.908276479
254.08050,-4.297887663
254.08100,-3.077110033
254.08150,-5.213470887
254.08200,-9.791387002
254.08250,-12.23294226
254.08300,-11.92774786
254.08350,-10.40177582
254.08400,-7.34983174
254.08450,-3.687498848
254.08500,-2.466721217
254.08550,-6.12905411
254.08600,-11.62255345
254.08650,-14.36930312
254.08700,-14.97969193
254.08750,-16.20046956
254.08800,-17.7264416
254.08850,-16.50566397
254.08900,-12.53813667
254.08950,-10.09658141
254.09000,-10.09658141
254.09050,-8.570609371
254.09100,-4.908276479
254.09150,-2.16152681
254.09200,-1.551137994
254.09250,-1.245943586
254.09300,0.8904172674
254.09350,4.247555752
254.09400,6.078722198
254.09450,7.909888645
254.09500,9.130666275
254.09550,9.435860683
254.09600,7.909888645
254.09650,6.383916606
254.09700,4.55275016
254.09750,1.500806083
254.09800,-1.856332402
254.09850,-3.687498848
254.09900,-3.38230444
254.09950,-2.771915625
254.10000,-2.16152681
254.10050,-1.245943586
254.10100,-0.02516595566
254.10150,3.637166937
254.10200,13.40338798
254.10250,28.05271955
254.10300,38.12413501
254.10350,35.07219093
254.10400,21.9488314
254.10450,10.96183272
254.10500,6.689111014
254.10550,3.637166937
254.10600,-1.245943586
254.10650,-3.992693256
254.10700,-3.077110033
254.10750,-3.38230444
254.10800,-8.265414964
254.10850,-13.14852549
254.10900,-12.84333108
254.10950,-8.875803779
254.11000,-6.739442925
254.11050,-7.044637333
254.11100,-7.34983174
254.11150,-7.044637333
254.11200,-5.823859702
254.11250,-3.38230444
254.11300,0.280028452
254.11350,3.637166937
254.11400,4.247555752
254.11450,3.942361344
254.11500,4.55275016
254.11550,5.773527791
254.11600,6.383916606
254.11650,5.163138975
254.11700,4.857944568
254.11750,4.857944568
254.11800,5.163138975
254.11850,4.857944568
254.11900,4.247555752
254.11950,3.637166937
254.12000,3.026778121
254.12050,3.026778121
254.12100,4.55275016
254.12150,4.857944568
254.12200,1.195611675
254.12250,-4.603082071
254.12300,-8.265414964
254.12350,-7.044637333
254.12400,-5.213470887
254.12450,-6.739442925
254.12500,-10.09658141
254.12550,-11.31735904
254.12600,-10.09658141
254.12650,-10.40177582
254.12700,-12.53813667
254.12750,-13.7589143
254.12800,-12.53813667
254.12850,-11.31735904
254.12900,-10.09658141
254.12950,-7.34983174
254.13000,-3.077110033
254.13050,-0.6355547711
254.13100,-0.6355547711
254.13150,-0.9407491788
254.13200,-0.02516595566
254.13250,0.5852228597
254.13300,0.8904172674
254.13350,3.637166937
254.13400,9.130666275
254.13450,13.09819358
254.13500,12.18261035
254.13550,8.825471868
254.13600,7.604694237
254.13650,7.604694237
254.13700,6.689111014
254.13750,4.857944568
254.13800,3.942361344
254.13850,2.721583714
254.13900,0.280028452
254.13950,-1.551137994
254.14000,-0.6355547711
254.14050,4.247555752
254.14100,10.0462495
254.14150,13.09819358
254.14200,12.18261035
254.14250,7.299499829
254.14300,0.280028452
254.14350,-4.908276479
254.14400,-6.434248517
254.14450,-3.687498848
254.14500,0.280028452
254.14550,2.721583714
254.14600,1.195611675
254.14650,-4.297887663
254.14700,-11.01216463
254.14750,-14.36930312
254.14800,-13.7589143
254.14850,-11.62255345
254.14900,-10.40177582
254.14950,-10.40177582
254.15000,-8.875803779
254.15050,-6.434248517
254.15100,-3.38230444
254.15150,-1.856332402
254.15200,-2.466721217
254.15250,-4.603082071
254.15300,-6.12905411
254.15350,-4.603082071
254.15400,-0.6355547711
254.15450,2.721583714
254.15500,4.857944568
254.15550,6.383916606
254.15600,6.994305421
254.15650,5.773527791
254.15700,3.331972529
254.15750,1.806000491
254.15800,1.500806083
254.15850,1.195611675
254.15900,-0.9407491788
254.15950,-3.38230444
254.16000,-3.38230444
254.16050,-1.551137994
254.16100,-0.6355547711
254.16150,-1.551137994
254.16200,-3.077110033
254.16250,-5.213470887
254.16300,-8.265414964
254.16350,-11.01216463
254.16400,-12.23294226
254.16450,-12.84333108
254.16500,-14.06410871
254.16550,-15.89527516
254.16600,-15.89527516
254.16650,-12.53813667
254.16700,-6.434248517
254.16750,-0.6355547711
254.16800,1.806000491
254.16850,0.5852228597
254.16900,-1.856332402
254.16950,-4.297887663
254.17000,-5.518665294
254.17050,-4.297887663
254.17100,0.280028452
254.17150,9.435860683
254.17200,17.06572088
254.17250,16.76052647
254.17300,11.57222154
254.17350,11.26702713
254.17400,20.42285936
254.17450,32.32544126
254.17500,35.68257975
254.17550,29.27349718
254.17600,19.50727614
254.17650,11.26702713
254.17700,5.163138975
254.17750,1.500806083
254.17800,2.416389306
254.17850,6.689111014
254.17900,10.96183272
254.17950,11.57222154
254.18000,8.52027746
254.18050,3.942361344
254.18100,-0.02516595566
254.18150,-0.6355547711
254.18200,0.280028452
254.18250,-0.6355547711
254.18300,-7.044637333
254.18350,-15.59008075
254.18400,-21.38877449
254.18450,-25.35630179
254.18500,-29.6290235
254.18550,-33.5965508
254.18600,-33.5965508
254.18650,-30.54460673
254.18700,-28.40824587
254.18750,-21.6939689
254.18800,-1.551137994
254.18850,28.66310837
254.18900,50.94230013
254.18950,49.11113368
254.19000,28.96830278
254.19050,10.0462495
254.19100,2.416389306
254.19150,2.111194898
254.19200,2.416389306
254.19250,2.111194898
254.19300,3.942361344
254.19350,7.604694237
254.19400,11.26702713
254.19450,12.79299917
254.19500,11.57222154
254.19550,7.909888645
254.19600,4.247555752
254.19650,3.026778121
254.19700,3.026778121
254.19750,2.111194898
254.19800,-0.9407491788
254.19850,-4.603082071
254.19900,-5.823859702
254.19950,-2.466721217
254.20000,4.55275016
254.20050,11.87741594
254.20100,14.31897121
254.20150,9.741055091
254.20200,2.721583714
254.20250,-0.9407491788
254.20300,-1.551137994
254.20350,-2.466721217
254.20400,-4.297887663
254.20450,-5.518665294
254.20500,-5.213470887
254.20550,-5.213470887
254.20600,-6.434248517
254.20650,-7.34983174
254.20700,-5.823859702
254.20750,-3.38230444
254.20800,-1.551137994
254.20850,-1.856332402
254.20900,-3.992693256
254.20950,-6.739442925
254.21000,-8.570609371
254.21050,-8.265414964
254.21100,-5.823859702
254.21150,-3.38230444
254.21200,-1.856332402
254.21250,-3.38230444
254.21300,-6.739442925
254.21350,-9.791387002
254.21400,-10.70697023
254.21450,-8.875803779
254.21500,-6.739442925
254.21550,-5.823859702
254.21600,-4.297887663
254.21650,-0.6355547711
254.21700,2.111194898
254.21750,2.111194898
254.21800,1.806000491
254.21850,6.994305421
254.21900,17.06572088
254.21950,24.69558107
254.22000,22.86441462
254.22050,14.31897121
254.22100,5.773527791
254.22150,1.195611675
254.22200,-1.551137994
254.22250,-4.908276479
254.22300,-7.655026148
254.22350,-8.265414964
254.22400,-8.570609371
254.22450,-9.486192594
254.22500,-8.570609371
254.22550,-1.856332402
254.22600,7.604694237
254.22650,12.79299917
254.22700,9.435860683
254.22750,2.416389306
254.22800,-3.077110033
254.22850,-7.044637333
254.22900,-10.70697023
254.22950,-12.84333108
254.23000,-11.31735904
254.23050,-7.960220556
254.23100,-6.12905411
254.23150,-8.265414964
254.23200,-12.53813667
254.23250,-15.89527516
254.23300,-16.50566397
254.23350,-11.92774786
254.23400,-3.687498848
254.23450,3.026778121
254.23500,5.468333383
254.23550,5.468333383
254.23600,6.994305421
254.23650,10.96183272
254.23700,12.79299917
254.23750,10.65663831
254.23800,6.078722198
254.23850,3.026778121
254.23900,2.721583714
254.23950,5.468333383
254.24000,11.26702713
254.24050,17.06572088
254.24100,18.28649851
254.24150,14.62416561
254.24200,9.130666275
254.24250,3.637166937
254.24300,-0.3303603634
254.24350,-3.077110033
254.24400,-3.077110033
254.24450,-2.771915625
254.24500,-4.603082071
254.24550,-8.265414964
254.24600,-9.791387002
254.24650,-8.265414964
254.24700,-8.570609371
254.24750,-11.92774786
254.24800,-14.97969193
254.24850,-14.67449753
254.24900,-13.45371989
254.24950,-13.45371989
254.25000,-13.14852549
254.25050,-10.40177582
254.25100,-6.739442925
254.25150,-4.908276479
254.25200,-4.297887663
254.25250,-1.856332402
254.25300,0.8904172674
254.25350,1.806000491
254.25400,1.806000491
254.25450,4.247555752
254.25500,8.52027746
254.25550,10.65663831
254.25600,8.215083052
254.25650,3.942361344
254.25700,1.806000491
254.25750,2.721583714
254.25800,5.163138975
254.25850,9.741055091
254.25900,16.15013765
254.25950,21.64363699
254.26000,22.55922021
254.26050,18.59169291
254.26100,12.18261035
254.26150,6.689111014
254.26200,3.637166937
254.26250,2.721583714
254.26300,2.111194898
254.26350,0.280028452
254.26400,-1.856332402
254.26450,-3.687498848
254.26500,-3.687498848
254.26550,-3.38230444
254.26600,-4.603082071
254.26650,-7.655026148
254.26700,-12.84333108
254.26750,-18.03163601
254.26800,-20.47319127
254.26850,-18.64202483
254.26900,-14.36930312
254.26950,-12.23294226
254.27000,-13.14852549
254.27050,-13.45371989
254.27100,-10.09658141
254.27150,-4.297887663
254.27200,-0.02516595566
254.27250,1.806000491
254.27300,3.637166937
254.27350,6.383916606
254.27400,8.215083052
254.27450,7.909888645
254.27500,6.994305421
254.27550,7.909888645
254.27600,9.435860683
254.27650,8.825471868
254.27700,6.994305421
254.27750,5.773527791
254.27800,4.857944568
254.27850,2.111194898
254.27900,-0.6355547711
254.27950,-0.6355547711
254.28000,1.500806083
254.28050,1.500806083
254.28100,-1.856332402
254.28150,-3.077110033
254.28200,1.195611675
254.28250,6.383916606
254.28300,6.383916606
254.28350,3.942361344
254.28400,2.416389306
254.28450,-0.9407491788
254.28500,-11.62255345
254.28550,-24.44071857
254.28600,-30.23941232
254.28650,-28.71344028
254.28700,-27.79785706
254.28750,-29.3238291
254.28800,-29.6290235
254.28850,-28.40824587
254.28900,-27.79785706
254.28950,-20.77838568
254.29000,2.721583714
254.29050,38.12413501
254.29100,62.23449322
254.29150,59.48774355
254.29200,38.73452382
254.29250,20.11766495
254.29300,12.48780476
254.29350,10.35144391
254.29400,9.130666275
254.29450,9.130666275
254.29500,9.435860683
254.29550,7.909888645
254.29600,5.773527791
254.29650,6.994305421
254.29700,10.0462495
254.29750,10.96183272
254.29800,8.52027746
254.29850,5.468333383
254.29900,4.55275016
254.29950,4.247555752
254.30000,3.637166937
254.30050,3.026778121
254.30100,2.111194898
254.30150,-0.3303603634
254.30200,-4.603082071
254.30250,-8.570609371
254.30300,-11.31735904
254.30350,-14.06410871
254.30400,-16.81085838
254.30450,-17.11605279
254.30500,-12.53813667
254.30550,-4.908276479
254.30600,1.806000491
254.30650,6.078722198
254.30700,7.299499829
254.30750,5.773527791
254.30800,2.416389306
254.30850,-2.771915625
254.30900,-7.655026148
254.30950,-9.791387002
254.31000,-8.875803779
254.31050,-7.044637333
254.31100,-6.739442925
254.31150,-7.960220556
254.31200,-9.180998187
254.31250,-10.09658141
254.31300,-10.09658141
254.31350,-9.486192594
254.31400,-7.655026148
254.31450,-5.518665294
254.31500,-3.687498848
254.31550,-2.466721217
254.31600,-1.856332402
254.31650,0.5852228597
254.31700,7.909888645
254.31750,19.20208173
254.31800,27.74752515
254.31850,27.44233074
254.31900,19.50727614
254.31950,13.09819358
254.32000,12.48780476
254.32050,12.79299917
254.32100,6.994305421
254.32150,-3.077110033
254.32200,-11.01216463
254.32250,-12.53813667
254.32300,-10.70697023
254.32350,-9.486192594
254.32400,-9.180998187
254.32450,-6.739442925
254.32500,-3.077110033
254.32550,-0.02516595566
254.32600,0.8904172674
254.32650,-1.245943586
254.32700,-6.12905411
254.32750,-11.31735904
254.32800,-14.97969193
254.32850,-16.20046956
254.32900,-15.28488634
254.32950,-12.53813667
254.33000,-9.791387002
254.33050,-7.34983174
254.33100,-5.823859702
254.33150,-3.992693256
254.33200,-1.551137994
254.33250,0.280028452
254.33300,1.500806083
254.33350,2.721583714
254.33400,4.55275016
254.33450,6.383916606
254.33500,7.299499829
254.33550,8.825471868
254.33600,10.96183272
254.33650,11.87741594
254.33700,9.435860683
254.33750,5.163138975
254.33800,1.500806083
254.33850,-0.9407491788
254.33900,-3.992693256
254.33950,-7.655026148
254.34000,-10.09658141
254.34050,-10.70697023
254.34100,-9.486192594
254.34150,-5.823859702
254.34200,0.280028452
254.34250,7.604694237
254.34300,13.40338798
254.34350,17.06572088
254.34400,17.9813041
254.34450,15.23455443
254.34500,8.825471868
254.34550,3.026778121
254.34600,1.195611675
254.34650,0.8904172674
254.34700,-0.02516595566
254.34750,-2.771915625
254.34800,-5.213470887
254.34850,-9.180998187
254.34900,-14.67449753
254.34950,-18.03163601
254.35000,-16.20046956
254.35050,-12.84333108
254.35100,-12.84333108
254.35150,-14.06410871
254.35200,-8.570609371
254.35250,3.942361344
254.35300,14.0137768
254.35350,14.92936002
254.35400,10.65663831
254.35450,7.604694237
254.35500,7.299499829
254.35550,7.604694237
254.35600,8.215083052
254.35650,8.825471868
254.35700,7.604694237
254.35750,4.247555752
254.35800,3.026778121
254.35850,5.163138975
254.35900,8.52027746
254.35950,8.825471868
254.36000,7.299499829
254.36050,6.383916606
254.36100,5.468333383
254.36150,3.026778121
254.36200,0.5852228597
254.36250,-0.02516595566
254.36300,-0.6355547711
254.36350,-3.687498848
254.36400,-7.655026148
254.36450,-9.180998187
254.36500,-8.875803779
254.36550,-9.791387002
254.36600,-12.53813667
254.36650,-13.45371989
254.36700,-11.01216463
254.36750,-8.265414964
254.36800,-7.655026148
254.36850,-8.265414964
254.36900,-7.044637333
254.36950,-5.518665294
254.37000,-6.12905411
254.37050,-7.655026148
254.37100,-7.655026148
254.37150,-7.044637333
254.37200,-8.265414964
254.37250,-10.70697023
254.37300,-11.92774786
254.37350,-10.40177582
254.37400,-7.34983174
254.37450,-3.992693256
254.37500,0.280028452
254.37550,5.163138975
254.37600,7.909888645
254.37650,10.0462495
254.37700,17.06572088
254.37750,29.883886
254.37800,41.48127349
254.37850,42.70205112
254.37900,34.76699652
254.37950,25.00077548
254.38000,18.89688732
254.38050,16.45533206
254.38100,14.62416561
254.38150,11.87741594
254.38200,8.825471868
254.38250,5.163138975
254.38300,2.111194898
254.38350,1.195611675
254.38400,0.8904172674
254.38450,-0.02516595566
254.38500,-2.771915625
254.38550,-5.518665294
254.38600,-6.434248517
254.38650,-7.044637333
254.38700,-7.960220556
254.38750,-7.960220556
254.38800,-7.044637333
254.38850,-6.12905411
254.38900,-7.34983174
254.38950,-8.570609371
254.39000,-7.34983174
254.39050,-5.213470887
254.39100,-4.908276479
254.39150,-5.823859702
254.39200,-5.823859702
254.39250,-3.992693256
254.39300,-2.16152681
254.39350,-1.856332402
254.39400,-1.551137994
254.39450,-0.3303603634
254.39500,1.806000491
254.39550,5.468333383
254.39600,10.65663831
254.39650,15.23455443
254.39700,15.23455443
254.39750,11.26702713
254.39800,8.215083052
254.39850,8.52027746
254.39900,9.435860683
254.39950,6.994305421
254.40000,2.721583714
254.40050,-1.245943586
254.40100,-3.38230444
254.40150,-2.16152681
254.40200,2.111194898
254.40250,5.468333383
254.40300,3.331972529
254.40350,-0.6355547711
254.40400,-1.245943586
254.40450,-0.02516595566
254.40500,-4.908276479
254.40550,-18.94721923
254.40600,-32.68096758
254.40650,-39.09005014
254.40700,-42.14199422
254.40750,-46.71991033
254.40800,-48.55107678
254.40850,-44.88874389
254.40900,-40.00563336
254.40950,-32.98616199
254.41000,-11.92774786
254.41050,28.05271955
254.41100,67.72799255
254.41150,79.93576886
254.41200,62.84488203
254.41250,39.03971823
254.41300,25.30596988
254.41350,19.20208173
254.41400,12.79299917
254.41450,7.604694237
254.41500,6.689111014
254.41550,6.689111014
254.41600,4.857944568
254.41650,4.247555752
254.41700,6.689111014
254.41750,7.909888645
254.41800,5.773527791
254.41850,4.247555752
254.41900,6.383916606
254.41950,8.825471868
254.42000,8.215083052
254.42050,5.163138975
254.42100,1.500806083
254.42150,-3.38230444
254.42200,-11.01216463
254.42250,-17.11605279
254.42300,-18.64202483
254.42350,-17.11605279
254.42400,-16.50566397
254.42450,-17.42124719
254.42500,-18.03163601
254.42550,-18.03163601
254.42600,-18.03163601
254.42650,-16.50566397
254.42700,-11.92774786
254.42750,-4.908276479
254.42800,0.8904172674
254.42850,2.721583714
254.42900,0.8904172674
254.42950,-2.466721217
254.43000,-5.213470887
254.43050,-5.518665294
254.43100,-4.297887663
254.43150,-2.771915625
254.43200,-0.9407491788
254.43250,1.195611675
254.43300,3.026778121
254.43350,3.026778121
254.43400,1.806000491
254.43450,2.416389306
254.43500,6.078722198
254.43550,10.96183272
254.43600,14.31897121
254.43650,15.23455443
254.43700,14.31897121
254.43750,11.26702713
254.43800,7.909888645
254.43850,5.163138975
254.43900,4.247555752
254.43950,3.331972529
254.44000,0.8904172674
254.44050,-1.551137994
254.44100,-2.466721217
254.44150,-2.16152681
254.44200,-3.077110033
254.44250,-5.213470887
254.44300,-6.739442925
254.44350,-6.12905411
254.44400,-4.603082071
254.44450,-4.297887663
254.44500,-5.518665294
254.44550,-7.34983174
254.44600,-8.875803779
254.44650,-10.09658141
254.44700,-11.31735904
254.44750,-13.14852549
254.44800,-14.97969193
254.44850,-14.97969193
254.44900,-11.92774786
254.44950,-7.655026148
254.45000,-5.823859702
254.45050,-7.044637333
254.45100,-7.34983174
254.45150,-4.603082071
254.45200,-0.3303603634
254.45250,1.500806083
254.45300,1.500806083
254.45350,0.8904172674
254.45400,1.195611675
254.45450,2.111194898
254.45500,2.721583714
254.45550,2.721583714
254.45600,0.8904172674
254.45650,-1.856332402
254.45700,-2.771915625
254.45750,-0.02516595566
254.45800,4.247555752
254.45850,5.163138975
254.45900,3.331972529
254.45950,3.331972529
254.46000,6.994305421
254.46050,10.35144391
254.46100,8.52027746
254.46150,2.416389306
254.46200,-4.297887663
254.46250,-8.875803779
254.46300,-10.09658141
254.46350,-8.570609371
254.46400,-7.34983174
254.46450,-7.655026148
254.46500,-8.875803779
254.46550,-9.486192594
254.46600,-8.570609371
254.46650,-8.265414964
254.46700,-9.180998187
254.46750,-9.791387002
254.46800,-9.180998187
254.46850,-7.960220556
254.46900,-7.655026148
254.46950,-8.570609371
254.47000,-9.180998187
254.47050,-7.960220556
254.47100,-5.213470887
254.47150,-2.771915625
254.47200,-1.245943586
254.47250,-0.3303603634
254.47300,0.8904172674
254.47350,3.942361344
254.47400,5.773527791
254.47450,5.773527791
254.47500,5.468333383
254.47550,6.689111014
254.47600,8.825471868
254.47650,9.741055091
254.47700,8.52027746
254.47750,7.299499829
254.47800,7.299499829
254.47850,7.299499829
254.47900,6.689111014
254.47950,6.383916606
254.48000,6.994305421
254.48050,7.299499829
254.48100,6.383916606
254.48150,5.163138975
254.48200,5.468333383
254.48250,6.689111014
254.48300,6.383916606
254.48350,3.637166937
254.48400,-0.02516595566
254.48450,-3.38230444
254.48500,-5.518665294
254.48550,-6.434248517
254.48600,-5.823859702
254.48650,-3.992693256
254.48700,-3.077110033
254.48750,-3.992693256
254.48800,-6.12905411
254.48850,-7.044637333
254.48900,-6.12905411
254.48950,-4.297887663
254.49000,-2.771915625
254.49050,-1.551137994
254.49100,-0.6355547711
254.49150,-0.02516595566
254.49200,-0.02516595566
254.49250,-0.02516595566
254.49300,0.8904172674
254.49350,2.721583714
254.49400,4.55275016
254.49450,6.383916606
254.49500,7.909888645
254.49550,8.52027746
254.49600,8.215083052
254.49650,8.215083052
254.49700,9.130666275
254.49750,10.35144391
254.49800,10.65663831
254.49850,9.435860683
254.49900,7.909888645
254.49950,6.078722198
254.50000,4.55275016
254.50050,3.942361344
254.50100,4.247555752
254.50150,4.55275016
254.50200,3.331972529
254.50250,1.500806083
254.50300,0.280028452
254.50350,-0.02516595566
254.50400,-1.856332402
254.50450,-5.213470887
254.50500,-7.655026148
254.50550,-6.739442925
254.50600,-4.297887663
254.50650,-3.687498848
254.50700,-4.603082071
254.50750,-5.823859702
254.50800,-6.12905411
254.50850,-5.823859702
254.50900,-5.518665294
254.50950,-5.213470887
254.51000,-4.908276479
254.51050,-4.908276479
254.51100,-4.603082071
254.51150,-2.771915625
254.51200,-0.6355547711
254.51250,0.8904172674
254.51300,2.111194898
254.51350,3.331972529
254.51400,5.468333383
254.51450,7.299499829
254.51500,9.435860683
254.51550,11.57222154
254.51600,12.79299917
254.51650,12.18261035
254.51700,10.65663831
254.51750,9.741055091
254.51800,8.215083052
254.51850,5.773527791
254.51900,3.331972529
254.51950,3.331972529
254.52000,5.468333383
254.52050,6.994305421
254.52100,5.773527791
254.52150,3.026778121
254.52200,0.8904172674
254.52250,-0.6355547711
254.52300,-2.16152681
254.52350,-2.771915625
254.52400,-2.771915625
254.52450,-3.077110033
254.52500,-4.297887663
254.52550,-4.603082071
254.52600,-3.687498848
254.52650,-2.771915625
254.52700,-3.38230444
254.52750,-4.603082071
254.52800,-5.518665294
254.52850,-5.518665294
254.52900,-4.908276479
254.52950,-3.992693256
254.53000,-2.16152681
254.53050,-0.9407491788
254.53100,-0.3303603634
254.53150,-0.3303603634
254.53200,-0.3303603634
254.53250,-1.245943586
254.53300,-1.551137994
254.53350,-0.3303603634
254.53400,2.416389306
254.53450,4.247555752
254.53500,3.331972529
254.53550,2.721583714
254.53600,3.942361344
254.53650,5.163138975
254.53700,3.026778121
254.53750,-0.02516595566
254.53800,0.280028452
254.53850,4.247555752
254.53900,7.604694237
254.53950,6.689111014
254.54000,4.247555752
254.54050,3.026778121
254.54100,3.637166937
254.54150,3.637166937
254.54200,3.026778121
254.54250,2.416389306
254.54300,2.416389306
254.54350,3.026778121
254.54400,3.637166937
254.54450,2.721583714
254.54500,-0.3303603634
254.54550,-3.687498848
254.54600,-5.213470887
254.54650,-5.823859702
254.54700,-7.655026148
254.54750,-11.31735904
254.54800,-13.7589143
254.54850,-12.84333108
254.54900,-10.70697023
254.54950,-9.486192594
254.55000,-9.486192594
254.55050,-9.180998187
254.55100,-8.570609371
254.55150,-8.265414964
254.55200,-7.34983174
254.55250,-4.603082071
254.55300,-1.245943586
254.55350,0.5852228597
254.55400,3.026778121
254.55450,7.299499829
254.55500,11.26702713
254.55550,12.79299917
254.55600,11.57222154
254.55650,11.87741594
254.55700,14.31897121
254.55750,16.45533206
254.55800,16.15013765
254.55850,14.0137768
254.55900,12.18261035
254.55950,10.65663831
254.56000,8.215083052
254.56050,5.773527791
254.56100,4.247555752
254.56150,3.331972529
254.56200,1.806000491
254.56250,-0.3303603634
254.56300,-3.38230444
254.56350,-5.518665294
254.56400,-6.434248517
254.56450,-5.518665294
254.56500,-4.297887663
254.56550,-5.213470887
254.56600,-7.34983174
254.56650,-8.570609371
254.56700,-8.265414964
254.56750,-8.875803779
254.56800,-10.70697023
254.56850,-11.01216463
254.56900,-8.875803779
254.56950,-5.823859702
254.57000,-4.908276479
254.57050,-4.908276479
254.57100,-4.297887663
254.57150,-3.077110033
254.57200,-2.16152681
254.57250,-2.16152681
254.57300,-1.856332402
254.57350,-1.245943586
254.57400,-0.02516595566
254.57450,1.806000491
254.57500,5.163138975
254.57550,7.604694237
254.57600,7.604694237
254.57650,5.468333383
254.57700,3.942361344
254.57750,3.942361344
254.57800,5.468333383
254.57850,7.299499829
254.57900,8.215083052
254.57950,6.689111014
254.58000,5.163138975
254.58050,5.163138975
254.58100,5.773527791
254.58150,5.163138975
254.58200,2.721583714
254.58250,-0.02516595566
254.58300,-1.856332402
254.58350,-3.687498848
254.58400,-5.823859702
254.58450,-7.044637333
254.58500,-7.655026148
254.58550,-8.570609371
254.58600,-9.486192594
254.58650,-9.180998187
254.58700,-7.960220556
254.58750,-7.960220556
254.58800,-9.791387002
254.58850,-11.31735904
254.58900,-10.40177582
254.58950,-7.655026148
254.59000,-4.297887663
254.59050,-2.466721217
254.59100,-2.771915625
254.59150,-4.908276479
254.59200,-6.12905411
254.59250,-4.908276479
254.59300,-2.466721217
254.59350,-1.551137994
254.59400,-1.245943586
254.59450,0.280028452
254.59500,3.331972529
254.59550,6.078722198
254.59600,7.604694237
254.59650,9.741055091
254.59700,11.87741594
254.59750,12.18261035
254.59800,10.0462495
254.59850,7.299499829
254.59900,6.383916606
254.59950,6.994305421
254.60000,7.909888645
254.60050,7.909888645
254.60100,6.078722198
254.60150,2.416389306
254.60200,-0.6355547711
254.60250,-2.466721217
254.60300,-2.771915625
254.60350,-3.687498848
254.60400,-4.908276479
254.60450,-4.603082071
254.60500,-3.992693256
254.60550,-6.12905411
254.60600,-9.486192594
254.60650,-11.01216463
254.60700,-10.40177582
254.60750,-10.40177582
254.60800,-12.23294226
254.60850,-13.45371989
254.60900,-11.92774786
254.60950,-9.791387002
254.61000,-9.180998187
254.61050,-9.180998187
254.61100,-7.34983174
254.61150,-4.603082071
254.61200,-2.771915625
254.61250,-2.16152681
254.61300,-1.245943586
254.61350,0.280028452
254.61400,2.111194898
254.61450,3.331972529
254.61500,4.55275016
254.61550,6.383916606
254.61600,7.604694237
254.61650,7.909888645
254.61700,7.909888645
254.61750,8.52027746
254.61800,9.435860683
254.61850,10.0462495
254.61900,10.35144391
254.61950,10.0462495
254.62000,9.741055091
254.62050,8.52027746
254.62100,6.383916606
254.62150,4.857944568
254.62200,6.078722198
254.62250,7.604694237
254.62300,6.383916606
254.62350,2.111194898
254.62400,-0.6355547711
254.62450,-0.3303603634
254.62500,0.280028452
254.62550,-2.16152681
254.62600,-6.434248517
254.62650,-7.655026148
254.62700,-5.213470887
254.62750,-3.687498848
254.62800,-4.908276479
254.62850,-6.12905411
254.62900,-4.603082071
254.62950,-2.466721217
254.63000,-2.771915625
254.63050,-4.908276479
254.63100,-6.12905411
254.63150,-4.603082071
254.63200,-2.771915625
254.63250,-1.245943586
254.63300,-0.02516595566
254.63350,2.111194898
254.63400,4.857944568
254.63450,6.383916606
254.63500,6.994305421
254.63550,7.909888645
254.63600,9.435860683
254.63650,10.35144391
254.63700,10.35144391
254.63750,10.35144391
254.63800,11.26702713
254.63850,12.18261035
254.63900,11.26702713
254.63950,9.435860683
254.64000,8.215083052
254.64050,7.299499829
254.64100,4.857944568
254.64150,1.500806083
254.64200,-0.3303603634
254.64250,-0.3303603634
254.64300,-1.245943586
254.64350,-4.297887663
254.64400,-6.739442925
254.64450,-5.213470887
254.64500,-1.856332402
254.64550,-0.9407491788
254.64600,-3.38230444
254.64650,-6.434248517
254.64700,-7.34983174
254.64750,-7.960220556
254.64800,-9.180998187
254.64850,-9.486192594
254.64900,-8.875803779
254.64950,-8.570609371
254.65000,-9.180998187
254.65050,-9.180998187
254.65100,-6.739442925
254.65150,-3.38230444
254.65200,-0.6355547711
254.65250,-0.02516595566
254.65300,-0.02516595566
254.65350,-0.02516595566
254.65400,-0.3303603634
254.65450,-0.02516595566
254.65500,1.195611675
254.65550,1.806000491
254.65600,0.280028452
254.65650,-0.9407491788
254.65700,-0.3303603634
254.65750,1.806000491
254.65800,4.55275016
254.65850,5.468333383
254.65900,5.468333383
254.65950,5.773527791
254.66000,6.689111014
254.66050,7.299499829
254.66100,6.078722198
254.66150,3.331972529
254.66200,0.5852228597
254.66250,-0.9407491788
254.66300,-1.551137994
254.66350,-2.771915625
254.66400,-4.603082071
254.66450,-6.434248517
254.66500,-7.960220556
254.66550,-8.875803779
254.66600,-9.791387002
254.66650,-11.62255345
254.66700,-14.36930312
254.66750,-17.7264416
254.66800,-19.55760805
254.66850,-18.64202483
254.66900,-15.89527516
254.66950,-12.84333108
254.67000,-10.40177582
254.67050,-8.265414964
254.67100,-7.044637333
254.67150,-7.044637333
254.67200,-7.655026148
254.67250,-6.739442925
254.67300,-4.297887663
254.67350,-0.9407491788
254.67400,1.806000491
254.67450,4.55275016
254.67500,7.604694237
254.67550,10.35144391
254.67600,12.79299917
254.67650,14.62416561
254.67700,15.53974884
254.67750,14.31897121
254.67800,11.57222154
254.67850,9.435860683
254.67900,8.215083052
254.67950,6.689111014
254.68000,4.55275016
254.68050,1.806000491
254.68100,0.280028452
254.68150,-0.02516595566
254.68200,-0.3303603634
254.68250,-0.02516595566
254.68300,1.195611675
254.68350,2.416389306
254.68400,3.026778121
254.68450,3.637166937
254.68500,3.637166937
254.68550,1.806000491
254.68600,-1.245943586
254.68650,-3.687498848
254.68700,-3.992693256
254.68750,-3.687498848
254.68800,-4.297887663
254.68850,-5.823859702
254.68900,-6.12905411
254.68950,-4.603082071
254.69000,-2.771915625
254.69050,-2.771915625
254.69100,-3.38230444
254.69150,-3.077110033
254.69200,-1.245943586
254.69250,0.280028452
254.69300,1.500806083
254.69350,2.111194898
254.69400,2.416389306
254.69450,2.721583714
254.69500,3.331972529
254.69550,4.857944568
254.69600,7.299499829
254.69650,8.52027746
254.69700,7.299499829
254.69750,5.468333383
254.69800,5.163138975
254.69850,6.689111014
254.69900,7.909888645
254.69950,7.604694237
254.70000,6.994305421
254.70050,6.383916606
254.70100,5.163138975
254.70150,3.026778121
254.70200,1.806000491
254.70250,1.806000491
254.70300,1.806000491
254.70350,0.8904172674
254.70400,-0.02516595566
254.70450,-0.6355547711
254.70500,-1.856332402
254.70550,-3.687498848
254.70600,-4.297887663
254.70650,-3.992693256
254.70700,-4.908276479
254.70750,-6.739442925
254.70800,-5.213470887
254.70850,0.8904172674
254.70900,5.468333383
254.70950,3.026778121
254.71000,-4.603082071
254.71050,-10.70697023
254.71100,-11.01216463
254.71150,-8.265414964
254.71200,-5.518665294
254.71250,-3.077110033
254.71300,-0.9407491788
254.71350,0.280028452
254.71400,1.195611675
254.71450,2.721583714
254.71500,4.55275016
254.71550,6.383916606
254.71600,6.689111014
254.71650,6.689111014
254.71700,6.078722198
254.71750,5.163138975
254.71800,4.247555752
254.71850,3.942361344
254.71900,5.163138975
254.71950,6.994305421
254.72000,8.215083052
254.72050,7.299499829
254.72100,4.247555752
254.72150,0.5852228597
254.72200,-1.245943586
254.72250,-1.245943586
254.72300,-0.3303603634
254.72350,-0.3303603634
254.72400,-2.466721217
254.72450,-6.12905411
254.72500,-9.486192594
254.72550,-11.01216463
254.72600,-11.31735904
254.72650,-10.70697023
254.72700,-10.70697023
254.72750,-11.01216463
254.72800,-11.31735904
254.72850,-11.31735904
254.72900,-10.40177582
254.72950,-6.434248517
254.73000,-0.02516595566
254.73050,5.773527791
254.73100,6.689111014
254.73150,3.026778121
254.73200,-0.3303603634
254.73250,-0.9407491788
254.73300,0.280028452
254.73350,1.806000491
254.73400,3.637166937
254.73450,6.689111014
254.73500,10.0462495
254.73550,12.18261035
254.73600,12.48780476
254.73650,11.87741594
254.73700,11.57222154
254.73750,11.57222154
254.73800,11.26702713
254.73850,10.65663831
254.73900,9.130666275
254.73950,8.215083052
254.74000,7.299499829
254.74050,6.078722198
254.74100,3.942361344
254.74150,1.806000491
254.74200,0.5852228597
254.74250,-0.9407491788
254.74300,-3.077110033
254.74350,-4.297887663
254.74400,-3.38230444
254.74450,-2.466721217
254.74500,-3.38230444
254.74550,-6.12905411
254.74600,-8.875803779
254.74650,-11.01216463
254.74700,-12.23294226
254.74750,-13.45371989
254.74800,-14.06410871
254.74850,-14.06410871
254.74900,-13.7589143
254.74950,-12.53813667
254.75000,-11.01216463
254.75050,-9.791387002
254.75100,-8.875803779
254.75150,-7.044637333
254.75200,-4.603082071
254.75250,-2.466721217
254.75300,-0.6355547711
254.75350,1.195611675
254.75400,3.942361344
254.75450,6.078722198
254.75500,6.689111014
254.75550,7.299499829
254.75600,8.215083052
254.75650,8.52027746
254.75700,8.215083052
254.75750,8.215083052
254.75800,9.741055091
254.75850,11.57222154
254.75900,12.18261035
254.75950,10.96183272
254.76000,9.435860683
254.76050,8.215083052
254.76100,6.383916606
254.76150,4.55275016
254.76200,3.026778121
254.76250,2.721583714
254.76300,2.416389306
254.76350,1.806000491
254.76400,0.280028452
254.76450,-2.466721217
254.76500,-5.823859702
254.76550,-7.655026148
254.76600,-7.960220556
254.76650,-6.434248517
254.76700,-5.518665294
254.76750,-6.12905411
254.76800,-6.434248517
254.76850,-4.908276479
254.76900,-2.16152681
254.76950,-1.245943586
254.77000,-3.992693256
254.77050,-7.655026148
254.77100,-8.265414964
254.77150,-4.603082071
254.77200,-0.3303603634
254.77250,1.500806083
254.77300,1.806000491
254.77350,2.111194898
254.77400,2.111194898
254.77450,1.806000491
254.77500,2.111194898
254.77550,3.331972529
254.77600,4.247555752
254.77650,3.026778121
254.77700,1.195611675
254.77750,1.806000491
254.77800,5.773527791
254.77850,9.741055091
254.77900,10.96183272
254.77950,10.35144391
254.78000,10.65663831
254.78050,11.26702713
254.78100,11.26702713
254.78150,11.26702713
254.78200,14.0137768
254.78250,18.59169291
254.78300,20.72805377
254.78350,17.9813041
254.78400,11.87741594
254.78450,5.468333383
254.78500,-0.3303603634
254.78550,-6.739442925
254.78600,-13.14852549
254.78650,-18.33683042
254.78700,-21.99916331
254.78750,-25.35630179
254.78800,-27.49266265
254.78850,-27.18746824
254.78900,-25.05110739
254.78950,-22.60955213
254.79000,-21.6939689
254.79050,-21.38877449
254.79100,-20.47319127
254.79150,-18.64202483
254.79200,-16.20046956
254.79250,-13.7589143
254.79300,-11.31735904
254.79350,-8.875803779
254.79400,-4.908276479
254.79450,-0.3303603634
254.79500,2.111194898
254.79550,2.416389306
254.79600,2.111194898
254.79650,3.637166937
254.79700,6.383916606
254.79750,8.825471868
254.79800,10.65663831
254.79850,12.18261035
254.79900,13.40338798
254.79950,13.70858239
254.80000,13.40338798
254.80050,14.92936002
254.80100,16.76052647
254.80150,16.45533206
254.80200,12.48780476
254.80250,6.994305421
254.80300,1.806000491
254.80350,-1.245943586
254.80400,-2.771915625
254.80450,-2.16152681
254.80500,-0.3303603634
254.80550,-0.3303603634
254.80600,-0.9407491788
254.80650,0.280028452
254.80700,5.773527791
254.80750,10.96183272
254.80800,11.57222154
254.80850,7.604694237
254.80900,3.026778121
254.80950,-0.6355547711
254.81000,-4.908276479
254.81050,-10.40177582
254.81100,-14.36930312
254.81150,-15.28488634
254.81200,-14.06410871
254.81250,-11.31735904
254.81300,-6.739442925
254.81350,-1.245943586
254.81400,3.026778121
254.81450,4.857944568
254.81500,4.857944568
254.81550,5.468333383
254.81600,6.994305421
254.81650,7.604694237
254.81700,8.52027746
254.81750,9.741055091
254.81800,10.65663831
254.81850,10.0462495
254.81900,8.52027746
254.81950,7.909888645
254.82000,7.604694237
254.82050,6.383916606
254.82100,4.55275016
254.82150,2.721583714
254.82200,1.806000491
254.82250,0.5852228597
254.82300,-1.245943586
254.82350,-3.38230444
254.82400,-4.603082071
254.82450,-5.518665294
254.82500,-6.434248517
254.82550,-7.044637333
254.82600,-7.044637333
254.82650,-7.34983174
254.82700,-9.180998187
254.82750,-11.62255345
254.82800,-12.84333108
254.82850,-11.62255345
254.82900,-9.486192594
254.82950,-9.180998187
254.83000,-10.09658141
254.83050,-10.09658141
254.83100,-7.34983174
254.83150,-4.297887663
254.83200,-3.38230444
254.83250,-3.687498848
254.83300,-2.466721217
254.83350,-0.02516595566
254.83400,1.806000491
254.83450,3.026778121
254.83500,4.857944568
254.83550,6.994305421
254.83600,8.215083052
254.83650,6.994305421
254.83700,6.078722198
254.83750,6.994305421
254.83800,9.435860683
254.83850,11.57222154
254.83900,11.26702713
254.83950,10.0462495
254.84000,9.435860683
254.84050,9.435860683
254.84100,8.825471868
254.84150,5.773527791
254.84200,3.026778121
254.84250,2.416389306
254.84300,3.331972529
254.84350,2.111194898
254.84400,-1.551137994
254.84450,-4.603082071
254.84500,-4.908276479
254.84550,-4.908276479
254.84600,-6.434248517
254.84650,-9.180998187
254.84700,-10.70697023
254.84750,-10.70697023
254.84800,-10.70697023
254.84850,-11.31735904
254.84900,-12.53813667
254.84950,-12.84333108
254.85000,-11.01216463
254.85050,-7.34983174
254.85100,-3.992693256
254.85150,-3.077110033
254.85200,-2.771915625
254.85250,-0.02516595566
254.85300,3.942361344
254.85350,6.078722198
254.85400,4.857944568
254.85450,3.637166937
254.85500,4.55275016
254.85550,5.773527791
254.85600,4.857944568
254.85650,3.637166937
254.85700,3.942361344
254.85750,4.857944568
254.85800,5.163138975
254.85850,5.468333383
254.85900,6.078722198
254.85950,6.078722198
254.86000,4.247555752
254.86050,1.500806083
254.86100,-0.02516595566
254.86150,-1.245943586
254.86200,-2.466721217
254.86250,-2.16152681
254.86300,-0.9407491788
254.86350,-0.9407491788
254.86400,-1.856332402
254.86450,-0.6355547711
254.86500,4.247555752
254.86550,9.741055091
254.86600,9.435860683
254.86650,3.331972529
254.86700,-3.077110033
254.86750,-6.434248517
254.86800,-7.044637333
254.86850,-6.739442925
254.86900,-5.823859702
254.86950,-4.603082071
254.87000,-4.908276479
254.87050,-6.12905411
254.87100,-5.823859702
254.87150,-2.16152681
254.87200,2.111194898
254.87250,3.942361344
254.87300,3.026778121
254.87350,1.806000491
254.87400,3.026778121
254.87450,5.468333383
254.87500,6.689111014
254.87550,5.468333383
254.87600,3.942361344
254.87650,3.637166937
254.87700,4.247555752
254.87750,4.55275016
254.87800,4.55275016
254.87850,5.468333383
254.87900,6.689111014
254.87950,6.689111014
254.88000,6.383916606
254.88050,6.994305421
254.88100,8.215083052
254.88150,7.299499829
254.88200,3.942361344
254.88250,0.280028452
254.88300,-0.9407491788
254.88350,-2.16152681
254.88400,-5.823859702
254.88450,-10.40177582
254.88500,-11.62255345
254.88550,-9.486192594
254.88600,-7.960220556
254.88650,-9.791387002
254.88700,-11.92774786
254.88750,-11.31735904
254.88800,-7.655026148
254.88850,-5.518665294
254.88900,-6.12905411
254.88950,-7.34983174
254.89000,-6.434248517
254.89050,-3.992693256
254.89100,-1.856332402
254.89150,-0.6355547711
254.89200,-0.3303603634
254.89250,-0.6355547711
254.89300,-0.9407491788
254.89350,-0.02516595566
254.89400,2.416389306
254.89450,5.468333383
254.89500,7.909888645
254.89550,9.741055091
254.89600,10.96183272
254.89650,10.96183272
254.89700,10.35144391
254.89750,10.65663831
254.89800,11.87741594
254.89850,12.18261035
254.89900,10.96183272
254.89950,9.741055091
254.90000,9.130666275
254.90050,7.299499829
254.90100,4.247555752
254.90150,0.8904172674
254.90200,-0.3303603634
254.90250,-0.9407491788
254.90300,-2.466721217
254.90350,-3.992693256
254.90400,-3.992693256
254.90450,-3.992693256
254.90500,-7.044637333
254.90550,-13.14852549
254.90600,-18.33683042
254.90650,-19.55760805
254.90700,-19.25241364
254.90750,-19.25241364
254.90800,-18.64202483
254.90850,-16.20046956
254.90900,-13.14852549
254.90950,-11.31735904
254.91000,-10.09658141
254.91050,-7.960220556
254.91100,-4.908276479
254.91150,-3.687498848
254.91200,-3.687498848
254.91250,-3.38230444
254.91300,-1.245943586
254.91350,0.280028452
254.91400,-0.02516595566
254.91450,-0.3303603634
254.91500,0.280028452
254.91550,3.331972529
254.91600,6.383916606
254.91650,8.215083052
254.91700,8.825471868
254.91750,8.52027746
254.91800,7.299499829
254.91850,6.078722198
254.91900,5.773527791
254.91950,7.299499829
254.92000,9.435860683
254.92050,9.435860683
254.92100,6.689111014
254.92150,2.721583714
254.92200,0.5852228597
254.92250,0.280028452
254.92300,-0.6355547711
254.92350,-4.603082071
254.92400,-9.486192594
254.92450,-13.14852549
254.92500,-14.36930312
254.92550,-14.67449753
254.92600,-14.67449753
254.92650,-14.06410871
254.92700,-12.84333108
254.92750,-11.01216463
254.92800,-8.875803779
254.92850,-5.518665294
254.92900,-0.02516595566
254.92950,6.383916606
254.93000,9.741055091
254.93050,8.52027746
254.93100,4.55275016
254.93150,1.806000491
254.93200,1.806000491
254.93250,2.721583714
254.93300,3.026778121
254.93350,3.331972529
254.93400,5.163138975
254.93450,8.215083052
254.93500,10.96183272
254.93550,11.87741594
254.93600,11.57222154
254.93650,10.65663831
254.93700,9.435860683
254.93750,9.741055091
254.93800,9.741055091
254.93850,9.130666275
254.93900,7.604694237
254.93950,6.994305421
254.94000,7.604694237
254.94050,8.215083052
254.94100,8.215083052
254.94150,8.52027746
254.94200,9.130666275
254.94250,7.909888645
254.94300,4.247555752
254.94350,0.5852228597
254.94400,-0.9407491788
254.94450,-0.3303603634
254.94500,-0.02516595566
254.94550,-1.245943586
254.94600,-3.38230444
254.94650,-4.908276479
254.94700,-6.12905411
254.94750,-7.960220556
254.94800,-9.791387002
254.94850,-10.40177582
254.94900,-8.570609371
254.94950,-4.908276479
254.95000,-1.856332402
254.95050,-1.245943586
254.95100,-1.551137994
254.95150,-1.245943586
254.95200,-0.3303603634
254.95250,0.8904172674
254.95300,2.721583714
254.95350,5.163138975
254.95400,6.689111014
254.95450,6.383916606
254.95500,6.994305421
254.95550,9.435860683
254.95600,10.96183272
254.95650,8.825471868
254.95700,3.942361344
254.95750,0.280028452
254.95800,-0.6355547711
254.95850,-0.9407491788
254.95900,-1.245943586
254.95950,-1.245943586
254.96000,-0.9407491788
254.96050,-0.3303603634
254.96100,-0.02516595566
254.96150,-0.02516595566
254.96200,0.280028452
254.96250,0.280028452
254.96300,-0.02516595566
254.96350,-0.02516595566
254.96400,-1.551137994
254.96450,-3.992693256
254.96500,-6.12905411
254.96550,-6.12905411
254.96600,-5.213470887
254.96650,-5.823859702
254.96700,-8.265414964
254.96750,-9.791387002
254.96800,-9.180998187
254.96850,-7.960220556
254.96900,-7.044637333
254.96950,-5.518665294
254.97000,-2.466721217
254.97050,-0.02516595566
254.97100,1.195611675
254.97150,1.806000491
254.97200,2.721583714
254.97250,4.857944568
254.97300,6.078722198
254.97350,6.689111014
254.97400,6.689111014
254.97450,7.299499829
254.97500,7.909888645
254.97550,8.215083052
254.97600,6.689111014
254.97650,4.55275016
254.97700,3.942361344
254.97750,6.078722198
254.97800,7.604694237
254.97850,5.773527791
254.97900,1.806000491
254.97950,-0.6355547711
254.98000,-0.3303603634
254.98050,0.8904172674
254.98100,0.5852228597
254.98150,-0.9407491788
254.98200,-3.077110033
254.98250,-4.603082071
254.98300,-4.603082071
254.98350,-3.687498848
254.98400,-2.771915625
254.98450,-3.38230444
254.98500,-3.992693256
254.98550,-3.38230444
254.98600,-2.16152681
254.98650,-2.771915625
254.98700,-5.823859702
254.98750,-8.875803779
254.98800,-10.40177582
254.98850,-9.791387002
254.98900,-8.570609371
254.98950,-6.739442925
254.99000,-4.908276479
254.99050,-3.38230444
254.99100,-2.16152681
254.99150,-0.6355547711
254.99200,0.280028452
254.99250,0.5852228597
254.99300,-0.02516595566
254.99350,-0.9407491788
254.99400,-1.551137994
254.99450,-1.551137994
254.99500,-0.6355547711
254.99550,1.806000491
254.99600,5.468333383
254.99650,7.604694237
254.99700,7.299499829
254.99750,6.078722198
254.99800,6.383916606
254.99850,6.994305421
254.99900,6.994305421
254.99950,6.994305421
255.00000,7.604694237
255.00050,7.909888645
255.00100,6.078722198
255.00150,2.111194898
255.00200,-1.245943586
255.00250,-3.077110033
255.00300,-3.38230444
255.00350,-4.297887663
255.00400,-5.213470887
255.00450,-3.992693256
255.00500,-2.466721217
255.00550,-2.771915625
255.00600,-6.12905411
255.00650,-9.791387002
255.00700,-11.62255345
255.00750,-11.62255345
255.00800,-11.01216463
255.00850,-10.40177582
255.00900,-9.791387002
255.00950,-9.180998187
255.01000,-9.180998187
255.01050,-8.875803779
255.01100,-7.655026148
255.01150,-5.823859702
255.01200,-3.687498848
255.01250,-0.6355547711
255.01300,2.721583714
255.01350,4.55275016
255.01400,4.247555752
255.01450,3.942361344
255.01500,6.383916606
255.01550,10.0462495
255.01600,11.87741594
255.01650,11.26702713
255.01700,9.741055091
255.01750,9.435860683
255.01800,9.435860683
255.01850,8.825471868
255.01900,8.215083052
255.01950,8.215083052
255.02000,8.825471868
255.02050,8.825471868
255.02100,7.909888645
255.02150,6.383916606
255.02200,4.857944568
255.02250,3.637166937
255.02300,1.806000491
255.02350,-0.6355547711
255.02400,-2.771915625
255.02450,-3.077110033
255.02500,-2.771915625
255.02550,-3.38230444
255.02600,-4.908276479
255.02650,-5.823859702
255.02700,-5.213470887
255.02750,-4.603082071
255.02800,-5.213470887
255.02850,-5.518665294
255.02900,-5.213470887
255.02950,-3.687498848
255.03000,-2.466721217
255.03050,-1.856332402
255.03100,-0.6355547711
255.03150,0.8904172674
255.03200,3.026778121
255.03250,3.942361344
255.03300,3.942361344
255.03350,4.247555752
255.03400,5.773527791
255.03450,7.604694237
255.03500,7.604694237
255.03550,7.299499829
255.03600,8.825471868
255.03650,10.96183272
255.03700,10.96183272
255.03750,8.215083052
255.03800,6.383916606
255.03850,6.689111014
255.03900,5.773527791
255.03950,1.500806083
255.04000,-3.38230444
255.04050,-4.603082071
255.04100,-1.856332402
255.04150,-0.02516595566
255.04200,-0.3303603634
255.04250,-1.856332402
255.04300,-3.687498848
255.04350,-5.518665294
255.04400,-7.044637333
255.04450,-6.434248517
255.04500,-5.213470887
255.04550,-6.12905411
255.04600,-8.265414964
255.04650,-8.265414964
255.04700,-6.434248517
255.04750,-5.823859702
255.04800,-7.960220556
255.04850,-9.791387002
255.04900,-7.960220556
255.04950,-4.908276479
255.05000,-4.297887663
255.05050,-4.603082071
255.05100,-3.992693256
255.05150,-2.16152681
255.05200,-1.856332402
255.05250,-2.16152681
255.05300,-1.551137994
255.05350,0.280028452
255.05400,2.416389306
255.05450,3.026778121
255.05500,3.331972529
255.05550,3.942361344
255.05600,4.857944568
255.05650,4.857944568
255.05700,4.857944568
255.05750,4.857944568
255.05800,4.55275016
255.05850,3.637166937
255.05900,2.111194898
255.05950,-0.02516595566
255.06000,-0.6355547711
255.06050,-0.02516595566
255.06100,3.331972529
255.06150,7.604694237
255.06200,9.130666275
255.06250,6.689111014
255.06300,2.111194898
255.06350,-0.6355547711
255.06400,-2.466721217
255.06450,-4.603082071
255.06500,-6.739442925
255.06550,-8.265414964
255.06600,-8.570609371
255.06650,-8.875803779
255.06700,-10.70697023
255.06750,-12.53813667
255.06800,-12.84333108
255.06850,-11.62255345
255.06900,-10.09658141
255.06950,-9.180998187
255.07000,-8.570609371
255.07050,-7.655026148
255.07100,-6.434248517
255.07150,-4.908276479
255.07200,-4.603082071
255.07250,-5.518665294
255.07300,-6.739442925
255.07350,-5.823859702
255.07400,-2.466721217
255.07450,1.195611675
255.07500,3.942361344
255.07550,5.163138975
255.07600,6.383916606
255.07650,8.825471868
255.07700,10.96183272
255.07750,11.87741594
255.07800,11.57222154
255.07850,10.35144391
255.07900,9.435860683
255.07950,9.435860683
255.08000,9.435860683
255.08050,8.825471868
255.08100,6.994305421
255.08150,4.55275016
255.08200,3.026778121
255.08250,2.721583714
255.08300,1.500806083
255.08350,-0.3303603634
255.08400,-2.16152681
255.08450,-3.38230444
255.08500,-4.908276479
255.08550,-7.34983174
255.08600,-9.791387002
255.08650,-10.70697023
255.08700,-10.09658141
255.08750,-8.265414964
255.08800,-7.044637333
255.08850,-6.739442925
255.08900,-7.34983174
255.08950,-7.655026148
255.09000,-6.434248517
255.09050,-3.38230444
255.09100,-0.02516595566
255.09150,2.416389306
255.09200,4.247555752
255.09250,6.078722198
255.09300,7.299499829
255.09350,8.215083052
255.09400,9.130666275
255.09450,10.65663831
255.09500,11.26702713
255.09550,10.35144391
255.09600,9.435860683
255.09650,9.435860683
255.09700,9.435860683
255.09750,8.825471868
255.09800,8.215083052
255.09850,7.909888645
255.09900,7.604694237
255.09950,6.383916606
255.10000,4.55275016
255.10050,2.721583714
255.10100,0.5852228597
255.10150,-0.3303603634
255.10200,-0.02516595566
255.10250,2.111194898
255.10300,2.721583714
255.10350,0.5852228597
255.10400,-3.077110033
255.10450,-7.34983174
255.10500,-11.31735904
255.10550,-14.36930312
255.10600,-15.28488634
255.10650,-15.28488634
255.10700,-15.59008075
255.10750,-16.20046956
255.10800,-15.59008075
255.10850,-12.53813667
255.10900,-10.09658141
255.10950,-8.875803779
255.11000,-7.34983174
255.11050,-3.992693256
255.11100,-0.02516595566
255.11150,2.111194898
255.11200,2.111194898
255.11250,2.111194898
255.11300,2.721583714
255.11350,4.55275016
255.11400,6.994305421
255.11450,9.435860683
255.11500,10.96183272
255.11550,10.35144391
255.11600,8.825471868
255.11650,7.909888645
255.11700,8.215083052
255.11750,9.435860683
255.11800,10.65663831
255.11850,10.96183272
255.11900,9.741055091
255.11950,7.909888645
255.12000,6.994305421
255.12050,7.909888645
255.12100,9.741055091
255.12150,10.96183272
255.12200,10.0462495
255.12250,7.604694237
255.12300,4.857944568
255.12350,3.026778121
255.12400,2.111194898
255.12450,1.195611675
255.12500,-0.9407491788
255.12550,-4.603082071
255.12600,-7.655026148
255.12650,-9.180998187
255.12700,-9.486192594
255.12750,-10.09658141
255.12800,-10.40177582
255.12850,-9.791387002
255.12900,-8.570609371
255.12950,-7.655026148
255.13000,-7.34983174
255.13050,-6.434248517
255.13100,-4.908276479
255.13150,-3.687498848
255.13200,-3.687498848
255.13250,-3.38230444
255.13300,-2.16152681
255.13350,-0.6355547711
255.13400,-0.3303603634
255.13450,-0.9407491788
255.13500,-0.3303603634
255.13550,0.8904172674
255.13600,2.416389306
255.13650,4.247555752
255.13700,6.383916606
255.13750,8.215083052
255.13800,8.52027746
255.13850,7.604694237
255.13900,6.994305421
255.13950,7.299499829
255.14000,5.773527791
255.14050,2.111194898
255.14100,-0.6355547711
255.14150,-0.9407491788
255.14200,-0.3303603634
255.14250,-0.9407491788
255.14300,-2.16152681
255.14350,-2.16152681
255.14400,-1.551137994
255.14450,-2.16152681
255.14500,-3.992693256
255.14550,-4.908276479
255.14600,-4.297887663
255.14650,-3.992693256
255.14700,-5.213470887
255.14750,-7.34983174
255.14800,-8.875803779
255.14850,-8.570609371
255.14900,-7.655026148
255.14950,-7.044637333
255.15000,-7.044637333
255.15050,-7.34983174
255.15100,-7.34983174
255.15150,-7.044637333
255.15200,-7.655026148
255.15250,-7.960220556
255.15300,-5.213470887
255.15350,-0.3303603634
255.15400,3.026778121
255.15450,3.942361344
255.15500,4.857944568
255.15550,8.215083052
255.15600,12.18261035
255.15650,11.26702713
255.15700,6.994305421
255.15750,3.942361344
255.15800,4.857944568
255.15850,5.773527791
255.15900,3.942361344
255.15950,2.111194898
255.16000,3.026778121
255.16050,6.078722198
255.16100,7.299499829
255.16150,6.078722198
255.16200,4.247555752
255.16250,3.331972529
255.16300,2.111194898
255.16350,0.280028452
255.16400,-2.16152681
255.16450,-5.213470887
255.16500,-7.960220556
255.16550,-8.570609371
255.16600,-6.434248517
255.16650,-3.077110033
255.16700,-2.466721217
255.16750,-6.739442925
255.16800,-13.45371989
255.16850,-18.64202483
255.16900,-19.55760805
255.16950,-17.11605279
255.17000,-13.14852549
255.17050,-8.875803779
255.17100,-5.213470887
255.17150,-2.771915625
255.17200,-1.245943586
255.17250,-0.3303603634
255.17300,0.8904172674
255.17350,3.331972529
255.17400,4.857944568
255.17450,5.163138975
255.17500,4.857944568
255.17550,4.55275016
255.17600,4.55275016
255.17650,4.857944568
255.17700,4.857944568
255.17750,5.773527791
255.17800,7.604694237
255.17850,9.741055091
255.17900,11.57222154
255.17950,12.18261035
255.18000,10.96183272
255.18050,8.215083052
255.18100,6.078722198
255.18150,5.468333383
255.18200,5.163138975
255.18250,4.55275016
255.18300,3.026778121
255.18350,2.416389306
255.18400,1.806000491
255.18450,0.8904172674
255.18500,-0.02516595566
255.18550,-1.245943586
255.18600,-3.687498848
255.18650,-6.739442925
255.18700,-8.570609371
255.18750,-7.044637333
255.18800,-4.297887663
255.18850,-3.687498848
255.18900,-5.518665294
255.18950,-5.823859702
255.19000,-2.466721217
255.19050,1.500806083
255.19100,2.416389306
255.19150,-0.02516595566
255.19200,-2.466721217
255.19250,-3.38230444
255.19300,-4.297887663
255.19350,-7.34983174
255.19400,-9.791387002
255.19450,-7.960220556
255.19500,-0.6355547711
255.19550,7.604694237
255.19600,12.18261035
255.19650,12.48780476
255.19700,10.65663831
255.19750,9.130666275
255.19800,8.215083052
255.19850,7.299499829
255.19900,6.383916606
255.19950,6.078722198
255.20000,6.689111014
255.20050,7.604694237
255.20100,6.383916606
255.20150,3.331972529
255.20200,0.280028452
255.20250,-0.02516595566
255.20300,0.280028452
255.20350,-0.9407491788
255.20400,-3.38230444
255.20450,-5.213470887
255.20500,-4.603082071
255.20550,-4.297887663
255.20600,-5.213470887
255.20650,-6.739442925
255.20700,-8.570609371
255.20750,-10.09658141
255.20800,-11.31735904
255.20850,-10.70697023
255.20900,-7.960220556
255.20950,-4.603082071
255.21000,-2.16152681
255.21050,-0.6355547711
255.21100,0.5852228597
255.21150,1.806000491
255.21200,2.416389306
255.21250,1.806000491
255.21300,0.280028452
255.21350,-0.02516595566
255.21400,1.500806083
255.21450,5.773527791
255.21500,10.0462495
255.21550,10.35144391
255.21600,7.299499829
255.21650,4.857944568
255.21700,5.163138975
255.21750,7.299499829
255.21800,8.215083052
255.21850,7.909888645
255.21900,7.604694237
255.21950,7.604694237
255.22000,6.994305421
255.22050,5.773527791
255.22100,3.637166937
255.22150,0.5852228597
255.22200,-1.551137994
255.22250,-2.466721217
255.22300,-2.16152681
255.22350,-1.856332402
255.22400,-3.38230444
255.22450,-5.518665294
255.22500,-6.434248517
255.22550,-7.044637333
255.22600,-7.960220556
255.22650,-8.875803779
255.22700,-9.486192594
255.22750,-8.875803779
255.22800,-8.570609371
255.22850,-7.655026148
255.22900,-5.518665294
255.22950,-3.38230444
255.23000,-2.466721217
255.23050,-1.856332402
255.23100,-0.9407491788
255.23150,0.5852228597
255.23200,2.721583714
255.23250,3.942361344
255.23300,4.247555752
255.23350,3.026778121
255.23400,1.195611675
255.23450,0.8904172674
255.23500,2.416389306
255.23550,4.247555752
255.23600,4.55275016
255.23650,4.55275016
255.23700,5.773527791
255.23750,7.909888645
255.23800,7.909888645
255.23850,6.383916606
255.23900,6.383916606
255.23950,7.909888645
255.24000,8.825471868
255.24050,6.689111014
255.24100,3.942361344
255.24150,2.721583714
255.24200,1.806000491
255.24250,-0.02516595566
255.24300,-1.856332402
255.24350,-3.077110033
255.24400,-4.297887663
255.24450,-5.518665294
255.24500,-6.434248517
255.24550,-6.434248517
255.24600,-7.655026148
255.24650,-10.70697023
255.24700,-13.45371989
255.24750,-14.06410871
255.24800,-12.84333108
255.24850,-11.92774786
255.24900,-11.01216463
255.24950,-9.791387002
255.25000,-8.570609371
255.25050,-7.655026148
255.25100,-6.12905411
255.25150,-4.297887663
255.25200,-3.687498848
255.25250,-4.297887663
255.25300,-4.297887663
255.25350,-1.856332402
255.25400,0.8904172674
255.25450,2.111194898
255.25500,2.721583714
255.25550,4.857944568
255.25600,8.215083052
255.25650,10.35144391
255.25700,10.96183272
255.25750,11.26702713
255.25800,11.26702713
255.25850,10.65663831
255.25900,9.130666275
255.25950,8.52027746
255.26000,8.825471868
255.26050,7.909888645
255.26100,5.163138975
255.26150,3.331972529
255.26200,3.026778121
255.26250,3.331972529
255.26300,0.8904172674
255.26350,-2.771915625
255.26400,-5.518665294
255.26450,-6.12905411
255.26500,-5.823859702
255.26550,-6.12905411
255.26600,-6.739442925
255.26650,-6.739442925
255.26700,-7.044637333
255.26750,-8.265414964
255.26800,-7.960220556
255.26850,-5.213470887
255.26900,-2.16152681
255.26950,-2.771915625
255.27000,-7.044637333
255.27050,-11.62255345
255.27100,-12.53813667
255.27150,-9.486192594
255.27200,-5.823859702
255.27250,-3.992693256
255.27300,-3.077110033
255.27350,-2.16152681
255.27400,-0.02516595566
255.27450,1.195611675
255.27500,2.416389306
255.27550,3.942361344
255.27600,5.773527791
255.27650,6.383916606
255.27700,5.468333383
255.27750,5.468333383
255.27800,8.52027746
255.27850,11.26702713
255.27900,10.35144391
255.27950,7.604694237
255.28000,6.994305421
255.28050,8.825471868
255.28100,8.52027746
255.28150,3.942361344
255.28200,0.280028452
255.28250,0.5852228597
255.28300,2.111194898
255.28350,0.5852228597
255.28400,-3.687498848
255.28450,-6.12905411
255.28500,-4.603082071
255.28550,-2.466721217
255.28600,-2.466721217
255.28650,-2.466721217
255.28700,-1.245943586
255.28750,-0.3303603634
255.28800,-2.16152681
255.28850,-6.12905411
255.28900,-9.180998187
255.28950,-9.486192594
255.29000,-8.875803779
255.29050,-9.180998187
255.29100,-9.791387002
255.29150,-8.875803779
255.29200,-6.12905411
255.29250,-3.38230444
255.29300,-1.856332402
255.29350,-0.9407491788
255.29400,0.8904172674
255.29450,4.55275016
255.29500,7.604694237
255.29550,8.825471868
255.29600,9.435860683
255.29650,10.35144391
255.29700,11.87741594
255.29750,13.09819358
255.29800,14.31897121
255.29850,16.15013765
255.29900,17.37091528
255.29950,17.67610969
255.30000,17.37091528
255.30050,16.45533206
255.30100,14.0137768
255.30150,9.741055091
255.30200,4.247555752
255.30250,-0.02516595566
255.30300,-2.16152681
255.30350,-4.908276479
255.30400,-8.875803779
255.30450,-12.53813667
255.30500,-15.28488634
255.30550,-17.11605279
255.30600,-20.16799686
255.30650,-22.91474653
255.30700,-22.91474653
255.30750,-19.55760805
255.30800,-14.97969193
255.30850,-11.62255345
255.30900,-9.791387002
255.30950,-8.265414964
255.31000,-7.044637333
255.31050,-6.12905411
255.31100,-4.908276479
255.31150,-2.466721217
255.31200,0.8904172674
255.31250,3.331972529
255.31300,3.942361344
255.31350,3.637166937
255.31400,4.247555752
255.31450,6.383916606
255.31500,8.825471868
255.31550,10.65663831
255.31600,11.26702713
255.31650,10.96183272
255.31700,10.96183272
255.31750,10.96183272
255.31800,10.65663831
255.31850,9.741055091
255.31900,9.741055091
255.31950,10.96183272
255.32000,12.18261035
255.32050,10.96183272
255.32100,6.994305421
255.32150,3.637166937
255.32200,2.416389306
255.32250,2.721583714
255.32300,2.111194898
255.32350,-0.02516595566
255.32400,-2.466721217
255.32450,-5.213470887
255.32500,-7.044637333
255.32550,-7.044637333
255.32600,-6.434248517
255.32650,-6.739442925
255.32700,-8.265414964
255.32750,-10.09658141
255.32800,-9.791387002
255.32850,-8.570609371
255.32900,-7.34983174
255.32950,-6.434248517
255.33000,-4.297887663
255.33050,-0.9407491788
255.33100,1.806000491
255.33150,4.247555752
255.33200,6.383916606
255.33250,8.215083052
255.33300,8.825471868
255.33350,9.741055091
255.33400,11.87741594
255.33450,13.70858239
255.33500,13.70858239
255.33550,12.18261035
255.33600,11.57222154
255.33650,11.87741594
255.33700,12.18261035
255.33750,12.79299917
255.33800,13.40338798
255.33850,12.18261035
255.33900,7.604694237
255.33950,0.8904172674
255.34000,-1.245943586
255.34050,0.8904172674
255.34100,4.247555752
255.34150,3.331972529
255.34200,-0.02516595566
255.34250,-0.9407491788
255.34300,-0.9407491788
255.34350,-2.771915625
255.34400,-6.12905411
255.34450,-7.960220556
255.34500,-7.960220556
255.34550,-8.570609371
255.34600,-11.62255345
255.34650,-14.67449753
255.34700,-14.97969193
255.34750,-14.06410871
255.34800,-13.7589143
255.34850,-13.7589143
255.34900,-12.53813667
255.34950,-10.70697023
255.35000,-9.180998187
255.35050,-8.265414964
255.35100,-6.434248517
255.35150,-4.297887663
255.35200,-3.38230444
255.35250,-2.466721217
255.35300,-0.6355547711
255.35350,2.111194898
255.35400,5.163138975
255.35450,5.773527791
255.35500,4.55275016
255.35550,3.331972529
255.35600,3.942361344
255.35650,5.468333383
255.35700,5.773527791
255.35750,5.163138975
255.35800,4.55275016
255.35850,5.468333383
255.35900,6.078722198
255.35950,5.468333383
255.36000,3.637166937
255.36050,2.111194898
255.36100,1.806000491
255.36150,1.806000491
255.36200,1.500806083
255.36250,-0.02516595566
255.36300,-1.856332402
255.36350,-3.38230444
255.36400,-3.38230444
255.36450,-2.771915625
255.36500,-3.992693256
255.36550,-7.34983174
255.36600,-10.40177582
255.36650,-11.92774786
255.36700,-12.53813667
255.36750,-14.36930312
255.36800,-16.81085838
255.36850,-18.03163601
255.36900,-16.50566397
255.36950,-13.14852549
255.37000,-9.180998187
255.37050,-5.518665294
255.37100,-1.856332402
255.37150,0.280028452
255.37200,0.5852228597
255.37250,-0.9407491788
255.37300,-2.16152681
255.37350,-0.9407491788
255.37400,2.416389306
255.37450,6.689111014
255.37500,11.87741594
255.37550,17.67610969
255.37600,22.25402581
255.37650,23.47480344
255.37700,22.55922021
255.37750,22.25402581
255.37800,23.16960903
255.37850,23.47480344
255.37900,20.42285936
255.37950,13.40338798
255.38000,3.637166937
255.38050,-5.823859702
255.38100,-11.92774786
255.38150,-12.53813667
255.38200,-8.570609371
255.38250,-4.603082071
255.38300,-2.771915625
255.38350,-3.077110033
255.38400,-3.992693256
255.38450,-5.213470887
255.38500,-7.34983174
255.38550,-8.875803779
255.38600,-9.486192594
255.38650,-9.486192594
255.38700,-10.40177582
255.38750,-11.62255345
255.38800,-12.53813667
255.38850,-12.84333108
255.38900,-12.53813667
255.38950,-11.62255345
255.39000,-9.486192594
255.39050,-6.434248517
255.39100,-4.908276479
255.39150,-5.518665294
255.39200,-6.739442925
255.39250,-7.34983174
255.39300,-6.12905411
255.39350,-3.687498848
255.39400,-0.3303603634
255.39450,2.111194898
255.39500,3.637166937
255.39550,3.637166937
255.39600,4.247555752
255.39650,5.773527791
255.39700,6.994305421
255.39750,6.078722198
255.39800,3.942361344
255.39850,4.247555752
255.39900,6.689111014
255.39950,8.52027746
255.40000,8.215083052
255.40050,6.383916606
255.40100,4.247555752
255.40150,2.111194898
255.40200,-0.02516595566
255.40250,-1.551137994
255.40300,-1.856332402
255.40350,-1.551137994
255.40400,-2.16152681
255.40450,-2.466721217
255.40500,-0.9407491788
255.40550,0.280028452
255.40600,-0.6355547711
255.40650,-4.603082071
255.40700,-7.960220556
255.40750,-8.570609371
255.40800,-7.34983174
255.40850,-6.434248517
255.40900,-6.434248517
255.40950,-5.213470887
255.41000,-3.38230444
255.41050,-3.077110033
255.41100,-3.992693256
255.41150,-4.297887663
255.41200,-2.16152681
255.41250,0.5852228597
255.41300,2.416389306
255.41350,3.026778121
255.41400,3.637166937
255.41450,5.468333383
255.41500,7.299499829
255.41550,8.825471868
255.41600,10.0462495
255.41650,10.96183272
255.41700,10.35144391
255.41750,9.435860683
255.41800,9.130666275
255.41850,10.96183272
255.41900,12.79299917
255.41950,13.40338798
255.42000,11.87741594
255.42050,9.435860683
255.42100,7.299499829
255.42150,5.468333383
255.42200,3.331972529
255.42250,0.8904172674
255.42300,-0.6355547711
255.42350,-1.551137994
255.42400,-3.077110033
255.42450,-6.12905411
255.42500,-10.09658141
255.42550,-12.84333108
255.42600,-13.7589143
255.42650,-14.06410871
255.42700,-14.06410871
255.42750,-11.92774786
255.42800,-7.34983174
255.42850,-3.687498848
255.42900,-3.687498848
255.42950,-5.518665294
255.43000,-4.603082071
255.43050,-1.551137994
255.43100,-0.02516595566
255.43150,-1.245943586
255.43200,-2.466721217
255.43250,-2.16152681
255.43300,-1.551137994
255.43350,-1.551137994
255.43400,-0.3303603634
255.43450,2.111194898
255.43500,3.637166937
255.43550,2.721583714
255.43600,0.5852228597
255.43650,1.195611675
255.43700,3.942361344
255.43750,7.299499829
255.43800,10.35144391
255.43850,11.87741594
255.43900,10.35144391
255.43950,6.078722198
255.44000,1.500806083
255.44050,-0.9407491788
255.44100,-1.856332402
255.44150,-1.856332402
255.44200,-0.02516595566
255.44250,2.721583714
255.44300,6.078722198
255.44350,6.994305421
255.44400,6.383916606
255.44450,5.468333383
255.44500,6.078722198
255.44550,8.215083052
255.44600,10.35144391
255.44650,10.35144391
255.44700,6.383916606
255.44750,0.5852228597
255.44800,-3.992693256
255.44850,-7.34983174
255.44900,-10.40177582
255.44950,-11.62255345
255.45000,-10.40177582
255.45050,-7.655026148
255.45100,-6.739442925
255.45150,-6.434248517
255.45200,-3.992693256
255.45250,0.5852228597
255.45300,3.026778121
255.45350,0.8904172674
255.45400,-2.16152681
255.45450,-2.466721217
255.45500,0.280028452
255.45550,3.331972529
255.45600,4.857944568
255.45650,5.163138975
255.45700,4.247555752
255.45750,3.637166937
255.45800,3.331972529
255.45850,3.331972529
255.45900,3.026778121
255.45950,3.331972529
255.46000,4.857944568
255.46050,6.994305421
255.46100,7.299499829
255.46150,5.163138975
255.46200,2.416389306
255.46250,-0.02516595566
255.46300,-3.687498848
255.46350,-7.960220556
255.46400,-9.180998187
255.46450,-7.655026148
255.46500,-6.12905411
255.46550,-7.044637333
255.46600,-8.875803779
255.46650,-8.265414964
255.46700,-6.739442925
255.46750,-7.044637333
255.46800,-9.180998187
255.46850,-10.40177582
255.46900,-8.570609371
255.46950,-4.603082071
255.47000,-1.245943586
255.47050,0.5852228597
255.47100,1.806000491
255.47150,2.416389306
255.47200,3.026778121
255.47250,3.331972529
255.47300,3.637166937
255.47350,4.55275016
255.47400,5.773527791
255.47450,7.299499829
255.47500,9.435860683
255.47550,11.87741594
255.47600,14.31897121
255.47650,16.15013765
255.47700,16.15013765
255.47750,16.15013765
255.47800,16.76052647
255.47850,16.15013765
255.47900,12.79299917
255.47950,7.909888645
255.48000,6.383916606
255.48050,8.825471868
255.48100,11.57222154
255.48150,9.435860683
255.48200,3.942361344
255.48250,-0.3303603634
255.48300,-2.466721217
255.48350,-3.992693256
255.48400,-7.044637333
255.48450,-8.570609371
255.48500,-7.655026148
255.48550,-7.044637333
255.48600,-9.180998187
255.48650,-13.14852549
255.48700,-15.59008075
255.48750,-15.89527516
255.48800,-15.28488634
255.48850,-14.97969193
255.48900,-14.36930312
255.48950,-12.53813667
255.49000,-10.40177582
255.49050,-8.265414964
255.49100,-5.823859702
255.49150,-3.077110033
255.49200,-0.6355547711
255.49250,0.8904172674
255.49300,2.111194898
255.49350,2.416389306
255.49400,1.195611675
255.49450,-0.02516595566
255.49500,-0.02516595566
255.49550,2.111194898
255.49600,3.331972529
255.49650,2.721583714
255.49700,2.416389306
255.49750,3.942361344
255.49800,6.383916606
255.49850,8.215083052
255.49900,8.825471868
255.49950,8.215083052
255.50000,6.994305421
255.50050,4.857944568
255.50100,2.416389306
255.50150,0.8904172674
255.50200,-0.02516595566
255.50250,-1.245943586
255.50300,-3.992693256
255.50350,-5.823859702
255.50400,-5.518665294
255.50450,-5.518665294
255.50500,-6.434248517
255.50550,-7.34983174
255.50600,-7.34983174
255.50650,-6.434248517
255.50700,-6.12905411
255.50750,-7.044637333
255.50800,-7.960220556
255.50850,-8.265414964
255.50900,-8.875803779
255.50950,-9.486192594
255.51000,-10.70697023
255.51050,-10.70697023
255.51100,-9.180998187
255.51150,-5.823859702
255.51200,-1.856332402
255.51250,0.5852228597
255.51300,1.806000491
255.51350,2.416389306
255.51400,3.637166937
255.51450,5.468333383
255.51500,6.078722198
255.51550,6.689111014
255.51600,7.909888645
255.51650,9.435860683
255.51700,9.741055091
255.51750,8.825471868
255.51800,8.215083052
255.51850,8.52027746
255.51900,8.52027746
255.51950,8.215083052
255.52000,9.741055091
255.52050,11.87741594
255.52100,11.87741594
255.52150,6.994305421
255.52200,1.195611675
255.52250,-0.02516595566
255.52300,2.721583714
255.52350,3.942361344
255.52400,0.5852228597
255.52450,-3.992693256
255.52500,-6.739442925
255.52550,-7.044637333
255.52600,-8.265414964
255.52650,-10.40177582
255.52700,-11.31735904
255.52750,-10.70697023
255.52800,-9.791387002
255.52850,-10.09658141
255.52900,-11.01216463
255.52950,-11.31735904
255.53000,-10.70697023
255.53050,-9.791387002
255.53100,-8.570609371
255.53150,-7.044637333
255.53200,-6.12905411
255.53250,-5.518665294
255.53300,-3.992693256
255.53350,-0.9407491788
255.53400,2.111194898
255.53450,3.942361344
255.53500,4.247555752
255.53550,3.026778121
255.53600,1.500806083
255.53650,1.195611675
255.53700,3.637166937
255.53750,7.604694237
255.53800,10.0462495
255.53850,8.215083052
255.53900,5.163138975
255.53950,5.163138975
255.54000,7.299499829
255.54050,6.689111014
255.54100,2.721583714
255.54150,-0.3303603634
255.54200,-0.3303603634
255.54250,1.195611675
255.54300,0.8904172674
255.54350,-0.02516595566
255.54400,0.280028452
255.54450,0.8904172674
255.54500,-1.551137994
255.54550,-6.434248517
255.54600,-10.09658141
255.54650,-11.01216463
255.54700,-11.31735904
255.54750,-12.53813667
255.54800,-13.14852549
255.54850,-11.62255345
255.54900,-9.791387002
255.54950,-8.570609371
255.55000,-7.960220556
255.55050,-7.34983174
255.55100,-5.213470887
255.55150,-1.856332402
255.55200,1.806000491
255.55250,4.55275016
255.55300,4.857944568
255.55350,4.55275016
255.55400,5.468333383
255.55450,6.078722198
255.55500,3.637166937
255.55550,-0.3303603634
255.55600,-2.466721217
255.55650,0.280028452
255.55700,5.773527791
255.55750,10.0462495
255.55800,11.26702713
255.55850,10.35144391
255.55900,7.604694237
255.55950,4.857944568
255.56000,5.163138975
255.56050,9.741055091
255.56100,15.84494324
255.56150,19.20208173
255.56200,17.9813041
255.56250,14.92936002
255.56300,12.79299917
255.56350,11.87741594
255.56400,10.65663831
255.56450,8.215083052
255.56500,5.163138975
255.56550,2.721583714
255.56600,2.416389306
255.56650,3.026778121
255.56700,2.721583714
255.56750,0.5852228597
255.56800,-1.245943586
255.56850,-1.856332402
255.56900,-1.856332402
255.56950,-2.16152681
255.57000,-2.16152681
255.57050,-0.3303603634
255.57100,2.721583714
255.57150,3.942361344
255.57200,2.416389306
255.57250,-0.02516595566
255.57300,-1.856332402
255.57350,-2.466721217
255.57400,-2.16152681
255.57450,-1.551137994
255.57500,-1.551137994
255.57550,-2.16152681
255.57600,-2.466721217
255.57650,-0.3303603634
255.57700,3.637166937
255.57750,6.689111014
255.57800,5.468333383
255.57850,2.416389306
255.57900,1.806000491
255.57950,3.942361344
255.58000,5.468333383
255.58050,3.942361344
255.58100,1.195611675
255.58150,-0.02516595566
255.58200,0.280028452
255.58250,-0.02516595566
255.58300,-2.16152681
255.58350,-4.908276479
255.58400,-6.12905411
255.58450,-6.12905411
255.58500,-5.518665294
255.58550,-5.823859702
255.58600,-7.34983174
255.58650,-8.570609371
255.58700,-8.570609371
255.58750,-8.570609371
255.58800,-9.791387002
255.58850,-11.01216463
255.58900,-10.70697023
255.58950,-8.875803779
255.59000,-7.34983174
255.59050,-7.044637333
255.59100,-6.434248517
255.59150,-4.908276479
255.59200,-3.992693256
255.59250,-4.908276479
255.59300,-5.518665294
255.59350,-3.687498848
255.59400,1.195611675
255.59450,6.078722198
255.59500,7.604694237
255.59550,5.773527791
255.59600,3.942361344
255.59650,3.637166937
255.59700,3.942361344
255.59750,4.247555752
255.59800,4.55275016
255.59850,5.773527791
255.59900,7.299499829
255.59950,8.215083052
255.60000,7.909888645
255.60050,6.078722198
255.60100,3.637166937
255.60150,1.500806083
255.60200,0.8904172674
255.60250,0.5852228597
255.60300,-0.9407491788
255.60350,-3.992693256
255.60400,-6.739442925
255.60450,-7.044637333
255.60500,-6.434248517
255.60550,-7.044637333
255.60600,-7.960220556
255.60650,-7.34983174
255.60700,-5.518665294
255.60750,-3.687498848
255.60800,-2.466721217
255.60850,-1.856332402
255.60900,-2.466721217
255.60950,-4.603082071
255.61000,-6.739442925
255.61050,-6.739442925
255.61100,-4.603082071
255.61150,-3.38230444
255.61200,-3.992693256
255.61250,-4.908276479
255.61300,-3.992693256
255.61350,-1.856332402
255.61400,-0.02516595566
255.61450,1.806000491
255.61500,3.331972529
255.61550,4.247555752
255.61600,4.857944568
255.61650,6.078722198
255.61700,7.909888645
