"type","name","time_units","begin_time","frequency","count","units"
"signal","Ultium EMG-EXT.DIG. RT","s",263.98000,2000,22000,"uV"

"time","value"
263.98000,-14.63087654
263.98050,-10.96854364
263.98100,-4.254266674
263.98150,-0.897128189
263.98200,-3.033489043
263.98250,-9.442571605
263.98300,-13.4100989
263.98350,-8.832182789
263.98400,1.84962148
263.98450,7.648315227
263.98500,4.291176742
263.98550,0.01845503415
263.98600,2.460010296
263.98650,9.784676081
263.98700,13.75220338
263.98750,14.97298101
263.98800,18.3301195
263.98850,22.90803561
263.98900,21.99245239
263.98950,13.75220338
263.99000,3.375593519
263.99050,-5.169849897
263.99100,-13.1049045
263.99150,-21.3451535
263.99200,-29.89059692
263.99250,-39.96201237
263.99300,-49.72823342
263.99350,-53.39056631
263.99400,-48.50745579
263.99450,-41.18279001
263.99500,-35.38409626
263.99550,-27.75423607
263.99600,-14.02048772
263.99650,-2.11790582
263.99700,-2.11790582
263.99750,-10.35815483
263.99800,-12.79971009
263.99850,-3.338683451
263.99900,9.784676081
263.99950,16.49895305
264.00000,16.49895305
264.00050,14.3625922
264.00100,13.44700897
264.00150,14.97298101
264.00200,18.94050831
264.00250,21.68725798
264.00300,18.94050831
264.00350,13.44700897
264.00400,10.3950649
264.00450,9.174287265
264.00500,4.291176742
264.00550,-5.475044304
264.00600,-16.15684857
264.00650,-23.48151436
264.00700,-27.44904166
264.00750,-27.14384725
264.00800,-19.51398706
264.00850,-5.780238712
264.00900,6.122343188
264.00950,8.56389845
264.01000,-0.897128189
264.01050,-18.29320943
264.01100,-28.36462488
264.01150,-13.4100989
264.01200,26.2651741
264.01250,64.71966947
264.01300,72.04433525
264.01350,46.71319941
264.01400,14.97298101
264.01450,-0.5919337813
264.01500,-1.812711412
264.01550,-0.897128189
264.01600,-2.423100227
264.01650,-3.949072266
264.01700,-3.338683451
264.01750,-1.202322597
264.01800,0.01845503415
264.01850,-2.423100227
264.01900,-9.442571605
264.01950,-15.85165417
264.02000,-14.32568213
264.02050,-6.390627528
264.02100,-0.5919337813
264.02150,-0.897128189
264.02200,-1.507517004
264.02250,2.460010296
264.02300,6.732732004
264.02350,2.765204703
264.02400,-8.221793974
264.02450,-18.29320943
264.02500,-22.87112554
264.02550,-28.9750137
264.02600,-37.21526271
264.02650,-34.77370744
264.02700,-6.695821935
264.02750,38.167756
264.02800,67.77161354
264.02850,60.14175335
264.02900,28.09634054
264.02950,2.154815888
264.03000,-6.390627528
264.03050,-10.66334924
264.03100,-17.0724318
264.03150,-15.24126535
264.03200,0.01845503415
264.03250,15.88856423
264.03300,16.49895305
264.03350,5.206759965
264.03400,-4.864655489
264.03450,-11.88412687
264.03500,-20.12437587
264.03550,-24.09190317
264.03600,-17.0724318
264.03650,-5.780238712
264.03700,-2.423100227
264.03750,-1.812711412
264.03800,12.22623134
264.03850,36.64178396
264.03900,44.88203297
264.03950,24.43400765
264.04000,-1.507517004
264.04050,-6.08543312
264.04100,5.206759965
264.04150,7.037926411
264.04200,-7.916599566
264.04250,-23.48151436
264.04300,-25.61787521
264.04350,-20.12437587
264.04400,-12.49451568
264.04450,-0.897128189
264.04500,13.75220338
264.04550,21.99245239
264.04600,18.94050831
264.04650,14.6677866
264.04700,17.10934187
264.04750,19.85609153
264.04800,11.61584253
264.04850,-2.728294635
264.04900,-10.96854364
264.04950,-10.05296042
264.05000,-7.001016343
264.05050,-6.390627528
264.05100,-3.949072266
264.05150,1.544427073
264.05200,4.59637115
264.05250,2.154815888
264.05300,-1.202322597
264.05350,-1.202322597
264.05400,-0.2867393736
264.05450,-3.033489043
264.05500,-8.526988381
264.05550,-10.05296042
264.05600,-3.643877858
264.05650,6.732732004
264.05700,12.83662016
264.05750,10.7002593
264.05800,4.901565557
264.05850,3.985982334
264.05900,8.258704042
264.05950,11.92103693
264.06000,11.61584253
264.06050,11.31064812
264.06100,15.27817542
264.06150,20.46648035
264.06200,20.16128594
264.06250,14.05739779
264.06300,7.648315227
264.06350,3.680787927
264.06400,-3.643877858
264.06450,-18.90359824
264.06500,-37.82565152
264.06550,-47.59187257
264.06600,-42.09837323
264.06650,-27.75423607
264.06700,-16.46204298
264.06750,-12.49451568
264.06800,-10.66334924
264.06850,-6.695821935
264.06900,-3.949072266
264.06950,-5.475044304
264.07000,-8.526988381
264.07050,-5.780238712
264.07100,4.901565557
264.07150,17.10934187
264.07200,22.6028412
264.07250,19.55089713
264.07300,12.22623134
264.07350,6.732732004
264.07400,5.81714878
264.07450,7.343120819
264.07500,7.037926411
264.07550,3.070399111
264.07600,-2.423100227
264.07650,-6.695821935
264.07700,-8.221793974
264.07750,-7.306210751
264.07800,-7.001016343
264.07850,-10.66334924
264.07900,-16.76723739
264.07950,-19.20879265
264.08000,-14.02048772
264.08050,-6.08543312
264.08100,-4.559461081
264.08150,-7.916599566
264.08200,-5.169849897
264.08250,7.648315227
264.08300,21.07686917
264.08350,21.38206357
264.08400,11.61584253
264.08450,3.985982334
264.08500,3.985982334
264.08550,6.122343188
264.08600,4.291176742
264.08650,0.9340382573
264.08700,1.239232665
264.08750,5.206759965
264.08800,7.953509634
264.08850,6.122343188
264.08900,1.239232665
264.08950,-0.897128189
264.09000,0.6288438496
264.09050,3.070399111
264.09100,1.239232665
264.09150,-3.338683451
264.09200,-5.780238712
264.09250,-3.033489043
264.09300,0.6288438496
264.09350,-1.202322597
264.09400,-11.57893246
264.09450,-26.83865284
264.09500,-38.74123474
264.09550,-40.26720678
264.09600,-30.19579133
264.09650,-14.02048772
264.09700,2.154815888
264.09750,18.3301195
264.09800,35.42100633
264.09850,48.23917145
264.09900,47.93397704
264.09950,34.2002287
264.10000,19.55089713
264.10050,15.27817542
264.10100,19.24570272
264.10150,19.55089713
264.10200,8.56389845
264.10250,-9.442571605
264.10300,-27.14384725
264.10350,-38.43604034
264.10400,-41.79317882
264.10450,-38.43604034
264.10500,-33.55292981
264.10550,-31.11137455
264.10600,-29.58540251
264.10650,-20.73476469
264.10700,-1.812711412
264.10750,19.24570272
264.10800,31.14828462
264.10850,29.01192377
264.10900,15.88856423
264.10950,-1.812711412
264.11000,-17.3776262
264.11050,-21.95554232
264.11100,-15.85165417
264.11150,-11.57893246
264.11200,-15.85165417
264.11250,-15.85165417
264.11300,4.291176742
264.11350,33.58983988
264.11400,44.57683856
264.11450,32.67425666
264.11500,22.6028412
264.11550,27.18075732
264.11600,29.31711817
264.11650,14.6677866
264.11700,-2.11790582
264.11750,-1.507517004
264.11800,11.61584253
264.11850,17.10934187
264.11900,12.83662016
264.11950,11.61584253
264.12000,14.97298101
264.12050,12.53142575
264.12100,2.765204703
264.12150,-5.475044304
264.12200,-10.05296042
264.12250,-17.3776262
264.12300,-28.05943047
264.12350,-33.55292981
264.12400,-27.14384725
264.12450,-11.57893246
264.12500,7.037926411
264.12550,22.6028412
264.12600,24.73920206
264.12650,11.00545371
264.12700,-7.306210751
264.12750,-15.54645976
264.12800,-10.96854364
264.12850,-3.338683451
264.12900,0.6288438496
264.12950,3.375593519
264.13000,3.680787927
264.13050,-1.812711412
264.13100,-10.35815483
264.13150,-11.88412687
264.13200,-2.423100227
264.13250,8.258704042
264.13300,12.83662016
264.13350,11.92103693
264.13400,12.83662016
264.13450,16.49895305
264.13500,19.24570272
264.13550,19.55089713
264.13600,18.94050831
264.13650,16.80414746
264.13700,13.44700897
264.13750,11.92103693
264.13800,14.3625922
264.13850,15.88856423
264.13900,8.869092857
264.13950,-6.390627528
264.14000,-19.81918147
264.14050,-23.78670877
264.14100,-21.3451535
264.14150,-18.90359824
264.14200,-17.0724318
264.14250,-13.71529331
264.14300,-10.66334924
264.14350,-10.96854364
264.14400,-13.4100989
264.14450,-12.49451568
264.14500,-7.916599566
264.14550,-6.08543312
264.14600,-9.137377197
264.14650,-12.18932127
264.14700,-11.57893246
264.14750,-8.832182789
264.14800,-7.916599566
264.14850,-9.137377197
264.14900,-11.27373805
264.14950,-13.71529331
264.15000,-14.93607094
264.15050,-13.4100989
264.15100,-9.442571605
264.15150,-6.390627528
264.15200,-5.475044304
264.15250,-5.169849897
264.15300,-3.949072266
264.15350,-2.11790582
264.15400,-0.2867393736
264.15450,1.544427073
264.15500,4.901565557
264.15550,8.56389845
264.15600,10.3950649
264.15650,9.479481673
264.15700,5.206759965
264.15750,0.01845503415
264.15800,-0.5919337813
264.15850,4.901565557
264.15900,12.53142575
264.15950,13.44700897
264.16000,7.953509634
264.16050,4.291176742
264.16100,7.343120819
264.16150,11.31064812
264.16200,7.037926411
264.16250,-2.728294635
264.16300,-9.747766012
264.16350,-9.442571605
264.16400,-5.169849897
264.16450,-0.5919337813
264.16500,1.84962148
264.16550,1.84962148
264.16600,0.3236494419
264.16650,3.070399111
264.16700,8.258704042
264.16750,3.070399111
264.16800,-19.20879265
264.16850,-41.18279001
264.16900,-38.43604034
264.16950,-18.59840384
264.17000,-14.63087654
264.17050,-31.72176337
264.17100,-34.16331863
264.17150,3.375593519
264.17200,51.29111553
264.17250,59.53136454
264.17300,25.95997969
264.17350,-6.390627528
264.17400,-11.88412687
264.17450,-6.695821935
264.17500,-11.57893246
264.17550,-17.68282061
264.17600,-4.864655489
264.17650,23.82361883
264.17700,48.23917145
264.17750,53.42747638
264.17800,43.66125534
264.17850,30.84309021
264.17900,21.68725798
264.17950,17.41453627
264.18000,16.19375864
264.18050,15.27817542
264.18100,14.05739779
264.18150,11.92103693
264.18200,6.427537596
264.18250,-2.11790582
264.18300,-7.916599566
264.18350,-5.475044304
264.18400,0.01845503415
264.18450,-0.5919337813
264.18500,-9.137377197
264.18550,-14.32568213
264.18600,-11.57893246
264.18650,-7.916599566
264.18700,-10.66334924
264.18750,-15.54645976
264.18800,-16.76723739
264.18850,-15.85165417
264.18900,-19.20879265
264.18950,-25.61787521
264.19000,-30.50098574
264.19050,-31.41656896
264.19100,-25.31268081
264.19150,-5.780238712
264.19200,25.95997969
264.19250,53.12228197
264.19300,56.17422605
264.19350,38.77814481
264.19400,23.51842443
264.19450,19.85609153
264.19500,14.6677866
264.19550,0.01845503415
264.19600,-10.35815483
264.19650,-3.338683451
264.19700,8.869092857
264.19750,7.648315227
264.19800,-4.254266674
264.19850,-9.137377197
264.19900,-3.033489043
264.19950,0.9340382573
264.20000,-2.11790582
264.20050,-3.338683451
264.20100,1.544427073
264.20150,3.375593519
264.20200,-3.338683451
264.20250,-13.4100989
264.20300,-20.42957028
264.20350,-26.53345844
264.20400,-27.44904166
264.20450,-13.71529331
264.20500,9.479481673
264.20550,21.68725798
264.20600,12.83662016
264.20650,0.01845503415
264.20700,2.460010296
264.20750,15.88856423
264.20800,23.82361883
264.20850,21.38206357
264.20900,16.19375864
264.20950,9.479481673
264.21000,-1.812711412
264.21050,-15.85165417
264.21100,-27.44904166
264.21150,-36.29967948
264.21200,-43.92953967
264.21250,-46.06590053
264.21300,-36.29967948
264.21350,-20.12437587
264.21400,-9.442571605
264.21450,-8.221793974
264.21500,-9.747766012
264.21550,-8.221793974
264.21600,-4.864655489
264.21650,-3.033489043
264.21700,-1.812711412
264.21750,0.01845503415
264.21800,0.3236494419
264.21850,-0.5919337813
264.21900,-2.423100227
264.21950,-2.11790582
264.22000,0.01845503415
264.22050,1.544427073
264.22100,2.154815888
264.22150,3.375593519
264.22200,7.953509634
264.22250,14.97298101
264.22300,16.80414746
264.22350,8.869092857
264.22400,-3.338683451
264.22450,-8.221793974
264.22500,-2.728294635
264.22550,3.070399111
264.22600,3.070399111
264.22650,-0.2867393736
264.22700,0.3236494419
264.22750,5.206759965
264.22800,9.479481673
264.22850,9.479481673
264.22900,7.037926411
264.22950,4.59637115
264.23000,3.985982334
264.23050,5.206759965
264.23100,7.037926411
264.23150,7.343120819
264.23200,7.648315227
264.23250,9.174287265
264.23300,10.08987049
264.23350,7.648315227
264.23400,3.070399111
264.23450,1.239232665
264.23500,1.84962148
264.23550,-1.202322597
264.23600,-9.747766012
264.23650,-14.93607094
264.23700,-10.35815483
264.23750,-0.2867393736
264.23800,6.427537596
264.23850,9.174287265
264.23900,10.08987049
264.23950,8.56389845
264.24000,3.985982334
264.24050,-0.5919337813
264.24100,-0.897128189
264.24150,2.154815888
264.24200,2.765204703
264.24250,0.01845503415
264.24300,-3.033489043
264.24350,-3.643877858
264.24400,-4.559461081
264.24450,-4.864655489
264.24500,-1.812711412
264.24550,3.985982334
264.24600,7.648315227
264.24650,5.206759965
264.24700,1.544427073
264.24750,1.239232665
264.24800,3.680787927
264.24850,4.59637115
264.24900,3.680787927
264.24950,3.375593519
264.25000,4.291176742
264.25050,3.070399111
264.25100,-1.507517004
264.25150,-5.475044304
264.25200,-5.169849897
264.25250,-1.812711412
264.25300,-1.507517004
264.25350,-5.475044304
264.25400,-8.832182789
264.25450,-7.001016343
264.25500,-2.423100227
264.25550,0.3236494419
264.25600,0.9340382573
264.25650,-0.2867393736
264.25700,-4.254266674
264.25750,-10.05296042
264.25800,-14.93607094
264.25850,-16.15684857
264.25900,-14.32568213
264.25950,-11.88412687
264.26000,-8.832182789
264.26050,-4.254266674
264.26100,0.01845503415
264.26150,2.460010296
264.26200,3.070399111
264.26250,0.9340382573
264.26300,-3.338683451
264.26350,-7.001016343
264.26400,-6.390627528
264.26450,-3.949072266
264.26500,-4.864655489
264.26550,-8.221793974
264.26600,-7.001016343
264.26650,0.9340382573
264.26700,9.784676081
264.26750,13.14181457
264.26800,11.92103693
264.26850,9.174287265
264.26900,5.206759965
264.26950,1.544427073
264.27000,3.985982334
264.27050,12.22623134
264.27100,17.71973068
264.27150,13.44700897
264.27200,4.901565557
264.27250,-0.897128189
264.27300,-4.254266674
264.27350,-4.254266674
264.27400,5.511954373
264.27450,26.87556291
264.27500,44.27164415
264.27550,40.30411685
264.27600,17.71973068
264.27650,-3.338683451
264.27700,-12.79971009
264.27750,-15.24126535
264.27800,-17.3776262
264.27850,-17.68282061
264.27900,-13.71529331
264.27950,-8.832182789
264.28000,-6.08543312
264.28050,-5.780238712
264.28100,-6.390627528
264.28150,-7.306210751
264.28200,-5.475044304
264.28250,0.6288438496
264.28300,7.343120819
264.28350,6.122343188
264.28400,-2.423100227
264.28450,-8.832182789
264.28500,-9.137377197
264.28550,-7.306210751
264.28600,-7.306210751
264.28650,-5.475044304
264.28700,-1.507517004
264.28750,0.01845503415
264.28800,-2.11790582
264.28850,-0.5919337813
264.28900,8.869092857
264.28950,18.3301195
264.29000,18.3301195
264.29050,12.22623134
264.29100,8.869092857
264.29150,10.3950649
264.29200,10.7002593
264.29250,7.648315227
264.29300,3.985982334
264.29350,1.84962148
264.29400,0.01845503415
264.29450,-0.897128189
264.29500,1.84962148
264.29550,7.343120819
264.29600,10.08987049
264.29650,7.953509634
264.29700,0.9340382573
264.29750,-7.916599566
264.29800,-14.63087654
264.29850,-14.93607094
264.29900,-10.05296042
264.29950,-6.08543312
264.30000,-7.306210751
264.30050,-8.221793974
264.30100,-3.949072266
264.30150,2.154815888
264.30200,4.291176742
264.30250,0.01845503415
264.30300,-7.306210751
264.30350,-15.24126535
264.30400,-20.42957028
264.30450,-19.20879265
264.30500,-11.27373805
264.30550,-4.254266674
264.30600,-1.507517004
264.30650,0.9340382573
264.30700,8.56389845
264.30750,16.19375864
264.30800,15.88856423
264.30850,8.869092857
264.30900,4.291176742
264.30950,4.901565557
264.31000,5.81714878
264.31050,3.985982334
264.31100,1.84962148
264.31150,2.154815888
264.31200,3.680787927
264.31250,4.59637115
264.31300,4.291176742
264.31350,2.460010296
264.31400,-0.2867393736
264.31450,-3.033489043
264.31500,-3.949072266
264.31550,-3.643877858
264.31600,-4.864655489
264.31650,-7.916599566
264.31700,-10.05296042
264.31750,-9.442571605
264.31800,-5.780238712
264.31850,-2.11790582
264.31900,-0.2867393736
264.31950,0.6288438496
264.32000,0.01845503415
264.32050,-6.08543312
264.32100,-18.29320943
264.32150,-27.44904166
264.32200,-25.0074864
264.32250,-17.68282061
264.32300,-18.59840384
264.32350,-23.78670877
264.32400,-14.32568213
264.32450,12.83662016
264.32500,35.42100633
264.32550,34.5054231
264.32600,20.46648035
264.32650,12.53142575
264.32700,10.3950649
264.32750,5.206759965
264.32800,2.765204703
264.32850,15.58336983
264.32900,33.28464547
264.32950,32.36906225
264.33000,12.53142575
264.33050,-1.507517004
264.33100,0.6288438496
264.33150,4.901565557
264.33200,-2.11790582
264.33250,-10.66334924
264.33300,-9.137377197
264.33350,-5.475044304
264.33400,-9.137377197
264.33450,-11.57893246
264.33500,0.6288438496
264.33550,20.77167476
264.33600,29.01192377
264.33650,20.16128594
264.33700,8.869092857
264.33750,4.901565557
264.33800,4.59637115
264.33850,1.239232665
264.33900,-3.949072266
264.33950,-6.390627528
264.34000,-6.390627528
264.34050,-7.916599566
264.34100,-12.18932127
264.34150,-17.3776262
264.34200,-19.81918147
264.34250,-17.0724318
264.34300,-12.18932127
264.34350,-10.05296042
264.34400,-10.66334924
264.34450,-6.390627528
264.34500,5.206759965
264.34550,16.49895305
264.34600,18.6353139
264.34650,13.75220338
264.34700,11.61584253
264.34750,12.53142575
264.34800,10.08987049
264.34850,3.375593519
264.34900,-2.11790582
264.34950,-5.169849897
264.35000,-9.747766012
264.35050,-17.0724318
264.35100,-20.73476469
264.35150,-19.20879265
264.35200,-17.98801502
264.35250,-21.3451535
264.35300,-22.56593114
264.35350,-13.1049045
264.35400,6.122343188
264.35450,24.73920206
264.35500,31.14828462
264.35550,23.82361883
264.35600,13.14181457
264.35650,12.22623134
264.35700,24.73920206
264.35750,38.4729504
264.35800,38.167756
264.35850,22.2976468
264.35900,1.544427073
264.35950,-13.71529331
264.36000,-23.17631995
264.36050,-28.66981929
264.36100,-30.50098574
264.36150,-30.50098574
264.36200,-29.28020811
264.36250,-26.22826403
264.36300,-21.0399591
264.36350,-14.32568213
264.36400,-3.338683451
264.36450,15.88856423
264.36500,39.08333922
264.36550,48.23917145
264.36600,31.45347903
264.36650,2.765204703
264.36700,-12.79971009
264.36750,-10.05296042
264.36800,-4.864655489
264.36850,-8.832182789
264.36900,-14.63087654
264.36950,-11.27373805
264.37000,-0.2867393736
264.37050,7.648315227
264.37100,5.81714878
264.37150,-4.559461081
264.37200,-15.85165417
264.37250,-20.12437587
264.37300,-16.15684857
264.37350,-10.96854364
264.37400,-10.96854364
264.37450,-11.88412687
264.37500,-9.747766012
264.37550,-8.221793974
264.37600,-13.71529331
264.37650,-22.87112554
264.37700,-27.14384725
264.37750,-23.48151436
264.37800,-15.54645976
264.37850,-3.949072266
264.37900,11.31064812
264.37950,23.51842443
264.38000,24.12881324
264.38050,16.19375864
264.38100,11.61584253
264.38150,14.05739779
264.38200,14.97298101
264.38250,10.7002593
264.38300,6.427537596
264.38350,7.037926411
264.38400,8.869092857
264.38450,7.648315227
264.38500,6.732732004
264.38550,8.869092857
264.38600,11.61584253
264.38650,10.3950649
264.38700,7.037926411
264.38750,4.901565557
264.38800,4.59637115
264.38850,3.985982334
264.38900,2.460010296
264.38950,0.9340382573
264.39000,0.3236494419
264.39050,0.6288438496
264.39100,1.239232665
264.39150,1.239232665
264.39200,0.6288438496
264.39250,0.6288438496
264.39300,2.154815888
264.39350,3.070399111
264.39400,1.84962148
264.39450,0.6288438496
264.39500,1.544427073
264.39550,4.291176742
264.39600,4.291176742
264.39650,1.239232665
264.39700,0.01845503415
264.39750,1.239232665
264.39800,0.01845503415
264.39850,-7.611405158
264.39900,-17.68282061
264.39950,-21.95554232
264.40000,-18.59840384
264.40050,-12.79971009
264.40100,-7.916599566
264.40150,-3.643877858
264.40200,0.3236494419
264.40250,3.375593519
264.40300,3.680787927
264.40350,2.765204703
264.40400,3.070399111
264.40450,3.375593519
264.40500,-1.202322597
264.40550,-16.15684857
264.40600,-37.52045711
264.40650,-52.16978868
264.40700,-47.89706697
264.40750,-27.14384725
264.40800,-7.611405158
264.40850,-0.897128189
264.40900,3.375593519
264.40950,22.6028412
264.41000,51.90150434
264.41050,67.16122473
264.41100,55.56383724
264.41150,31.14828462
264.41200,15.88856423
264.41250,11.31064812
264.41300,4.59637115
264.41350,-8.832182789
264.41400,-18.59840384
264.41450,-17.3776262
264.41500,-9.747766012
264.41550,-4.254266674
264.41600,-1.812711412
264.41650,0.6288438496
264.41700,3.680787927
264.41750,4.901565557
264.41800,3.680787927
264.41850,1.544427073
264.41900,0.01845503415
264.41950,-1.202322597
264.42000,-1.202322597
264.42050,-0.5919337813
264.42100,0.01845503415
264.42150,0.6288438496
264.42200,0.9340382573
264.42250,1.544427073
264.42300,1.84962148
264.42350,1.239232665
264.42400,-0.2867393736
264.42450,-1.507517004
264.42500,-0.5919337813
264.42550,1.544427073
264.42600,3.985982334
264.42650,4.901565557
264.42700,3.375593519
264.42750,1.239232665
264.42800,0.01845503415
264.42850,-0.2867393736
264.42900,-0.2867393736
264.42950,-0.897128189
264.43000,-1.812711412
264.43050,-2.423100227
264.43100,-2.11790582
264.43150,-1.507517004
264.43200,-1.202322597
264.43250,-1.202322597
264.43300,-0.2867393736
264.43350,1.239232665
264.43400,3.375593519
264.43450,4.59637115
264.43500,4.901565557
264.43550,4.59637115
264.43600,4.291176742
264.43650,3.985982334
264.43700,3.680787927
264.43750,3.375593519
264.43800,4.59637115
264.43850,6.732732004
264.43900,6.427537596
264.43950,2.765204703
264.44000,-0.897128189
264.44050,-2.11790582
264.44100,-3.643877858
264.44150,-11.27373805
264.44200,-24.09190317
264.44250,-31.41656896
264.44300,-26.83865284
264.44350,-16.46204298
264.44400,-11.27373805
264.44450,-11.57893246
264.44500,-10.66334924
264.44550,-4.559461081
264.44600,3.375593519
264.44650,12.53142575
264.44700,24.73920206
264.44750,37.55736718
264.44800,41.83008889
264.44850,33.28464547
264.44900,18.3301195
264.44950,5.81714878
264.45000,-2.11790582
264.45050,-11.27373805
264.45100,-24.09190317
264.45150,-37.52045711
264.45200,-45.45551171
264.45250,-41.79317882
264.45300,-23.48151436
264.45350,5.511954373
264.45400,33.28464547
264.45450,46.408005
264.45500,41.83008889
264.45550,27.79114613
264.45600,15.88856423
264.45650,9.784676081
264.45700,7.343120819
264.45750,5.511954373
264.45800,4.291176742
264.45850,3.070399111
264.45900,1.544427073
264.45950,0.01845503415
264.46000,-0.2867393736
264.46050,-0.2867393736
264.46100,-1.507517004
264.46150,-3.338683451
264.46200,-3.338683451
264.46250,-2.423100227
264.46300,-4.559461081
264.46350,-9.137377197
264.46400,-9.747766012
264.46450,-3.033489043
264.46500,4.291176742
264.46550,4.901565557
264.46600,0.3236494419
264.46650,-2.423100227
264.46700,-1.812711412
264.46750,-1.202322597
264.46800,-3.643877858
264.46850,-5.780238712
264.46900,-6.08543312
264.46950,-5.780238712
264.47000,-6.390627528
264.47050,-6.695821935
264.47100,-5.169849897
264.47150,-2.11790582
264.47200,0.01845503415
264.47250,0.3236494419
264.47300,-0.5919337813
264.47350,-1.812711412
264.47400,-2.728294635
264.47450,-3.338683451
264.47500,-3.949072266
264.47550,-3.338683451
264.47600,-0.897128189
264.47650,0.9340382573
264.47700,0.6288438496
264.47750,-0.2867393736
264.47800,-0.2867393736
264.47850,-0.2867393736
264.47900,-2.728294635
264.47950,-6.08543312
264.48000,-5.780238712
264.48050,-2.728294635
264.48100,-2.423100227
264.48150,-5.475044304
264.48200,-8.221793974
264.48250,-8.526988381
264.48300,-6.695821935
264.48350,-1.812711412
264.48400,9.479481673
264.48450,22.2976468
264.48500,25.95997969
264.48550,17.41453627
264.48600,5.206759965
264.48650,-2.11790582
264.48700,-5.780238712
264.48750,-7.916599566
264.48800,-6.08543312
264.48850,0.9340382573
264.48900,5.511954373
264.48950,0.01845503415
264.49000,-9.747766012
264.49050,-10.35815483
264.49100,-0.897128189
264.49150,2.765204703
264.49200,-6.695821935
264.49250,-19.20879265
264.49300,-18.59840384
264.49350,-6.695821935
264.49400,0.01845503415
264.49450,-3.949072266
264.49500,-9.442571605
264.49550,-7.001016343
264.49600,-0.897128189
264.49650,2.154815888
264.49700,4.901565557
264.49750,11.61584253
264.49800,16.49895305
264.49850,10.3950649
264.49900,-3.338683451
264.49950,-13.71529331
264.50000,-14.63087654
264.50050,-10.66334924
264.50100,-6.695821935
264.50150,-4.254266674
264.50200,-3.033489043
264.50250,-4.559461081
264.50300,-4.559461081
264.50350,0.01845503415
264.50400,7.037926411
264.50450,9.174287265
264.50500,7.037926411
264.50550,6.122343188
264.50600,8.56389845
264.50650,9.174287265
264.50700,5.206759965
264.50750,1.239232665
264.50800,1.544427073
264.50850,3.680787927
264.50900,6.122343188
264.50950,8.56389845
264.51000,8.869092857
264.51050,6.427537596
264.51100,3.680787927
264.51150,4.59637115
264.51200,7.343120819
264.51250,6.122343188
264.51300,1.544427073
264.51350,-0.5919337813
264.51400,0.3236494419
264.51450,1.239232665
264.51500,0.3236494419
264.51550,0.3236494419
264.51600,2.154815888
264.51650,3.375593519
264.51700,2.765204703
264.51750,1.544427073
264.51800,0.01845503415
264.51850,-2.423100227
264.51900,-4.864655489
264.51950,-5.169849897
264.52000,-3.643877858
264.52050,-3.033489043
264.52100,-3.338683451
264.52150,-2.11790582
264.52200,-0.5919337813
264.52250,-0.2867393736
264.52300,0.3236494419
264.52350,3.680787927
264.52400,6.427537596
264.52450,5.81714878
264.52500,4.291176742
264.52550,5.511954373
264.52600,6.732732004
264.52650,1.239232665
264.52700,-10.66334924
264.52750,-24.09190317
264.52800,-34.46851304
264.52850,-37.82565152
264.52900,-32.33215218
264.52950,-23.48151436
264.53000,-20.12437587
264.53050,-19.20879265
264.53100,-5.780238712
264.53150,21.07686917
264.53200,40.60931126
264.53250,36.33658955
264.53300,20.16128594
264.53350,12.83662016
264.53400,14.6677866
264.53450,14.3625922
264.53500,15.58336983
264.53550,28.09634054
264.53600,41.83008889
264.53650,36.33658955
264.53700,14.05739779
264.53750,-3.949072266
264.53800,-10.35815483
264.53850,-15.24126535
264.53900,-21.3451535
264.53950,-18.29320943
264.54000,-7.306210751
264.54050,-4.864655489
264.54100,-14.02048772
264.54150,-17.68282061
264.54200,-8.832182789
264.54250,-1.202322597
264.54300,-3.949072266
264.54350,-3.949072266
264.54400,9.479481673
264.54450,25.34959087
264.54500,28.09634054
264.54550,20.77167476
264.54600,14.97298101
264.54650,10.7002593
264.54700,1.239232665
264.54750,-9.442571605
264.54800,-12.18932127
264.54850,-7.001016343
264.54900,-2.728294635
264.54950,-3.033489043
264.55000,-3.033489043
264.55050,0.01845503415
264.55100,2.154815888
264.55150,2.460010296
264.55200,2.765204703
264.55250,2.460010296
264.55300,0.01845503415
264.55350,-4.559461081
264.55400,-6.695821935
264.55450,-5.475044304
264.55500,-3.338683451
264.55550,-1.507517004
264.55600,-0.897128189
264.55650,-0.897128189
264.55700,-1.812711412
264.55750,-3.033489043
264.55800,-4.254266674
264.55850,-6.08543312
264.55900,-8.526988381
264.55950,-9.137377197
264.56000,-6.695821935
264.56050,-3.643877858
264.56100,-3.033489043
264.56150,-4.559461081
264.56200,-5.169849897
264.56250,-3.033489043
264.56300,0.3236494419
264.56350,2.460010296
264.56400,2.154815888
264.56450,-0.5919337813
264.56500,-3.643877858
264.56550,-4.864655489
264.56600,-3.643877858
264.56650,-2.728294635
264.56700,-3.643877858
264.56750,-4.559461081
264.56800,-3.338683451
264.56850,-0.897128189
264.56900,0.3236494419
264.56950,1.239232665
264.57000,2.765204703
264.57050,4.59637115
264.57100,4.291176742
264.57150,0.9340382573
264.57200,-3.949072266
264.57250,-8.832182789
264.57300,-11.88412687
264.57350,-12.49451568
264.57400,-10.05296042
264.57450,-6.390627528
264.57500,-4.254266674
264.57550,-4.254266674
264.57600,-5.780238712
264.57650,-5.475044304
264.57700,-2.423100227
264.57750,1.84962148
264.57800,4.59637115
264.57850,4.291176742
264.57900,2.460010296
264.57950,1.84962148
264.58000,1.544427073
264.58050,0.3236494419
264.58100,-1.202322597
264.58150,-2.11790582
264.58200,-2.423100227
264.58250,-4.864655489
264.58300,-7.306210751
264.58350,-5.780238712
264.58400,0.9340382573
264.58450,7.648315227
264.58500,8.869092857
264.58550,7.037926411
264.58600,5.81714878
264.58650,5.511954373
264.58700,5.511954373
264.58750,6.732732004
264.58800,8.56389845
264.58850,7.037926411
264.58900,2.460010296
264.58950,-1.202322597
264.59000,-0.897128189
264.59050,-1.202322597
264.59100,-4.254266674
264.59150,-4.864655489
264.59200,0.9340382573
264.59250,8.258704042
264.59300,8.258704042
264.59350,1.544427073
264.59400,-2.11790582
264.59450,-0.2867393736
264.59500,1.544427073
264.59550,0.6288438496
264.59600,-0.897128189
264.59650,-0.5919337813
264.59700,0.01845503415
264.59750,0.3236494419
264.59800,2.154815888
264.59850,5.206759965
264.59900,7.343120819
264.59950,7.648315227
264.60000,7.953509634
264.60050,7.343120819
264.60100,5.206759965
264.60150,2.460010296
264.60200,3.070399111
264.60250,5.206759965
264.60300,3.985982334
264.60350,-0.5919337813
264.60400,-4.864655489
264.60450,-5.475044304
264.60500,-3.643877858
264.60550,-2.11790582
264.60600,-1.812711412
264.60650,-3.643877858
264.60700,-8.221793974
264.60750,-12.49451568
264.60800,-12.18932127
264.60850,-7.001016343
264.60900,-2.423100227
264.60950,-1.202322597
264.61000,-0.897128189
264.61050,-0.5919337813
264.61100,-0.2867393736
264.61150,-0.5919337813
264.61200,-0.2867393736
264.61250,-1.507517004
264.61300,-7.916599566
264.61350,-14.93607094
264.61400,-14.32568213
264.61450,-3.949072266
264.61500,6.427537596
264.61550,8.258704042
264.61600,2.765204703
264.61650,-1.812711412
264.61700,-1.202322597
264.61750,4.901565557
264.61800,13.75220338
264.61850,19.85609153
264.61900,20.16128594
264.61950,15.27817542
264.62000,9.479481673
264.62050,5.511954373
264.62100,3.070399111
264.62150,1.239232665
264.62200,0.6288438496
264.62250,0.9340382573
264.62300,0.6288438496
264.62350,0.01845503415
264.62400,0.6288438496
264.62450,0.9340382573
264.62500,0.01845503415
264.62550,-1.507517004
264.62600,-0.2867393736
264.62650,2.460010296
264.62700,4.291176742
264.62750,4.291176742
264.62800,3.985982334
264.62850,3.985982334
264.62900,3.375593519
264.62950,3.070399111
264.63000,4.901565557
264.63050,7.037926411
264.63100,7.037926411
264.63150,6.122343188
264.63200,7.343120819
264.63250,8.869092857
264.63300,6.732732004
264.63350,1.239232665
264.63400,-3.033489043
264.63450,-4.864655489
264.63500,-4.559461081
264.63550,-3.338683451
264.63600,-3.033489043
264.63650,-5.780238712
264.63700,-11.88412687
264.63750,-17.68282061
264.63800,-19.51398706
264.63850,-19.51398706
264.63900,-21.0399591
264.63950,-23.17631995
264.64000,-23.17631995
264.64050,-20.73476469
264.64100,-13.71529331
264.64150,-0.5919337813
264.64200,14.05739779
264.64250,21.07686917
264.64300,17.71973068
264.64350,13.44700897
264.64400,14.6677866
264.64450,15.27817542
264.64500,7.648315227
264.64550,-1.812711412
264.64600,-2.423100227
264.64650,4.59637115
264.64700,10.3950649
264.64750,11.00545371
264.64800,9.174287265
264.64850,6.427537596
264.64900,-0.2867393736
264.64950,-8.832182789
264.65000,-12.49451568
264.65050,-10.66334924
264.65100,-8.832182789
264.65150,-7.001016343
264.65200,0.6288438496
264.65250,14.05739779
264.65300,22.2976468
264.65350,18.6353139
264.65400,8.869092857
264.65450,3.070399111
264.65500,2.765204703
264.65550,2.460010296
264.65600,-0.897128189
264.65650,-6.08543312
264.65700,-8.832182789
264.65750,-7.611405158
264.65800,-3.949072266
264.65850,-0.5919337813
264.65900,0.01845503415
264.65950,0.01845503415
264.66000,0.6288438496
264.66050,2.460010296
264.66100,2.765204703
264.66150,0.6288438496
264.66200,-0.5919337813
264.66250,0.01845503415
264.66300,0.9340382573
264.66350,0.3236494419
264.66400,-1.202322597
264.66450,-1.812711412
264.66500,-1.507517004
264.66550,-0.897128189
264.66600,-1.202322597
264.66650,-1.812711412
264.66700,-1.202322597
264.66750,-0.2867393736
264.66800,0.3236494419
264.66850,1.544427073
264.66900,2.460010296
264.66950,2.154815888
264.67000,0.01845503415
264.67050,-2.11790582
264.67100,-3.033489043
264.67150,-2.728294635
264.67200,-2.11790582
264.67250,-2.728294635
264.67300,-3.949072266
264.67350,-4.864655489
264.67400,-4.864655489
264.67450,-3.949072266
264.67500,-2.11790582
264.67550,0.01845503415
264.67600,2.460010296
264.67650,5.511954373
264.67700,7.648315227
264.67750,6.732732004
264.67800,3.985982334
264.67850,2.154815888
264.67900,1.84962148
264.67950,0.01845503415
264.68000,-6.08543312
264.68050,-13.1049045
264.68100,-15.85165417
264.68150,-12.79971009
264.68200,-9.137377197
264.68250,-7.306210751
264.68300,-6.390627528
264.68350,-4.559461081
264.68400,-1.812711412
264.68450,0.01845503415
264.68500,0.3236494419
264.68550,0.01845503415
264.68600,0.3236494419
264.68650,0.9340382573
264.68700,1.239232665
264.68750,0.9340382573
264.68800,1.239232665
264.68850,3.375593519
264.68900,4.291176742
264.68950,0.6288438496
264.69000,-5.780238712
264.69050,-9.442571605
264.69100,-7.611405158
264.69150,-3.338683451
264.69200,-2.11790582
264.69250,-3.949072266
264.69300,-5.475044304
264.69350,-5.780238712
264.69400,-5.475044304
264.69450,-3.949072266
264.69500,0.01845503415
264.69550,5.81714878
264.69600,11.31064812
264.69650,15.27817542
264.69700,18.3301195
264.69750,21.07686917
264.69800,23.21323002
264.69850,23.82361883
264.69900,23.21323002
264.69950,22.90803561
264.70000,22.6028412
264.70050,18.3301195
264.70100,6.122343188
264.70150,-7.611405158
264.70200,-14.63087654
264.70250,-16.46204298
264.70300,-21.95554232
264.70350,-30.50098574
264.70400,-28.9750137
264.70450,-16.76723739
264.70500,-12.18932127
264.70550,-27.14384725
264.70600,-46.37109494
264.70650,-48.8126502
264.70700,-38.13084593
264.70750,-29.28020811
264.70800,-21.3451535
264.70850,-6.695821935
264.70900,5.511954373
264.70950,0.6288438496
264.71000,-14.63087654
264.71050,-19.20879265
264.71100,-10.96854364
264.71150,-7.001016343
264.71200,-7.611405158
264.71250,5.81714878
264.71300,36.33658955
264.71350,56.47942046
264.71400,48.54436586
264.71450,28.09634054
264.71500,18.6353139
264.71550,19.55089713
264.71600,17.71973068
264.71650,12.83662016
264.71700,12.22623134
264.71750,13.44700897
264.71800,10.3950649
264.71850,4.901565557
264.71900,3.070399111
264.71950,5.81714878
264.72000,8.56389845
264.72050,7.953509634
264.72100,2.765204703
264.72150,-4.559461081
264.72200,-7.001016343
264.72250,0.01845503415
264.72300,8.258704042
264.72350,3.985982334
264.72400,-11.27373805
264.72450,-21.65034791
264.72500,-19.20879265
264.72550,-13.1049045
264.72600,-10.66334924
264.72650,-4.864655489
264.72700,9.174287265
264.72750,21.99245239
264.72800,22.6028412
264.72850,15.88856423
264.72900,13.14181457
264.72950,13.75220338
264.73000,11.92103693
264.73050,7.648315227
264.73100,5.511954373
264.73150,5.511954373
264.73200,3.375593519
264.73250,0.01845503415
264.73300,-2.11790582
264.73350,-3.338683451
264.73400,-6.390627528
264.73450,-8.526988381
264.73500,-7.916599566
264.73550,-7.306210751
264.73600,-10.66334924
264.73650,-14.63087654
264.73700,-11.57893246
264.73750,-0.897128189
264.73800,7.953509634
264.73850,7.953509634
264.73900,-1.812711412
264.73950,-14.63087654
264.74000,-22.56593114
264.74050,-23.78670877
264.74100,-24.09190317
264.74150,-27.44904166
264.74200,-27.44904166
264.74250,-14.32568213
264.74300,11.31064812
264.74350,35.42100633
264.74400,42.1352833
264.74450,30.84309021
264.74500,13.75220338
264.74550,4.901565557
264.74600,8.258704042
264.74650,15.88856423
264.74700,16.49895305
264.74750,8.56389845
264.74800,0.01845503415
264.74850,-1.202322597
264.74900,1.544427073
264.74950,2.765204703
264.75000,1.84962148
264.75050,3.680787927
264.75100,6.732732004
264.75150,4.291176742
264.75200,-3.338683451
264.75250,-8.526988381
264.75300,-5.780238712
264.75350,-0.5919337813
264.75400,0.01845503415
264.75450,-0.5919337813
264.75500,0.6288438496
264.75550,3.680787927
264.75600,3.985982334
264.75650,3.375593519
264.75700,4.59637115
264.75750,4.291176742
264.75800,-1.812711412
264.75850,-10.05296042
264.75900,-11.57893246
264.75950,-7.611405158
264.76000,-8.526988381
264.76050,-17.68282061
264.76100,-22.26073673
264.76150,-13.4100989
264.76200,0.01845503415
264.76250,3.375593519
264.76300,-2.423100227
264.76350,-5.475044304
264.76400,-1.812711412
264.76450,0.01845503415
264.76500,-6.390627528
264.76550,-14.63087654
264.76600,-14.93607094
264.76650,-8.832182789
264.76700,-3.643877858
264.76750,-2.11790582
264.76800,-1.812711412
264.76850,-0.2867393736
264.76900,1.84962148
264.76950,5.511954373
264.77000,9.479481673
264.77050,12.83662016
264.77100,13.75220338
264.77150,13.14181457
264.77200,12.22623134
264.77250,10.7002593
264.77300,6.732732004
264.77350,0.9340382573
264.77400,-3.643877858
264.77450,-5.475044304
264.77500,-6.390627528
264.77550,-10.05296042
264.77600,-15.85165417
264.77650,-17.0724318
264.77700,-9.442571605
264.77750,1.544427073
264.77800,7.037926411
264.77850,3.680787927
264.77900,-1.202322597
264.77950,-2.11790582
264.78000,0.01845503415
264.78050,0.3236494419
264.78100,-0.5919337813
264.78150,-2.423100227
264.78200,-3.338683451
264.78250,-3.643877858
264.78300,-3.033489043
264.78350,-1.812711412
264.78400,-0.2867393736
264.78450,3.375593519
264.78500,9.479481673
264.78550,14.3625922
264.78600,14.05739779
264.78650,9.479481673
264.78700,6.122343188
264.78750,4.901565557
264.78800,4.291176742
264.78850,4.291176742
264.78900,7.648315227
264.78950,11.92103693
264.79000,11.92103693
264.79050,7.037926411
264.79100,1.544427073
264.79150,-1.507517004
264.79200,-3.949072266
264.79250,-4.864655489
264.79300,-1.202322597
264.79350,3.070399111
264.79400,3.070399111
264.79450,1.544427073
264.79500,8.258704042
264.79550,21.07686917
264.79600,26.87556291
264.79650,18.6353139
264.79700,6.732732004
264.79750,2.154815888
264.79800,1.239232665
264.79850,-5.169849897
264.79900,-15.24126535
264.79950,-20.42957028
264.80000,-19.51398706
264.80050,-17.3776262
264.80100,-15.85165417
264.80150,-12.79971009
264.80200,-8.526988381
264.80250,-7.001016343
264.80300,-7.001016343
264.80350,-5.780238712
264.80400,-4.254266674
264.80450,-3.949072266
264.80500,-3.338683451
264.80550,0.01845503415
264.80600,4.59637115
264.80650,5.511954373
264.80700,3.680787927
264.80750,3.680787927
264.80800,5.81714878
264.80850,5.81714878
264.80900,2.460010296
264.80950,0.01845503415
264.81000,0.9340382573
264.81050,2.154815888
264.81100,0.9340382573
264.81150,-0.2867393736
264.81200,2.154815888
264.81250,8.56389845
264.81300,13.75220338
264.81350,14.97298101
264.81400,14.05739779
264.81450,13.75220338
264.81500,12.22623134
264.81550,6.732732004
264.81600,-1.202322597
264.81650,-7.001016343
264.81700,-8.526988381
264.81750,-10.05296042
264.81800,-17.0724318
264.81850,-26.53345844
264.81900,-29.89059692
264.81950,-24.09190317
264.82000,-14.93607094
264.82050,-10.35815483
264.82100,-8.832182789
264.82150,-5.780238712
264.82200,-0.5919337813
264.82250,1.84962148
264.82300,1.239232665
264.82350,1.239232665
264.82400,3.375593519
264.82450,1.544427073
264.82500,-7.306210751
264.82550,-17.98801502
264.82600,-22.26073673
264.82650,-21.0399591
264.82700,-19.81918147
264.82750,-16.76723739
264.82800,-5.475044304
264.82850,10.7002593
264.82900,20.46648035
264.82950,19.24570272
264.83000,15.88856423
264.83050,17.10934187
264.83100,18.3301195
264.83150,14.05739779
264.83200,10.3950649
264.83250,14.97298101
264.83300,22.2976468
264.83350,21.38206357
264.83400,11.61584253
264.83450,3.680787927
264.83500,1.239232665
264.83550,-0.2867393736
264.83600,-4.559461081
264.83650,-6.695821935
264.83700,-3.033489043
264.83750,1.544427073
264.83800,2.154815888
264.83850,0.6288438496
264.83900,0.3236494419
264.83950,1.544427073
264.84000,2.154815888
264.84050,0.9340382573
264.84100,0.3236494419
264.84150,0.9340382573
264.84200,0.01845503415
264.84250,-5.169849897
264.84300,-13.1049045
264.84350,-18.90359824
264.84400,-17.98801502
264.84450,-11.88412687
264.84500,-5.475044304
264.84550,-2.423100227
264.84600,-1.507517004
264.84650,-0.5919337813
264.84700,0.6288438496
264.84750,1.84962148
264.84800,2.765204703
264.84850,4.291176742
264.84900,6.427537596
264.84950,9.174287265
264.85000,11.00545371
264.85050,8.869092857
264.85100,2.460010296
264.85150,-4.559461081
264.85200,-7.001016343
264.85250,-3.033489043
264.85300,1.544427073
264.85350,3.070399111
264.85400,1.544427073
264.85450,0.6288438496
264.85500,1.84962148
264.85550,3.680787927
264.85600,4.291176742
264.85650,4.291176742
264.85700,3.985982334
264.85750,3.680787927
264.85800,3.680787927
264.85850,2.765204703
264.85900,1.84962148
264.85950,1.239232665
264.86000,1.239232665
264.86050,1.239232665
264.86100,-0.897128189
264.86150,-5.169849897
264.86200,-8.526988381
264.86250,-7.611405158
264.86300,-3.643877858
264.86350,0.01845503415
264.86400,0.6288438496
264.86450,0.01845503415
264.86500,0.01845503415
264.86550,0.6288438496
264.86600,2.460010296
264.86650,3.375593519
264.86700,3.375593519
264.86750,2.154815888
264.86800,1.239232665
264.86850,1.544427073
264.86900,2.154815888
264.86950,1.544427073
264.87000,0.01845503415
264.87050,-0.897128189
264.87100,-1.202322597
264.87150,-1.202322597
264.87200,-1.507517004
264.87250,-1.812711412
264.87300,-1.812711412
264.87350,-2.11790582
264.87400,-1.507517004
264.87450,-0.5919337813
264.87500,0.01845503415
264.87550,0.01845503415
264.87600,-0.897128189
264.87650,-1.812711412
264.87700,-2.11790582
264.87750,-1.812711412
264.87800,0.01845503415
264.87850,1.84962148
264.87900,2.460010296
264.87950,0.01845503415
264.88000,-3.033489043
264.88050,-3.338683451
264.88100,-0.897128189
264.88150,0.9340382573
264.88200,0.3236494419
264.88250,-1.202322597
264.88300,-1.202322597
264.88350,0.01845503415
264.88400,0.3236494419
264.88450,-0.5919337813
264.88500,-2.11790582
264.88550,-1.812711412
264.88600,-0.2867393736
264.88650,1.239232665
264.88700,2.154815888
264.88750,1.84962148
264.88800,0.9340382573
264.88850,0.01845503415
264.88900,-0.2867393736
264.88950,0.6288438496
264.89000,1.544427073
264.89050,1.84962148
264.89100,1.544427073
264.89150,1.544427073
264.89200,2.154815888
264.89250,2.460010296
264.89300,2.154815888
264.89350,1.84962148
264.89400,2.154815888
264.89450,2.154815888
264.89500,1.84962148
264.89550,0.9340382573
264.89600,0.01845503415
264.89650,-2.11790582
264.89700,-4.864655489
264.89750,-6.695821935
264.89800,-6.390627528
264.89850,-4.254266674
264.89900,-1.202322597
264.89950,0.01845503415
264.90000,0.01845503415
264.90050,-1.202322597
264.90100,-2.11790582
264.90150,-1.812711412
264.90200,-0.5919337813
264.90250,0.01845503415
264.90300,-1.202322597
264.90350,-4.254266674
264.90400,-7.306210751
264.90450,-8.221793974
264.90500,-7.306210751
264.90550,-4.864655489
264.90600,-2.423100227
264.90650,0.01845503415
264.90700,1.239232665
264.90750,1.239232665
264.90800,0.3236494419
264.90850,-0.2867393736
264.90900,0.01845503415
264.90950,0.9340382573
264.91000,1.544427073
264.91050,1.544427073
264.91100,2.154815888
264.91150,2.765204703
264.91200,2.765204703
264.91250,1.544427073
264.91300,1.544427073
264.91350,2.765204703
264.91400,3.680787927
264.91450,3.070399111
264.91500,3.070399111
264.91550,4.901565557
264.91600,6.732732004
264.91650,6.122343188
264.91700,4.59637115
264.91750,4.59637115
264.91800,6.122343188
264.91850,6.427537596
264.91900,3.985982334
264.91950,0.01845503415
264.92000,-5.169849897
264.92050,-10.66334924
264.92100,-14.93607094
264.92150,-15.85165417
264.92200,-13.4100989
264.92250,-10.96854364
264.92300,-9.442571605
264.92350,-5.475044304
264.92400,3.985982334
264.92450,17.10934187
264.92500,25.34959087
264.92550,23.82361883
264.92600,15.58336983
264.92650,8.258704042
264.92700,5.206759965
264.92750,4.901565557
264.92800,3.070399111
264.92850,-1.812711412
264.92900,-9.442571605
264.92950,-16.15684857
264.93000,-17.0724318
264.93050,-12.49451568
264.93100,-6.695821935
264.93150,-3.338683451
264.93200,-1.202322597
264.93250,0.9340382573
264.93300,2.154815888
264.93350,-0.5919337813
264.93400,-6.390627528
264.93450,-10.66334924
264.93500,-13.4100989
264.93550,-17.0724318
264.93600,-17.68282061
264.93650,-7.306210751
264.93700,11.92103693
264.93750,25.65478528
264.93800,21.68725798
264.93850,5.511954373
264.93900,-7.001016343
264.93950,-8.832182789
264.94000,-6.695821935
264.94050,-6.695821935
264.94100,-7.306210751
264.94150,-4.254266674
264.94200,0.3236494419
264.94250,2.460010296
264.94300,2.460010296
264.94350,4.59637115
264.94400,10.3950649
264.94450,14.97298101
264.94500,14.05739779
264.94550,9.784676081
264.94600,7.037926411
264.94650,7.343120819
264.94700,7.648315227
264.94750,4.901565557
264.94800,0.3236494419
264.94850,-1.812711412
264.94900,-1.507517004
264.94950,0.01845503415
264.95000,1.239232665
264.95050,1.84962148
264.95100,2.460010296
264.95150,3.070399111
264.95200,3.375593519
264.95250,3.985982334
264.95300,4.291176742
264.95350,3.680787927
264.95400,1.84962148
264.95450,-1.202322597
264.95500,-5.169849897
264.95550,-8.221793974
264.95600,-8.526988381
264.95650,-5.780238712
264.95700,-2.423100227
264.95750,-2.11790582
264.95800,-5.475044304
264.95850,-8.526988381
264.95900,-7.916599566
264.95950,-4.559461081
264.96000,-2.11790582
264.96050,-1.812711412
264.96100,-1.812711412
264.96150,-0.897128189
264.96200,-0.2867393736
264.96250,-0.897128189
264.96300,-1.507517004
264.96350,-2.11790582
264.96400,-2.423100227
264.96450,-2.11790582
264.96500,0.01845503415
264.96550,2.460010296
264.96600,3.680787927
264.96650,3.070399111
264.96700,3.375593519
264.96750,4.901565557
264.96800,5.206759965
264.96850,3.985982334
264.96900,4.291176742
264.96950,7.037926411
264.97000,7.953509634
264.97050,5.206759965
264.97100,1.84962148
264.97150,1.84962148
264.97200,3.375593519
264.97250,2.765204703
264.97300,0.3236494419
264.97350,0.01845503415
264.97400,0.3236494419
264.97450,-0.2867393736
264.97500,-1.812711412
264.97550,-2.11790582
264.97600,-1.202322597
264.97650,-1.202322597
264.97700,-1.812711412
264.97750,-1.507517004
264.97800,-0.5919337813
264.97850,-0.2867393736
264.97900,-0.2867393736
264.97950,0.01845503415
264.98000,-0.897128189
264.98050,-2.728294635
264.98100,-2.728294635
264.98150,0.9340382573
264.98200,3.680787927
264.98250,1.239232665
264.98300,-2.728294635
264.98350,-1.507517004
264.98400,3.985982334
264.98450,6.427537596
264.98500,2.154815888
264.98550,-1.812711412
264.98600,-0.897128189
264.98650,1.84962148
264.98700,2.765204703
264.98750,2.460010296
264.98800,2.460010296
264.98850,1.544427073
264.98900,0.01845503415
264.98950,0.6288438496
264.99000,4.291176742
264.99050,5.511954373
264.99100,0.3236494419
264.99150,-6.08543312
264.99200,-8.526988381
264.99250,-5.780238712
264.99300,-1.507517004
264.99350,1.544427073
264.99400,2.765204703
264.99450,1.544427073
264.99500,1.239232665
264.99550,4.291176742
264.99600,9.784676081
264.99650,11.61584253
264.99700,6.122343188
264.99750,-3.643877858
264.99800,-15.24126535
264.99850,-25.61787521
264.99900,-30.50098574
264.99950,-31.41656896
265.00000,-37.82565152
265.00050,-53.39056631
265.00100,-59.79964888
265.00150,-35.38409626
265.00200,9.479481673
265.00250,39.38853363
265.00300,36.33658955
265.00350,22.6028412
265.00400,23.82361883
265.00450,32.97945107
265.00500,27.48595173
265.00550,9.174287265
265.00600,-0.2867393736
265.00650,5.81714878
265.00700,13.75220338
265.00750,11.92103693
265.00800,5.206759965
265.00850,1.239232665
265.00900,-0.5919337813
265.00950,-3.643877858
265.01000,-5.475044304
265.01050,-4.254266674
265.01100,-3.643877858
265.01150,-4.559461081
265.01200,-5.475044304
265.01250,-6.695821935
265.01300,-8.832182789
265.01350,-8.832182789
265.01400,0.01845503415
265.01450,13.75220338
265.01500,21.07686917
265.01550,16.19375864
265.01600,9.174287265
265.01650,9.174287265
265.01700,12.83662016
265.01750,12.53142575
265.01800,8.869092857
265.01850,6.122343188
265.01900,3.680787927
265.01950,-1.202322597
265.02000,-6.08543312
265.02050,-7.306210751
265.02100,-10.35815483
265.02150,-21.65034791
265.02200,-32.33215218
265.02250,-29.28020811
265.02300,-14.93607094
265.02350,-5.780238712
265.02400,-4.559461081
265.02450,2.460010296
265.02500,22.6028412
265.02550,38.4729504
265.02600,32.36906225
265.02650,12.83662016
265.02700,0.9340382573
265.02750,3.070399111
265.02800,7.037926411
265.02850,5.206759965
265.02900,1.84962148
265.02950,2.154815888
265.03000,3.680787927
265.03050,2.154815888
265.03100,0.01845503415
265.03150,-0.5919337813
265.03200,-1.812711412
265.03250,-4.864655489
265.03300,-7.611405158
265.03350,-6.695821935
265.03400,-3.949072266
265.03450,-2.728294635
265.03500,-3.643877858
265.03550,-5.169849897
265.03600,-4.864655489
265.03650,-3.643877858
265.03700,-3.949072266
265.03750,-7.611405158
265.03800,-13.4100989
265.03850,-16.76723739
265.03900,-14.93607094
265.03950,-9.442571605
265.04000,-5.780238712
265.04050,-5.475044304
265.04100,-4.864655489
265.04150,-1.507517004
265.04200,3.070399111
265.04250,5.511954373
265.04300,4.291176742
265.04350,1.84962148
265.04400,0.9340382573
265.04450,0.9340382573
265.04500,0.3236494419
265.04550,-0.5919337813
265.04600,-1.202322597
265.04650,-0.5919337813
265.04700,0.3236494419
265.04750,2.460010296
265.04800,3.985982334
265.04850,4.59637115
265.04900,4.291176742
265.04950,5.206759965
265.05000,7.343120819
265.05050,7.648315227
265.05100,2.765204703
265.05150,-3.949072266
265.05200,-7.306210751
265.05250,-6.08543312
265.05300,-3.643877858
265.05350,-2.728294635
265.05400,-2.11790582
265.05450,-1.202322597
265.05500,-0.2867393736
265.05550,-0.2867393736
265.05600,-0.5919337813
265.05650,-0.897128189
265.05700,-0.2867393736
265.05750,0.3236494419
265.05800,1.84962148
265.05850,1.84962148
265.05900,0.01845503415
265.05950,-0.897128189
265.06000,0.6288438496
265.06050,3.985982334
265.06100,6.122343188
265.06150,6.732732004
265.06200,8.869092857
265.06250,12.22623134
265.06300,14.05739779
265.06350,13.75220338
265.06400,13.14181457
265.06450,12.22623134
265.06500,6.732732004
265.06550,-2.728294635
265.06600,-10.35815483
265.06650,-10.05296042
265.06700,-7.001016343
265.06750,-11.27373805
265.06800,-23.48151436
265.06850,-32.02695777
265.06900,-28.36462488
265.06950,-17.98801502
265.07000,-10.96854364
265.07050,-9.442571605
265.07100,-8.526988381
265.07150,-6.08543312
265.07200,-3.643877858
265.07250,-2.11790582
265.07300,0.6288438496
265.07350,4.291176742
265.07400,5.511954373
265.07450,4.59637115
265.07500,3.985982334
265.07550,5.206759965
265.07600,6.122343188
265.07650,6.732732004
265.07700,8.56389845
265.07750,9.784676081
265.07800,7.648315227
265.07850,3.070399111
265.07900,0.9340382573
265.07950,2.154815888
265.08000,3.070399111
265.08050,2.154815888
265.08100,1.544427073
265.08150,2.460010296
265.08200,3.375593519
265.08250,3.985982334
265.08300,4.901565557
265.08350,6.122343188
265.08400,6.122343188
265.08450,5.206759965
265.08500,6.122343188
265.08550,8.258704042
265.08600,7.953509634
265.08650,5.511954373
265.08700,4.901565557
265.08750,5.81714878
265.08800,3.375593519
265.08850,-3.949072266
265.08900,-10.05296042
265.08950,-8.832182789
265.09000,-3.338683451
265.09050,0.3236494419
265.09100,1.544427073
265.09150,3.070399111
265.09200,4.901565557
265.09250,4.59637115
265.09300,2.154815888
265.09350,0.6288438496
265.09400,1.239232665
265.09450,2.154815888
265.09500,1.84962148
265.09550,0.9340382573
265.09600,0.6288438496
265.09650,1.544427073
265.09700,4.901565557
265.09750,10.7002593
265.09800,15.88856423
265.09850,16.49895305
265.09900,13.14181457
265.09950,10.3950649
265.10000,9.174287265
265.10050,5.81714878
265.10100,0.01845503415
265.10150,-4.864655489
265.10200,-5.780238712
265.10250,-6.695821935
265.10300,-11.88412687
265.10350,-17.68282061
265.10400,-17.0724318
265.10450,-11.57893246
265.10500,-9.442571605
265.10550,-13.71529331
265.10600,-16.46204298
265.10650,-10.35815483
265.10700,1.544427073
265.10750,11.31064812
265.10800,13.44700897
265.10850,10.7002593
265.10900,7.343120819
265.10950,5.511954373
265.11000,4.59637115
265.11050,3.375593519
265.11100,1.84962148
265.11150,1.544427073
265.11200,1.544427073
265.11250,0.01845503415
265.11300,-4.254266674
265.11350,-6.695821935
265.11400,-3.338683451
265.11450,0.9340382573
265.11500,0.3236494419
265.11550,-4.559461081
265.11600,-9.747766012
265.11650,-12.18932127
265.11700,-14.63087654
265.11750,-15.85165417
265.11800,-13.71529331
265.11850,-11.27373805
265.11900,-12.79971009
265.11950,-12.79971009
265.12000,-1.507517004
265.12050,18.3301195
265.12100,30.5378958
265.12150,25.34959087
265.12200,11.31064812
265.12250,3.375593519
265.12300,2.460010296
265.12350,0.9340382573
265.12400,-2.728294635
265.12450,-4.864655489
265.12500,-2.728294635
265.12550,0.01845503415
265.12600,0.01845503415
265.12650,-1.202322597
265.12700,-1.507517004
265.12750,-0.2867393736
265.12800,2.154815888
265.12850,5.206759965
265.12900,7.037926411
265.12950,6.427537596
265.13000,4.291176742
265.13050,3.070399111
265.13100,3.375593519
265.13150,3.070399111
265.13200,-0.2867393736
265.13250,-7.001016343
265.13300,-13.4100989
265.13350,-15.54645976
265.13400,-12.49451568
265.13450,-8.221793974
265.13500,-5.780238712
265.13550,-3.949072266
265.13600,-1.507517004
265.13650,0.6288438496
265.13700,1.544427073
265.13750,5.206759965
265.13800,14.3625922
265.13850,23.51842443
265.13900,23.51842443
265.13950,15.27817542
265.14000,6.732732004
265.14050,3.070399111
265.14100,0.01845503415
265.14150,-5.780238712
265.14200,-9.442571605
265.14250,-7.001016343
265.14300,-2.728294635
265.14350,-3.033489043
265.14400,-5.780238712
265.14450,-5.780238712
265.14500,-3.643877858
265.14550,-4.254266674
265.14600,-7.611405158
265.14650,-11.57893246
265.14700,-18.59840384
265.14750,-32.942541
265.14800,-45.76070612
265.14850,-37.82565152
265.14900,-6.08543312
265.14950,22.90803561
265.15000,21.68725798
265.15050,-5.780238712
265.15100,-25.92306962
265.15150,-14.32568213
265.15200,17.41453627
265.15250,40.60931126
265.15300,42.4404777
265.15350,30.5378958
265.15400,17.71973068
265.15450,9.174287265
265.15500,7.953509634
265.15550,14.97298101
265.15600,25.65478528
265.15650,30.5378958
265.15700,25.65478528
265.15750,15.27817542
265.15800,4.59637115
265.15850,-4.864655489
265.15900,-12.49451568
265.15950,-15.24126535
265.16000,-13.1049045
265.16050,-10.05296042
265.16100,-7.611405158
265.16150,-4.864655489
265.16200,-2.11790582
265.16250,-1.812711412
265.16300,-3.949072266
265.16350,-4.864655489
265.16400,-3.949072266
265.16450,-3.033489043
265.16500,-3.338683451
265.16550,-3.949072266
265.16600,-3.338683451
265.16650,-2.423100227
265.16700,-1.507517004
265.16750,-0.2867393736
265.16800,0.01845503415
265.16850,-2.728294635
265.16900,-6.390627528
265.16950,-10.05296042
265.17000,-13.71529331
265.17050,-17.0724318
265.17100,-17.68282061
265.17150,-15.54645976
265.17200,-15.24126535
265.17250,-17.3776262
265.17300,-12.79971009
265.17350,5.511954373
265.17400,26.87556291
265.17450,32.67425666
265.17500,21.07686917
265.17550,7.648315227
265.17600,3.680787927
265.17650,4.59637115
265.17700,2.460010296
265.17750,-1.202322597
265.17800,-3.643877858
265.17850,-4.864655489
265.17900,-5.780238712
265.17950,-3.949072266
265.18000,0.3236494419
265.18050,1.544427073
265.18100,-2.11790582
265.18150,-5.475044304
265.18200,-3.033489043
265.18250,1.239232665
265.18300,2.460010296
265.18350,1.544427073
265.18400,2.154815888
265.18450,3.680787927
265.18500,2.765204703
265.18550,0.3236494419
265.18600,0.01845503415
265.18650,0.6288438496
265.18700,0.01845503415
265.18750,-0.5919337813
265.18800,-0.5919337813
265.18850,0.01845503415
265.18900,-0.2867393736
265.18950,-1.812711412
265.19000,-2.11790582
265.19050,-1.202322597
265.19100,-1.202322597
265.19150,-2.11790582
265.19200,-2.11790582
265.19250,-1.202322597
265.19300,0.01845503415
265.19350,2.460010296
265.19400,5.81714878
265.19450,7.953509634
265.19500,6.427537596
265.19550,3.985982334
265.19600,3.680787927
265.19650,3.985982334
265.19700,0.9340382573
265.19750,-4.254266674
265.19800,-7.916599566
265.19850,-8.221793974
265.19900,-6.390627528
265.19950,-3.033489043
265.20000,0.9340382573
265.20050,4.291176742
265.20100,4.291176742
265.20150,3.070399111
265.20200,3.070399111
265.20250,1.239232665
265.20300,-5.780238712
265.20350,-13.4100989
265.20400,-13.71529331
265.20450,-8.832182789
265.20500,-5.780238712
265.20550,-4.864655489
265.20600,0.01845503415
265.20650,6.427537596
265.20700,5.206759965
265.20750,-5.169849897
265.20800,-14.02048772
265.20850,-14.02048772
265.20900,-10.35815483
265.20950,-10.05296042
265.21000,-9.137377197
265.21050,-3.033489043
265.21100,4.291176742
265.21150,5.206759965
265.21200,-0.897128189
265.21250,-7.001016343
265.21300,-8.526988381
265.21350,-7.611405158
265.21400,-6.390627528
265.21450,-4.864655489
265.21500,-3.643877858
265.21550,-2.423100227
265.21600,-1.507517004
265.21650,-1.812711412
265.21700,-4.254266674
265.21750,-7.306210751
265.21800,-6.390627528
265.21850,-1.812711412
265.21900,1.84962148
265.21950,1.84962148
265.22000,0.9340382573
265.22050,2.460010296
265.22100,5.206759965
265.22150,6.732732004
265.22200,7.343120819
265.22250,7.953509634
265.22300,8.56389845
265.22350,8.258704042
265.22400,7.648315227
265.22450,7.953509634
265.22500,6.732732004
265.22550,1.84962148
265.22600,-4.864655489
265.22650,-8.832182789
265.22700,-7.306210751
265.22750,-3.338683451
265.22800,-1.812711412
265.22850,-3.643877858
265.22900,-4.864655489
265.22950,-2.423100227
265.23000,0.01845503415
265.23050,0.3236494419
265.23100,0.01845503415
265.23150,4.901565557
265.23200,15.58336983
265.23250,24.43400765
265.23300,24.12881324
265.23350,16.49895305
265.23400,9.174287265
265.23450,6.732732004
265.23500,6.427537596
265.23550,5.81714878
265.23600,3.985982334
265.23650,3.070399111
265.23700,3.375593519
265.23750,3.985982334
265.23800,4.291176742
265.23850,3.375593519
265.23900,1.84962148
265.23950,0.01845503415
265.24000,-0.5919337813
265.24050,-1.507517004
265.24100,-1.812711412
265.24150,-0.897128189
265.24200,0.3236494419
265.24250,0.6288438496
265.24300,-0.2867393736
265.24350,-0.897128189
265.24400,0.01845503415
265.24450,0.01845503415
265.24500,-0.2867393736
265.24550,-0.2867393736
265.24600,2.154815888
265.24650,5.206759965
265.24700,6.427537596
265.24750,5.81714878
265.24800,5.511954373
265.24850,6.732732004
265.24900,7.648315227
265.24950,7.343120819
265.25000,5.511954373
265.25050,3.375593519
265.25100,1.84962148
265.25150,1.84962148
265.25200,1.84962148
265.25250,0.01845503415
265.25300,-4.254266674
265.25350,-10.05296042
265.25400,-14.02048772
265.25450,-14.32568213
265.25500,-11.27373805
265.25550,-6.08543312
265.25600,-1.812711412
265.25650,-0.2867393736
265.25700,-0.5919337813
265.25750,-0.5919337813
265.25800,-0.5919337813
265.25850,-1.812711412
265.25900,-3.643877858
265.25950,-3.033489043
265.26000,-0.2867393736
265.26050,1.239232665
265.26100,0.01845503415
265.26150,-2.11790582
265.26200,-1.202322597
265.26250,1.84962148
265.26300,4.291176742
265.26350,4.291176742
265.26400,4.901565557
265.26450,7.037926411
265.26500,7.648315227
265.26550,5.511954373
265.26600,2.460010296
265.26650,1.84962148
265.26700,2.765204703
265.26750,2.765204703
265.26800,1.544427073
265.26850,0.9340382573
265.26900,1.544427073
265.26950,2.154815888
265.27000,1.544427073
265.27050,0.9340382573
265.27100,0.9340382573
265.27150,1.544427073
265.27200,2.154815888
265.27250,2.154815888
265.27300,1.544427073
265.27350,0.01845503415
265.27400,-0.5919337813
265.27450,-0.2867393736
265.27500,0.01845503415
265.27550,-0.2867393736
265.27600,-1.507517004
265.27650,-1.202322597
265.27700,-0.2867393736
265.27750,-0.5919337813
265.27800,-2.728294635
265.27850,-3.643877858
265.27900,-2.423100227
265.27950,-1.202322597
265.28000,-2.11790582
265.28050,-3.643877858
265.28100,-3.033489043
265.28150,-1.812711412
265.28200,-1.812711412
265.28250,-3.033489043
265.28300,-3.033489043
265.28350,-2.11790582
265.28400,-1.812711412
265.28450,-2.11790582
265.28500,-1.812711412
265.28550,-0.897128189
265.28600,-0.897128189
265.28650,-1.812711412
265.28700,-2.11790582
265.28750,-1.507517004
265.28800,-1.202322597
265.28850,-1.507517004
265.28900,-2.11790582
265.28950,-1.507517004
265.29000,-0.897128189
265.29050,-0.5919337813
265.29100,-0.5919337813
265.29150,-0.5919337813
265.29200,-0.5919337813
265.29250,-0.897128189
265.29300,-0.897128189
265.29350,-0.2867393736
265.29400,0.01845503415
265.29450,0.01845503415
265.29500,-0.2867393736
265.29550,-0.897128189
265.29600,-1.812711412
265.29650,-1.812711412
265.29700,-1.507517004
265.29750,-1.202322597
265.29800,-2.11790582
265.29850,-3.033489043
265.29900,-3.033489043
265.29950,-2.423100227
265.30000,-2.423100227
265.30050,-3.033489043
265.30100,-2.728294635
265.30150,-1.507517004
265.30200,-0.5919337813
265.30250,-0.897128189
265.30300,-1.202322597
265.30350,-0.5919337813
265.30400,-0.5919337813
265.30450,-1.507517004
265.30500,-1.507517004
265.30550,-0.2867393736
265.30600,0.6288438496
265.30650,0.01845503415
265.30700,-0.2867393736
265.30750,0.9340382573
265.30800,3.070399111
265.30850,2.765204703
265.30900,1.239232665
265.30950,0.3236494419
265.31000,0.9340382573
265.31050,2.154815888
265.31100,2.460010296
265.31150,3.375593519
265.31200,5.206759965
265.31250,6.732732004
265.31300,6.732732004
265.31350,6.122343188
265.31400,7.037926411
265.31450,10.08987049
265.31500,13.75220338
265.31550,14.97298101
265.31600,13.75220338
265.31650,10.7002593
265.31700,4.901565557
265.31750,-5.169849897
265.31800,-19.20879265
265.31850,-28.9750137
265.31900,-27.44904166
265.31950,-17.0724318
265.32000,-8.526988381
265.32050,-7.001016343
265.32100,-8.832182789
265.32150,-8.526988381
265.32200,-6.08543312
265.32250,-4.864655489
265.32300,-4.254266674
265.32350,-2.728294635
265.32400,-1.202322597
265.32450,-2.728294635
265.32500,-8.526988381
265.32550,-13.71529331
265.32600,-14.32568213
265.32650,-9.137377197
265.32700,-0.5919337813
265.32750,7.037926411
265.32800,12.22623134
265.32850,14.3625922
265.32900,15.27817542
265.32950,15.27817542
265.33000,12.83662016
265.33050,8.56389845
265.33100,5.81714878
265.33150,6.122343188
265.33200,6.427537596
265.33250,4.291176742
265.33300,1.544427073
265.33350,2.765204703
265.33400,6.427537596
265.33450,8.258704042
265.33500,7.037926411
265.33550,4.291176742
265.33600,2.154815888
265.33650,0.6288438496
265.33700,-0.5919337813
265.33750,-0.897128189
265.33800,0.01845503415
265.33850,1.84962148
265.33900,2.460010296
265.33950,1.239232665
265.34000,-0.2867393736
265.34050,-0.897128189
265.34100,-0.2867393736
265.34150,-1.202322597
265.34200,-3.338683451
265.34250,-4.864655489
265.34300,-2.423100227
265.34350,1.544427073
265.34400,2.460010296
265.34450,0.3236494419
265.34500,-0.897128189
265.34550,0.3236494419
265.34600,1.239232665
265.34650,0.01845503415
265.34700,-1.812711412
265.34750,-3.338683451
265.34800,-6.695821935
265.34850,-11.27373805
265.34900,-10.96854364
265.34950,-3.033489043
265.35000,5.81714878
265.35050,7.648315227
265.35100,2.765204703
265.35150,-0.897128189
265.35200,-0.5919337813
265.35250,0.9340382573
265.35300,1.544427073
265.35350,2.460010296
265.35400,4.59637115
265.35450,5.81714878
265.35500,5.206759965
265.35550,4.291176742
265.35600,3.375593519
265.35650,2.154815888
265.35700,1.239232665
265.35750,1.544427073
265.35800,2.154815888
265.35850,1.239232665
265.35900,-1.507517004
265.35950,-4.254266674
265.36000,-4.864655489
265.36050,-4.254266674
265.36100,-3.033489043
265.36150,-2.423100227
265.36200,-1.812711412
265.36250,-2.423100227
265.36300,-3.033489043
265.36350,-2.728294635
265.36400,-1.812711412
265.36450,-1.202322597
265.36500,-1.202322597
265.36550,-0.2867393736
265.36600,0.6288438496
265.36650,0.9340382573
265.36700,0.3236494419
265.36750,0.01845503415
265.36800,1.239232665
265.36850,2.154815888
265.36900,1.239232665
265.36950,0.6288438496
265.37000,1.239232665
265.37050,2.460010296
265.37100,1.544427073
265.37150,0.01845503415
265.37200,-0.2867393736
265.37250,1.544427073
265.37300,3.070399111
265.37350,2.154815888
265.37400,-0.2867393736
265.37450,-2.11790582
265.37500,-2.11790582
265.37550,-1.202322597
265.37600,-0.897128189
265.37650,-1.202322597
265.37700,-2.11790582
265.37750,-3.033489043
265.37800,-4.559461081
265.37850,-5.475044304
265.37900,-5.780238712
265.37950,-4.864655489
265.38000,-5.169849897
265.38050,-7.001016343
265.38100,-7.916599566
265.38150,-4.559461081
265.38200,1.84962148
265.38250,7.648315227
265.38300,10.3950649
265.38350,10.3950649
265.38400,10.08987049
265.38450,9.784676081
265.38500,9.174287265
265.38550,8.258704042
265.38600,7.037926411
265.38650,3.070399111
265.38700,-1.812711412
265.38750,-3.643877858
265.38800,-1.812711412
265.38850,-1.507517004
265.38900,-6.08543312
265.38950,-12.49451568
265.39000,-14.63087654
265.39050,-12.49451568
265.39100,-8.832182789
265.39150,-5.169849897
265.39200,-0.5919337813
265.39250,2.460010296
265.39300,1.544427073
265.39350,-1.812711412
265.39400,-2.423100227
265.39450,1.239232665
265.39500,4.59637115
265.39550,3.985982334
265.39600,1.84962148
265.39650,1.84962148
265.39700,2.765204703
265.39750,2.154815888
265.39800,1.239232665
265.39850,2.154815888
265.39900,4.901565557
265.39950,5.511954373
265.40000,2.765204703
265.40050,-0.5919337813
265.40100,-2.728294635
265.40150,-4.254266674
265.40200,-6.390627528
265.40250,-7.306210751
265.40300,-5.780238712
265.40350,-3.338683451
265.40400,-4.864655489
265.40450,-9.137377197
265.40500,-10.96854364
265.40550,-6.695821935
265.40600,-0.897128189
265.40650,0.6288438496
265.40700,-0.2867393736
265.40750,0.01845503415
265.40800,1.84962148
265.40850,3.375593519
265.40900,2.765204703
265.40950,2.460010296
265.41000,4.291176742
265.41050,5.81714878
265.41100,5.81714878
265.41150,5.81714878
265.41200,5.81714878
265.41250,4.59637115
265.41300,3.070399111
265.41350,3.375593519
265.41400,5.81714878
265.41450,7.037926411
265.41500,3.985982334
265.41550,0.01845503415
265.41600,-1.202322597
265.41650,0.01845503415
265.41700,0.3236494419
265.41750,-1.507517004
265.41800,-3.949072266
265.41850,-3.949072266
265.41900,-1.812711412
265.41950,0.01845503415
265.42000,0.3236494419
265.42050,0.3236494419
265.42100,0.6288438496
265.42150,0.6288438496
265.42200,-0.2867393736
265.42250,-1.202322597
265.42300,-0.897128189
265.42350,0.01845503415
265.42400,0.3236494419
265.42450,0.3236494419
265.42500,0.9340382573
265.42550,2.460010296
265.42600,3.375593519
265.42650,2.460010296
265.42700,0.6288438496
265.42750,0.01845503415
265.42800,0.01845503415
265.42850,0.01845503415
265.42900,-0.2867393736
265.42950,-0.5919337813
265.43000,0.01845503415
265.43050,0.01845503415
265.43100,-0.897128189
265.43150,-2.728294635
265.43200,-2.728294635
265.43250,0.9340382573
265.43300,3.985982334
265.43350,0.9340382573
265.43400,-6.08543312
265.43450,-9.747766012
265.43500,-7.001016343
265.43550,-6.695821935
265.43600,-15.24126535
265.43650,-21.65034791
265.43700,-10.96854364
265.43750,13.75220338
265.43800,30.5378958
265.43850,25.34959087
265.43900,9.479481673
265.43950,1.239232665
265.44000,3.680787927
265.44050,7.648315227
265.44100,6.732732004
265.44150,5.511954373
265.44200,6.427537596
265.44250,7.953509634
265.44300,8.869092857
265.44350,10.08987049
265.44400,11.92103693
265.44450,12.53142575
265.44500,11.00545371
265.44550,8.56389845
265.44600,4.291176742
265.44650,-2.11790582
265.44700,-8.221793974
265.44750,-9.442571605
265.44800,-7.001016343
265.44850,-7.001016343
265.44900,-11.88412687
265.44950,-15.54645976
265.45000,-12.79971009
265.45050,-6.695821935
265.45100,-3.949072266
265.45150,-5.780238712
265.45200,-7.916599566
265.45250,-7.306210751
265.45300,-5.780238712
265.45350,-5.780238712
265.45400,-6.08543312
265.45450,-4.254266674
265.45500,-0.5919337813
265.45550,1.239232665
265.45600,1.544427073
265.45650,2.460010296
265.45700,3.985982334
265.45750,3.680787927
265.45800,0.9340382573
265.45850,-0.2867393736
265.45900,1.544427073
265.45950,3.680787927
265.46000,2.154815888
265.46050,-2.11790582
265.46100,-5.169849897
265.46150,-4.864655489
265.46200,-3.643877858
265.46250,-3.033489043
265.46300,-3.338683451
265.46350,-5.169849897
265.46400,-7.001016343
265.46450,-6.08543312
265.46500,-2.423100227
265.46550,0.01845503415
265.46600,-1.202322597
265.46650,-1.812711412
265.46700,2.154815888
265.46750,7.953509634
265.46800,9.784676081
265.46850,8.56389845
265.46900,9.174287265
265.46950,10.08987049
265.47000,7.648315227
265.47050,5.206759965
265.47100,6.732732004
265.47150,9.479481673
265.47200,6.122343188
265.47250,-1.202322597
265.47300,-5.169849897
265.47350,-4.559461081
265.47400,-5.780238712
265.47450,-10.05296042
265.47500,-9.747766012
265.47550,-5.780238712
265.47600,-6.695821935
265.47650,-10.96854364
265.47700,-3.643877858
265.47750,18.94050831
265.47800,38.4729504
265.47850,36.94697837
265.47900,19.24570272
265.47950,4.291176742
265.48000,-0.2867393736
265.48050,-2.11790582
265.48100,-5.780238712
265.48150,-8.832182789
265.48200,-8.526988381
265.48250,-7.001016343
265.48300,-4.559461081
265.48350,-1.507517004
265.48400,1.239232665
265.48450,1.239232665
265.48500,0.01845503415
265.48550,0.01845503415
265.48600,0.01845503415
265.48650,-0.2867393736
265.48700,-0.5919337813
265.48750,0.3236494419
265.48800,0.3236494419
265.48850,-3.949072266
265.48900,-9.442571605
265.48950,-9.137377197
265.49000,-3.643877858
265.49050,0.01845503415
265.49100,-0.897128189
265.49150,-3.643877858
265.49200,-4.254266674
265.49250,-3.949072266
265.49300,-5.169849897
265.49350,-7.306210751
265.49400,-8.832182789
265.49450,-9.747766012
265.49500,-9.137377197
265.49550,-5.169849897
265.49600,1.239232665
265.49650,6.427537596
265.49700,6.427537596
265.49750,3.680787927
265.49800,3.070399111
265.49850,5.206759965
265.49900,6.122343188
265.49950,4.59637115
265.50000,2.765204703
265.50050,1.84962148
265.50100,1.239232665
265.50150,0.01845503415
265.50200,0.01845503415
265.50250,0.6288438496
265.50300,0.6288438496
265.50350,0.01845503415
265.50400,1.239232665
265.50450,3.375593519
265.50500,3.375593519
265.50550,1.544427073
265.50600,1.239232665
265.50650,2.460010296
265.50700,0.3236494419
265.50750,-7.916599566
265.50800,-18.29320943
265.50850,-24.39709758
265.50900,-25.31268081
265.50950,-24.70229199
265.51000,-24.09190317
265.51050,-23.17631995
265.51100,-21.3451535
265.51150,-15.85165417
265.51200,-4.254266674
265.51250,11.00545371
265.51300,21.68725798
265.51350,22.2976468
265.51400,17.10934187
265.51450,14.05739779
265.51500,13.14181457
265.51550,9.479481673
265.51600,0.6288438496
265.51650,-8.526988381
265.51700,-13.4100989
265.51750,-11.57893246
265.51800,-4.254266674
265.51850,4.901565557
265.51900,10.3950649
265.51950,9.784676081
265.52000,7.343120819
265.52050,6.122343188
265.52100,3.985982334
265.52150,-0.2867393736
265.52200,-3.338683451
265.52250,0.01845503415
265.52300,6.427537596
265.52350,7.953509634
265.52400,3.985982334
265.52450,1.239232665
265.52500,2.460010296
265.52550,3.375593519
265.52600,2.154815888
265.52650,1.544427073
265.52700,2.765204703
265.52750,3.375593519
265.52800,1.239232665
265.52850,0.9340382573
265.52900,4.291176742
265.52950,7.953509634
265.53000,7.953509634
265.53050,5.206759965
265.53100,3.375593519
265.53150,2.460010296
265.53200,1.544427073
265.53250,1.239232665
265.53300,1.84962148
265.53350,0.3236494419
265.53400,-5.475044304
265.53450,-11.57893246
265.53500,-11.57893246
265.53550,-6.08543312
265.53600,-3.033489043
265.53650,-4.864655489
265.53700,-6.390627528
265.53750,-2.728294635
265.53800,1.84962148
265.53850,2.765204703
265.53900,0.6288438496
265.53950,0.3236494419
265.54000,1.84962148
265.54050,1.84962148
265.54100,0.01845503415
265.54150,-1.507517004
265.54200,-0.5919337813
265.54250,0.01845503415
265.54300,-0.2867393736
265.54350,-1.812711412
265.54400,-2.11790582
265.54450,-1.507517004
265.54500,-0.5919337813
265.54550,0.3236494419
265.54600,1.84962148
265.54650,2.765204703
265.54700,3.070399111
265.54750,2.460010296
265.54800,1.84962148
265.54850,1.544427073
265.54900,1.84962148
265.54950,1.239232665
265.55000,0.01845503415
265.55050,-0.897128189
265.55100,0.01845503415
265.55150,2.154815888
265.55200,3.070399111
265.55250,2.765204703
265.55300,2.460010296
265.55350,2.460010296
265.55400,1.84962148
265.55450,0.01845503415
265.55500,-0.897128189
265.55550,-0.5919337813
265.55600,-0.2867393736
265.55650,-0.2867393736
265.55700,0.3236494419
265.55750,1.544427073
265.55800,1.544427073
265.55850,-0.2867393736
265.55900,-1.812711412
265.55950,-1.812711412
265.56000,-1.507517004
265.56050,-1.812711412
265.56100,-0.897128189
265.56150,1.239232665
265.56200,1.544427073
265.56250,-0.2867393736
265.56300,-1.812711412
265.56350,-0.897128189
265.56400,0.01845503415
265.56450,0.01845503415
265.56500,0.3236494419
265.56550,4.291176742
265.56600,8.56389845
265.56650,8.869092857
265.56700,7.343120819
265.56750,7.037926411
265.56800,6.732732004
265.56850,2.154815888
265.56900,-4.864655489
265.56950,-7.916599566
265.57000,-4.559461081
265.57050,0.01845503415
265.57100,1.239232665
265.57150,0.01845503415
265.57200,0.01845503415
265.57250,0.9340382573
265.57300,1.84962148
265.57350,1.84962148
265.57400,1.544427073
265.57450,1.239232665
265.57500,1.544427073
265.57550,2.154815888
265.57600,3.070399111
265.57650,3.985982334
265.57700,3.375593519
265.57750,1.84962148
265.57800,0.3236494419
265.57850,-0.2867393736
265.57900,-1.202322597
265.57950,-1.507517004
265.58000,-1.202322597
265.58050,-0.2867393736
265.58100,0.01845503415
265.58150,-2.11790582
265.58200,-4.864655489
265.58250,-5.169849897
265.58300,-3.338683451
265.58350,-1.812711412
265.58400,-1.507517004
265.58450,0.01845503415
265.58500,3.070399111
265.58550,1.84962148
265.58600,-5.475044304
265.58650,-13.4100989
265.58700,-11.27373805
265.58750,1.544427073
265.58800,14.3625922
265.58850,15.58336983
265.58900,4.291176742
265.58950,-8.526988381
265.59000,-14.63087654
265.59050,-12.79971009
265.59100,-7.916599566
265.59150,-5.169849897
265.59200,-4.864655489
265.59250,-4.559461081
265.59300,-3.643877858
265.59350,-2.11790582
265.59400,-1.202322597
265.59450,-0.5919337813
265.59500,0.01845503415
265.59550,0.01845503415
265.59600,-1.202322597
265.59650,-2.423100227
265.59700,-2.423100227
265.59750,-1.507517004
265.59800,-0.5919337813
265.59850,0.3236494419
265.59900,0.9340382573
265.59950,0.01845503415
265.60000,-2.728294635
265.60050,-6.390627528
265.60100,-10.66334924
265.60150,-14.63087654
265.60200,-14.93607094
265.60250,-10.66334924
265.60300,-7.001016343
265.60350,-8.526988381
265.60400,-9.137377197
265.60450,0.6288438496
265.60500,20.77167476
265.60550,36.03139514
265.60600,35.72620074
265.60650,26.2651741
265.60700,18.02492509
265.60750,14.05739779
265.60800,9.479481673
265.60850,3.680787927
265.60900,-0.897128189
265.60950,-3.643877858
265.61000,-5.169849897
265.61050,-4.864655489
265.61100,-0.5919337813
265.61150,3.985982334
265.61200,5.511954373
265.61250,3.985982334
265.61300,2.765204703
265.61350,3.070399111
265.61400,3.070399111
265.61450,1.84962148
265.61500,0.3236494419
265.61550,-0.2867393736
265.61600,-0.897128189
265.61650,-1.202322597
265.61700,-2.728294635
265.61750,-7.001016343
265.61800,-13.71529331
265.61850,-18.59840384
265.61900,-18.90359824
265.61950,-16.46204298
265.62000,-14.32568213
265.62050,-10.96854364
265.62100,-3.033489043
265.62150,7.648315227
265.62200,16.49895305
265.62250,20.77167476
265.62300,21.99245239
265.62350,21.07686917
265.62400,17.41453627
265.62450,11.92103693
265.62500,7.953509634
265.62550,7.037926411
265.62600,7.037926411
265.62650,5.511954373
265.62700,2.460010296
265.62750,-1.507517004
265.62800,-7.611405158
265.62850,-14.32568213
265.62900,-16.76723739
265.62950,-14.32568213
265.63000,-10.96854364
265.63050,-10.05296042
265.63100,-10.35815483
265.63150,-8.832182789
265.63200,-6.695821935
265.63250,-5.780238712
265.63300,-4.559461081
265.63350,-0.5919337813
265.63400,2.460010296
265.63450,1.239232665
265.63500,-1.202322597
265.63550,1.84962148
265.63600,13.14181457
265.63650,23.21323002
265.63700,23.51842443
265.63750,15.58336983
265.63800,6.122343188
265.63850,-1.202322597
265.63900,-6.695821935
265.63950,-10.05296042
265.64000,-12.79971009
265.64050,-17.0724318
265.64100,-23.17631995
265.64150,-27.14384725
265.64200,-24.09190317
265.64250,-16.15684857
265.64300,-9.137377197
265.64350,-6.08543312
265.64400,-5.169849897
265.64450,-3.033489043
265.64500,-0.2867393736
265.64550,1.239232665
265.64600,1.84962148
265.64650,2.765204703
265.64700,3.070399111
265.64750,2.460010296
265.64800,1.84962148
265.64850,1.544427073
265.64900,1.84962148
265.64950,1.239232665
265.65000,0.6288438496
265.65050,1.239232665
265.65100,2.765204703
265.65150,3.680787927
265.65200,2.765204703
265.65250,1.239232665
265.65300,0.6288438496
265.65350,1.544427073
265.65400,2.460010296
265.65450,3.680787927
265.65500,3.985982334
265.65550,3.070399111
265.65600,1.544427073
265.65650,1.544427073
265.65700,2.460010296
265.65750,2.154815888
265.65800,0.01845503415
265.65850,-0.5919337813
265.65900,0.01845503415
265.65950,0.6288438496
265.66000,-0.5919337813
265.66050,-2.728294635
265.66100,-2.728294635
265.66150,-1.202322597
265.66200,0.6288438496
265.66250,2.154815888
265.66300,3.375593519
265.66350,3.985982334
265.66400,3.680787927
265.66450,4.291176742
265.66500,5.511954373
265.66550,5.206759965
265.66600,3.375593519
265.66650,2.154815888
265.66700,4.291176742
265.66750,7.953509634
265.66800,10.08987049
265.66850,8.869092857
265.66900,5.81714878
265.66950,3.375593519
265.67000,3.375593519
265.67050,4.901565557
265.67100,4.291176742
265.67150,0.01845503415
265.67200,-4.864655489
265.67250,-7.001016343
265.67300,-5.475044304
265.67350,-3.949072266
265.67400,-2.728294635
265.67450,-0.2867393736
265.67500,1.84962148
265.67550,2.765204703
265.67600,3.070399111
265.67650,5.511954373
265.67700,8.56389845
265.67750,8.258704042
265.67800,5.206759965
265.67850,3.070399111
265.67900,1.239232665
265.67950,-3.949072266
265.68000,-11.27373805
265.68050,-13.71529331
265.68100,-9.747766012
265.68150,-4.254266674
265.68200,-0.897128189
265.68250,2.154815888
265.68300,6.122343188
265.68350,6.732732004
265.68400,3.680787927
265.68450,1.84962148
265.68500,3.680787927
265.68550,5.81714878
265.68600,4.59637115
265.68650,1.239232665
265.68700,-3.338683451
265.68750,-9.137377197
265.68800,-11.57893246
265.68850,-5.169849897
265.68900,3.375593519
265.68950,3.070399111
265.69000,-6.390627528
265.69050,-8.832182789
265.69100,3.985982334
265.69150,19.24570272
265.69200,19.55089713
265.69250,7.037926411
265.69300,-3.033489043
265.69350,-5.169849897
265.69400,-4.559461081
265.69450,-4.559461081
265.69500,-1.812711412
265.69550,2.765204703
265.69600,4.59637115
265.69650,1.544427073
265.69700,-1.507517004
265.69750,-2.11790582
265.69800,-2.11790582
265.69850,-3.338683451
265.69900,-3.949072266
265.69950,-2.423100227
265.70000,-0.897128189
265.70050,-0.5919337813
265.70100,-0.5919337813
265.70150,-0.2867393736
265.70200,-0.897128189
265.70250,-1.812711412
265.70300,-1.812711412
265.70350,0.01845503415
265.70400,0.9340382573
265.70450,1.239232665
265.70500,1.239232665
265.70550,0.9340382573
265.70600,-0.2867393736
265.70650,-2.423100227
265.70700,-2.423100227
265.70750,-0.2867393736
265.70800,1.239232665
265.70850,0.3236494419
265.70900,-1.202322597
265.70950,-1.202322597
265.71000,0.9340382573
265.71050,3.375593519
265.71100,4.291176742
265.71150,2.765204703
265.71200,0.01845503415
265.71250,-1.812711412
265.71300,-3.033489043
265.71350,-3.949072266
265.71400,-6.695821935
265.71450,-10.05296042
265.71500,-11.57893246
265.71550,-9.442571605
265.71600,-4.254266674
265.71650,0.9340382573
265.71700,4.291176742
265.71750,4.59637115
265.71800,3.070399111
265.71850,2.154815888
265.71900,2.154815888
265.71950,1.84962148
265.72000,-0.2867393736
265.72050,-4.559461081
265.72100,-8.526988381
265.72150,-10.05296042
265.72200,-8.832182789
265.72250,-6.08543312
265.72300,-3.338683451
265.72350,-0.5919337813
265.72400,1.239232665
265.72450,3.070399111
265.72500,3.985982334
265.72550,2.765204703
265.72600,1.239232665
265.72650,1.239232665
265.72700,2.460010296
265.72750,3.680787927
265.72800,2.765204703
265.72850,1.544427073
265.72900,1.84962148
265.72950,3.375593519
265.73000,3.375593519
265.73050,2.460010296
265.73100,1.84962148
265.73150,2.460010296
265.73200,3.070399111
265.73250,1.544427073
265.73300,-0.2867393736
265.73350,-0.897128189
265.73400,-0.2867393736
265.73450,0.3236494419
265.73500,0.3236494419
265.73550,0.01845503415
265.73600,-0.897128189
265.73650,-0.5919337813
265.73700,0.3236494419
265.73750,1.84962148
265.73800,2.154815888
265.73850,0.9340382573
265.73900,0.01845503415
265.73950,0.3236494419
265.74000,0.6288438496
265.74050,-0.2867393736
265.74100,-1.507517004
265.74150,-1.812711412
265.74200,-1.202322597
265.74250,-0.897128189
265.74300,-0.2867393736
265.74350,0.6288438496
265.74400,0.9340382573
265.74450,-0.897128189
265.74500,-3.338683451
265.74550,-3.338683451
265.74600,-1.507517004
265.74650,-0.5919337813
265.74700,-0.897128189
265.74750,0.3236494419
265.74800,2.765204703
265.74850,4.291176742
265.74900,4.59637115
265.74950,6.732732004
265.75000,11.31064812
265.75050,14.6677866
265.75100,14.6677866
265.75150,14.97298101
265.75200,15.27817542
265.75250,10.3950649
265.75300,-2.423100227
265.75350,-18.59840384
265.75400,-29.89059692
265.75450,-33.85812422
265.75500,-32.63734659
265.75550,-25.0074864
265.75600,-11.57893246
265.75650,3.375593519
265.75700,13.44700897
265.75750,15.88856423
265.75800,13.75220338
265.75850,11.00545371
265.75900,8.869092857
265.75950,8.258704042
265.76000,7.648315227
265.76050,4.901565557
265.76100,-0.5919337813
265.76150,-6.695821935
265.76200,-11.27373805
265.76250,-14.32568213
265.76300,-15.24126535
265.76350,-11.57893246
265.76400,-3.643877858
265.76450,1.84962148
265.76500,1.84962148
265.76550,-0.5919337813
265.76600,0.01845503415
265.76650,3.375593519
265.76700,3.680787927
265.76750,0.9340382573
265.76800,-0.5919337813
265.76850,-0.897128189
265.76900,-3.643877858
265.76950,-8.832182789
265.77000,-9.747766012
265.77050,-4.864655489
265.77100,-0.2867393736
265.77150,-0.5919337813
265.77200,-2.423100227
265.77250,-0.897128189
265.77300,1.84962148
265.77350,2.154815888
265.77400,0.01845503415
265.77450,0.01845503415
265.77500,1.239232665
265.77550,0.9340382573
265.77600,-0.897128189
265.77650,-2.11790582
265.77700,-2.423100227
265.77750,-3.338683451
265.77800,-5.169849897
265.77850,-4.254266674
265.77900,-0.5919337813
265.77950,2.460010296
265.78000,4.291176742
265.78050,5.206759965
265.78100,5.511954373
265.78150,4.291176742
265.78200,3.985982334
265.78250,8.56389845
265.78300,15.27817542
265.78350,16.80414746
265.78400,11.00545371
265.78450,5.81714878
265.78500,6.427537596
265.78550,8.258704042
265.78600,5.206759965
265.78650,-0.5919337813
265.78700,-3.338683451
265.78750,-1.507517004
265.78800,0.6288438496
265.78850,1.239232665
265.78900,1.544427073
265.78950,1.544427073
265.79000,0.9340382573
265.79050,0.01845503415
265.79100,0.3236494419
265.79150,1.544427073
265.79200,1.544427073
265.79250,1.544427073
265.79300,1.544427073
265.79350,1.84962148
265.79400,1.239232665
265.79450,1.544427073
265.79500,1.239232665
265.79550,-2.11790582
265.79600,-8.221793974
265.79650,-12.18932127
265.79700,-12.18932127
265.79750,-13.1049045
265.79800,-17.98801502
265.79850,-22.87112554
265.79900,-21.0399591
265.79950,-11.88412687
265.80000,0.9340382573
265.80050,16.19375864
265.80100,30.2327014
265.80150,35.72620074
265.80200,27.79114613
265.80250,12.53142575
265.80300,2.765204703
265.80350,2.460010296
265.80400,4.901565557
265.80450,3.680787927
265.80500,0.9340382573
265.80550,0.01845503415
265.80600,0.3236494419
265.80650,0.01845503415
265.80700,-0.5919337813
265.80750,-0.2867393736
265.80800,0.3236494419
265.80850,-0.2867393736
265.80900,-1.812711412
265.80950,-2.11790582
265.81000,-2.728294635
265.81050,-5.169849897
265.81100,-7.306210751
265.81150,-6.08543312
265.81200,-2.728294635
265.81250,-3.338683451
265.81300,-9.442571605
265.81350,-13.71529331
265.81400,-9.442571605
265.81450,0.6288438496
265.81500,6.732732004
265.81550,3.680787927
265.81600,-2.423100227
265.81650,-4.559461081
265.81700,-0.5919337813
265.81750,2.765204703
265.81800,2.154815888
265.81850,-0.897128189
265.81900,-2.423100227
265.81950,-1.812711412
265.82000,-0.897128189
265.82050,-3.033489043
265.82100,-7.001016343
265.82150,-10.05296042
265.82200,-10.05296042
265.82250,-8.221793974
265.82300,-6.08543312
265.82350,-3.643877858
265.82400,-0.2867393736
265.82450,0.9340382573
265.82500,-0.2867393736
265.82550,-2.423100227
265.82600,-2.728294635
265.82650,-0.897128189
265.82700,-0.897128189
265.82750,-2.11790582
265.82800,-1.812711412
265.82850,0.9340382573
265.82900,3.985982334
265.82950,4.901565557
265.83000,4.59637115
265.83050,5.81714878
265.83100,6.732732004
265.83150,5.81714878
265.83200,3.985982334
265.83250,3.070399111
265.83300,2.765204703
265.83350,2.154815888
265.83400,1.239232665
265.83450,1.544427073
265.83500,2.460010296
265.83550,1.544427073
265.83600,0.01845503415
265.83650,-0.5919337813
265.83700,0.9340382573
265.83750,2.765204703
265.83800,3.070399111
265.83850,2.460010296
265.83900,1.84962148
265.83950,1.84962148
265.84000,0.6288438496
265.84050,-0.5919337813
265.84100,-0.5919337813
265.84150,0.6288438496
265.84200,1.239232665
265.84250,0.3236494419
265.84300,-0.5919337813
265.84350,-0.2867393736
265.84400,0.6288438496
265.84450,1.239232665
265.84500,0.9340382573
265.84550,0.9340382573
265.84600,0.3236494419
265.84650,0.01845503415
265.84700,-0.2867393736
265.84750,0.01845503415
265.84800,0.9340382573
265.84850,0.9340382573
265.84900,0.3236494419
265.84950,0.6288438496
265.85000,2.765204703
265.85050,4.291176742
265.85100,3.375593519
265.85150,1.544427073
265.85200,0.9340382573
265.85250,1.544427073
265.85300,1.544427073
265.85350,0.3236494419
265.85400,-0.5919337813
265.85450,-0.897128189
265.85500,-2.11790582
265.85550,-4.559461081
265.85600,-5.169849897
265.85650,-2.423100227
265.85700,2.460010296
265.85750,6.427537596
265.85800,7.953509634
265.85850,7.343120819
265.85900,4.901565557
265.85950,2.460010296
265.86000,1.84962148
265.86050,2.460010296
265.86100,1.239232665
265.86150,-2.11790582
265.86200,-6.390627528
265.86250,-9.137377197
265.86300,-10.05296042
265.86350,-9.442571605
265.86400,-5.780238712
265.86450,-0.5919337813
265.86500,1.84962148
265.86550,1.239232665
265.86600,0.01845503415
265.86650,1.239232665
265.86700,1.84962148
265.86750,0.01845503415
265.86800,-2.11790582
265.86850,-0.897128189
265.86900,0.6288438496
265.86950,-0.897128189
265.87000,-5.780238712
265.87050,-8.526988381
265.87100,-6.695821935
265.87150,-3.033489043
265.87200,-0.897128189
265.87250,-0.2867393736
265.87300,-0.2867393736
265.87350,-0.2867393736
265.87400,-0.5919337813
265.87450,-1.202322597
265.87500,-2.11790582
265.87550,-3.338683451
265.87600,-3.338683451
265.87650,-2.423100227
265.87700,-2.423100227
265.87750,-3.949072266
265.87800,-3.338683451
265.87850,1.544427073
265.87900,7.343120819
265.87950,8.258704042
265.88000,4.291176742
265.88050,0.6288438496
265.88100,0.9340382573
265.88150,1.544427073
265.88200,0.6288438496
265.88250,0.3236494419
265.88300,2.154815888
265.88350,4.901565557
265.88400,4.59637115
265.88450,2.460010296
265.88500,3.070399111
265.88550,6.427537596
265.88600,8.869092857
265.88650,7.648315227
265.88700,6.122343188
265.88750,5.81714878
265.88800,3.680787927
265.88850,-2.728294635
265.88900,-10.96854364
265.88950,-14.32568213
265.89000,-10.96854364
265.89050,-6.390627528
265.89100,-4.559461081
265.89150,-5.169849897
265.89200,-4.254266674
265.89250,-2.11790582
265.89300,-0.2867393736
265.89350,0.01845503415
265.89400,0.01845503415
265.89450,0.3236494419
265.89500,0.6288438496
265.89550,-1.507517004
265.89600,-5.475044304
265.89650,-7.611405158
265.89700,-5.169849897
265.89750,0.3236494419
265.89800,4.291176742
265.89850,3.680787927
265.89900,2.154815888
265.89950,3.070399111
265.90000,5.81714878
265.90050,7.037926411
265.90100,6.427537596
265.90150,5.511954373
265.90200,5.511954373
265.90250,5.511954373
265.90300,5.206759965
265.90350,5.511954373
265.90400,5.511954373
265.90450,3.985982334
265.90500,0.3236494419
265.90550,-3.338683451
265.90600,-6.08543312
265.90650,-6.695821935
265.90700,-5.475044304
265.90750,-3.338683451
265.90800,-2.11790582
265.90850,-1.812711412
265.90900,0.01845503415
265.90950,4.291176742
265.91000,9.174287265
265.91050,11.00545371
265.91100,8.869092857
265.91150,5.206759965
265.91200,3.070399111
265.91250,2.765204703
265.91300,2.765204703
265.91350,2.460010296
265.91400,2.154815888
265.91450,2.765204703
265.91500,3.375593519
265.91550,1.239232665
265.91600,-3.338683451
265.91650,-6.695821935
265.91700,-7.611405158
265.91750,-9.137377197
265.91800,-12.18932127
265.91850,-12.18932127
265.91900,-7.001016343
265.91950,-3.949072266
265.92000,-7.611405158
265.92050,-11.57893246
265.92100,-6.390627528
265.92150,3.070399111
265.92200,5.81714878
265.92250,0.01845503415
265.92300,-3.949072266
265.92350,-1.812711412
265.92400,0.01845503415
265.92450,0.01845503415
265.92500,5.511954373
265.92550,16.80414746
265.92600,21.07686917
265.92650,9.479481673
265.92700,-5.780238712
265.92750,-8.526988381
265.92800,1.544427073
265.92850,10.08987049
265.92900,9.479481673
265.92950,4.59637115
265.93000,1.239232665
265.93050,0.01845503415
265.93100,-0.2867393736
265.93150,0.3236494419
265.93200,1.84962148
265.93250,1.544427073
265.93300,0.01845503415
265.93350,0.3236494419
265.93400,3.070399111
265.93450,5.206759965
265.93500,5.206759965
265.93550,5.81714878
265.93600,6.732732004
265.93650,5.81714878
265.93700,2.765204703
265.93750,0.6288438496
265.93800,1.84962148
265.93850,3.680787927
265.93900,3.375593519
265.93950,0.9340382573
265.94000,-0.897128189
265.94050,-3.033489043
265.94100,-5.475044304
265.94150,-8.221793974
265.94200,-10.96854364
265.94250,-13.71529331
265.94300,-15.54645976
265.94350,-14.02048772
265.94400,-9.442571605
265.94450,-6.08543312
265.94500,-5.475044304
265.94550,-5.780238712
265.94600,-3.643877858
265.94650,-0.2867393736
265.94700,0.3236494419
265.94750,-0.897128189
265.94800,-1.202322597
265.94850,0.3236494419
265.94900,2.154815888
265.94950,4.291176742
265.95000,7.037926411
265.95050,8.869092857
265.95100,5.206759965
265.95150,-2.423100227
265.95200,-8.221793974
265.95250,-8.526988381
265.95300,-5.780238712
265.95350,-3.338683451
265.95400,-0.897128189
265.95450,2.460010296
265.95500,4.59637115
265.95550,2.460010296
265.95600,-1.812711412
265.95650,-4.864655489
265.95700,-4.864655489
265.95750,-3.338683451
265.95800,-1.812711412
265.95850,0.01845503415
265.95900,0.9340382573
265.95950,1.84962148
265.96000,2.154815888
265.96050,0.6288438496
265.96100,-3.643877858
265.96150,-9.137377197
265.96200,-10.66334924
265.96250,-6.695821935
265.96300,-3.033489043
265.96350,-4.254266674
265.96400,-7.306210751
265.96450,-6.08543312
265.96500,-0.897128189
265.96550,1.544427073
265.96600,-0.5919337813
265.96650,-4.559461081
265.96700,-6.695821935
265.96750,-7.611405158
265.96800,-7.001016343
265.96850,-3.338683451
265.96900,2.460010296
265.96950,5.81714878
265.97000,4.901565557
265.97050,4.291176742
265.97100,8.258704042
265.97150,14.05739779
265.97200,15.88856423
265.97250,12.53142575
265.97300,7.953509634
265.97350,4.901565557
265.97400,3.985982334
265.97450,4.291176742
265.97500,4.59637115
265.97550,3.985982334
265.97600,3.375593519
265.97650,3.985982334
265.97700,6.122343188
265.97750,7.037926411
265.97800,6.732732004
265.97850,6.732732004
265.97900,7.037926411
265.97950,4.59637115
265.98000,-1.202322597
265.98050,-7.306210751
265.98100,-9.137377197
265.98150,-8.832182789
265.98200,-9.442571605
265.98250,-9.747766012
265.98300,-6.08543312
265.98350,-0.2867393736
265.98400,2.154815888
265.98450,0.9340382573
265.98500,-0.897128189
265.98550,-1.507517004
265.98600,-1.202322597
265.98650,-0.5919337813
265.98700,0.01845503415
265.98750,0.6288438496
265.98800,0.01845503415
265.98850,-0.5919337813
265.98900,-0.5919337813
265.98950,0.01845503415
265.99000,0.3236494419
265.99050,0.3236494419
265.99100,1.239232665
265.99150,2.460010296
265.99200,2.154815888
265.99250,1.239232665
265.99300,0.9340382573
265.99350,2.460010296
265.99400,4.59637115
265.99450,5.81714878
265.99500,6.122343188
265.99550,5.81714878
265.99600,4.59637115
265.99650,2.460010296
265.99700,0.9340382573
265.99750,0.6288438496
265.99800,0.9340382573
265.99850,0.6288438496
265.99900,0.01845503415
265.99950,-0.2867393736
266.00000,-0.5919337813
266.00050,-0.897128189
266.00100,-1.812711412
266.00150,-3.338683451
266.00200,-4.254266674
266.00250,-3.338683451
266.00300,-1.812711412
266.00350,-1.812711412
266.00400,-3.033489043
266.00450,-3.643877858
266.00500,-2.728294635
266.00550,-1.507517004
266.00600,-0.897128189
266.00650,-1.507517004
266.00700,-2.423100227
266.00750,-2.423100227
266.00800,-1.812711412
266.00850,-0.897128189
266.00900,0.01845503415
266.00950,0.6288438496
266.01000,1.239232665
266.01050,1.239232665
266.01100,-1.202322597
266.01150,-5.780238712
266.01200,-9.442571605
266.01250,-8.221793974
266.01300,-3.033489043
266.01350,1.544427073
266.01400,4.901565557
266.01450,7.648315227
266.01500,8.869092857
266.01550,6.427537596
266.01600,1.84962148
266.01650,0.3236494419
266.01700,2.765204703
266.01750,4.291176742
266.01800,2.460010296
266.01850,0.6288438496
266.01900,2.154815888
266.01950,3.985982334
266.02000,3.070399111
266.02050,1.544427073
266.02100,1.84962148
266.02150,2.460010296
266.02200,0.6288438496
266.02250,-1.202322597
266.02300,-1.202322597
266.02350,0.01845503415
266.02400,-3.033489043
266.02450,-10.96854364
266.02500,-17.3776262
266.02550,-16.15684857
266.02600,-8.832182789
266.02650,-2.11790582
266.02700,-1.507517004
266.02750,-3.033489043
266.02800,0.01845503415
266.02850,11.00545371
266.02900,21.38206357
266.02950,21.07686917
266.03000,10.08987049
266.03050,-0.897128189
266.03100,-5.475044304
266.03150,-4.254266674
266.03200,-1.507517004
266.03250,-0.897128189
266.03300,-7.611405158
266.03350,-21.95554232
266.03400,-35.99448507
266.03450,-39.35162356
266.03500,-33.55292981
266.03550,-29.28020811
266.03600,-26.83865284
266.03650,-15.85165417
266.03700,6.122343188
266.03750,26.87556291
266.03800,35.42100633
266.03850,35.11581192
266.03900,32.36906225
266.03950,23.82361883
266.04000,8.56389845
266.04050,-0.2867393736
266.04100,6.122343188
266.04150,19.24570272
266.04200,20.77167476
266.04250,10.08987049
266.04300,2.154815888
266.04350,3.680787927
266.04400,6.427537596
266.04450,3.680787927
266.04500,-0.5919337813
266.04550,-0.897128189
266.04600,1.239232665
266.04650,2.154815888
266.04700,2.460010296
266.04750,4.59637115
266.04800,6.427537596
266.04850,5.81714878
266.04900,3.375593519
266.04950,2.460010296
266.05000,2.154815888
266.05050,0.01845503415
266.05100,-4.559461081
266.05150,-8.221793974
266.05200,-8.526988381
266.05250,-6.08543312
266.05300,-3.949072266
266.05350,-3.338683451
266.05400,-3.949072266
266.05450,-4.254266674
266.05500,-4.254266674
266.05550,-5.780238712
266.05600,-8.221793974
266.05650,-9.442571605
266.05700,-7.001016343
266.05750,-4.254266674
266.05800,-4.559461081
266.05850,-7.306210751
266.05900,-6.390627528
266.05950,0.6288438496
266.06000,8.258704042
266.06050,9.479481673
266.06100,4.59637115
266.06150,0.01845503415
266.06200,0.01845503415
266.06250,0.9340382573
266.06300,0.6288438496
266.06350,-0.2867393736
266.06400,0.01845503415
266.06450,1.239232665
266.06500,1.239232665
266.06550,0.6288438496
266.06600,1.239232665
266.06650,1.84962148
266.06700,1.544427073
266.06750,1.239232665
266.06800,2.460010296
266.06850,3.985982334
266.06900,3.680787927
266.06950,1.544427073
266.07000,0.01845503415
266.07050,0.6288438496
266.07100,1.544427073
266.07150,2.765204703
266.07200,5.206759965
266.07250,7.953509634
266.07300,8.56389845
266.07350,6.732732004
266.07400,5.511954373
266.07450,5.81714878
266.07500,5.81714878
266.07550,3.680787927
266.07600,0.3236494419
266.07650,-4.559461081
266.07700,-12.49451568
266.07750,-22.26073673
266.07800,-29.58540251
266.07850,-30.50098574
266.07900,-25.31268081
266.07950,-17.3776262
266.08000,-9.137377197
266.08050,-2.423100227
266.08100,0.6288438496
266.08150,0.3236494419
266.08200,-1.202322597
266.08250,-1.507517004
266.08300,0.01845503415
266.08350,0.9340382573
266.08400,0.6288438496
266.08450,0.01845503415
266.08500,0.01845503415
266.08550,1.544427073
266.08600,3.680787927
266.08650,3.985982334
266.08700,3.375593519
266.08750,3.070399111
266.08800,4.291176742
266.08850,5.206759965
266.08900,4.59637115
266.08950,3.375593519
266.09000,3.070399111
266.09050,3.680787927
266.09100,3.985982334
266.09150,3.680787927
266.09200,3.375593519
266.09250,2.765204703
266.09300,1.239232665
266.09350,-0.897128189
266.09400,-1.812711412
266.09450,-1.812711412
266.09500,-2.11790582
266.09550,-1.812711412
266.09600,2.154815888
266.09650,8.258704042
266.09700,11.31064812
266.09750,8.869092857
266.09800,3.985982334
266.09850,0.6288438496
266.09900,0.01845503415
266.09950,0.6288438496
266.10000,0.6288438496
266.10050,-0.5919337813
266.10100,-1.812711412
266.10150,-1.812711412
266.10200,0.01845503415
266.10250,0.9340382573
266.10300,0.01845503415
266.10350,0.01845503415
266.10400,2.460010296
266.10450,6.122343188
266.10500,7.343120819
266.10550,5.511954373
266.10600,3.680787927
266.10650,1.239232665
266.10700,-2.11790582
266.10750,-4.254266674
266.10800,-1.202322597
266.10850,4.901565557
266.10900,8.869092857
266.10950,7.037926411
266.11000,2.765204703
266.11050,0.01845503415
266.11100,-1.202322597
266.11150,-1.812711412
266.11200,-2.728294635
266.11250,-4.864655489
266.11300,-9.442571605
266.11350,-13.71529331
266.11400,-12.49451568
266.11450,-4.559461081
266.11500,3.375593519
266.11550,6.427537596
266.11600,4.59637115
266.11650,2.154815888
266.11700,1.84962148
266.11750,3.070399111
266.11800,3.985982334
266.11850,4.59637115
266.11900,4.59637115
266.11950,3.985982334
266.12000,3.375593519
266.12050,3.375593519
266.12100,3.680787927
266.12150,4.291176742
266.12200,5.206759965
266.12250,6.122343188
266.12300,5.511954373
266.12350,3.680787927
266.12400,2.460010296
266.12450,2.765204703
266.12500,0.9340382573
266.12550,-4.254266674
266.12600,-9.137377197
266.12650,-7.001016343
266.12700,1.239232665
266.12750,8.258704042
266.12800,7.343120819
266.12850,1.239232665
266.12900,-2.728294635
266.12950,-2.728294635
266.13000,-1.812711412
266.13050,-3.033489043
266.13100,-5.169849897
266.13150,-5.780238712
266.13200,-3.949072266
266.13250,-0.2867393736
266.13300,3.375593519
266.13350,4.901565557
266.13400,3.070399111
266.13450,0.6288438496
266.13500,1.544427073
266.13550,4.901565557
266.13600,7.037926411
266.13650,5.81714878
266.13700,3.375593519
266.13750,3.070399111
266.13800,3.070399111
266.13850,1.544427073
266.13900,0.01845503415
266.13950,-0.897128189
266.14000,-3.338683451
266.14050,-8.832182789
266.14100,-15.85165417
266.14150,-19.51398706
266.14200,-17.68282061
266.14250,-12.18932127
266.14300,-7.306210751
266.14350,-4.864655489
266.14400,-5.475044304
266.14450,-7.611405158
266.14500,-7.916599566
266.14550,-5.169849897
266.14600,-0.897128189
266.14650,2.154815888
266.14700,4.59637115
266.14750,6.122343188
266.14800,7.037926411
266.14850,7.648315227
266.14900,8.258704042
266.14950,9.174287265
266.15000,7.953509634
266.15050,2.765204703
266.15100,-3.338683451
266.15150,-7.916599566
266.15200,-8.526988381
266.15250,-7.611405158
266.15300,-5.475044304
266.15350,-2.423100227
266.15400,-0.2867393736
266.15450,-0.2867393736
266.15500,-1.507517004
266.15550,-3.033489043
266.15600,-4.559461081
266.15650,-6.08543312
266.15700,-7.001016343
266.15750,-5.475044304
266.15800,-4.559461081
266.15850,-7.001016343
266.15900,-13.71529331
266.15950,-18.29320943
266.16000,-16.76723739
266.16050,-8.221793974
266.16100,3.070399111
266.16150,12.83662016
266.16200,16.80414746
266.16250,15.27817542
266.16300,11.31064812
266.16350,9.174287265
266.16400,8.869092857
266.16450,6.732732004
266.16500,0.6288438496
266.16550,-5.475044304
266.16600,-7.306210751
266.16650,-5.475044304
266.16700,-3.949072266
266.16750,-3.338683451
266.16800,-2.11790582
266.16850,0.01845503415
266.16900,0.01845503415
266.16950,-1.202322597
266.17000,-0.897128189
266.17050,0.3236494419
266.17100,-0.2867393736
266.17150,-3.338683451
266.17200,-3.338683451
266.17250,0.3236494419
266.17300,2.460010296
266.17350,-1.202322597
266.17400,-4.864655489
266.17450,0.01845503415
266.17500,10.7002593
266.17550,16.49895305
266.17600,13.75220338
266.17650,8.56389845
266.17700,7.648315227
266.17750,8.869092857
266.17800,7.648315227
266.17850,5.206759965
266.17900,5.206759965
266.17950,7.648315227
266.18000,8.258704042
266.18050,4.291176742
266.18100,-1.812711412
266.18150,-5.475044304
266.18200,-3.338683451
266.18250,0.01845503415
266.18300,-1.507517004
266.18350,-10.96854364
266.18400,-19.51398706
266.18450,-19.81918147
266.18500,-15.54645976
266.18550,-15.24126535
266.18600,-19.20879265
266.18650,-19.20879265
266.18700,-9.442571605
266.18750,5.206759965
266.18800,14.97298101
266.18850,15.27817542
266.18900,9.479481673
266.18950,7.037926411
266.19000,13.44700897
266.19050,24.73920206
266.19100,29.31711817
266.19150,21.99245239
266.19200,8.869092857
266.19250,0.01845503415
266.19300,-1.507517004
266.19350,-0.2867393736
266.19400,0.6288438496
266.19450,1.84962148
266.19500,2.154815888
266.19550,0.01845503415
266.19600,-2.423100227
266.19650,-2.728294635
266.19700,-2.11790582
266.19750,-3.338683451
266.19800,-4.559461081
266.19850,-3.643877858
266.19900,-3.033489043
266.19950,-7.306210751
266.20000,-11.57893246
266.20050,-6.695821935
266.20100,6.732732004
266.20150,17.41453627
266.20200,16.19375864
266.20250,7.648315227
266.20300,2.765204703
266.20350,4.291176742
266.20400,3.985982334
266.20450,-2.728294635
266.20500,-12.79971009
266.20550,-18.29320943
266.20600,-17.68282061
266.20650,-15.54645976
266.20700,-13.71529331
266.20750,-8.221793974
266.20800,3.985982334
266.20850,17.10934187
266.20900,21.68725798
266.20950,15.88856423
266.21000,7.343120819
266.21050,3.070399111
266.21100,1.84962148
266.21150,1.84962148
266.21200,3.680787927
266.21250,6.427537596
266.21300,7.953509634
266.21350,7.648315227
266.21400,7.648315227
266.21450,7.343120819
266.21500,2.460010296
266.21550,-7.306210751
266.21600,-14.63087654
266.21650,-12.49451568
266.21700,-4.864655489
266.21750,0.3236494419
266.21800,1.544427073
266.21850,0.6288438496
266.21900,-2.11790582
266.21950,-7.001016343
266.22000,-8.526988381
266.22050,-3.338683451
266.22100,3.070399111
266.22150,2.460010296
266.22200,-3.643877858
266.22250,-7.916599566
266.22300,-6.695821935
266.22350,-5.475044304
266.22400,-6.695821935
266.22450,-7.611405158
266.22500,-4.864655489
266.22550,-1.202322597
266.22600,0.01845503415
266.22650,0.6288438496
266.22700,3.375593519
266.22750,5.81714878
266.22800,5.206759965
266.22850,2.154815888
266.22900,-0.897128189
266.22950,-3.033489043
266.23000,-4.254266674
266.23050,-4.254266674
266.23100,-3.643877858
266.23150,-2.423100227
266.23200,-1.507517004
266.23250,-0.5919337813
266.23300,0.01845503415
266.23350,0.01845503415
266.23400,0.01845503415
266.23450,0.01845503415
266.23500,0.6288438496
266.23550,0.6288438496
266.23600,0.01845503415
266.23650,-0.5919337813
266.23700,-1.507517004
266.23750,-3.338683451
266.23800,-5.169849897
266.23850,-4.864655489
266.23900,-3.033489043
266.23950,-1.812711412
266.24000,-2.11790582
266.24050,-2.728294635
266.24100,-2.728294635
266.24150,-3.033489043
266.24200,-2.728294635
266.24250,0.6288438496
266.24300,7.343120819
266.24350,12.22623134
266.24400,11.61584253
266.24450,7.648315227
266.24500,4.901565557
266.24550,4.59637115
266.24600,4.291176742
266.24650,2.460010296
266.24700,0.3236494419
266.24750,0.01845503415
266.24800,-0.2867393736
266.24850,-0.897128189
266.24900,0.01845503415
266.24950,2.765204703
266.25000,5.206759965
266.25050,4.901565557
266.25100,3.375593519
266.25150,3.680787927
266.25200,5.206759965
266.25250,4.901565557
266.25300,2.154815888
266.25350,0.01845503415
266.25400,0.01845503415
266.25450,0.01845503415
266.25500,0.9340382573
266.25550,4.901565557
266.25600,10.7002593
266.25650,10.7002593
266.25700,2.765204703
266.25750,-3.949072266
266.25800,-2.728294635
266.25850,1.239232665
266.25900,-1.507517004
266.25950,-12.18932127
266.26000,-21.65034791
266.26050,-25.92306962
266.26100,-26.22826403
266.26150,-23.78670877
266.26200,-17.68282061
266.26250,-12.18932127
266.26300,-12.49451568
266.26350,-15.24126535
266.26400,-10.66334924
266.26450,2.154815888
266.26500,11.92103693
266.26550,9.784676081
266.26600,1.84962148
266.26650,-0.897128189
266.26700,1.84962148
266.26750,5.81714878
266.26800,7.953509634
266.26850,9.784676081
266.26900,11.00545371
266.26950,10.08987049
266.27000,8.258704042
266.27050,7.953509634
266.27100,9.174287265
266.27150,8.56389845
266.27200,4.901565557
266.27250,-0.2867393736
266.27300,-6.390627528
266.27350,-11.57893246
266.27400,-13.1049045
266.27450,-8.526988381
266.27500,-2.11790582
266.27550,0.9340382573
266.27600,0.6288438496
266.27650,0.6288438496
266.27700,2.460010296
266.27750,3.070399111
266.27800,1.239232665
266.27850,0.01845503415
266.27900,1.544427073
266.27950,3.985982334
266.28000,4.291176742
266.28050,2.765204703
266.28100,1.84962148
266.28150,2.765204703
266.28200,3.070399111
266.28250,2.460010296
266.28300,1.84962148
266.28350,2.765204703
266.28400,3.375593519
266.28450,2.765204703
266.28500,1.544427073
266.28550,2.154815888
266.28600,2.460010296
266.28650,-0.5919337813
266.28700,-5.780238712
266.28750,-6.695821935
266.28800,-2.423100227
266.28850,0.6288438496
266.28900,-1.202322597
266.28950,-3.338683451
266.29000,-0.2867393736
266.29050,1.84962148
266.29100,-4.864655489
266.29150,-16.15684857
266.29200,-21.0399591
266.29250,-19.81918147
266.29300,-21.65034791
266.29350,-25.61787521
266.29400,-17.68282061
266.29450,3.375593519
266.29500,20.46648035
266.29550,20.77167476
266.29600,14.6677866
266.29650,17.41453627
266.29700,24.73920206
266.29750,22.6028412
266.29800,10.08987049
266.29850,-0.2867393736
266.29900,-1.202322597
266.29950,2.154815888
266.30000,4.59637115
266.30050,5.511954373
266.30100,6.122343188
266.30150,4.59637115
266.30200,2.460010296
266.30250,2.154815888
266.30300,3.070399111
266.30350,2.460010296
266.30400,0.3236494419
266.30450,0.01845503415
266.30500,1.84962148
266.30550,3.375593519
266.30600,2.765204703
266.30650,1.239232665
266.30700,1.544427073
266.30750,3.985982334
266.30800,6.427537596
266.30850,6.427537596
266.30900,4.901565557
266.30950,3.680787927
266.31000,4.59637115
266.31050,4.901565557
266.31100,3.375593519
266.31150,0.9340382573
266.31200,0.01845503415
266.31250,-0.5919337813
266.31300,-1.812711412
266.31350,-2.11790582
266.31400,0.01845503415
266.31450,2.765204703
266.31500,1.544427073
266.31550,-2.423100227
266.31600,-4.864655489
266.31650,-2.728294635
266.31700,0.9340382573
266.31750,2.154815888
266.31800,0.01845503415
266.31850,-2.11790582
266.31900,-2.11790582
266.31950,-0.897128189
266.32000,-1.202322597
266.32050,-2.728294635
266.32100,-2.423100227
266.32150,0.9340382573
266.32200,3.070399111
266.32250,1.544427073
266.32300,0.3236494419
266.32350,3.985982334
266.32400,7.037926411
266.32450,1.239232665
266.32500,-8.526988381
266.32550,-10.66334924
266.32600,-1.507517004
266.32650,7.037926411
266.32700,5.81714878
266.32750,0.01845503415
266.32800,-0.897128189
266.32850,3.070399111
266.32900,6.427537596
266.32950,5.206759965
266.33000,-0.897128189
266.33050,-12.18932127
266.33100,-24.09190317
266.33150,-27.75423607
266.33200,-20.73476469
266.33250,-11.88412687
266.33300,-9.747766012
266.33350,-12.49451568
266.33400,-11.57893246
266.33450,-5.780238712
266.33500,-1.812711412
266.33550,-2.423100227
266.33600,-3.949072266
266.33650,-3.949072266
266.33700,-3.033489043
266.33750,-2.423100227
266.33800,-1.812711412
266.33850,-0.5919337813
266.33900,0.01845503415
266.33950,0.9340382573
266.34000,1.84962148
266.34050,1.84962148
266.34100,0.6288438496
266.34150,-0.5919337813
266.34200,-0.5919337813
266.34250,0.01845503415
266.34300,0.01845503415
266.34350,0.3236494419
266.34400,1.239232665
266.34450,2.154815888
266.34500,1.84962148
266.34550,1.239232665
266.34600,2.154815888
266.34650,3.070399111
266.34700,3.070399111
266.34750,1.84962148
266.34800,0.9340382573
266.34850,0.6288438496
266.34900,0.9340382573
266.34950,2.765204703
266.35000,4.291176742
266.35050,2.460010296
266.35100,-1.507517004
266.35150,-4.864655489
266.35200,-5.169849897
266.35250,-4.254266674
266.35300,-3.033489043
266.35350,-0.5919337813
266.35400,0.9340382573
266.35450,-0.2867393736
266.35500,-1.507517004
266.35550,4.901565557
266.35600,18.94050831
266.35650,28.40153495
266.35700,24.43400765
266.35750,12.53142575
266.35800,3.680787927
266.35850,1.239232665
266.35900,0.9340382573
266.35950,1.544427073
266.36000,2.154815888
266.36050,-2.728294635
266.36100,-14.02048772
266.36150,-20.73476469
266.36200,-13.1049045
266.36250,0.01845503415
266.36300,2.460010296
266.36350,-6.695821935
266.36400,-11.57893246
266.36450,-3.338683451
266.36500,7.648315227
266.36550,11.00545371
266.36600,7.343120819
266.36650,4.291176742
266.36700,3.985982334
266.36750,3.680787927
266.36800,3.070399111
266.36850,2.154815888
266.36900,0.3236494419
266.36950,-0.5919337813
266.37000,1.239232665
266.37050,5.206759965
266.37100,6.122343188
266.37150,2.460010296
266.37200,0.3236494419
266.37250,2.154815888
266.37300,4.291176742
266.37350,2.154815888
266.37400,-0.897128189
266.37450,-0.5919337813
266.37500,0.9340382573
266.37550,0.3236494419
266.37600,-2.11790582
266.37650,-2.728294635
266.37700,-1.202322597
266.37750,-0.897128189
266.37800,-2.423100227
266.37850,-3.338683451
266.37900,-2.728294635
266.37950,-2.423100227
266.38000,-3.338683451
266.38050,-3.033489043
266.38100,-1.202322597
266.38150,-0.2867393736
266.38200,-1.202322597
266.38250,-1.812711412
266.38300,-1.507517004
266.38350,-1.507517004
266.38400,-3.033489043
266.38450,-3.338683451
266.38500,-1.812711412
266.38550,-0.897128189
266.38600,-2.11790582
266.38650,-2.423100227
266.38700,-0.2867393736
266.38750,1.544427073
266.38800,1.239232665
266.38850,0.01845503415
266.38900,1.239232665
266.38950,2.460010296
266.39000,1.544427073
266.39050,2.154815888
266.39100,5.206759965
266.39150,5.206759965
266.39200,-3.338683451
266.39250,-14.02048772
266.39300,-17.3776262
266.39350,-17.0724318
266.39400,-21.3451535
266.39450,-26.53345844
266.39500,-17.3776262
266.39550,5.206759965
266.39600,24.12881324
266.39650,27.48595173
266.39700,24.43400765
266.39750,26.87556291
266.39800,28.70672936
266.39850,19.85609153
266.39900,3.985982334
266.39950,-6.390627528
266.40000,-8.221793974
266.40050,-7.916599566
266.40100,-9.137377197
266.40150,-10.05296042
266.40200,-9.747766012
266.40250,-9.442571605
266.40300,-8.526988381
266.40350,-5.169849897
266.40400,-1.202322597
266.40450,0.01845503415
266.40500,-1.202322597
266.40550,-1.202322597
266.40600,0.6288438496
266.40650,2.765204703
266.40700,2.154815888
266.40750,-0.2867393736
266.40800,-2.728294635
266.40850,-2.728294635
266.40900,0.01845503415
266.40950,3.375593519
266.41000,3.985982334
266.41050,1.84962148
266.41100,0.9340382573
266.41150,2.154815888
266.41200,3.375593519
266.41250,2.460010296
266.41300,0.6288438496
266.41350,0.3236494419
266.41400,0.9340382573
266.41450,1.544427073
266.41500,2.765204703
266.41550,4.59637115
266.41600,4.901565557
266.41650,3.375593519
266.41700,1.544427073
266.41750,1.239232665
266.41800,2.154815888
266.41850,2.765204703
266.41900,3.375593519
266.41950,4.291176742
266.42000,4.59637115
266.42050,3.985982334
266.42100,3.070399111
266.42150,3.375593519
266.42200,3.680787927
266.42250,1.544427073
266.42300,-2.423100227
266.42350,-6.08543312
266.42400,-7.306210751
266.42450,-6.08543312
266.42500,-4.559461081
266.42550,-3.033489043
266.42600,-2.11790582
266.42650,-1.507517004
266.42700,0.01845503415
266.42750,2.154815888
266.42800,3.375593519
266.42850,2.765204703
266.42900,1.84962148
266.42950,2.765204703
266.43000,4.901565557
266.43050,4.59637115
266.43100,2.460010296
266.43150,1.544427073
266.43200,3.070399111
266.43250,3.680787927
266.43300,0.3236494419
266.43350,-4.559461081
266.43400,-7.001016343
266.43450,-6.08543312
266.43500,-3.338683451
266.43550,-1.202322597
266.43600,0.01845503415
266.43650,0.01845503415
266.43700,0.6288438496
266.43750,1.84962148
266.43800,1.84962148
266.43850,-0.897128189
266.43900,-6.695821935
266.43950,-11.88412687
266.44000,-14.32568213
266.44050,-15.24126535
266.44100,-16.76723739
266.44150,-17.0724318
266.44200,-14.32568213
266.44250,-8.832182789
266.44300,-2.728294635
266.44350,3.680787927
266.44400,12.83662016
266.44450,21.38206357
266.44500,22.90803561
266.44550,15.27817542
266.44600,5.206759965
266.44650,1.84962148
266.44700,6.122343188
266.44750,9.174287265
266.44800,6.427537596
266.44850,0.6288438496
266.44900,-3.338683451
266.44950,-6.695821935
266.45000,-12.18932127
266.45050,-17.0724318
266.45100,-20.42957028
266.45150,-24.09190317
266.45200,-28.36462488
266.45250,-25.0074864
266.45300,-6.08543312
266.45350,19.24570272
266.45400,33.58983988
266.45450,29.92750699
266.45500,19.55089713
266.45550,13.14181457
266.45600,10.08987049
266.45650,5.206759965
266.45700,0.3236494419
266.45750,-0.897128189
266.45800,-0.2867393736
266.45850,-0.5919337813
266.45900,-1.507517004
266.45950,-1.202322597
266.46000,-0.2867393736
266.46050,-0.5919337813
266.46100,-1.202322597
266.46150,0.01845503415
266.46200,1.84962148
266.46250,2.765204703
266.46300,4.291176742
266.46350,7.953509634
266.46400,12.22623134
266.46450,13.44700897
266.46500,10.7002593
266.46550,5.511954373
266.46600,0.01845503415
266.46650,-3.949072266
266.46700,-6.390627528
266.46750,-6.390627528
266.46800,-5.169849897
266.46850,-3.643877858
266.46900,-0.897128189
266.46950,0.9340382573
266.47000,1.239232665
266.47050,0.01845503415
266.47100,-0.2867393736
266.47150,0.9340382573
266.47200,1.84962148
266.47250,1.544427073
266.47300,1.239232665
266.47350,1.84962148
266.47400,2.460010296
266.47450,0.6288438496
266.47500,-1.507517004
266.47550,-2.11790582
266.47600,-1.202322597
266.47650,-1.202322597
266.47700,-3.033489043
266.47750,-4.559461081
266.47800,-4.254266674
266.47850,-2.423100227
266.47900,-1.507517004
266.47950,-1.507517004
266.48000,-1.507517004
266.48050,-0.2867393736
266.48100,0.01845503415
266.48150,-0.5919337813
266.48200,-2.728294635
266.48250,-2.423100227
266.48300,-0.5919337813
266.48350,0.01845503415
266.48400,-0.897128189
266.48450,-1.507517004
266.48500,0.3236494419
266.48550,2.154815888
266.48600,0.01845503415
266.48650,-5.475044304
266.48700,-7.306210751
266.48750,-4.254266674
266.48800,0.01845503415
266.48850,0.9340382573
266.48900,0.01845503415
266.48950,-1.507517004
266.49000,-3.033489043
266.49050,-4.559461081
266.49100,-5.169849897
266.49150,-5.475044304
266.49200,-6.08543312
266.49250,-7.916599566
266.49300,-7.916599566
266.49350,-4.864655489
266.49400,-1.812711412
266.49450,-0.897128189
266.49500,-1.507517004
266.49550,-1.507517004
266.49600,-1.507517004
266.49650,-2.423100227
266.49700,-3.949072266
266.49750,-4.254266674
266.49800,-2.423100227
266.49850,-0.5919337813
266.49900,0.01845503415
266.49950,0.9340382573
266.50000,2.460010296
266.50050,3.375593519
266.50100,3.070399111
266.50150,1.544427073
266.50200,1.239232665
266.50250,2.154815888
266.50300,1.84962148
266.50350,0.01845503415
266.50400,-1.507517004
266.50450,-0.2867393736
266.50500,2.154815888
266.50550,3.375593519
266.50600,1.544427073
266.50650,0.3236494419
266.50700,1.544427073
266.50750,3.985982334
266.50800,3.985982334
266.50850,2.460010296
266.50900,1.544427073
266.50950,2.460010296
266.51000,3.680787927
266.51050,3.985982334
266.51100,3.375593519
266.51150,3.070399111
266.51200,3.680787927
266.51250,5.206759965
266.51300,6.732732004
266.51350,6.427537596
266.51400,4.291176742
266.51450,3.070399111
266.51500,3.375593519
266.51550,3.680787927
266.51600,1.84962148
266.51650,0.01845503415
266.51700,-0.5919337813
266.51750,-1.507517004
266.51800,-3.643877858
266.51850,-4.254266674
266.51900,-0.2867393736
266.51950,4.291176742
266.52000,6.427537596
266.52050,5.206759965
266.52100,2.765204703
266.52150,-3.643877858
266.52200,-16.76723739
266.52250,-31.41656896
266.52300,-39.04642915
266.52350,-37.52045711
266.52400,-32.33215218
266.52450,-24.70229199
266.52500,-10.96854364
266.52550,8.258704042
266.52600,26.5703685
266.52650,36.94697837
266.52700,39.69372804
266.52750,36.94697837
266.52800,30.5378958
266.52850,24.12881324
266.52900,21.99245239
266.52950,23.21323002
266.53000,22.6028412
266.53050,19.24570272
266.53100,16.49895305
266.53150,15.27817542
266.53200,12.22623134
266.53250,7.037926411
266.53300,2.154815888
266.53350,-3.643877858
266.53400,-15.54645976
266.53450,-30.50098574
266.53500,-35.99448507
266.53550,-27.75423607
266.53600,-17.0724318
266.53650,-13.71529331
266.53700,-12.49451568
266.53750,-4.559461081
266.53800,6.122343188
266.53850,9.174287265
266.53900,3.070399111
266.53950,-2.11790582
266.54000,-2.423100227
266.54050,-3.033489043
266.54100,-4.864655489
266.54150,-3.949072266
266.54200,0.3236494419
266.54250,1.239232665
266.54300,-1.507517004
266.54350,-0.897128189
266.54400,6.732732004
266.54450,12.83662016
266.54500,9.784676081
266.54550,3.375593519
266.54600,1.544427073
266.54650,1.239232665
266.54700,-2.423100227
266.54750,-7.306210751
266.54800,-6.08543312
266.54850,0.01845503415
266.54900,2.765204703
266.54950,1.544427073
266.55000,-0.5919337813
266.55050,-3.338683451
266.55100,-7.916599566
266.55150,-11.88412687
266.55200,-10.05296042
266.55250,-4.254266674
266.55300,-0.897128189
266.55350,-1.812711412
266.55400,-2.423100227
266.55450,-1.812711412
266.55500,-5.169849897
266.55550,-12.49451568
266.55600,-17.3776262
266.55650,-14.63087654
266.55700,-7.611405158
266.55750,-3.949072266
266.55800,-3.338683451
266.55850,0.01845503415
266.55900,7.953509634
266.55950,17.41453627
266.56000,21.99245239
266.56050,19.55089713
266.56100,13.44700897
266.56150,7.953509634
266.56200,5.81714878
266.56250,4.901565557
266.56300,1.84962148
266.56350,-3.949072266
266.56400,-9.137377197
266.56450,-10.05296042
266.56500,-8.221793974
266.56550,-6.695821935
266.56600,-6.390627528
266.56650,-6.08543312
266.56700,-4.559461081
266.56750,-3.033489043
266.56800,-2.728294635
266.56850,-2.728294635
266.56900,-1.812711412
266.56950,-1.202322597
266.57000,-0.897128189
266.57050,-1.202322597
266.57100,-1.202322597
266.57150,0.3236494419
266.57200,3.375593519
266.57250,7.037926411
266.57300,8.869092857
266.57350,7.343120819
266.57400,3.375593519
266.57450,-1.507517004
266.57500,-7.001016343
266.57550,-10.96854364
266.57600,-10.05296042
266.57650,-6.08543312
266.57700,-6.390627528
266.57750,-13.1049045
266.57800,-15.85165417
266.57850,-3.033489043
266.57900,19.55089713
266.57950,32.97945107
266.58000,27.48595173
266.58050,13.75220338
266.58100,6.427537596
266.58150,4.291176742
266.58200,0.6288438496
266.58250,-3.643877858
266.58300,-3.033489043
266.58350,2.765204703
266.58400,6.732732004
266.58450,5.81714878
266.58500,3.070399111
266.58550,2.460010296
266.58600,3.070399111
266.58650,3.070399111
266.58700,1.239232665
266.58750,-1.507517004
266.58800,-4.559461081
266.58850,-4.559461081
266.58900,0.3236494419
266.58950,6.122343188
266.59000,7.037926411
266.59050,3.375593519
266.59100,0.01845503415
266.59150,-0.897128189
266.59200,0.01845503415
266.59250,0.6288438496
266.59300,0.9340382573
266.59350,0.01845503415
266.59400,-1.812711412
266.59450,-3.033489043
266.59500,-1.202322597
266.59550,1.239232665
266.59600,1.84962148
266.59650,0.3236494419
266.59700,-0.2867393736
266.59750,0.3236494419
266.59800,0.3236494419
266.59850,-1.507517004
266.59900,-3.949072266
266.59950,-5.169849897
266.60000,-4.864655489
266.60050,-4.864655489
266.60100,-5.169849897
266.60150,-5.169849897
266.60200,-4.559461081
266.60250,-5.169849897
266.60300,-7.306210751
266.60350,-10.05296042
266.60400,-11.27373805
266.60450,-10.05296042
266.60500,-6.08543312
266.60550,-0.5919337813
266.60600,5.511954373
266.60650,10.7002593
266.60700,11.92103693
266.60750,7.953509634
266.60800,2.460010296
266.60850,0.01845503415
266.60900,0.3236494419
266.60950,1.239232665
266.61000,-0.2867393736
266.61050,-4.864655489
266.61100,-10.35815483
266.61150,-13.4100989
266.61200,-12.49451568
266.61250,-8.221793974
266.61300,-3.949072266
266.61350,-4.254266674
266.61400,-9.137377197
266.61450,-14.63087654
266.61500,-16.76723739
266.61550,-14.02048772
266.61600,-6.695821935
266.61650,-0.2867393736
266.61700,-2.11790582
266.61750,-13.1049045
266.61800,-22.56593114
266.61850,-21.0399591
266.61900,-9.747766012
266.61950,-0.2867393736
266.62000,2.765204703
266.62050,5.81714878
266.62100,12.53142575
266.62150,17.71973068
266.62200,16.80414746
266.62250,13.44700897
266.62300,14.05739779
266.62350,18.3301195
266.62400,18.6353139
266.62450,13.14181457
266.62500,5.81714878
266.62550,1.84962148
266.62600,2.154815888
266.62650,4.291176742
266.62700,5.511954373
266.62750,4.59637115
266.62800,3.070399111
266.62850,1.84962148
266.62900,1.239232665
266.62950,0.9340382573
266.63000,1.239232665
266.63050,3.070399111
266.63100,4.59637115
266.63150,4.59637115
266.63200,3.680787927
266.63250,3.375593519
266.63300,3.680787927
266.63350,3.985982334
266.63400,3.375593519
266.63450,2.460010296
266.63500,1.239232665
266.63550,0.01845503415
266.63600,-0.5919337813
