"type","name","time_units","begin_time","frequency","count","units"
"signal","Ultium EMG-FLEX.CARP.R RT","s",21.98000,2000,22000,"uV"

"time","value"
21.98000,-14.35999934
21.98050,-57.08721642
21.98100,-106.5287105
21.98150,-106.8339049
21.98200,-39.08074636
21.98250,47.89965983
21.98300,90.3216825
21.98350,76.58793415
21.98400,40.88018845
21.98450,15.24385821
21.98500,6.698414791
21.98550,12.19191413
21.98600,26.53605129
21.98650,38.13343878
21.98700,38.43863319
21.98750,30.808773
21.98800,21.95813518
21.98850,10.36074768
21.98900,-6.42494474
21.98950,-20.46388749
21.99000,-21.37947072
21.99050,-14.66519375
21.99100,-13.44441612
21.99150,-16.49636019
21.99200,-12.8340273
21.99250,-3.678195071
21.99300,-3.373000663
21.99350,-17.71713782
21.99400,-30.23010854
21.99450,-21.98985953
21.99500,1.815304268
21.99550,13.71788617
21.99600,-7.035333555
21.99650,-44.5742457
21.99700,-55.56124438
21.99750,-19.54830427
21.99800,32.63993945
21.99850,53.39315917
21.99900,34.47110589
21.99950,12.80230295
22.00000,16.15944143
22.00050,28.06202333
22.00100,22.8737184
22.00150,3.036081899
22.00200,-9.171694409
22.00250,-7.950916778
22.00300,-4.288583886
22.00350,-2.762611847
22.00400,2.425693084
22.00450,14.63346939
22.00500,25.31527366
22.00550,26.8412457
22.00600,17.38021906
22.00650,1.204915453
22.00700,-11.61324967
22.00750,-11.61324967
22.00800,-0.3210565858
22.00850,4.562053937
22.00900,-7.035333555
22.00950,-23.21063716
22.01000,-25.95738683
22.01050,-18.02233223
22.01100,-16.49636019
22.01150,-24.12622039
22.01200,-27.78855328
22.01250,-23.51583157
22.01300,-24.7366092
22.01350,-35.72360788
22.01400,-35.72360788
22.01450,-7.645722371
22.01500,35.69188352
22.01550,61.32821377
22.01600,51.56199272
22.01650,18.60099669
22.01700,-12.8340273
22.01750,-25.95738683
22.01800,-18.63272105
22.01850,-2.45741744
22.01900,3.646470714
22.01950,-7.950916778
22.02000,-26.87297006
22.02050,-34.50283025
22.02100,-26.56777565
22.02150,-13.44441612
22.02200,-3.678195071
22.02250,5.782831568
22.02300,17.99060788
22.02350,26.8412457
22.02400,29.58799537
22.02450,31.72435622
22.02500,36.30227234
22.02550,37.82824438
22.02600,30.19838418
22.02650,17.68541347
22.02700,9.139970053
22.02750,5.477637161
22.02800,1.815304268
22.02850,-6.730139148
22.02900,-21.98985953
22.02950,-41.21710722
22.03000,-55.25604997
22.03050,-51.89891149
22.03100,-31.14569176
22.03150,-9.171694409
22.03200,-0.6262509935
22.03250,-1.541834217
22.03300,0.2893322296
22.03350,6.393220384
22.03400,7.613998014
22.03450,1.51010986
22.03500,-2.152223032
22.03550,0.5945266373
22.03600,5.172442753
22.03650,5.782831568
22.03700,3.951665122
22.03750,3.341276307
22.03800,1.51010986
22.03850,-2.762611847
22.03900,-6.119750332
22.03950,-4.288583886
22.04000,0.5945266373
22.04050,3.951665122
22.04100,3.951665122
22.04150,3.036081899
22.04200,2.730887491
22.04250,1.815304268
22.04300,0.899721045
22.04350,3.036081899
22.04400,8.22438683
22.04450,9.750358868
22.04500,3.341276307
22.04550,-6.119750332
22.04600,-9.171694409
22.04650,-2.45741744
22.04700,5.782831568
22.04750,7.613998014
22.04800,3.951665122
22.04850,1.51010986
22.04900,2.730887491
22.04950,4.562053937
22.05000,5.477637161
22.05050,6.088025976
22.05100,4.867248345
22.05150,0.2893322296
22.05200,-3.067806255
22.05250,-0.6262509935
22.05300,4.867248345
22.05350,7.919192422
22.05400,6.393220384
22.05450,6.088025976
22.05500,9.445164461
22.05550,14.02308058
22.05600,17.99060788
22.05650,20.73735755
22.05700,20.12696873
22.05750,14.63346939
22.05800,9.750358868
22.05850,10.66594209
22.05900,14.02308058
22.05950,11.58152531
22.06000,2.425693084
22.06050,-6.42494474
22.06100,-15.58077697
22.06150,-27.48335887
22.06200,-36.33399669
22.06250,-35.72360788
22.06300,-31.45088617
22.06350,-32.06127499
22.06400,-26.87297006
22.06450,2.425693084
22.06500,47.28927102
22.06550,71.39962922
22.06600,57.97107529
22.06650,29.28280096
22.06700,14.9386638
22.06750,14.32827498
22.06800,12.19191413
22.06850,8.22438683
22.06900,11.88671972
22.06950,19.21138551
22.07000,16.76983025
22.07050,3.951665122
22.07100,-7.035333555
22.07150,-9.782083225
22.07200,-10.69766645
22.07250,-16.8015546
22.07300,-25.65219243
22.07350,-29.31452532
22.07400,-21.98985953
22.07450,-6.119750332
22.07500,6.393220384
22.07550,6.088025976
22.07600,-2.45741744
22.07650,-7.340527963
22.07700,-5.204167109
22.07750,-7.035333555
22.07800,-16.8015546
22.07850,-24.43141479
22.07900,-23.51583157
22.07950,-21.98985953
22.08000,-24.7366092
22.08050,-18.93791546
22.08100,5.782831568
22.08150,35.38668912
22.08200,44.23732694
22.08250,28.97760655
22.08300,11.88671972
22.08350,7.919192422
22.08400,10.66594209
22.08450,10.36074768
22.08500,7.919192422
22.08550,1.815304268
22.08600,-19.54830427
22.08650,-55.86643879
22.08700,-73.87290884
22.08750,-39.69113518
22.08800,33.55552267
22.08850,91.54246013
22.08900,95.20479302
22.08950,59.49704732
22.09000,24.39969044
22.09050,7.308803607
22.09100,-0.01586217811
22.09150,-5.509361517
22.09200,-5.509361517
22.09250,0.2893322296
22.09300,5.172442753
22.09350,3.036081899
22.09400,-4.593778294
22.09450,-14.35999934
22.09500,-19.54830427
22.09550,-15.27558256
22.09600,-5.509361517
22.09650,-6.42494474
22.09700,-25.65219243
22.09750,-49.15216182
22.09800,-62.27552135
22.09850,-75.39888088
22.09900,-105.6131272
22.09950,-136.4377624
22.10000,-119.9572644
22.10050,-38.16516314
22.10100,66.5165187
22.10150,128.7761779
22.10200,122.9774841
22.10250,74.4515733
22.10300,26.23085688
22.10350,3.341276307
22.10400,5.172442753
22.10450,14.02308058
22.10500,12.49710854
22.10550,0.2893322296
22.10600,-7.340527963
22.10650,-2.45741744
22.10700,6.698414791
22.10750,7.919192422
22.10800,2.425693084
22.10850,-0.01586217811
22.10900,4.562053937
22.10950,10.9711365
22.11000,12.80230295
22.11050,7.613998014
22.11100,-0.01586217811
22.11150,-5.204167109
22.11200,-4.898972701
22.11250,-3.983389478
22.11300,-7.645722371
22.11350,-13.74961052
22.11400,-13.44441612
22.11450,-5.204167109
22.11500,0.5945266373
22.11550,-0.3210565858
22.11600,-0.6262509935
22.11650,7.003609199
22.11700,15.54905261
22.11750,11.58152531
22.11800,-2.762611847
22.11850,-13.74961052
22.11900,-13.44441612
22.11950,-10.39247204
22.12000,-14.35999934
22.12050,-23.51583157
22.12100,-25.34699802
22.12150,-13.13922171
22.12200,4.25685953
22.12250,11.88671972
22.12300,2.730887491
22.12350,-9.782083225
22.12400,-11.61324967
22.12450,-4.288583886
22.12500,-2.45741744
22.12550,-10.39247204
22.12600,-16.8015546
22.12650,-14.66519375
22.12700,-13.44441612
22.12750,-20.15869309
22.12800,-26.87297006
22.12850,-23.51583157
22.12900,-14.05480493
22.12950,-8.256111186
22.13000,-7.340527963
22.13050,-6.119750332
22.13100,-0.6262509935
22.13150,12.19191413
22.13200,33.55552267
22.13250,49.12043746
22.13300,37.21785556
22.13350,-0.3210565858
22.13400,-32.06127499
22.13450,-34.80802466
22.13500,-22.90544276
22.13550,-16.8015546
22.13600,-5.204167109
22.13650,31.41916182
22.13700,75.36715652
22.13750,85.13337757
22.13800,54.00354799
22.13850,17.99060788
22.13900,6.088025976
22.13950,10.66594209
22.14000,14.02308058
22.14050,14.02308058
22.14100,13.41269176
22.14150,6.393220384
22.14200,-5.204167109
22.14250,-6.730139148
22.14300,6.698414791
22.14350,21.34774636
22.14400,19.82177432
22.14450,4.562053937
22.14500,-11.30805526
22.14550,-22.60024835
22.14600,-28.09374769
22.14650,-24.7366092
22.14700,-14.05480493
22.14750,-4.288583886
22.14800,-1.541834217
22.14850,-1.236639809
22.14900,0.899721045
22.14950,3.951665122
22.15000,3.951665122
22.15050,2.120498676
22.15100,0.2893322296
22.15150,-2.152223032
22.15200,-6.42494474
22.15250,-11.30805526
22.15300,-15.88597138
22.15350,-17.71713782
22.15400,-11.30805526
22.15450,3.951665122
22.15500,18.29580228
22.15550,20.12696873
22.15600,13.10749735
22.15650,10.36074768
22.15700,11.27633091
22.15750,2.120498676
22.15800,-20.7690819
22.15850,-40.30152399
22.15900,-41.82749603
22.15950,-33.58724703
22.16000,-30.23010854
22.16050,-27.17816446
22.16100,-10.08727763
22.16150,19.21138551
22.16200,40.26979964
22.16250,38.43863319
22.16300,22.8737184
22.16350,8.834775645
22.16400,1.815304268
22.16450,-0.9314454012
22.16500,-1.541834217
22.16550,-1.541834217
22.16600,-5.204167109
22.16650,-11.00286086
22.16700,-10.69766645
22.16750,-6.730139148
22.16800,-16.19116579
22.16850,-48.84696741
22.16900,-80.89238022
22.16950,-71.43135358
22.17000,-8.866500001
22.17050,69.87365719
22.17100,116.2632072
22.17150,111.0749022
22.17200,73.53599008
22.17250,35.99707793
22.17300,15.54905261
22.17350,9.445164461
22.17400,6.698414791
22.17450,3.646470714
22.17500,4.25685953
22.17550,9.139970053
22.17600,10.9711365
22.17650,7.308803607
22.17700,9.139970053
22.17750,20.43216314
22.17800,23.48410721
22.17850,2.120498676
22.17900,-27.48335887
22.17950,-35.72360788
22.18000,-20.7690819
22.18050,-14.97038816
22.18100,-32.97685821
22.18150,-49.45735623
22.18200,-38.77555196
22.18250,-12.52883289
22.18300,0.5945266373
22.18350,-1.541834217
22.18400,-2.762611847
22.18450,1.204915453
22.18500,-0.01586217811
22.18550,-6.42494474
22.18600,-6.42494474
22.18650,1.204915453
22.18700,3.951665122
22.18750,-2.45741744
22.18800,-6.42494474
22.18850,-1.236639809
22.18900,3.951665122
22.18950,2.120498676
22.19000,-0.3210565858
22.19050,4.867248345
22.19100,14.32827498
22.19150,17.07502465
22.19200,7.613998014
22.19250,-11.00286086
22.19300,-33.58724703
22.19350,-48.541773
22.19400,-47.62618978
22.19450,-34.80802466
22.19500,-26.87297006
22.19550,-29.31452532
22.19600,-25.95738683
22.19650,-0.01586217811
22.19700,37.82824438
22.19750,60.41263055
22.19800,55.83471443
22.19850,37.21785556
22.19900,21.65294077
22.19950,11.58152531
22.20000,4.562053937
22.20050,2.730887491
22.20100,6.698414791
22.20150,8.529581238
22.20200,4.25685953
22.20250,0.899721045
22.20300,7.003609199
22.20350,16.15944143
22.20400,14.63346939
22.20450,0.2893322296
22.20500,-13.44441612
22.20550,-17.71713782
22.20600,-15.88597138
22.20650,-17.41194342
22.20700,-20.46388749
22.20750,-16.8015546
22.20800,-6.119750332
22.20850,1.204915453
22.20900,-4.288583886
22.20950,-17.71713782
22.21000,-24.12622039
22.21050,-15.58077697
22.21100,-0.01586217811
22.21150,10.66594209
22.21200,14.32827498
22.21250,14.02308058
22.21300,11.58152531
22.21350,7.003609199
22.21400,3.951665122
22.21450,7.003609199
22.21500,12.80230295
22.21550,15.24385821
22.21600,12.80230295
22.21650,9.445164461
22.21700,5.782831568
22.21750,-0.01586217811
22.21800,-4.898972701
22.21850,-5.814555924
22.21900,-5.509361517
22.21950,-9.171694409
22.22000,-13.44441612
22.22050,-10.39247204
22.22100,-2.152223032
22.22150,2.425693084
22.22200,1.204915453
22.22250,-2.45741744
22.22300,-7.645722371
22.22350,-12.8340273
22.22400,-9.782083225
22.22450,-2.152223032
22.22500,-16.49636019
22.22550,-67.76902069
22.22600,-117.8209036
22.22650,-105.3079328
22.22700,-25.65219243
22.22750,55.83471443
22.22800,83.30221112
22.22850,69.26326837
22.22900,55.22432562
22.22950,48.51004865
22.23000,33.55552267
22.23050,16.46463584
22.23100,20.12696873
22.23150,42.40616049
22.23200,53.08796476
22.23250,38.7438276
22.23300,14.63346939
22.23350,-2.152223032
22.23400,-14.66519375
22.23450,-28.09374769
22.23500,-34.80802466
22.23550,-27.48335887
22.23600,-11.91844408
22.23650,-0.6262509935
22.23700,2.425693084
22.23750,2.730887491
22.23800,6.698414791
22.23850,14.02308058
22.23900,16.76983025
22.23950,7.003609199
22.24000,-9.171694409
22.24050,-17.71713782
22.24100,-11.61324967
22.24150,-1.236639809
22.24200,1.815304268
22.24250,0.2893322296
22.24300,-0.01586217811
22.24350,-0.6262509935
22.24400,-3.373000663
22.24450,-1.847028624
22.24500,6.698414791
22.24550,11.88671972
22.24600,0.5945266373
22.24650,-18.32752664
22.24700,-24.7366092
22.24750,-15.58077697
22.24800,-6.119750332
22.24850,-6.730139148
22.24900,-10.39247204
22.24950,-11.30805526
22.25000,-10.08727763
22.25050,-4.898972701
22.25100,11.88671972
22.25150,36.91266115
22.25200,51.56199272
22.25250,45.45810457
22.25300,30.50357859
22.25350,22.56852399
22.25400,20.12696873
22.25450,11.88671972
22.25500,-3.067806255
22.25550,-18.02233223
22.25600,-29.31452532
22.25650,-38.16516314
22.25700,-40.6067184
22.25750,-31.75608058
22.25800,-18.32752664
22.25850,-11.61324967
22.25900,-13.74961052
22.25950,-15.58077697
22.26000,-11.91844408
22.26050,-7.645722371
22.26100,-6.730139148
22.26150,-7.035333555
22.26200,-5.509361517
22.26250,-0.9314454012
22.26300,3.951665122
22.26350,8.529581238
22.26400,10.66594209
22.26450,8.834775645
22.26500,4.562053937
22.26550,1.815304268
22.26600,4.25685953
22.26650,12.80230295
22.26700,21.04255195
22.26750,19.21138551
22.26800,3.951665122
22.26850,-12.22363849
22.26900,-17.41194342
22.26950,-17.71713782
22.27000,-31.45088617
22.27050,-54.03527234
22.27100,-53.11968912
22.27150,-17.41194342
22.27200,19.51657991
22.27250,21.95813518
22.27300,5.477637161
22.27350,13.41269176
22.27400,49.12043746
22.27450,70.484046
22.27500,53.69835358
22.27550,23.48410721
22.27600,11.88671972
22.27650,14.9386638
22.27700,14.63346939
22.27750,10.05555328
22.27800,9.139970053
22.27850,7.003609199
22.27900,-3.067806255
22.27950,-14.05480493
22.28000,-14.35999934
22.28050,-10.08727763
22.28100,-14.05480493
22.28150,-22.60024835
22.28200,-23.82102598
22.28250,-16.49636019
22.28300,-11.00286086
22.28350,-10.08727763
22.28400,-7.950916778
22.28450,-2.762611847
22.28500,1.51010986
22.28550,3.341276307
22.28600,3.341276307
22.28650,4.867248345
22.28700,9.750358868
22.28750,16.76983025
22.28800,18.29580228
22.28850,10.9711365
22.28900,4.867248345
22.28950,7.308803607
22.29000,3.036081899
22.29050,-27.17816446
22.29100,-67.76902069
22.29150,-68.68460391
22.29200,-9.476888817
22.29250,66.82171311
22.29300,99.78270914
22.29350,76.28273975
22.29400,32.02955063
22.29450,1.204915453
22.29500,-12.8340273
22.29550,-18.93791546
22.29600,-21.07427631
22.29650,-19.85349868
22.29700,-18.63272105
22.29750,-19.24310986
22.29800,-19.54830427
22.29850,-19.85349868
22.29900,-20.15869309
22.29950,-19.24310986
22.30000,-14.97038816
22.30050,-8.866500001
22.30100,-3.983389478
22.30150,0.5945266373
22.30200,6.088025976
22.30250,8.529581238
22.30300,6.088025976
22.30350,2.730887491
22.30400,3.341276307
22.30450,4.562053937
22.30500,0.5945266373
22.30550,-7.950916778
22.30600,-14.05480493
22.30650,-12.52883289
22.30700,-4.593778294
22.30750,4.25685953
22.30800,9.445164461
22.30850,6.393220384
22.30900,-1.847028624
22.30950,-7.035333555
22.31000,-2.152223032
22.31050,8.22438683
22.31100,13.41269176
22.31150,9.445164461
22.31200,3.341276307
22.31250,1.51010986
22.31300,1.815304268
22.31350,-0.01586217811
22.31400,-3.067806255
22.31450,-2.152223032
22.31500,1.51010986
22.31550,3.951665122
22.31600,3.951665122
22.31650,5.782831568
22.31700,10.05555328
22.31750,12.80230295
22.31800,12.80230295
22.31850,12.19191413
22.31900,9.445164461
22.31950,1.204915453
22.32000,-7.340527963
22.32050,-6.730139148
22.32100,0.2893322296
22.32150,-0.6262509935
22.32200,-14.97038816
22.32250,-25.65219243
22.32300,-18.93791546
22.32350,-5.204167109
22.32400,-3.983389478
22.32450,-14.66519375
22.32500,-22.29505394
22.32550,-22.90544276
22.32600,-24.7366092
22.32650,-26.87297006
22.32700,-18.32752664
22.32750,0.899721045
22.32800,14.02308058
22.32850,10.05555328
22.32900,-0.6262509935
22.32950,-3.983389478
22.33000,2.120498676
22.33050,11.58152531
22.33100,18.9061911
22.33150,20.43216314
22.33200,14.9386638
22.33250,8.834775645
22.33300,10.36074768
22.33350,18.9061911
22.33400,24.70488485
22.33450,21.65294077
22.33500,17.38021906
22.33550,17.07502465
22.33600,13.41269176
22.33650,-6.730139148
22.33700,-44.87944011
22.33750,-84.2495187
22.33800,-97.67807264
22.33850,-67.76902069
22.33900,-4.288583886
22.33950,55.83471443
22.34000,79.02948942
22.34050,64.68535225
22.34100,39.04902201
22.34150,22.26332958
22.34200,10.66594209
22.34250,-3.983389478
22.34300,-16.49636019
22.34350,-17.41194342
22.34400,-11.30805526
22.34450,-9.782083225
22.34500,-9.782083225
22.34550,2.120498676
22.34600,26.53605129
22.34650,43.62693812
22.34700,39.65941082
22.34750,21.04255195
22.34800,5.172442753
22.34850,-0.3210565858
22.34900,-1.236639809
22.34950,-2.152223032
22.35000,-2.152223032
22.35050,-2.45741744
22.35100,-5.509361517
22.35150,-8.561305594
22.35200,-6.42494474
22.35250,0.2893322296
22.35300,4.562053937
22.35350,3.036081899
22.35400,-0.6262509935
22.35450,-4.898972701
22.35500,-11.61324967
22.35550,-20.15869309
22.35600,-24.12622039
22.35650,-22.60024835
22.35700,-24.12622039
22.35750,-32.36646939
22.35800,-37.85996873
22.35850,-32.97685821
22.35900,-24.12622039
22.35950,-17.71713782
22.36000,-6.119750332
22.36050,20.12696873
22.36100,51.56199272
22.36150,63.46457462
22.36200,48.20485424
22.36250,20.73735755
22.36300,-0.01586217811
22.36350,-8.256111186
22.36400,-5.509361517
22.36450,3.646470714
22.36500,10.36074768
22.36550,5.782831568
22.36600,-3.678195071
22.36650,-2.152223032
22.36700,12.80230295
22.36750,23.48410721
22.36800,15.54905261
22.36850,-1.236639809
22.36900,-5.814555924
22.36950,9.750358868
22.37000,34.16591148
22.37050,46.6788822
22.37100,32.33474504
22.37150,-4.288583886
22.37200,-35.41841347
22.37250,-33.28205262
22.37300,-11.91844408
22.37350,-22.60024835
22.37400,-83.33393548
22.37450,-138.5741233
22.37500,-115.0741539
22.37550,-17.41194342
22.37600,72.01001804
22.37650,89.40609928
22.37700,52.78277035
22.37750,18.29580228
22.37800,9.750358868
22.37850,10.05555328
22.37900,5.782831568
22.37950,0.899721045
22.38000,-0.6262509935
22.38050,-3.067806255
22.38100,-6.119750332
22.38150,-3.678195071
22.38200,3.646470714
22.38250,10.66594209
22.38300,12.80230295
22.38350,9.445164461
22.38400,-2.45741744
22.38450,-22.29505394
22.38500,-36.94438551
22.38550,-31.75608058
22.38600,-9.171694409
22.38650,11.58152531
22.38700,17.38021906
22.38750,13.41269176
22.38800,11.58152531
22.38850,14.9386638
22.38900,17.07502465
22.38950,12.19191413
22.39000,3.646470714
22.39050,-0.6262509935
22.39100,-0.01586217811
22.39150,0.5945266373
22.39200,-3.678195071
22.39250,-11.91844408
22.39300,-16.49636019
22.39350,-13.74961052
22.39400,-8.256111186
22.39450,-3.983389478
22.39500,-2.45741744
22.39550,-2.45741744
22.39600,-2.45741744
22.39650,-0.01586217811
22.39700,4.562053937
22.39750,7.003609199
22.39800,1.815304268
22.39850,-8.866500001
22.39900,-18.93791546
22.39950,-23.51583157
22.40000,-24.12622039
22.40050,-20.46388749
22.40100,-12.22363849
22.40150,-3.678195071
22.40200,-1.541834217
22.40250,-4.898972701
22.40300,-5.814555924
22.40350,-0.01586217811
22.40400,6.698414791
22.40450,9.750358868
22.40500,10.05555328
22.40550,9.750358868
22.40600,8.529581238
22.40650,5.782831568
22.40700,4.25685953
22.40750,5.172442753
22.40800,7.613998014
22.40850,9.139970053
22.40900,6.393220384
22.40950,-10.08727763
22.41000,-45.18463452
22.41050,-78.45082496
22.41100,-72.0417424
22.41150,-12.22363849
22.41200,64.68535225
22.41250,103.7502364
22.41300,89.10090487
22.41350,52.47757595
22.41400,28.97760655
22.41450,21.04255195
22.41500,13.41269176
22.41550,4.867248345
22.41600,2.425693084
22.41650,4.25685953
22.41700,3.036081899
22.41750,-0.01586217811
22.41800,0.2893322296
22.41850,2.120498676
22.41900,-2.152223032
22.41950,-8.866500001
22.42000,-9.782083225
22.42050,-8.561305594
22.42100,-12.52883289
22.42150,-16.8015546
22.42200,-9.476888817
22.42250,5.782831568
22.42300,12.19191413
22.42350,5.477637161
22.42400,-2.762611847
22.42450,-6.730139148
22.42500,-11.61324967
22.42550,-17.41194342
22.42600,-18.63272105
22.42650,-20.15869309
22.42700,-30.84049736
22.42750,-39.38594077
22.42800,-23.82102598
22.42850,8.22438683
22.42900,20.43216314
22.42950,3.646470714
22.43000,-0.6262509935
22.43050,36.91266115
22.43100,86.04896079
22.43150,93.37362658
22.43200,56.75029765
22.43250,17.38021906
22.43300,-2.152223032
22.43350,-16.19116579
22.43400,-33.58724703
22.43450,-38.47035755
22.43500,-23.82102598
22.43550,-7.340527963
22.43600,-6.119750332
22.43650,-11.30805526
22.43700,-11.00286086
22.43750,-9.476888817
22.43800,-12.8340273
22.43850,-11.91844408
22.43900,0.899721045
22.43950,15.54905261
22.44000,17.07502465
22.44050,8.529581238
22.44100,3.341276307
22.44150,2.425693084
22.44200,-3.373000663
22.44250,-13.44441612
22.44300,-15.88597138
22.44350,-6.730139148
22.44400,4.562053937
22.44450,11.27633091
22.44500,12.80230295
22.44550,8.529581238
22.44600,-1.847028624
22.44650,-14.35999934
22.44700,-17.71713782
22.44750,-11.30805526
22.44800,-6.119750332
22.44850,-10.69766645
22.44900,-19.85349868
22.44950,-22.60024835
22.45000,-16.19116579
22.45050,-5.509361517
22.45100,2.730887491
22.45150,6.088025976
22.45200,3.341276307
22.45250,-0.9314454012
22.45300,-1.541834217
22.45350,3.646470714
22.45400,9.445164461
22.45450,6.393220384
22.45500,-7.035333555
22.45550,-24.7366092
22.45600,-34.50283025
22.45650,-27.48335887
22.45700,-4.898972701
22.45750,21.04255195
22.45800,35.38668912
22.45850,31.41916182
22.45900,16.46463584
22.45950,6.393220384
22.46000,5.782831568
22.46050,5.172442753
22.46100,-5.814555924
22.46150,-18.93791546
22.46200,-16.49636019
22.46250,3.646470714
22.46300,21.65294077
22.46350,21.65294077
22.46400,11.58152531
22.46450,8.529581238
22.46500,11.27633091
22.46550,5.172442753
22.46600,-13.44441612
22.46650,-32.6716638
22.46700,-37.85996873
22.46750,-28.09374769
22.46800,-13.44441612
22.46850,-6.730139148
22.46900,-11.91844408
22.46950,-16.49636019
22.47000,-2.45741744
22.47050,25.62046807
22.47100,39.96460523
22.47150,23.17891281
22.47200,-4.288583886
22.47250,-12.22363849
22.47300,-0.01586217811
22.47350,7.919192422
22.47400,2.425693084
22.47450,-3.067806255
22.47500,-2.152223032
22.47550,-3.067806255
22.47600,-11.91844408
22.47650,-19.54830427
22.47700,-18.63272105
22.47750,-12.52883289
22.47800,-6.119750332
22.47850,1.815304268
22.47900,13.10749735
22.47950,18.9061911
22.48000,13.71788617
22.48050,5.477637161
22.48100,5.782831568
22.48150,14.63346939
22.48200,21.65294077
22.48250,19.82177432
22.48300,12.49710854
22.48350,6.393220384
22.48400,2.730887491
22.48450,-0.9314454012
22.48500,-6.119750332
22.48550,-10.39247204
22.48600,-11.91844408
22.48650,-10.69766645
22.48700,-5.509361517
22.48750,2.120498676
22.48800,3.036081899
22.48850,-8.561305594
22.48900,-18.63272105
22.48950,-3.067806255
22.49000,32.33474504
22.49050,50.34121509
22.49100,26.8412457
22.49150,-11.61324967
22.49200,-24.12622039
22.49250,-6.119750332
22.49300,11.88671972
22.49350,12.49710854
22.49400,3.341276307
22.49450,-7.035333555
22.49500,-16.49636019
22.49550,-16.19116579
22.49600,-3.678195071
22.49650,-5.509361517
22.49700,-48.541773
22.49750,-103.171572
22.49800,-98.59365587
22.49850,-11.61324967
22.49900,92.15284895
22.49950,132.7437052
22.50000,101.3086812
22.50050,51.25679832
22.50100,20.43216314
22.50150,4.867248345
22.50200,-8.561305594
22.50250,-16.19116579
22.50300,-11.00286086
22.50350,2.730887491
22.50400,14.63346939
22.50450,19.21138551
22.50500,16.15944143
22.50550,8.529581238
22.50600,1.815304268
22.50650,-0.3210565858
22.50700,-0.01586217811
22.50750,-0.01586217811
22.50800,2.120498676
22.50850,8.22438683
22.50900,12.80230295
22.50950,10.05555328
22.51000,3.036081899
22.51050,0.899721045
22.51100,4.562053937
22.51150,3.036081899
22.51200,-12.22363849
22.51250,-36.02880229
22.51300,-49.15216182
22.51350,-40.6067184
22.51400,-24.43141479
22.51450,-29.31452532
22.51500,-61.35993813
22.51550,-85.16510193
22.51600,-58.61318846
22.51650,14.02308058
22.51700,81.77623909
22.51750,97.34115388
22.51800,63.76976903
22.51850,18.29580228
22.51900,-11.61324967
22.51950,-21.68466512
22.52000,-14.66519375
22.52050,5.172442753
22.52100,27.14644011
22.52150,35.38668912
22.52200,25.92566248
22.52250,11.88671972
22.52300,5.172442753
22.52350,5.477637161
22.52400,3.951665122
22.52450,-1.236639809
22.52500,-8.561305594
22.52550,-12.8340273
22.52600,-9.171694409
22.52650,1.204915453
22.52700,11.88671972
22.52750,14.32827498
22.52800,8.834775645
22.52850,3.951665122
22.52900,3.036081899
22.52950,-0.01586217811
22.53000,-10.69766645
22.53050,-23.82102598
22.53100,-29.61971973
22.53150,-25.34699802
22.53200,-16.19116579
22.53250,-7.035333555
22.53300,-1.236639809
22.53350,-3.678195071
22.53400,-14.05480493
22.53450,-23.51583157
22.53500,-23.51583157
22.53550,-17.41194342
22.53600,-15.27558256
22.53650,-18.32752664
22.53700,-17.41194342
22.53750,-9.171694409
22.53800,-0.9314454012
22.53850,-0.01586217811
22.53900,-3.067806255
22.53950,-4.898972701
22.54000,-4.593778294
22.54050,-3.983389478
22.54100,-1.236639809
22.54150,2.730887491
22.54200,3.036081899
22.54250,-0.01586217811
22.54300,1.204915453
22.54350,10.66594209
22.54400,18.60099669
22.54450,14.02308058
22.54500,3.646470714
22.54550,1.204915453
22.54600,7.613998014
22.54650,10.05555328
22.54700,1.204915453
22.54750,-10.08727763
22.54800,-14.05480493
22.54850,-9.782083225
22.54900,-4.593778294
22.54950,-5.204167109
22.55000,-11.00286086
22.55050,-16.8015546
22.55100,-16.49636019
22.55150,-7.035333555
22.55200,6.698414791
22.55250,17.07502465
22.55300,17.99060788
22.55350,11.88671972
22.55400,6.088025976
22.55450,5.477637161
22.55500,7.919192422
22.55550,5.782831568
22.55600,-2.762611847
22.55650,-10.69766645
22.55700,-10.69766645
22.55750,-11.00286086
22.55800,-24.12622039
22.55850,-43.96385689
22.55900,-46.71060656
22.55950,-26.87297006
22.56000,-9.782083225
22.56050,-14.35999934
22.56100,-19.54830427
22.56150,7.613998014
22.56200,58.5814641
22.56250,87.57493283
22.56300,71.70482363
22.56350,36.30227234
22.56400,14.32827498
22.56450,5.477637161
22.56500,-4.898972701
22.56550,-16.8015546
22.56600,-14.05480493
22.56650,3.341276307
22.56700,20.73735755
22.56750,25.31527366
22.56800,15.85424702
22.56850,-3.678195071
22.56900,-25.65219243
22.56950,-35.11321906
22.57000,-22.90544276
22.57050,-0.01586217811
22.57100,12.19191413
22.57150,7.003609199
22.57200,-4.288583886
22.57250,-11.00286086
22.57300,-12.22363849
22.57350,-9.171694409
22.57400,0.5945266373
22.57450,15.54905261
22.57500,24.70488485
22.57550,22.26332958
22.57600,14.32827498
22.57650,10.05555328
22.57700,10.05555328
22.57750,9.445164461
22.57800,6.088025976
22.57850,2.425693084
22.57900,0.5945266373
22.57950,-0.6262509935
22.58000,-4.898972701
22.58050,-14.66519375
22.58100,-28.39894209
22.58150,-36.6391911
22.58200,-27.48335887
22.58250,-1.236639809
22.58300,24.70488485
22.58350,34.16591148
22.58400,26.23085688
22.58450,14.02308058
22.58500,6.393220384
22.58550,2.425693084
22.58600,-0.01586217811
22.58650,1.204915453
22.58700,6.393220384
22.58750,10.05555328
22.58800,7.613998014
22.58850,0.899721045
22.58900,-3.067806255
22.58950,-3.067806255
22.59000,-0.9314454012
22.59050,1.51010986
22.59100,5.172442753
22.59150,9.445164461
22.59200,12.49710854
22.59250,14.32827498
22.59300,14.9386638
22.59350,11.88671972
22.59400,0.5945266373
22.59450,-16.19116579
22.59500,-29.31452532
22.59550,-32.06127499
22.59600,-28.39894209
22.59650,-25.34699802
22.59700,-23.82102598
22.59750,-20.46388749
22.59800,-13.44441612
22.59850,-4.898972701
22.59900,0.899721045
22.59950,2.730887491
22.60000,1.204915453
22.60050,0.5945266373
22.60100,6.088025976
22.60150,13.41269176
22.60200,13.71788617
22.60250,3.341276307
22.60300,-7.950916778
22.60350,-10.39247204
22.60400,-5.509361517
22.60450,-2.152223032
22.60500,-3.373000663
22.60550,-7.645722371
22.60600,-13.74961052
22.60650,-20.46388749
22.60700,-21.98985953
22.60750,-17.71713782
22.60800,-15.27558256
22.60850,-14.66519375
22.60900,-2.45741744
22.60950,27.45163452
22.61000,55.22432562
22.61050,55.22432562
22.61100,31.11396741
22.61150,7.613998014
22.61200,-3.373000663
22.61250,-9.476888817
22.61300,-14.05480493
22.61350,-20.7690819
22.61400,-44.87944011
22.61450,-91.26899008
22.61500,-119.65207
22.61550,-77.53524173
22.61600,21.95813518
22.61650,103.7502364
22.61700,117.4839848
22.61750,87.26973842
22.61800,50.03602068
22.61850,2.120498676
22.61900,-61.05474372
22.61950,-94.32093416
22.62000,-50.67813386
22.62050,42.40616049
22.62100,107.4125693
22.62150,108.633347
22.62200,80.86065586
22.62250,61.02301936
22.62300,43.93213253
22.62350,15.54905261
22.62400,-10.08727763
22.62450,-15.27558256
22.62500,-11.61324967
22.62550,-25.04180361
22.62600,-55.56124438
22.62650,-74.48329766
22.62700,-63.80149339
22.62750,-40.91191281
22.62800,-33.28205262
22.62850,-42.43788485
22.62900,-41.21710722
22.62950,-11.30805526
22.63000,28.06202333
22.63050,45.15291016
22.63100,31.72435622
22.63150,9.750358868
22.63200,-3.678195071
22.63250,-12.52883289
22.63300,-21.37947072
22.63350,-23.21063716
22.63400,-13.44441612
22.63450,-2.762611847
22.63500,-0.01586217811
22.63550,2.730887491
22.63600,13.10749735
22.63650,24.09449603
22.63700,24.39969044
22.63750,15.24385821
22.63800,7.613998014
22.63850,3.341276307
22.63900,-3.373000663
22.63950,-13.44441612
22.64000,-19.24310986
22.64050,-15.58077697
22.64100,-7.340527963
22.64150,-2.45741744
22.64200,-3.373000663
22.64250,-3.373000663
22.64300,3.951665122
22.64350,17.38021906
22.64400,26.53605129
22.64450,25.01007925
22.64500,18.29580228
22.64550,12.80230295
22.64600,7.003609199
22.64650,-4.288583886
22.64700,-18.93791546
22.64750,-25.34699802
22.64800,-19.85349868
22.64850,-8.866500001
22.64900,0.2893322296
22.64950,7.003609199
22.65000,10.36074768
22.65050,8.529581238
22.65100,3.341276307
22.65150,-0.01586217811
22.65200,0.899721045
22.65250,2.425693084
22.65300,0.899721045
22.65350,-3.373000663
22.65400,-7.645722371
22.65450,-10.39247204
22.65500,-13.13922171
22.65550,-18.02233223
22.65600,-23.21063716
22.65650,-21.98985953
22.65700,-13.13922171
22.65750,-7.645722371
22.65800,-12.22363849
22.65850,-14.66519375
22.65900,3.951665122
22.65950,40.57499405
22.66000,65.29574107
22.66050,59.80224173
22.66100,38.43863319
22.66150,24.70488485
22.66200,18.9061911
22.66250,6.393220384
22.66300,-12.22363849
22.66350,-20.15869309
22.66400,-10.08727763
22.66450,6.698414791
22.66500,17.38021906
22.66550,21.34774636
22.66600,22.26332958
22.66650,17.99060788
22.66700,7.308803607
22.66750,-3.373000663
22.66800,-8.256111186
22.66850,-8.561305594
22.66900,-10.69766645
22.66950,-15.88597138
22.67000,-17.71713782
22.67050,-11.61324967
22.67100,0.2893322296
22.67150,11.88671972
22.67200,17.99060788
22.67250,17.38021906
22.67300,11.27633091
22.67350,3.646470714
22.67400,-1.541834217
22.67450,-3.678195071
22.67500,-4.288583886
22.67550,-5.509361517
22.67600,-7.645722371
22.67650,-7.950916778
22.67700,-7.035333555
22.67750,-8.256111186
22.67800,-12.52883289
22.67850,-13.44441612
22.67900,-5.204167109
22.67950,7.613998014
22.68000,13.71788617
22.68050,8.529581238
22.68100,1.204915453
22.68150,1.51010986
22.68200,7.613998014
22.68250,9.750358868
22.68300,5.477637161
22.68350,0.5945266373
22.68400,0.5945266373
22.68450,3.036081899
22.68500,3.341276307
22.68550,-1.236639809
22.68600,-15.88597138
22.68650,-42.43788485
22.68700,-69.29499273
22.68750,-70.82096476
22.68800,-34.19763584
22.68850,19.51657991
22.68900,54.00354799
22.68950,53.08796476
22.69000,32.63993945
22.69050,14.63346939
22.69100,5.477637161
22.69150,0.5945266373
22.69200,-1.236639809
22.69250,0.2893322296
22.69300,3.036081899
22.69350,2.425693084
22.69400,-0.01586217811
22.69450,0.2893322296
22.69500,2.120498676
22.69550,2.425693084
22.69600,1.204915453
22.69650,1.204915453
22.69700,1.204915453
22.69750,-1.236639809
22.69800,-5.204167109
22.69850,-9.171694409
22.69900,-16.8015546
22.69950,-30.53530295
22.70000,-38.47035755
22.70050,-27.78855328
22.70100,-4.288583886
22.70150,5.477637161
22.70200,-10.39247204
22.70250,-34.50283025
22.70300,-36.02880229
22.70350,-10.08727763
22.70400,19.82177432
22.70450,30.50357859
22.70500,22.26332958
22.70550,13.10749735
22.70600,14.32827498
22.70650,21.34774636
22.70700,24.70488485
22.70750,23.48410721
22.70800,23.78930162
22.70850,25.62046807
22.70900,22.56852399
22.70950,12.19191413
22.71000,0.2893322296
22.71050,-7.950916778
22.71100,-16.8015546
22.71150,-26.87297006
22.71200,-29.00933091
22.71250,-16.19116579
22.71300,4.867248345
22.71350,22.26332958
22.71400,29.89318978
22.71450,28.67241215
22.71500,19.82177432
22.71550,6.393220384
22.71600,-3.067806255
22.71650,-8.866500001
22.71700,-18.93791546
22.71750,-36.6391911
22.71800,-51.89891149
22.71850,-53.11968912
22.71900,-44.87944011
22.71950,-38.16516314
22.72000,-39.69113518
22.72050,-55.25604997
22.72100,-83.02874107
22.72150,-100.7300167
22.72200,-72.3469368
22.72250,4.867248345
22.72300,85.13337757
22.72350,114.4320407
22.72400,82.3866279
22.72450,16.15944143
22.72500,-50.37293945
22.72550,-85.47029633
22.72600,-58.91838286
22.72650,22.8737184
22.72700,105.8865973
22.72750,131.8281219
22.72800,101.3086812
22.72850,57.66588088
22.72900,29.28280096
22.72950,11.27633091
22.73000,-1.847028624
22.73050,-5.814555924
22.73100,-2.45741744
22.73150,-4.288583886
22.73200,-13.44441612
22.73250,-18.02233223
22.73300,-11.91844408
22.73350,-3.983389478
22.73400,0.5945266373
22.73450,3.951665122
22.73500,5.782831568
22.73550,4.25685953
22.73600,2.425693084
22.73650,3.341276307
22.73700,-1.541834217
22.73750,-20.15869309
22.73800,-37.85996873
22.73850,-32.36646939
22.73900,-4.288583886
22.73950,21.65294077
22.74000,30.19838418
22.74050,26.23085688
22.74100,20.12696873
22.74150,12.49710854
22.74200,3.036081899
22.74250,-2.45741744
22.74300,-2.152223032
22.74350,-2.45741744
22.74400,-6.119750332
22.74450,-8.256111186
22.74500,-5.204167109
22.74550,-0.6262509935
22.74600,0.2893322296
22.74650,-0.9314454012
22.74700,-2.762611847
22.74750,-5.204167109
22.74800,-8.561305594
22.74850,-10.39247204
22.74900,-10.08727763
22.74950,-8.866500001
22.75000,-6.119750332
22.75050,0.5945266373
22.75100,11.27633091
22.75150,18.29580228
22.75200,16.76983025
22.75250,11.27633091
22.75300,6.698414791
22.75350,2.120498676
22.75400,-5.509361517
22.75450,-14.66519375
22.75500,-17.71713782
22.75550,-13.44441612
22.75600,-7.645722371
22.75650,-5.204167109
22.75700,-4.593778294
22.75750,-4.288583886
22.75800,-4.593778294
22.75850,-5.509361517
22.75900,-5.204167109
22.75950,-4.288583886
22.76000,-5.204167109
22.76050,-7.340527963
22.76100,-5.204167109
22.76150,1.204915453
22.76200,5.782831568
22.76250,4.562053937
22.76300,3.036081899
22.76350,7.919192422
22.76400,13.71788617
22.76450,9.750358868
22.76500,-3.983389478
22.76550,-16.8015546
22.76600,-19.54830427
22.76650,-13.44441612
22.76700,-3.983389478
22.76750,3.036081899
22.76800,4.562053937
22.76850,-1.541834217
22.76900,-9.476888817
22.76950,-10.39247204
22.77000,-4.593778294
22.77050,-3.067806255
22.77100,-9.476888817
22.77150,-14.66519375
22.77200,-7.645722371
22.77250,9.139970053
22.77300,24.70488485
22.77350,30.50357859
22.77400,22.8737184
22.77450,3.646470714
22.77500,-16.49636019
22.77550,-24.43141479
22.77600,-19.24310986
22.77650,-15.27558256
22.77700,-22.29505394
22.77750,-27.17816446
22.77800,-13.74961052
22.77850,14.32827498
22.77900,35.99707793
22.77950,37.21785556
22.78000,22.56852399
22.78050,6.393220384
22.78100,1.815304268
22.78150,15.24385821
22.78200,38.43863319
22.78250,49.73082628
22.78300,35.38668912
22.78350,6.698414791
22.78400,-15.58077697
22.78450,-22.90544276
22.78500,-21.68466512
22.78550,-18.02233223
22.78600,-13.44441612
22.78650,-7.950916778
22.78700,-2.152223032
22.78750,7.919192422
22.78800,25.31527366
22.78850,40.57499405
22.78900,43.01654931
22.78950,33.55552267
22.79000,19.51657991
22.79050,3.951665122
22.79100,-12.22363849
22.79150,-23.21063716
22.79200,-20.46388749
22.79250,-6.730139148
22.79300,5.782831568
22.79350,12.19191413
22.79400,14.63346939
22.79450,17.07502465
22.79500,19.82177432
22.79550,21.34774636
22.79600,17.68541347
22.79650,4.562053937
22.79700,-15.27558256
22.79750,-31.75608058
22.79800,-39.38594077
22.79850,-44.5742457
22.79900,-51.89891149
22.79950,-51.59371708
22.80000,-35.41841347
22.80050,-14.35999934
22.80100,-7.035333555
22.80150,-13.13922171
22.80200,-14.35999934
22.80250,-0.01586217811
22.80300,19.21138551
22.80350,26.23085688
22.80400,16.76983025
22.80450,0.899721045
22.80500,-9.782083225
22.80550,-11.30805526
22.80600,-6.730139148
22.80650,-2.45741744
22.80700,-2.152223032
22.80750,-2.762611847
22.80800,-0.01586217811
22.80850,5.477637161
22.80900,8.834775645
22.80950,9.445164461
22.81000,8.22438683
22.81050,5.172442753
22.81100,1.51010986
22.81150,-0.01586217811
22.81200,2.425693084
22.81250,3.341276307
22.81300,-6.730139148
22.81350,-26.87297006
22.81400,-40.91191281
22.81450,-30.84049736
22.81500,4.562053937
22.81550,45.15291016
22.81600,63.15938022
22.81650,46.06849338
22.81700,6.393220384
22.81750,-27.17816446
22.81800,-35.11321906
22.81850,-20.7690819
22.81900,-1.541834217
22.81950,10.9711365
22.82000,18.9061911
22.82050,25.31527366
22.82100,24.70488485
22.82150,14.32827498
22.82200,3.646470714
22.82250,2.120498676
22.82300,5.172442753
22.82350,-0.3210565858
22.82400,-16.19116579
22.82450,-28.39894209
22.82500,-27.48335887
22.82550,-18.63272105
22.82600,-10.08727763
22.82650,-4.898972701
22.82700,-0.9314454012
22.82750,3.036081899
22.82800,6.393220384
22.82850,0.2893322296
22.82900,-25.95738683
22.82950,-64.1066878
22.83000,-75.09368647
22.83050,-28.7041365
22.83100,49.42563187
22.83150,97.03595947
22.83200,85.13337757
22.83250,47.59446542
22.83300,28.97760655
22.83350,32.33474504
22.83400,33.25032826
22.83450,23.48410721
22.83500,13.10749735
22.83550,8.22438683
22.83600,3.951665122
22.83650,-4.898972701
22.83700,-22.29505394
22.83750,-47.93138419
22.83800,-67.46382628
22.83850,-58.61318846
22.83900,-16.8015546
22.83950,31.72435622
22.84000,55.52952002
22.84050,47.59446542
22.84100,23.78930162
22.84150,3.646470714
22.84200,-2.762611847
22.84250,-6.119750332
22.84300,-32.06127499
22.84350,-86.69107397
22.84400,-124.8403749
22.84450,-88.82743482
22.84500,10.05555328
22.84550,90.3216825
22.84600,94.89959862
22.84650,53.08796476
22.84700,23.48410721
22.84750,14.9386638
22.84800,4.867248345
22.84850,-1.541834217
22.84900,18.29580228
22.84950,52.47757595
22.85000,59.49704732
22.85050,28.97760655
22.85100,-4.593778294
22.85150,-14.66519375
22.85200,-13.44441612
22.85250,-18.32752664
22.85300,-22.90544276
22.85350,-16.19116579
22.85400,-6.119750332
22.85450,-4.898972701
22.85500,-7.340527963
22.85550,-0.01586217811
22.85600,14.63346939
22.85650,21.34774636
22.85700,16.15944143
22.85750,8.22438683
22.85800,3.951665122
22.85850,-2.152223032
22.85900,-14.35999934
22.85950,-26.87297006
22.86000,-32.6716638
22.86050,-31.75608058
22.86100,-26.87297006
22.86150,-19.85349868
22.86200,-14.05480493
22.86250,-14.35999934
22.86300,-19.85349868
22.86350,-20.7690819
22.86400,-12.8340273
22.86450,-2.762611847
22.86500,-0.6262509935
22.86550,-3.373000663
22.86600,-3.983389478
22.86650,-2.45741744
22.86700,-5.509361517
22.86750,-12.52883289
22.86800,-15.27558256
22.86850,-11.30805526
22.86900,-6.730139148
22.86950,-4.593778294
22.87000,-2.45741744
22.87050,-1.541834217
22.87100,-7.950916778
22.87150,-19.24310986
22.87200,-21.37947072
22.87250,-6.42494474
22.87300,11.88671972
22.87350,16.15944143
22.87400,5.172442753
22.87450,-3.678195071
22.87500,-1.541834217
22.87550,3.036081899
22.87600,-0.3210565858
22.87650,-6.730139148
22.87700,-4.593778294
22.87750,2.730887491
22.87800,1.815304268
22.87850,-8.561305594
22.87900,-15.27558256
22.87950,-14.35999934
22.88000,-19.24310986
22.88050,-33.28205262
22.88100,-31.45088617
22.88150,4.562053937
22.88200,53.08796476
22.88250,71.39962922
22.88300,49.42563187
22.88350,15.54905261
22.88400,-5.204167109
22.88450,-14.35999934
22.88500,-18.63272105
22.88550,-14.05480493
22.88600,0.5945266373
22.88650,14.02308058
22.88700,16.46463584
22.88750,12.19191413
22.88800,10.36074768
22.88850,10.05555328
22.88900,7.308803607
22.88950,4.867248345
22.89000,6.698414791
22.89050,9.445164461
22.89100,8.22438683
22.89150,3.646470714
22.89200,1.51010986
22.89250,3.036081899
22.89300,6.393220384
22.89350,8.834775645
22.89400,8.834775645
22.89450,8.22438683
22.89500,7.613998014
22.89550,6.393220384
22.89600,1.51010986
22.89650,-6.42494474
22.89700,-14.97038816
22.89750,-21.37947072
22.89800,-23.51583157
22.89850,-18.93791546
22.89900,-7.950916778
22.89950,1.204915453
22.90000,0.899721045
22.90050,-5.509361517
22.90100,-8.256111186
22.90150,-6.42494474
22.90200,-7.950916778
22.90250,-9.782083225
22.90300,3.036081899
22.90350,30.19838418
22.90400,47.59446542
22.90450,37.21785556
22.90500,12.19191413
22.90550,-3.067806255
22.90600,-4.288583886
22.90650,-3.983389478
22.90700,-7.340527963
22.90750,-10.39247204
22.90800,-11.61324967
22.90850,-11.91844408
22.90900,-6.730139148
22.90950,6.393220384
22.91000,19.21138551
22.91050,18.9061911
22.91100,8.22438683
22.91150,-0.6262509935
22.91200,-4.593778294
22.91250,-10.69766645
22.91300,-21.07427631
22.91350,-21.37947072
22.91400,-0.3210565858
22.91450,31.72435622
22.91500,52.78277035
22.91550,51.25679832
22.91600,38.7438276
22.91650,32.33474504
22.91700,31.72435622
22.91750,22.56852399
22.91800,-0.9314454012
22.91850,-24.43141479
22.91900,-28.7041365
22.91950,-14.97038816
22.92000,-5.509361517
22.92050,-14.05480493
22.92100,-32.6716638
22.92150,-42.13269044
22.92200,-36.6391911
22.92250,-24.7366092
22.92300,-16.19116579
22.92350,-10.39247204
22.92400,-1.847028624
22.92450,8.834775645
22.92500,17.07502465
22.92550,17.38021906
22.92600,9.750358868
22.92650,-1.847028624
22.92700,-12.52883289
22.92750,-15.58077697
22.92800,-10.39247204
22.92850,-4.898972701
22.92900,-4.593778294
22.92950,-3.067806255
22.93000,11.58152531
22.93050,36.30227234
22.93100,50.95160391
22.93150,41.49057727
22.93200,16.46463584
22.93250,-5.204167109
22.93300,-14.97038816
22.93350,-14.97038816
22.93400,-9.171694409
22.93450,-0.3210565858
22.93500,5.782831568
22.93550,3.036081899
22.93600,-6.119750332
22.93650,-14.05480493
22.93700,-15.58077697
22.93750,-11.91844408
22.93800,-5.509361517
22.93850,3.036081899
22.93900,13.41269176
22.93950,20.73735755
22.94000,21.95813518
22.94050,18.29580228
22.94100,11.88671972
22.94150,3.646470714
22.94200,-7.035333555
22.94250,-16.49636019
22.94300,-21.68466512
22.94350,-30.23010854
22.94400,-55.56124438
22.94450,-92.48976771
22.94500,-105.9183217
22.94550,-63.80149339
22.94600,19.21138551
22.94650,86.65934961
22.94700,96.42557066
22.94750,61.93860259
22.94800,27.75682892
22.94850,14.9386638
22.94900,14.32827498
22.94950,12.19191413
22.95000,7.919192422
22.95050,3.951665122
22.95100,-0.6262509935
22.95150,-3.678195071
22.95200,-0.01586217811
22.95250,7.919192422
22.95300,10.36074768
22.95350,1.51010986
22.95400,-11.00286086
22.95450,-18.32752664
22.95500,-16.8015546
22.95550,-10.08727763
22.95600,-4.898972701
22.95650,-6.42494474
22.95700,-11.91844408
22.95750,-13.44441612
22.95800,-6.42494474
22.95850,2.120498676
22.95900,2.120498676
22.95950,-6.119750332
22.96000,-13.74961052
22.96050,-12.52883289
22.96100,-4.288583886
22.96150,2.730887491
22.96200,3.341276307
22.96250,-4.288583886
22.96300,-16.8015546
22.96350,-25.95738683
22.96400,-26.56777565
22.96450,-18.02233223
22.96500,-3.678195071
22.96550,7.919192422
22.96600,7.003609199
22.96650,-2.762611847
22.96700,-3.373000663
22.96750,16.46463584
22.96800,39.65941082
22.96850,43.01654931
22.96900,32.33474504
22.96950,26.23085688
22.97000,14.32827498
22.97050,-33.28205262
22.97100,-100.4248223
22.97150,-118.7364868
22.97200,-51.59371708
22.97250,49.12043746
22.97300,103.445042
22.97350,91.54246013
22.97400,55.83471443
22.97450,28.06202333
22.97500,5.477637161
22.97550,-14.05480493
22.97600,-18.63272105
22.97650,-8.256111186
22.97700,-1.541834217
22.97750,-7.950916778
22.97800,-14.97038816
22.97850,-11.61324967
22.97900,-3.373000663
22.97950,2.425693084
22.98000,5.782831568
22.98050,7.003609199
22.98100,3.951665122
22.98150,-0.3210565858
22.98200,-0.3210565858
22.98250,2.425693084
22.98300,0.5945266373
22.98350,-6.730139148
22.98400,-14.97038816
22.98450,-22.29505394
22.98500,-28.39894209
22.98550,-28.09374769
22.98600,-17.41194342
22.98650,-3.678195071
22.98700,3.951665122
22.98750,7.919192422
22.98800,13.71788617
22.98850,17.38021906
22.98900,12.49710854
22.98950,5.782831568
22.99000,7.308803607
22.99050,11.58152531
22.99100,5.172442753
22.99150,-6.730139148
22.99200,-8.561305594
22.99250,1.204915453
22.99300,7.003609199
22.99350,1.204915453
22.99400,-4.288583886
22.99450,-2.45741744
22.99500,-3.373000663
22.99550,-12.22363849
22.99600,-18.93791546
22.99650,-15.27558256
22.99700,-10.08727763
22.99750,-11.61324967
22.99800,-10.08727763
22.99850,6.393220384
22.99900,29.28280096
22.99950,38.43863319
23.00000,30.808773
23.00050,19.51657991
23.00100,12.49710854
23.00150,6.698414791
23.00200,1.51010986
23.00250,-0.01586217811
23.00300,-1.541834217
23.00350,-12.22363849
23.00400,-27.78855328
23.00450,-36.02880229
23.00500,-36.94438551
23.00550,-45.48982893
23.00600,-58.61318846
23.00650,-49.45735623
23.00700,-2.762611847
23.00750,54.6139368
23.00800,80.55546146
23.00850,65.90612989
23.00900,39.04902201
23.00950,23.17891281
23.01000,10.66594209
23.01050,-11.00286086
23.01100,-34.80802466
23.01150,-39.99632959
23.01200,-20.46388749
23.01250,7.919192422
23.01300,26.23085688
23.01350,28.97760655
23.01400,21.95813518
23.01450,12.49710854
23.01500,3.951665122
23.01550,-1.236639809
23.01600,-1.847028624
23.01650,0.5945266373
23.01700,0.5945266373
23.01750,-3.067806255
23.01800,-5.204167109
23.01850,-0.01586217811
23.01900,7.003609199
23.01950,6.698414791
23.02000,-1.236639809
23.02050,-7.950916778
23.02100,-5.509361517
23.02150,5.782831568
23.02200,20.73735755
23.02250,30.808773
23.02300,26.23085688
23.02350,7.613998014
23.02400,-7.340527963
23.02450,-1.541834217
23.02500,18.29580228
23.02550,25.31527366
23.02600,2.730887491
23.02650,-33.89244143
23.02700,-60.1391605
23.02750,-62.88591016
23.02800,-48.23657859
23.02850,-28.09374769
23.02900,-12.8340273
23.02950,-6.42494474
23.03000,-4.288583886
23.03050,2.425693084
23.03100,12.80230295
23.03150,15.54905261
23.03200,4.867248345
23.03250,-10.08727763
23.03300,-17.71713782
23.03350,-15.88597138
23.03400,-12.52883289
23.03450,-13.44441612
23.03500,-17.71713782
23.03550,-21.98985953
23.03600,-23.21063716
23.03650,-20.7690819
23.03700,-15.27558256
23.03750,-6.42494474
23.03800,7.308803607
23.03850,22.8737184
23.03900,31.72435622
23.03950,30.19838418
23.04000,24.39969044
23.04050,22.26332958
23.04100,24.70488485
23.04150,25.62046807
23.04200,23.17891281
23.04250,19.82177432
23.04300,17.38021906
23.04350,13.71788617
23.04400,10.36074768
23.04450,10.66594209
23.04500,13.71788617
23.04550,14.32827498
23.04600,10.36074768
23.04650,3.951665122
23.04700,-0.9314454012
23.04750,-4.288583886
23.04800,-4.898972701
23.04850,-2.45741744
23.04900,0.5945266373
23.04950,2.425693084
23.05000,2.120498676
23.05050,0.2893322296
23.05100,-2.45741744
23.05150,-5.814555924
23.05200,-7.035333555
23.05250,-3.983389478
23.05300,-0.01586217811
23.05350,0.5945266373
23.05400,-0.9314454012
23.05450,-1.847028624
23.05500,-0.9314454012
23.05550,-2.762611847
23.05600,-9.476888817
23.05650,-14.97038816
23.05700,-12.8340273
23.05750,-8.561305594
23.05800,-19.24310986
23.05850,-52.2041059
23.05900,-85.16510193
23.05950,-76.92485292
23.06000,-13.44441612
23.06050,68.65287955
23.06100,111.3800966
23.06150,93.06843217
23.06200,46.37368779
23.06250,16.15944143
23.06300,15.54905261
23.06350,25.01007925
23.06400,25.62046807
23.06450,17.99060788
23.06500,10.36074768
23.06550,5.477637161
23.06600,-0.01586217811
23.06650,-9.171694409
23.06700,-19.54830427
23.06750,-26.87297006
23.06800,-27.78855328
23.06850,-24.7366092
23.06900,-19.85349868
23.06950,-14.35999934
23.07000,-8.561305594
23.07050,-3.678195071
23.07100,-3.678195071
23.07150,-8.561305594
23.07200,-16.49636019
23.07250,-22.60024835
23.07300,-23.82102598
23.07350,-17.10674901
23.07400,-5.509361517
23.07450,3.646470714
23.07500,5.782831568
23.07550,3.341276307
23.07600,1.204915453
23.07650,1.815304268
23.07700,5.477637161
23.07750,10.05555328
23.07800,10.9711365
23.07850,4.25685953
23.07900,-5.204167109
23.07950,-10.39247204
23.08000,-13.74961052
23.08050,-26.56777565
23.08100,-48.541773
23.08150,-64.1066878
23.08200,-61.05474372
23.08250,-44.87944011
23.08300,-22.60024835
23.08350,9.445164461
23.08400,52.78277035
23.08450,87.88012724
23.08500,92.15284895
23.08550,67.73729633
23.08600,37.52304997
23.08650,17.99060788
23.08700,7.003609199
23.08750,-2.45741744
23.08800,-10.39247204
23.08850,-12.52883289
23.08900,-9.171694409
23.08950,-4.593778294
23.09000,-3.373000663
23.09050,-4.288583886
23.09100,-2.762611847
23.09150,0.5945266373
23.09200,3.646470714
23.09250,5.172442753
23.09300,6.393220384
23.09350,-1.541834217
23.09400,-38.16516314
23.09450,-97.06768383
23.09500,-130.0286799
23.09550,-87.9118516
23.09600,13.71788617
23.09650,101.91907
23.09700,122.9774841
23.09750,90.93207132
23.09800,53.39315917
23.09850,32.33474504
23.09900,17.68541347
23.09950,0.5945266373
23.10000,-12.52883289
23.10050,-15.58077697
23.10100,-11.30805526
23.10150,-7.035333555
23.10200,-6.119750332
23.10250,-7.035333555
23.10300,-6.119750332
23.10350,-0.3210565858
23.10400,10.05555328
23.10450,21.04255195
23.10500,28.36721774
23.10550,30.19838418
23.10600,25.01007925
23.10650,13.41269176
23.10700,-0.6262509935
23.10750,-13.74961052
23.10800,-23.21063716
23.10850,-28.09374769
23.10900,-25.65219243
23.10950,-17.71713782
23.11000,-12.52883289
23.11050,-13.13922171
23.11100,-12.22363849
23.11150,-3.983389478
23.11200,3.951665122
23.11250,-0.3210565858
23.11300,-15.58077697
23.11350,-25.04180361
23.11400,-20.15869309
23.11450,-9.782083225
23.11500,-4.593778294
23.11550,-3.983389478
23.11600,-1.847028624
23.11650,0.899721045
23.11700,0.5945266373
23.11750,-0.01586217811
23.11800,2.730887491
23.11850,6.393220384
23.11900,4.562053937
23.11950,-1.847028624
23.12000,-5.509361517
23.12050,-3.983389478
23.12100,-2.45741744
23.12150,-5.814555924
23.12200,-11.30805526
23.12250,-17.41194342
23.12300,-25.95738683
23.12350,-37.24957992
23.12400,-46.40541215
23.12450,-50.06774504
23.12500,-49.15216182
23.12550,-39.08074636
23.12600,-12.22363849
23.12650,28.06202333
23.12700,63.46457462
23.12750,75.67235093
23.12800,66.5165187
23.12850,48.20485424
23.12900,30.19838418
23.12950,14.63346939
23.13000,5.477637161
23.13050,4.562053937
23.13100,5.782831568
23.13150,0.899721045
23.13200,-9.782083225
23.13250,-18.32752664
23.13300,-18.02233223
23.13350,-7.950916778
23.13400,8.22438683
23.13450,22.26332958
23.13500,22.56852399
23.13550,8.529581238
23.13600,-7.645722371
23.13650,-13.74961052
23.13700,-11.00286086
23.13750,-9.782083225
23.13800,-12.8340273
23.13850,-12.22363849
23.13900,-4.593778294
23.13950,4.25685953
23.14000,7.613998014
23.14050,5.172442753
23.14100,0.899721045
23.14150,-3.067806255
23.14200,-5.204167109
23.14250,-4.593778294
23.14300,-0.3210565858
23.14350,4.867248345
23.14400,8.22438683
23.14450,7.003609199
23.14500,3.036081899
23.14550,1.204915453
23.14600,3.036081899
23.14650,2.730887491
23.14700,-5.814555924
23.14750,-18.32752664
23.14800,-18.93791546
23.14850,-0.9314454012
23.14900,24.39969044
23.14950,40.26979964
23.15000,39.35421642
23.15050,27.75682892
23.15100,14.32827498
23.15150,4.562053937
23.15200,1.815304268
23.15250,4.867248345
23.15300,8.529581238
23.15350,9.139970053
23.15400,9.139970053
23.15450,11.27633091
23.15500,11.88671972
23.15550,6.393220384
23.15600,-3.678195071
23.15650,-11.61324967
23.15700,-12.8340273
23.15750,-10.08727763
23.15800,-7.340527963
23.15850,-5.814555924
23.15900,-3.373000663
23.15950,0.5945266373
23.16000,3.951665122
23.16050,4.25685953
23.16100,0.5945266373
23.16150,-2.762611847
23.16200,-2.45741744
23.16250,0.2893322296
23.16300,0.5945266373
23.16350,-3.067806255
23.16400,-8.866500001
23.16450,-14.97038816
23.16500,-19.24310986
23.16550,-17.71713782
23.16600,-9.476888817
23.16650,-5.509361517
23.16700,-12.52883289
23.16750,-17.10674901
23.16800,3.646470714
23.16850,45.15291016
23.16900,69.87365719
23.16950,53.39315917
23.17000,18.29580228
23.17050,-2.152223032
23.17100,-17.41194342
23.17150,-63.80149339
23.17200,-135.8273736
23.17250,-167.2623976
23.17300,-107.4442937
23.17350,10.9711365
23.17400,102.8346532
23.17450,117.1787904
23.17500,77.19832297
23.17550,32.33474504
23.17600,7.308803607
23.17650,-1.541834217
23.17700,-3.067806255
23.17750,-2.762611847
23.17800,-4.593778294
23.17850,-6.730139148
23.17900,0.5945266373
23.17950,20.73735755
23.18000,39.35421642
23.18050,39.96460523
23.18100,25.92566248
23.18150,13.71788617
23.18200,11.27633091
23.18250,10.66594209
23.18300,4.25685953
23.18350,-6.42494474
23.18400,-17.71713782
23.18450,-25.04180361
23.18500,-25.34699802
23.18550,-18.02233223
23.18600,-8.561305594
23.18650,-4.288583886
23.18700,-5.509361517
23.18750,-7.645722371
23.18800,-8.561305594
23.18850,-9.171694409
23.18900,-7.645722371
23.18950,-2.762611847
23.19000,2.730887491
23.19050,3.951665122
23.19100,1.815304268
23.19150,1.51010986
23.19200,2.425693084
23.19250,1.51010986
23.19300,-0.01586217811
23.19350,-0.3210565858
23.19400,-3.067806255
23.19450,-13.13922171
23.19500,-24.43141479
23.19550,-26.56777565
23.19600,-19.54830427
23.19650,-16.19116579
23.19700,-22.29505394
23.19750,-26.87297006
23.19800,-17.10674901
23.19850,4.25685953
23.19900,21.65294077
23.19950,25.01007925
23.20000,17.99060788
23.20050,10.9711365
23.20100,7.919192422
23.20150,5.477637161
23.20200,0.899721045
23.20250,-3.373000663
23.20300,-2.762611847
23.20350,1.51010986
23.20400,2.730887491
23.20450,-3.983389478
23.20500,-13.74961052
23.20550,-17.71713782
23.20600,-14.66519375
23.20650,-10.69766645
23.20700,-10.69766645
23.20750,-10.08727763
23.20800,-5.814555924
23.20850,-0.3210565858
23.20900,-0.01586217811
23.20950,-4.898972701
23.21000,-8.256111186
23.21050,-5.814555924
23.21100,-0.01586217811
23.21150,6.393220384
23.21200,15.24385821
23.21250,24.70488485
23.21300,25.01007925
23.21350,8.834775645
23.21400,-14.35999934
23.21450,-25.34699802
23.21500,-15.58077697
23.21550,2.425693084
23.21600,13.71788617
23.21650,16.15944143
23.21700,17.38021906
23.21750,19.82177432
23.21800,21.95813518
23.21850,23.78930162
23.21900,23.17891281
23.21950,15.54905261
23.22000,0.2893322296
23.22050,-13.74961052
23.22100,-21.37947072
23.22150,-24.43141479
23.22200,-24.12622039
23.22250,-21.07427631
23.22300,-28.39894209
23.22350,-63.19110457
23.22400,-108.6650713
23.22450,-111.411821
23.22500,-40.91191281
23.22550,60.71782495
23.22600,120.5359289
23.22650,114.1268463
23.22700,77.19832297
23.22750,46.06849338
23.22800,23.48410721
23.22850,3.646470714
23.22900,-6.119750332
23.22950,-3.373000663
23.23000,-1.847028624
23.23050,-9.782083225
23.23100,-16.8015546
23.23150,-13.44441612
23.23200,-6.730139148
23.23250,-6.119750332
23.23300,-4.898972701
23.23350,4.25685953
23.23400,15.54905261
23.23450,17.99060788
23.23500,11.27633091
23.23550,4.867248345
23.23600,3.646470714
23.23650,7.003609199
23.23700,13.10749735
23.23750,17.99060788
23.23800,17.07502465
23.23850,10.36074768
23.23900,2.425693084
23.23950,-4.593778294
23.24000,-11.00286086
23.24050,-14.35999934
23.24100,-11.61324967
23.24150,-4.288583886
23.24200,1.204915453
23.24250,3.341276307
23.24300,5.477637161
23.24350,6.393220384
23.24400,2.425693084
23.24450,-3.373000663
23.24500,-4.593778294
23.24550,-2.152223032
23.24600,-5.509361517
23.24650,-18.32752664
23.24700,-29.92491413
23.24750,-27.78855328
23.24800,-15.58077697
23.24850,-7.950916778
23.24900,-13.74961052
23.24950,-24.43141479
23.25000,-26.26258124
23.25050,-17.41194342
23.25100,-8.866500001
23.25150,-6.730139148
23.25200,-0.9314454012
23.25250,18.60099669
23.25300,43.93213253
23.25350,53.08796476
23.25400,39.04902201
23.25450,17.99060788
23.25500,8.22438683
23.25550,8.834775645
23.25600,7.308803607
23.25650,-0.3210565858
23.25700,-7.340527963
23.25750,-7.950916778
23.25800,-4.288583886
23.25850,-1.236639809
23.25900,-0.3210565858
23.25950,-1.541834217
23.26000,-7.950916778
23.26050,-18.63272105
23.26100,-26.87297006
23.26150,-26.56777565
23.26200,-20.15869309
23.26250,-16.8015546
23.26300,-18.93791546
23.26350,-15.27558256
23.26400,6.698414791
23.26450,40.88018845
23.26500,63.76976903
23.26550,58.27626969
23.26600,34.47110589
23.26650,16.15944143
23.26700,14.02308058
23.26750,17.99060788
23.26800,13.71788617
23.26850,2.120498676
23.26900,-5.509361517
23.26950,-3.067806255
23.27000,4.867248345
23.27050,9.750358868
23.27100,3.341276307
23.27150,-15.58077697
23.27200,-40.30152399
23.27250,-55.56124438
23.27300,-49.76255063
23.27350,-25.65219243
23.27400,1.204915453
23.27450,17.68541347
23.27500,23.78930162
23.27550,26.53605129
23.27600,28.97760655
23.27650,28.67241215
23.27700,24.09449603
23.27750,17.38021906
23.27800,8.22438683
23.27850,-5.509361517
23.27900,-23.51583157
23.27950,-36.33399669
23.28000,-35.41841347
23.28050,-24.12622039
23.28100,-14.66519375
23.28150,-16.8015546
23.28200,-26.26258124
23.28250,-31.75608058
23.28300,-27.78855328
23.28350,-22.29505394
23.28400,-20.7690819
23.28450,-14.97038816
23.28500,8.22438683
23.28550,43.93213253
23.28600,66.82171311
23.28650,60.10743614
23.28700,33.86071708
23.28750,10.66594209
23.28800,0.2893322296
23.28850,-2.152223032
23.28900,-2.45741744
23.28950,0.2893322296
23.29000,3.036081899
23.29050,-0.01586217811
23.29100,-7.950916778
23.29150,-8.866500001
23.29200,1.815304268
23.29250,13.71788617
23.29300,14.63346939
23.29350,7.003609199
23.29400,2.120498676
23.29450,4.562053937
23.29500,7.308803607
23.29550,5.172442753
23.29600,0.899721045
23.29650,-0.9314454012
23.29700,-2.45741744
23.29750,-5.509361517
23.29800,-7.340527963
23.29850,-3.983389478
23.29900,2.730887491
23.29950,8.529581238
23.30000,10.9711365
23.30050,10.36074768
23.30100,5.477637161
23.30150,-2.762611847
23.30200,-9.171694409
23.30250,-8.561305594
23.30300,-5.204167109
23.30350,-5.509361517
23.30400,-8.561305594
23.30450,-8.561305594
23.30500,-7.035333555
23.30550,-8.866500001
23.30600,-11.00286086
23.30650,-7.340527963
23.30700,-1.541834217
23.30750,-3.983389478
23.30800,-10.08727763
23.30850,-3.678195071
23.30900,13.10749735
23.30950,18.60099669
23.31000,2.120498676
23.31050,-16.49636019
23.31100,-16.19116579
23.31150,-2.45741744
23.31200,4.25685953
23.31250,1.51010986
23.31300,0.5945266373
23.31350,4.25685953
23.31400,3.951665122
23.31450,-1.847028624
23.31500,-6.42494474
23.31550,-6.730139148
23.31600,-5.204167109
23.31650,-3.983389478
23.31700,-9.476888817
23.31750,-34.19763584
23.31800,-77.53524173
23.31850,-105.3079328
23.31900,-77.23004733
23.31950,0.5945266373
23.32000,72.62040685
23.32050,90.93207132
23.32100,63.15938022
23.32150,31.41916182
23.32200,20.12696873
23.32250,21.65294077
23.32300,20.43216314
23.32350,15.24385821
23.32400,11.27633091
23.32450,9.445164461
23.32500,7.919192422
23.32550,7.308803607
23.32600,11.58152531
23.32650,18.9061911
23.32700,21.95813518
23.32750,14.63346939
23.32800,2.425693084
23.32850,-3.067806255
23.32900,0.2893322296
23.32950,1.51010986
23.33000,-10.39247204
23.33050,-29.92491413
23.33100,-37.85996873
23.33150,-25.34699802
23.33200,-3.983389478
23.33250,7.308803607
23.33300,6.088025976
23.33350,3.341276307
23.33400,4.25685953
23.33450,1.51010986
23.33500,-11.91844408
23.33550,-32.6716638
23.33600,-49.15216182
23.33650,-55.86643879
23.33700,-52.2041059
23.33750,-38.47035755
23.33800,-21.07427631
23.33850,-12.22363849
23.33900,-14.05480493
23.33950,-10.08727763
23.34000,12.80230295
23.34050,42.40616049
23.34100,51.56199272
23.34150,35.99707793
23.34200,19.51657991
23.34250,18.60099669
23.34300,23.78930162
23.34350,19.21138551
23.34400,7.919192422
23.34450,2.120498676
23.34500,3.341276307
23.34550,4.25685953
23.34600,1.204915453
23.34650,-5.814555924
23.34700,-16.19116579
23.34750,-23.82102598
23.34800,-17.71713782
23.34850,2.120498676
23.34900,20.43216314
23.34950,24.09449603
23.35000,19.21138551
23.35050,17.38021906
23.35100,18.29580228
23.35150,14.63346939
23.35200,6.393220384
23.35250,-3.067806255
23.35300,-13.44441612
23.35350,-24.12622039
23.35400,-28.39894209
23.35450,-23.51583157
23.35500,-15.58077697
23.35550,-9.476888817
23.35600,-1.236639809
23.35650,10.05555328
23.35700,15.54905261
23.35750,10.05555328
23.35800,0.2893322296
23.35850,-3.678195071
23.35900,-3.678195071
23.35950,-5.204167109
23.36000,-6.42494474
23.36050,-5.509361517
23.36100,-4.288583886
23.36150,-5.204167109
23.36200,-4.288583886
23.36250,-0.9314454012
23.36300,0.5945266373
23.36350,-0.01586217811
23.36400,-0.01586217811
23.36450,-0.01586217811
23.36500,-1.847028624
23.36550,-3.067806255
23.36600,-5.814555924
23.36650,-27.48335887
23.36700,-74.78849206
23.36750,-107.7494881
23.36800,-69.90538154
23.36850,33.55552267
23.36900,124.1982618
23.36950,137.9320101
23.37000,92.45804336
23.37050,46.6788822
23.37100,24.39969044
23.37150,10.36074768
23.37200,-2.152223032
23.37250,-7.645722371
23.37300,-10.08727763
23.37350,-21.37947072
23.37400,-29.92491413
23.37450,-14.05480493
23.37500,15.54905261
23.37550,21.65294077
23.37600,-8.256111186
23.37650,-41.21710722
23.37700,-40.6067184
23.37750,-8.561305594
23.37800,24.09449603
23.37850,38.43863319
23.37900,35.69188352
23.37950,24.39969044
23.38000,11.88671972
23.38050,4.25685953
23.38100,4.562053937
23.38150,6.088025976
23.38200,-0.01586217811
23.38250,-14.66519375
23.38300,-29.92491413
23.38350,-36.6391911
23.38400,-32.36646939
23.38450,-21.37947072
23.38500,-8.866500001
23.38550,-1.541834217
23.38600,-3.067806255
23.38650,-8.866500001
23.38700,-10.08727763
23.38750,-0.6262509935
23.38800,11.88671972
23.38850,16.76983025
23.38900,11.27633091
23.38950,3.951665122
23.39000,-0.01586217811
23.39050,-3.373000663
23.39100,-8.561305594
23.39150,-7.035333555
23.39200,9.139970053
23.39250,33.86071708
23.39300,44.84771575
23.39350,27.14644011
23.39400,-11.91844408
23.39450,-48.84696741
23.39500,-57.39241083
23.39550,-29.92491413
23.39600,15.24385821
23.39650,48.81524305
23.39700,51.56199272
23.39750,28.67241215
23.39800,-0.01586217811
23.39850,-17.71713782
23.39900,-20.46388749
23.39950,-13.44441612
23.40000,-4.288583886
23.40050,-1.847028624
23.40100,-9.476888817
23.40150,-21.07427631
23.40200,-25.95738683
23.40250,-21.07427631
23.40300,-11.61324967
23.40350,-6.730139148
23.40400,-9.171694409
23.40450,-14.97038816
23.40500,-16.8015546
23.40550,-11.30805526
23.40600,-1.236639809
23.40650,5.477637161
23.40700,4.25685953
23.40750,-0.01586217811
23.40800,-0.9314454012
23.40850,1.204915453
23.40900,0.5945266373
23.40950,-4.288583886
23.41000,-7.340527963
23.41050,-4.288583886
23.41100,1.51010986
23.41150,6.393220384
23.41200,7.308803607
23.41250,2.120498676
23.41300,-7.950916778
23.41350,-16.19116579
23.41400,-14.97038816
23.41450,-8.561305594
23.41500,-9.171694409
23.41550,-14.66519375
23.41600,-7.340527963
23.41650,20.43216314
23.41700,49.12043746
23.41750,54.91913121
23.41800,39.35421642
23.41850,24.09449603
23.41900,20.43216314
23.41950,20.12696873
23.42000,16.15944143
23.42050,11.27633091
23.42100,6.698414791
23.42150,-1.236639809
23.42200,-12.52883289
23.42250,-19.24310986
23.42300,-16.19116579
23.42350,-8.561305594
23.42400,-3.678195071
23.42450,-2.45741744
23.42500,-2.45741744
23.42550,-3.373000663
23.42600,-4.898972701
23.42650,-4.898972701
23.42700,-2.45741744
23.42750,-0.01586217811
23.42800,0.899721045
23.42850,1.204915453
23.42900,2.120498676
23.42950,1.51010986
23.43000,-3.067806255
23.43050,-8.256111186
23.43100,-8.256111186
23.43150,-4.593778294
23.43200,-5.509361517
23.43250,-13.13922171
23.43300,-17.41194342
23.43350,-14.97038816
23.43400,-19.85349868
23.43450,-44.26905129
23.43500,-68.68460391
23.43550,-53.73007793
23.43600,10.05555328
23.43650,79.94507264
23.43700,106.8021805
23.43750,86.96454402
23.43800,53.08796476
23.43850,29.28280096
23.43900,12.49710854
23.43950,-1.847028624
23.44000,-8.561305594
23.44050,-5.509361517
23.44100,-1.847028624
23.44150,-4.288583886
23.44200,-8.866500001
23.44250,-12.22363849
23.44300,-17.10674901
23.44350,-21.68466512
23.44400,-15.88597138
23.44450,0.899721045
23.44500,15.24385821
23.44550,17.99060788
23.44600,16.76983025
23.44650,18.9061911
23.44700,17.07502465
23.44750,2.120498676
23.44800,-16.49636019
23.44850,-20.7690819
23.44900,-7.035333555
23.44950,9.445164461
23.45000,15.54905261
23.45050,13.10749735
23.45100,9.750358868
23.45150,7.919192422
23.45200,6.393220384
23.45250,4.867248345
23.45300,3.646470714
23.45350,0.2893322296
23.45400,-6.42494474
23.45450,-14.66519375
23.45500,-18.93791546
23.45550,-18.02233223
23.45600,-14.66519375
23.45650,-12.8340273
23.45700,-11.00286086
23.45750,-7.645722371
23.45800,-3.983389478
23.45850,-4.288583886
23.45900,-8.561305594
23.45950,-13.13922171
23.46000,-13.44441612
23.46050,-10.69766645
23.46100,-8.561305594
23.46150,-6.119750332
23.46200,-0.01586217811
23.46250,10.9711365
23.46300,18.60099669
23.46350,15.54905261
23.46400,6.393220384
23.46450,4.25685953
23.46500,11.88671972
23.46550,14.02308058
23.46600,0.2893322296
23.46650,-17.10674901
23.46700,-16.8015546
23.46750,1.815304268
23.46800,16.76983025
23.46850,11.88671972
23.46900,-3.678195071
23.46950,-12.8340273
23.47000,-10.39247204
23.47050,-4.288583886
23.47100,-1.236639809
23.47150,-1.541834217
23.47200,-1.847028624
23.47250,1.204915453
23.47300,6.393220384
23.47350,7.613998014
23.47400,0.899721045
23.47450,-5.814555924
23.47500,-7.645722371
23.47550,-9.782083225
23.47600,-17.41194342
23.47650,-18.93791546
23.47700,-2.45741744
23.47750,17.68541347
23.47800,18.29580228
23.47850,0.2893322296
23.47900,-17.10674901
23.47950,-36.6391911
23.48000,-74.78849206
23.48050,-112.0222098
23.48100,-94.62612857
23.48150,-3.373000663
23.48200,105.5814029
23.48250,156.548869
23.48300,131.2177331
23.48350,70.484046
23.48400,18.9061911
23.48450,-5.509361517
23.48500,-7.035333555
23.48550,2.730887491
23.48600,10.66594209
23.48650,11.58152531
23.48700,10.05555328
23.48750,8.834775645
23.48800,7.003609199
23.48850,8.529581238
23.48900,17.99060788
23.48950,25.62046807
23.49000,16.46463584
23.49050,-5.509361517
23.49100,-23.51583157
23.49150,-34.80802466
23.49200,-48.541773
23.49250,-57.39241083
23.49300,-43.65866248
23.49350,-15.88597138
23.49400,-7.950916778
23.49450,-23.51583157
23.49500,-23.51583157
23.49550,14.02308058
23.49600,55.22432562
23.49650,57.36068647
23.49700,28.67241215
23.49750,6.698414791
23.49800,3.646470714
23.49850,0.899721045
23.49900,-10.08727763
23.49950,-18.32752664
23.50000,-17.41194342
23.50050,-14.05480493
23.50100,-12.52883289
23.50150,-8.561305594
23.50200,-1.541834217
23.50250,1.815304268
23.50300,0.2893322296
23.50350,-3.373000663
23.50400,-6.42494474
23.50450,-8.866500001
23.50500,-9.171694409
23.50550,-4.898972701
23.50600,1.815304268
23.50650,8.22438683
23.50700,14.02308058
23.50750,20.12696873
23.50800,25.01007925
23.50850,25.92566248
23.50900,20.12696873
23.50950,3.646470714
23.51000,-22.60024835
23.51050,-47.32099537
23.51100,-54.03527234
23.51150,-41.21710722
23.51200,-24.7366092
23.51250,-18.02233223
23.51300,-17.41194342
23.51350,-12.52883289
23.51400,-2.152223032
23.51450,5.172442753
23.51500,6.698414791
23.51550,4.25685953
23.51600,-0.01586217811
23.51650,-4.898972701
23.51700,-10.69766645
23.51750,-18.63272105
23.51800,-30.53530295
23.51850,-41.21710722
23.51900,-38.47035755
23.51950,-16.19116579
23.52000,13.10749735
23.52050,31.41916182
23.52100,32.33474504
23.52150,25.01007925
23.52200,19.82177432
23.52250,17.07502465
23.52300,13.10749735
23.52350,7.308803607
23.52400,1.815304268
23.52450,-3.678195071
23.52500,-11.00286086
23.52550,-17.41194342
23.52600,-18.02233223
23.52650,-12.22363849
23.52700,-4.288583886
23.52750,0.2893322296
23.52800,0.5945266373
23.52850,0.899721045
23.52900,6.698414791
23.52950,15.85424702
23.53000,19.82177432
23.53050,14.02308058
23.53100,3.951665122
23.53150,-0.9314454012
23.53200,0.5945266373
23.53250,5.477637161
23.53300,10.05555328
23.53350,14.63346939
23.53400,16.76983025
23.53450,12.80230295
23.53500,4.867248345
23.53550,-0.01586217811
23.53600,-0.01586217811
23.53650,-0.01586217811
23.53700,-5.814555924
23.53750,-13.44441612
23.53800,-16.8015546
23.53850,-14.05480493
23.53900,-7.645722371
23.53950,-1.541834217
23.54000,1.51010986
23.54050,-0.01586217811
23.54100,-3.067806255
23.54150,-2.45741744
23.54200,2.425693084
23.54250,4.867248345
23.54300,-0.3210565858
23.54350,-5.814555924
23.54400,-0.9314454012
23.54450,10.9711365
23.54500,17.68541347
23.54550,13.41269176
23.54600,6.698414791
23.54650,5.477637161
23.54700,4.867248345
23.54750,-2.762611847
23.54800,-12.22363849
23.54850,-12.52883289
23.54900,-5.509361517
23.54950,-4.593778294
23.55000,-12.8340273
23.55050,-18.32752664
23.55100,-10.08727763
23.55150,4.867248345
23.55200,14.9386638
23.55250,19.21138551
23.55300,23.17891281
23.55350,26.53605129
23.55400,23.78930162
23.55450,16.15944143
23.55500,9.750358868
23.55550,6.088025976
23.55600,2.425693084
23.55650,-1.236639809
23.55700,-2.45741744
23.55750,-2.762611847
23.55800,-6.119750332
23.55850,-10.08727763
23.55900,-9.476888817
23.55950,-6.119750332
23.56000,-7.950916778
23.56050,-14.05480493
23.56100,-16.19116579
23.56150,-13.44441612
23.56200,-12.8340273
23.56250,-14.66519375
23.56300,-8.561305594
23.56350,9.445164461
23.56400,26.8412457
23.56450,28.97760655
23.56500,19.51657991
23.56550,12.19191413
23.56600,13.41269176
23.56650,15.85424702
23.56700,11.58152531
23.56750,2.120498676
23.56800,-5.814555924
23.56850,-7.035333555
23.56900,-1.236639809
23.56950,6.088025976
23.57000,7.613998014
23.57050,0.899721045
23.57100,-5.204167109
23.57150,-2.152223032
23.57200,7.919192422
23.57250,16.46463584
23.57300,18.60099669
23.57350,17.68541347
23.57400,16.46463584
23.57450,10.66594209
23.57500,1.204915453
23.57550,-4.288583886
23.57600,-1.847028624
23.57650,2.120498676
23.57700,0.2893322296
23.57750,-1.236639809
23.57800,5.782831568
23.57850,16.76983025
23.57900,14.9386638
23.57950,-3.678195071
23.58000,-24.7366092
23.58050,-35.11321906
23.58100,-36.94438551
23.58150,-38.77555196
23.58200,-40.91191281
23.58250,-40.30152399
23.58300,-33.58724703
23.58350,-17.10674901
23.58400,11.58152531
23.58450,43.01654931
23.58500,57.05549206
23.58550,47.28927102
23.58600,28.97760655
23.58650,18.9061911
23.58700,14.63346939
23.58750,2.730887491
23.58800,-16.19116579
23.58850,-27.78855328
23.58900,-22.60024835
23.58950,-8.256111186
23.59000,-0.01586217811
23.59050,-3.373000663
23.59100,-9.782083225
23.59150,-4.898972701
23.59200,13.10749735
23.59250,31.72435622
23.59300,35.08149471
23.59350,24.39969044
23.59400,14.02308058
23.59450,12.49710854
23.59500,15.54905261
23.59550,15.24385821
23.59600,6.088025976
23.59650,-12.52883289
23.59700,-34.80802466
23.59750,-45.79502333
23.59800,-43.35346807
23.59850,-46.71060656
23.59900,-72.0417424
23.59950,-96.76248942
23.60000,-75.70407529
23.60050,-0.01586217811
23.60100,80.86065586
23.60150,110.7697078
23.60200,81.77623909
23.60250,35.69188352
23.60300,11.58152531
23.60350,13.41269176
23.60400,21.34774636
23.60450,20.43216314
23.60500,10.66594209
23.60550,-0.6262509935
23.60600,-7.950916778
23.60650,-9.782083225
23.60700,-9.171694409
23.60750,-8.866500001
23.60800,-9.476888817
23.60850,-7.950916778
23.60900,-3.983389478
23.60950,-4.593778294
23.61000,-15.58077697
23.61050,-30.23010854
23.61100,-33.89244143
23.61150,-23.51583157
23.61200,-12.8340273
23.61250,-11.61324967
23.61300,-13.74961052
23.61350,-9.171694409
23.61400,0.899721045
23.61450,8.22438683
23.61500,7.919192422
23.61550,0.5945266373
23.61600,-12.22363849
23.61650,-23.82102598
23.61700,-25.34699802
23.61750,-19.24310986
23.61800,-16.49636019
23.61850,-17.41194342
23.61900,-15.27558256
23.61950,-24.43141479
23.62000,-67.15863187
23.62050,-120.5676532
23.62100,-113.2429874
23.62150,-12.52883289
23.62200,115.6528183
23.62250,172.7241726
23.62300,138.5423989
23.62350,77.50351738
23.62400,44.84771575
23.62450,35.08149471
23.62500,22.26332958
23.62550,3.646470714
23.62600,-8.561305594
23.62650,-14.66519375
23.62700,-17.41194342
23.62750,-15.27558256
23.62800,-8.256111186
23.62850,-2.152223032
23.62900,0.5945266373
23.62950,4.867248345
23.63000,8.22438683
23.63050,3.951665122
23.63100,-4.593778294
23.63150,-5.509361517
23.63200,3.036081899
23.63250,7.919192422
23.63300,2.120498676
23.63350,-5.814555924
23.63400,-6.730139148
23.63450,-5.509361517
23.63500,-7.950916778
23.63550,-7.950916778
23.63600,3.341276307
23.63650,20.12696873
23.63700,23.48410721
23.63750,7.919192422
23.63800,-11.91844408
23.63850,-19.24310986
23.63900,-14.97038816
23.63950,-13.74961052
23.64000,-20.15869309
23.64050,-25.04180361
23.64100,-21.68466512
23.64150,-17.41194342
23.64200,-21.68466512
23.64250,-32.97685821
23.64300,-47.93138419
23.64350,-65.93785424
23.64400,-78.45082496
23.64450,-63.80149339
23.64500,-14.05480493
23.64550,42.7113549
23.64600,71.39962922
23.64650,68.34768515
23.64700,59.80224173
23.64750,61.32821377
23.64800,62.5489914
23.64850,53.08796476
23.64900,39.04902201
23.64950,28.97760655
23.65000,18.9061911
23.65050,8.529581238
23.65100,5.172442753
23.65150,10.36074768
23.65200,10.05555328
23.65250,-3.983389478
23.65300,-19.54830427
23.65350,-18.63272105
23.65400,-6.42494474
23.65450,-0.3210565858
23.65500,-6.730139148
23.65550,-14.97038816
23.65600,-15.88597138
23.65650,-11.00286086
23.65700,-5.509361517
23.65750,-2.762611847
23.65800,-3.373000663
23.65850,-3.678195071
23.65900,0.899721045
23.65950,10.05555328
23.66000,14.63346939
23.66050,10.36074768
23.66100,6.088025976
23.66150,10.05555328
23.66200,15.85424702
23.66250,10.9711365
23.66300,-4.288583886
23.66350,-16.8015546
23.66400,-17.71713782
23.66450,-12.8340273
23.66500,-11.61324967
23.66550,-17.10674901
23.66600,-25.04180361
23.66650,-28.39894209
23.66700,-20.7690819
23.66750,-4.593778294
23.66800,6.698414791
23.66850,3.951665122
23.66900,-7.035333555
23.66950,-13.13922171
23.67000,-9.782083225
23.67050,-2.762611847
23.67100,2.120498676
23.67150,5.477637161
23.67200,4.867248345
23.67250,-1.541834217
23.67300,-10.39247204
23.67350,-14.97038816
23.67400,-15.58077697
23.67450,-15.58077697
23.67500,-9.171694409
23.67550,8.22438683
23.67600,27.75682892
23.67650,30.19838418
23.67700,14.32827498
23.67750,-1.236639809
23.67800,-3.373000663
23.67850,2.425693084
23.67900,4.867248345
23.67950,2.425693084
23.68000,0.5945266373
23.68050,1.51010986
23.68100,3.951665122
23.68150,8.22438683
23.68200,9.750358868
23.68250,0.2893322296
23.68300,-20.46388749
23.68350,-38.77555196
23.68400,-40.30152399
23.68450,-26.87297006
23.68500,-11.00286086
23.68550,-1.541834217
23.68600,2.120498676
23.68650,3.951665122
23.68700,5.172442753
23.68750,5.782831568
23.68800,6.088025976
23.68850,5.477637161
23.68900,4.25685953
23.68950,3.646470714
23.69000,3.951665122
23.69050,3.951665122
23.69100,2.425693084
23.69150,1.204915453
23.69200,3.341276307
23.69250,7.308803607
23.69300,10.05555328
23.69350,11.27633091
23.69400,12.49710854
23.69450,12.49710854
23.69500,9.445164461
23.69550,5.477637161
23.69600,3.951665122
23.69650,3.646470714
23.69700,0.2893322296
23.69750,-6.730139148
23.69800,-12.22363849
23.69850,-9.782083225
23.69900,-0.6262509935
23.69950,10.36074768
23.70000,16.76983025
23.70050,14.9386638
23.70100,7.308803607
23.70150,0.899721045
23.70200,-0.6262509935
23.70250,-0.3210565858
23.70300,-0.3210565858
23.70350,1.204915453
23.70400,2.120498676
23.70450,-12.8340273
23.70500,-49.45735623
23.70550,-80.2819914
23.70600,-65.02227102
23.70650,0.5945266373
23.70700,69.26326837
23.70750,87.88012724
23.70800,50.03602068
23.70850,-5.814555924
23.70900,-39.38594077
23.70950,-35.41841347
23.71000,-2.152223032
23.71050,38.7438276
23.71100,63.76976903
23.71150,61.93860259
23.71200,41.79577168
23.71250,25.01007925
23.71300,23.17891281
23.71350,29.28280096
23.71400,27.45163452
23.71450,12.49710854
23.71500,-4.593778294
23.71550,-10.39247204
23.71600,-4.593778294
23.71650,1.204915453
23.71700,0.5945266373
23.71750,-2.762611847
23.71800,-4.288583886
23.71850,-6.730139148
23.71900,-12.8340273
23.71950,-18.63272105
23.72000,-21.37947072
23.72050,-21.98985953
23.72100,-20.46388749
23.72150,-14.97038816
23.72200,-12.22363849
23.72250,-24.43141479
23.72300,-47.32099537
23.72350,-54.64566116
23.72400,-32.36646939
23.72450,-1.236639809
23.72500,11.58152531
23.72550,9.445164461
23.72600,12.19191413
23.72650,21.65294077
23.72700,21.65294077
23.72750,10.66594209
23.72800,3.646470714
23.72850,4.867248345
23.72900,2.425693084
23.72950,-7.340527963
23.73000,-13.74961052
23.73050,-10.69766645
23.73100,-8.256111186
23.73150,-10.69766645
23.73200,-11.61324967
23.73250,-9.476888817
23.73300,-12.22363849
23.73350,-18.93791546
23.73400,-15.27558256
23.73450,2.425693084
23.73500,18.60099669
23.73550,20.43216314
23.73600,16.15944143
23.73650,18.29580228
23.73700,21.65294077
23.73750,15.24385821
23.73800,4.562053937
23.73850,0.899721045
23.73900,2.730887491
23.73950,0.2893322296
23.74000,-6.119750332
23.74050,-10.69766645
23.74100,-13.74961052
23.74150,-17.71713782
23.74200,-16.8015546
23.74250,-11.61324967
23.74300,-21.98985953
23.74350,-58.61318846
23.74400,-87.60665719
23.74450,-58.61318846
23.74500,26.53605129
23.74550,104.6658197
23.74600,122.0619009
23.74650,90.62687691
23.74700,56.44510325
23.74750,38.7438276
23.74800,26.23085688
23.74850,11.88671972
23.74900,2.730887491
23.74950,-0.3210565858
23.75000,-7.340527963
23.75050,-17.10674901
23.75100,-19.85349868
23.75150,-12.22363849
23.75200,-3.678195071
23.75250,-1.236639809
23.75300,-3.067806255
23.75350,-5.509361517
23.75400,-8.866500001
23.75450,-12.52883289
23.75500,-16.49636019
23.75550,-24.43141479
23.75600,-34.80802466
23.75650,-37.24957992
23.75700,-25.95738683
23.75750,-12.52883289
23.75800,-12.8340273
23.75850,-25.04180361
23.75900,-32.6716638
23.75950,-24.7366092
23.76000,-6.119750332
23.76050,14.63346939
23.76100,32.63993945
23.76150,41.18538286
23.76200,35.38668912
23.76250,20.43216314
23.76300,9.750358868
23.76350,8.529581238
23.76400,10.05555328
23.76450,7.003609199
23.76500,3.036081899
23.76550,4.25685953
23.76600,9.139970053
23.76650,11.27633091
23.76700,8.834775645
23.76750,7.613998014
23.76800,9.445164461
23.76850,8.22438683
23.76900,-5.204167109
23.76950,-30.53530295
23.77000,-54.03527234
23.77050,-62.27552135
23.77100,-51.28852267
23.77150,-28.39894209
23.77200,-4.898972701
23.77250,9.750358868
23.77300,10.66594209
23.77350,2.730887491
23.77400,-1.847028624
23.77450,2.120498676
23.77500,9.445164461
23.77550,9.445164461
23.77600,3.036081899
23.77650,-0.01586217811
23.77700,4.25685953
23.77750,9.139970053
23.77800,10.05555328
23.77850,9.445164461
23.77900,10.9711365
23.77950,13.41269176
23.78000,13.41269176
23.78050,9.750358868
23.78100,4.562053937
23.78150,1.815304268
23.78200,5.477637161
23.78250,11.88671972
23.78300,12.19191413
23.78350,3.036081899
23.78400,-4.288583886
23.78450,0.2893322296
23.78500,11.27633091
23.78550,12.49710854
23.78600,0.5945266373
23.78650,-11.91844408
23.78700,-14.66519375
23.78750,-10.39247204
23.78800,-6.119750332
23.78850,-3.067806255
23.78900,-1.541834217
23.78950,-4.288583886
23.79000,-11.91844408
23.79050,-19.24310986
23.79100,-20.46388749
23.79150,-15.27558256
23.79200,-11.00286086
23.79250,-13.74961052
23.79300,-20.15869309
23.79350,-15.58077697
23.79400,9.750358868
23.79450,44.54252135
23.79500,59.49704732
23.79550,42.10096608
23.79600,13.71788617
23.79650,1.204915453
23.79700,3.646470714
23.79750,-0.01586217811
23.79800,-13.44441612
23.79850,-17.71713782
23.79900,-4.593778294
23.79950,8.529581238
23.80000,4.867248345
23.80050,-7.340527963
23.80100,-8.866500001
23.80150,3.341276307
23.80200,14.9386638
23.80250,12.80230295
23.80300,-0.6262509935
23.80350,-15.27558256
23.80400,-23.21063716
23.80450,-21.07427631
23.80500,-11.00286086
23.80550,0.2893322296
23.80600,5.782831568
23.80650,3.036081899
23.80700,-2.152223032
23.80750,-4.898972701
23.80800,-3.678195071
23.80850,-1.541834217
23.80900,-0.3210565858
23.80950,0.899721045
23.81000,3.951665122
23.81050,6.698414791
23.81100,7.308803607
23.81150,6.088025976
23.81200,6.088025976
23.81250,8.529581238
23.81300,11.58152531
23.81350,12.49710854
23.81400,10.9711365
23.81450,9.139970053
23.81500,7.003609199
23.81550,3.951665122
23.81600,-0.01586217811
23.81650,-2.45741744
23.81700,-3.067806255
23.81750,-3.373000663
23.81800,-7.035333555
23.81850,-12.52883289
23.81900,-15.88597138
23.81950,-15.58077697
23.82000,-12.8340273
23.82050,-10.69766645
23.82100,-8.866500001
23.82150,-10.69766645
23.82200,-26.26258124
23.82250,-58.91838286
23.82300,-86.08068515
23.82350,-71.73654799
23.82400,-5.509361517
23.82450,73.23079567
23.82500,111.3800966
23.82550,93.37362658
23.82600,52.47757595
23.82650,23.48410721
23.82700,9.139970053
23.82750,-3.678195071
23.82800,-15.58077697
23.82850,-15.88597138
23.82900,-5.814555924
23.82950,0.2893322296
23.83000,-1.236639809
23.83050,-2.152223032
23.83100,3.036081899
23.83150,7.003609199
23.83200,3.646470714
23.83250,-0.6262509935
23.83300,-0.3210565858
23.83350,-0.3210565858
23.83400,-7.035333555
23.83450,-13.74961052
23.83500,-9.171694409
23.83550,2.120498676
23.83600,3.646470714
23.83650,-12.8340273
23.83700,-34.50283025
23.83750,-41.21710722
23.83800,-27.48335887
23.83850,-7.645722371
23.83900,1.51010986
23.83950,-1.847028624
23.84000,-7.340527963
23.84050,-1.847028624
23.84100,15.54905261
23.84150,31.11396741
23.84200,28.36721774
23.84250,5.477637161
23.84300,-18.32752664
23.84350,-24.43141479
23.84400,-12.8340273
23.84450,-2.152223032
23.84500,-2.762611847
23.84550,-4.593778294
23.84600,8.834775645
23.84650,34.47110589
23.84700,53.39315917
23.84750,55.22432562
23.84800,45.76329898
23.84850,33.25032826
23.84900,20.12696873
23.84950,8.529581238
23.85000,2.120498676
23.85050,-1.541834217
23.85100,-10.39247204
23.85150,-19.85349868
23.85200,-18.02233223
23.85250,-3.067806255
23.85300,7.613998014
23.85350,2.425693084
23.85400,-10.08727763
23.85450,-15.27558256
23.85500,-10.69766645
23.85550,-5.204167109
23.85600,-3.983389478
23.85650,-4.898972701
23.85700,-7.035333555
23.85750,-8.561305594
23.85800,-7.340527963
23.85850,-2.762611847
23.85900,1.204915453
23.85950,2.730887491
23.86000,2.120498676
23.86050,-0.3210565858
23.86100,-2.152223032
23.86150,-0.01586217811
23.86200,1.815304268
23.86250,-5.814555924
23.86300,-21.07427631
23.86350,-23.21063716
23.86400,-11.00286086
23.86450,-18.32752664
23.86500,-67.46382628
23.86550,-116.2949315
23.86600,-94.62612857
23.86650,0.5945266373
23.86700,93.37362658
23.86750,118.7047624
23.86800,89.71129369
23.86850,57.97107529
23.86900,43.01654931
23.86950,31.11396741
23.87000,14.63346939
23.87050,0.5945266373
23.87100,-7.340527963
23.87150,-14.97038816
23.87200,-23.21063716
23.87250,-30.53530295
23.87300,-37.55477433
23.87350,-41.21710722
23.87400,-36.33399669
23.87450,-26.87297006
23.87500,-22.29505394
23.87550,-17.71713782
23.87600,1.51010986
23.87650,33.55552267
23.87700,50.34121509
23.87750,34.7763003
23.87800,1.51010986
23.87850,-19.85349868
23.87900,-20.15869309
23.87950,-11.91844408
23.88000,-13.13922171
23.88050,-35.41841347
23.88100,-68.0742151
23.88150,-78.75601937
23.88200,-40.91191281
23.88250,27.45163452
23.88300,75.67235093
23.88350,75.06196212
23.88400,45.45810457
23.88450,23.17891281
23.88500,17.99060788
23.88550,16.15944143
23.88600,9.139970053
23.88650,1.815304268
23.88700,-1.236639809
23.88750,-0.6262509935
23.88800,3.646470714
23.88850,10.9711365
23.88900,17.68541347
23.88950,18.9061911
23.89000,12.80230295
23.89050,-0.01586217811
23.89100,-17.10674901
23.89150,-29.61971973
23.89200,-28.7041365
23.89250,-15.58077697
23.89300,-2.152223032
23.89350,2.120498676
23.89400,1.815304268
23.89450,3.951665122
23.89500,7.003609199
23.89550,2.730887491
23.89600,-8.866500001
23.89650,-18.32752664
23.89700,-14.97038816
23.89750,-0.3210565858
23.89800,13.10749735
23.89850,16.46463584
23.89900,12.80230295
23.89950,10.36074768
23.90000,12.80230295
23.90050,15.85424702
23.90100,14.9386638
23.90150,11.88671972
23.90200,7.919192422
23.90250,1.204915453
23.90300,-11.00286086
23.90350,-26.26258124
23.90400,-36.94438551
23.90450,-37.24957992
23.90500,-29.92491413
23.90550,-19.54830427
23.90600,-10.39247204
23.90650,-3.067806255
23.90700,1.204915453
23.90750,3.036081899
23.90800,2.120498676
23.90850,-0.9314454012
23.90900,-7.035333555
23.90950,-14.35999934
23.91000,-19.24310986
23.91050,-18.02233223
23.91100,-13.44441612
23.91150,-11.61324967
23.91200,-14.35999934
23.91250,-14.66519375
23.91300,-5.204167109
23.91350,12.19191413
23.91400,28.36721774
23.91450,35.99707793
23.91500,34.47110589
23.91550,29.28280096
23.91600,26.53605129
23.91650,27.75682892
23.91700,27.14644011
23.91750,19.51657991
23.91800,8.834775645
23.91850,3.646470714
23.91900,6.393220384
23.91950,7.308803607
23.92000,-0.3210565858
23.92050,-13.44441612
23.92100,-21.07427631
23.92150,-18.32752664
23.92200,-9.171694409
23.92250,-0.9314454012
23.92300,1.51010986
23.92350,-0.01586217811
23.92400,-4.593778294
23.92450,-12.22363849
23.92500,-24.43141479
23.92550,-33.58724703
23.92600,-22.90544276
23.92650,11.88671972
23.92700,45.45810457
23.92750,45.15291016
23.92800,16.46463584
23.92850,-4.898972701
23.92900,-2.762611847
23.92950,0.2893322296
23.93000,-14.35999934
23.93050,-28.09374769
23.93100,-13.74961052
23.93150,18.29580228
23.93200,35.99707793
23.93250,29.58799537
23.93300,18.29580228
23.93350,14.02308058
23.93400,10.9711365
23.93450,5.172442753
23.93500,-2.152223032
23.93550,-20.15869309
23.93600,-57.39241083
23.93650,-92.1845733
23.93700,-81.50276903
23.93750,-14.05480493
23.93800,64.38015785
23.93850,97.95154269
23.93900,78.11390619
23.93950,42.40616049
23.94000,22.26332958
23.94050,18.29580228
23.94100,16.15944143
23.94150,10.9711365
23.94200,5.477637161
23.94250,1.815304268
23.94300,-1.541834217
23.94350,-6.119750332
23.94400,-10.39247204
23.94450,-12.22363849
23.94500,-11.00286086
23.94550,-7.340527963
23.94600,-2.45741744
23.94650,1.51010986
23.94700,1.815304268
23.94750,-1.541834217
23.94800,-3.678195071
23.94850,-1.236639809
23.94900,-0.01586217811
23.94950,-5.814555924
23.95000,-17.10674901
23.95050,-24.7366092
23.95100,-27.17816446
23.95150,-31.75608058
23.95200,-35.41841347
23.95250,-23.21063716
23.95300,8.834775645
23.95350,39.65941082
23.95400,44.23732694
23.95450,23.17891281
23.95500,-2.45741744
23.95550,-14.97038816
23.95600,-10.39247204
23.95650,6.393220384
23.95700,25.31527366
23.95750,31.41916182
23.95800,19.82177432
23.95850,3.646470714
23.95900,-1.541834217
23.95950,-0.3210565858
23.96000,-3.983389478
23.96050,-11.91844408
23.96100,-12.22363849
23.96150,-5.509361517
23.96200,-3.678195071
23.96250,-8.866500001
23.96300,-9.476888817
23.96350,-1.541834217
23.96400,2.730887491
23.96450,-4.593778294
23.96500,-16.49636019
23.96550,-20.46388749
23.96600,-18.02233223
23.96650,-17.41194342
23.96700,-16.8015546
23.96750,-8.256111186
23.96800,5.172442753
23.96850,12.19191413
23.96900,7.003609199
23.96950,-3.373000663
23.97000,-10.39247204
23.97050,-12.52883289
23.97100,-10.69766645
23.97150,-6.42494474
23.97200,-5.509361517
23.97250,-10.69766645
23.97300,-12.52883289
23.97350,-2.152223032
23.97400,9.445164461
23.97450,2.120498676
23.97500,-17.71713782
23.97550,-19.54830427
23.97600,0.899721045
23.97650,0.5945266373
23.97700,-50.06774504
23.97750,-106.5287105
23.97800,-93.40535093
23.97850,-6.119750332
23.97900,77.80871179
23.97950,98.2567371
23.98000,73.84118449
23.98050,55.22432562
23.98100,52.17238154
23.98150,40.57499405
23.98200,14.32827498
23.98250,-7.035333555
23.98300,-11.61324967
23.98350,-4.898972701
23.98400,3.951665122
23.98450,10.36074768
23.98500,9.445164461
23.98550,-0.01586217811
23.98600,-7.950916778
23.98650,-6.42494474
23.98700,0.899721045
23.98750,5.172442753
23.98800,3.646470714
23.98850,0.5945266373
23.98900,-4.288583886
23.98950,-12.22363849
23.99000,-16.8015546
23.99050,-12.52883289
23.99100,-3.983389478
23.99150,0.899721045
23.99200,5.782831568
23.99250,14.9386638
23.99300,22.56852399
23.99350,21.04255195
23.99400,13.10749735
23.99450,8.22438683
23.99500,5.477637161
23.99550,-3.983389478
23.99600,-19.85349868
23.99650,-30.23010854
23.99700,-26.87297006
23.99750,-16.19116579
23.99800,-7.645722371
23.99850,-3.983389478
23.99900,-2.152223032
23.99950,-0.9314454012
24.00000,-0.3210565858
24.00050,0.2893322296
24.00100,1.51010986
24.00150,1.815304268
24.00200,0.5945266373
24.00250,-0.9314454012
24.00300,-3.373000663
24.00350,-7.950916778
24.00400,-12.52883289
24.00450,-12.22363849
24.00500,-7.645722371
24.00550,-5.814555924
24.00600,-10.08727763
24.00650,-13.74961052
24.00700,-8.866500001
24.00750,1.51010986
24.00800,6.393220384
24.00850,2.425693084
24.00900,-1.236639809
24.00950,3.036081899
24.01000,10.9711365
24.01050,12.19191413
24.01100,4.867248345
24.01150,-0.9314454012
24.01200,0.2893322296
24.01250,4.562053937
24.01300,4.562053937
24.01350,0.2893322296
24.01400,-0.9314454012
24.01450,3.036081899
24.01500,8.22438683
24.01550,9.139970053
24.01600,5.477637161
24.01650,0.899721045
24.01700,-1.847028624
24.01750,-4.593778294
24.01800,-11.00286086
24.01850,-21.98985953
24.01900,-33.28205262
24.01950,-39.08074636
24.02000,-35.72360788
24.02050,-27.17816446
24.02100,-18.02233223
24.02150,-8.256111186
24.02200,5.477637161
24.02250,21.65294077
24.02300,29.89318978
24.02350,24.39969044
24.02400,9.445164461
24.02450,-3.678195071
24.02500,-10.08727763
24.02550,-12.22363849
24.02600,-15.27558256
24.02650,-18.32752664
24.02700,-18.02233223
24.02750,-11.00286086
24.02800,3.036081899
24.02850,23.17891281
24.02900,45.15291016
24.02950,60.41263055
24.03000,61.93860259
24.03050,49.12043746
24.03100,30.50357859
24.03150,17.99060788
24.03200,15.54905261
24.03250,17.68541347
24.03300,19.51657991
24.03350,20.12696873
24.03400,22.56852399
24.03450,25.62046807
24.03500,25.92566248
24.03550,21.65294077
24.03600,14.32827498
24.03650,7.003609199
24.03700,2.120498676
24.03750,-1.236639809
24.03800,-6.42494474
24.03850,-14.35999934
24.03900,-19.54830427
24.03950,-17.71713782
24.04000,-12.22363849
24.04050,-10.69766645
24.04100,-12.52883289
24.04150,-8.561305594
24.04200,1.204915453
24.04250,7.308803607
24.04300,3.341276307
24.04350,-7.035333555
24.04400,-26.26258124
24.04450,-62.58071576
24.04500,-103.4767664
24.04550,-108.9702657
24.04600,-54.03527234
24.04650,29.89318978
24.04700,80.86065586
24.04750,73.84118449
24.04800,39.35421642
24.04850,14.9386638
24.04900,5.782831568
24.04950,0.5945266373
24.05000,0.5945266373
24.05050,11.88671972
24.05100,25.92566248
24.05150,27.45163452
24.05200,15.54905261
24.05250,4.25685953
24.05300,0.5945266373
24.05350,-0.01586217811
24.05400,-3.373000663
24.05450,-8.256111186
24.05500,-9.782083225
24.05550,-8.866500001
24.05600,-7.645722371
24.05650,-5.814555924
24.05700,-1.847028624
24.05750,5.172442753
24.05800,12.80230295
24.05850,15.24385821
24.05900,10.36074768
24.05950,2.120498676
24.06000,-2.45741744
24.06050,-2.45741744
24.06100,-2.152223032
24.06150,-3.983389478
24.06200,-5.509361517
24.06250,-6.119750332
24.06300,-8.866500001
24.06350,-12.8340273
24.06400,-11.30805526
24.06450,-1.541834217
24.06500,6.393220384
24.06550,2.730887491
24.06600,-8.866500001
24.06650,-13.74961052
24.06700,-7.340527963
24.06750,-0.6262509935
24.06800,-3.373000663
24.06850,-11.91844408
24.06900,-18.63272105
24.06950,-22.29505394
24.07000,-24.7366092
24.07050,-24.12622039
24.07100,-18.02233223
24.07150,-9.476888817
24.07200,-1.847028624
24.07250,5.477637161
24.07300,13.71788617
24.07350,16.76983025
24.07400,8.22438683
24.07450,-3.983389478
24.07500,-9.171694409
24.07550,-5.204167109
24.07600,-2.152223032
24.07650,-4.593778294
24.07700,-6.42494474
24.07750,-4.288583886
24.07800,-2.152223032
24.07850,-3.983389478
24.07900,-4.288583886
24.07950,1.815304268
24.08000,8.22438683
24.08050,7.003609199
24.08100,0.5945266373
24.08150,-3.373000663
24.08200,-5.204167109
24.08250,-9.782083225
24.08300,-18.32752664
24.08350,-22.90544276
24.08400,-18.32752664
24.08450,-12.8340273
24.08500,-15.88597138
24.08550,-21.98985953
24.08600,-13.44441612
24.08650,14.02308058
24.08700,42.40616049
24.08750,51.25679832
24.08800,44.23732694
24.08850,38.13343878
24.08900,32.94513385
24.08950,12.19191413
24.09000,-22.90544276
24.09050,-48.23657859
24.09100,-46.40541215
24.09150,-30.53530295
24.09200,-19.85349868
24.09250,-14.97038816
24.09300,-11.61324967
24.09350,-15.58077697
24.09400,-25.34699802
24.09450,-20.7690819
24.09500,10.36074768
24.09550,47.89965983
24.09600,63.76976903
24.09650,54.6139368
24.09700,27.45163452
24.09750,-22.60024835
24.09800,-85.16510193
24.09850,-108.3598769
24.09900,-49.76255063
24.09950,54.6139368
24.10000,118.0943736
24.10050,102.5294588
24.10100,52.78277035
24.10150,24.09449603
24.10200,18.29580228
24.10250,12.80230295
24.10300,5.782831568
24.10350,6.088025976
24.10400,7.613998014
24.10450,-0.3210565858
24.10500,-8.866500001
24.10550,-1.541834217
24.10600,14.9386638
24.10650,23.48410721
24.10700,17.68541347
24.10750,6.088025976
24.10800,-4.898972701
24.10850,-14.35999934
24.10900,-16.8015546
24.10950,-11.00286086
24.11000,-6.42494474
24.11050,-12.22363849
24.11100,-20.7690819
24.11150,-20.7690819
24.11200,-15.88597138
24.11250,-17.71713782
24.11300,-25.04180361
24.11350,-23.21063716
24.11400,-9.476888817
24.11450,0.899721045
24.11500,-2.152223032
24.11550,-10.08727763
24.11600,-7.950916778
24.11650,1.51010986
24.11700,7.308803607
24.11750,5.477637161
24.11800,2.730887491
24.11850,4.25685953
24.11900,7.919192422
24.11950,11.88671972
24.12000,16.15944143
24.12050,17.38021906
24.12100,11.58152531
24.12150,0.5945266373
24.12200,-8.561305594
24.12250,-15.58077697
24.12300,-21.98985953
24.12350,-25.65219243
24.12400,-19.54830427
24.12450,-4.593778294
24.12500,8.834775645
24.12550,16.46463584
24.12600,21.95813518
24.12650,27.14644011
24.12700,25.01007925
24.12750,11.88671972
24.12800,-1.847028624
24.12850,-6.730139148
24.12900,-4.898972701
24.12950,-5.509361517
24.13000,-6.730139148
24.13050,-1.236639809
24.13100,7.308803607
24.13150,8.529581238
24.13200,1.51010986
24.13250,-1.236639809
24.13300,4.867248345
24.13350,10.36074768
24.13400,3.951665122
24.13450,-7.950916778
24.13500,-12.8340273
24.13550,-8.256111186
24.13600,-3.373000663
24.13650,-2.152223032
24.13700,0.2893322296
24.13750,7.003609199
24.13800,11.58152531
24.13850,8.22438683
24.13900,1.815304268
24.13950,-3.678195071
24.14000,-18.93791546
24.14050,-52.2041059
24.14100,-86.08068515
24.14150,-80.89238022
24.14200,-22.29505394
24.14250,52.47757595
24.14300,88.79571046
24.14350,70.484046
24.14400,32.63993945
24.14450,11.27633091
24.14500,7.919192422
24.14550,3.036081899
24.14600,-8.256111186
24.14650,-16.49636019
24.14700,-15.27558256
24.14750,-10.08727763
24.14800,-5.204167109
24.14850,1.815304268
24.14900,12.80230295
24.14950,22.56852399
24.15000,28.06202333
24.15050,30.50357859
24.15100,30.19838418
24.15150,25.62046807
24.15200,14.9386638
24.15250,-0.3210565858
24.15300,-17.41194342
24.15350,-31.45088617
24.15400,-36.02880229
24.15450,-28.7041365
24.15500,-14.66519375
24.15550,-2.762611847
24.15600,1.51010986
24.15650,-0.01586217811
24.15700,-4.593778294
24.15750,-10.08727763
24.15800,-17.41194342
24.15850,-29.31452532
24.15900,-40.30152399
24.15950,-36.94438551
24.16000,-13.13922171
24.16050,16.76983025
24.16100,29.58799537
24.16150,18.9061911
24.16200,2.730887491
24.16250,-0.6262509935
24.16300,3.951665122
24.16350,5.477637161
24.16400,3.341276307
24.16450,3.646470714
24.16500,5.782831568
24.16550,0.899721045
24.16600,-11.30805526
24.16650,-20.15869309
24.16700,-16.19116579
24.16750,-2.45741744
24.16800,9.139970053
24.16850,12.49710854
24.16900,10.05555328
24.16950,8.22438683
24.17000,8.834775645
24.17050,6.393220384
24.17100,-3.373000663
24.17150,-17.41194342
24.17200,-23.51583157
24.17250,-17.10674901
24.17300,-4.593778294
24.17350,2.730887491
24.17400,1.815304268
24.17450,-1.541834217
24.17500,-2.762611847
24.17550,-1.847028624
24.17600,-2.45741744
24.17650,-6.730139148
24.17700,-12.22363849
24.17750,-15.58077697
24.17800,-14.05480493
24.17850,-9.171694409
24.17900,-3.373000663
24.17950,0.2893322296
24.18000,2.730887491
24.18050,5.477637161
24.18100,11.58152531
24.18150,18.9061911
24.18200,19.21138551
24.18250,6.088025976
24.18300,-12.22363849
24.18350,-21.98985953
24.18400,-20.7690819
24.18450,-19.85349868
24.18500,-21.98985953
24.18550,-13.13922171
24.18600,16.15944143
24.18650,50.34121509
24.18700,63.15938022
24.18750,48.20485424
24.18800,24.39969044
24.18850,9.750358868
24.18900,5.172442753
24.18950,5.172442753
24.19000,6.698414791
24.19050,7.919192422
24.19100,5.782831568
24.19150,0.899721045
24.19200,-1.541834217
24.19250,1.51010986
24.19300,7.613998014
24.19350,8.529581238
24.19400,0.5945266373
24.19450,-12.22363849
24.19500,-21.07427631
24.19550,-21.37947072
24.19600,-17.10674901
24.19650,-14.05480493
24.19700,-13.13922171
24.19750,-11.30805526
24.19800,-7.950916778
24.19850,-6.730139148
24.19900,-8.866500001
24.19950,-9.476888817
24.20000,-3.983389478
24.20050,4.562053937
24.20100,9.445164461
24.20150,4.867248345
24.20200,-7.950916778
24.20250,-19.85349868
24.20300,-15.27558256
24.20350,11.58152531
24.20400,44.23732694
24.20450,55.52952002
24.20500,39.65941082
24.20550,17.68541347
24.20600,9.139970053
24.20650,3.646470714
24.20700,-16.8015546
24.20750,-42.13269044
24.20800,-40.6067184
24.20850,-5.204167109
24.20900,32.63993945
24.20950,40.57499405
24.21000,23.17891281
24.21050,7.003609199
24.21100,5.172442753
24.21150,10.9711365
24.21200,16.15944143
24.21250,16.76983025
24.21300,8.22438683
24.21350,-7.340527963
24.21400,-18.32752664
24.21450,-13.13922171
24.21500,2.730887491
24.21550,17.99060788
24.21600,28.97760655
24.21650,27.14644011
24.21700,-5.204167109
24.21750,-68.98979832
24.21800,-121.178042
24.21850,-110.1910434
24.21900,-37.24957992
24.21950,44.54252135
24.22000,92.76323776
24.22050,107.7177637
24.22100,105.5814029
24.22150,85.43857198
24.22200,47.89965983
24.22250,12.49710854
24.22300,-1.236639809
24.22350,-0.01586217811
24.22400,-0.01586217811
24.22450,-7.035333555
24.22500,-16.19116579
24.22550,-23.21063716
24.22600,-26.87297006
24.22650,-23.82102598
24.22700,-15.88597138
24.22750,-10.08727763
24.22800,-10.69766645
24.22850,-11.30805526
24.22900,-8.561305594
24.22950,-8.256111186
24.23000,-14.97038816
24.23050,-20.7690819
24.23100,-16.49636019
24.23150,-4.593778294
24.23200,4.562053937
24.23250,5.782831568
24.23300,-0.01586217811
24.23350,-9.782083225
24.23400,-15.88597138
24.23450,-10.08727763
24.23500,4.25685953
24.23550,12.80230295
24.23600,6.088025976
24.23650,-8.256111186
24.23700,-16.19116579
24.23750,-15.88597138
24.23800,-16.19116579
24.23850,-21.68466512
24.23900,-27.17816446
24.23950,-25.95738683
24.24000,-18.93791546
24.24050,-11.61324967
24.24100,-8.256111186
24.24150,-9.171694409
24.24200,-10.69766645
24.24250,-7.340527963
24.24300,-0.3210565858
24.24350,3.341276307
24.24400,-0.01586217811
24.24450,-6.119750332
24.24500,-7.950916778
24.24550,-4.898972701
24.24600,0.899721045
24.24650,5.782831568
24.24700,-0.01586217811
24.24750,-27.78855328
24.24800,-68.3794095
24.24850,-83.9443243
24.24900,-45.18463452
24.24950,27.75682892
24.25000,79.63987823
24.25050,79.63987823
24.25100,50.6464095
24.25150,31.11396741
24.25200,29.58799537
24.25250,27.45163452
24.25300,14.9386638
24.25350,3.036081899
24.25400,3.951665122
24.25450,11.58152531
24.25500,9.750358868
24.25550,-6.42494474
24.25600,-25.04180361
24.25650,-30.23010854
24.25700,-21.68466512
24.25750,-12.52883289
24.25800,-11.91844408
24.25850,-14.66519375
24.25900,-11.91844408
24.25950,-3.983389478
24.26000,0.5945266373
24.26050,-2.45741744
24.26100,-12.22363849
24.26150,-25.34699802
24.26200,-34.80802466
24.26250,-33.58724703
24.26300,-25.34699802
24.26350,-23.51583157
24.26400,-29.92491413
24.26450,-24.43141479
24.26500,9.750358868
24.26550,54.6139368
24.26600,73.84118449
24.26650,58.5814641
24.26700,34.16591148
24.26750,21.34774636
24.26800,13.71788617
24.26850,0.5945266373
24.26900,-9.171694409
24.26950,-5.509361517
24.27000,4.562053937
24.27050,6.698414791
24.27100,2.120498676
24.27150,3.646470714
24.27200,11.27633091
24.27250,14.02308058
24.27300,7.003609199
24.27350,-0.6262509935
24.27400,-3.373000663
24.27450,-4.898972701
24.27500,-7.950916778
24.27550,-9.782083225
24.27600,-7.035333555
24.27650,-3.678195071
24.27700,-3.678195071
24.27750,-3.067806255
24.27800,0.899721045
24.27850,5.782831568
24.27900,6.088025976
24.27950,4.562053937
24.28000,4.867248345
24.28050,5.782831568
24.28100,2.730887491
24.28150,-0.9314454012
24.28200,-0.3210565858
24.28250,3.036081899
24.28300,4.562053937
24.28350,3.036081899
24.28400,0.899721045
24.28450,-5.814555924
24.28500,-21.07427631
24.28550,-33.89244143
24.28600,-25.65219243
24.28650,2.425693084
24.28700,27.45163452
24.28750,30.50357859
24.28800,17.07502465
24.28850,0.5945266373
24.28900,-15.27558256
24.28950,-32.06127499
24.29000,-38.77555196
24.29050,-23.82102598
24.29100,4.562053937
24.29150,27.14644011
24.29200,33.55552267
24.29250,30.50357859
24.29300,25.92566248
24.29350,21.95813518
24.29400,19.21138551
24.29450,18.60099669
24.29500,18.29580228
24.29550,14.02308058
24.29600,6.393220384
24.29650,0.2893322296
24.29700,-1.847028624
24.29750,-3.067806255
24.29800,-3.983389478
24.29850,-3.373000663
24.29900,-1.541834217
24.29950,1.204915453
24.30000,4.562053937
24.30050,5.172442753
24.30100,1.815304268
24.30150,-0.9314454012
24.30200,2.120498676
24.30250,8.834775645
24.30300,9.750358868
24.30350,3.036081899
24.30400,-1.847028624
24.30450,-0.3210565858
24.30500,-0.01586217811
24.30550,-6.42494474
24.30600,-15.58077697
24.30650,-20.46388749
24.30700,-21.37947072
24.30750,-19.24310986
24.30800,-12.22363849
24.30850,-3.067806255
24.30900,-3.067806255
24.30950,-15.27558256
24.31000,-24.12622039
24.31050,-14.05480493
24.31100,8.22438683
24.31150,22.26332958
24.31200,20.43216314
24.31250,15.24385821
24.31300,16.15944143
24.31350,15.85424702
24.31400,3.951665122
24.31450,-14.66519375
24.31500,-24.12622039
24.31550,-14.35999934
24.31600,7.003609199
24.31650,23.48410721
24.31700,20.43216314
24.31750,-0.3210565858
24.31800,-21.98985953
24.31850,-25.95738683
24.31900,-10.39247204
24.31950,8.834775645
24.32000,17.99060788
24.32050,16.76983025
24.32100,13.41269176
24.32150,13.41269176
24.32200,14.32827498
24.32250,14.63346939
24.32300,14.9386638
24.32350,13.71788617
24.32400,7.308803607
24.32450,-5.204167109
24.32500,-18.02233223
24.32550,-25.95738683
24.32600,-27.78855328
24.32650,-23.21063716
24.32700,-8.866500001
24.32750,11.27633091
24.32800,21.95813518
24.32850,10.05555328
24.32900,-12.22363849
24.32950,-21.37947072
24.33000,-9.782083225
24.33050,3.951665122
24.33100,4.562053937
24.33150,-1.541834217
24.33200,-3.067806255
24.33250,-0.9314454012
24.33300,-4.593778294
24.33350,-12.8340273
24.33400,-17.71713782
24.33450,-16.8015546
24.33500,-13.13922171
24.33550,-7.645722371
24.33600,-1.236639809
24.33650,0.5945266373
24.33700,-0.3210565858
24.33750,3.646470714
24.33800,15.24385821
24.33850,23.48410721
24.33900,22.8737184
24.33950,20.43216314
24.34000,12.19191413
24.34050,-23.51583157
24.34100,-87.9118516
24.34150,-131.2494575
24.34200,-101.9507944
24.34250,-15.27558256
24.34300,57.66588088
24.34350,74.4515733
24.34400,54.30874239
24.34450,33.25032826
24.34500,17.38021906
24.34550,-0.01586217811
24.34600,-6.42494474
24.34650,9.750358868
24.34700,32.94513385
24.34750,35.08149471
24.34800,15.24385821
24.34850,-3.067806255
24.34900,-12.8340273
24.34950,-30.23010854
24.35000,-61.05474372
24.35050,-75.70407529
24.35100,-42.74307926
24.35150,23.48410721
24.35200,74.4515733
24.35250,78.11390619
24.35300,49.73082628
24.35350,21.04255195
24.35400,3.951665122
24.35450,-4.288583886
24.35500,-0.6262509935
24.35550,19.51657991
24.35600,43.01654931
24.35650,47.28927102
24.35700,31.72435622
24.35750,15.24385821
24.35800,8.22438683
24.35850,4.25685953
24.35900,-0.01586217811
24.35950,0.899721045
24.36000,2.730887491
24.36050,-7.950916778
24.36100,-28.39894209
24.36150,-34.19763584
24.36200,-16.8015546
24.36250,2.730887491
24.36300,2.730887491
24.36350,-8.256111186
24.36400,-10.69766645
24.36450,-5.204167109
24.36500,-6.42494474
24.36550,-16.49636019
24.36600,-23.82102598
24.36650,-23.21063716
24.36700,-19.85349868
24.36750,-17.41194342
24.36800,-11.61324967
24.36850,-1.236639809
24.36900,7.613998014
24.36950,8.22438683
24.37000,-0.01586217811
24.37050,-10.69766645
24.37100,-17.10674901
24.37150,-14.35999934
24.37200,-4.288583886
24.37250,4.867248345
24.37300,7.613998014
24.37350,4.867248345
24.37400,2.120498676
24.37450,2.730887491
24.37500,5.172442753
24.37550,6.698414791
24.37600,6.088025976
24.37650,4.562053937
24.37700,3.951665122
24.37750,3.036081899
24.37800,-0.01586217811
24.37850,-5.204167109
24.37900,-11.91844408
24.37950,-18.63272105
24.38000,-24.7366092
24.38050,-25.34699802
24.38100,-14.97038816
24.38150,3.646470714
24.38200,19.82177432
24.38250,22.8737184
24.38300,14.63346939
24.38350,3.951665122
24.38400,-2.762611847
24.38450,-6.42494474
24.38500,-7.950916778
24.38550,-6.42494474
24.38600,-3.373000663
24.38650,-1.236639809
24.38700,-0.3210565858
24.38750,1.815304268
24.38800,7.003609199
24.38850,12.80230295
24.38900,15.24385821
24.38950,12.19191413
24.39000,6.698414791
24.39050,3.646470714
24.39100,5.172442753
24.39150,6.698414791
24.39200,4.25685953
24.39250,-0.3210565858
24.39300,-3.067806255
24.39350,-4.288583886
24.39400,-7.645722371
24.39450,-13.13922171
24.39500,-16.8015546
24.39550,-17.10674901
24.39600,-15.58077697
24.39650,-11.61324967
24.39700,-2.45741744
24.39750,9.445164461
24.39800,17.68541347
24.39850,20.43216314
24.39900,24.09449603
24.39950,30.50357859
24.40000,32.94513385
24.40050,25.01007925
24.40100,11.88671972
24.40150,3.951665122
24.40200,2.425693084
24.40250,0.899721045
24.40300,-4.288583886
24.40350,-10.39247204
24.40400,-12.52883289
24.40450,-10.69766645
24.40500,-8.866500001
24.40550,-9.476888817
24.40600,-13.13922171
24.40650,-16.19116579
24.40700,-14.35999934
24.40750,-8.866500001
24.40800,-8.866500001
24.40850,-22.60024835
24.40900,-42.74307926
24.40950,-49.76255063
24.41000,-30.23010854
24.41050,4.25685953
24.41100,28.36721774
24.41150,28.06202333
24.41200,14.63346939
24.41250,8.22438683
24.41300,14.32827498
24.41350,23.78930162
24.41400,26.23085688
24.41450,20.12696873
24.41500,10.66594209
24.41550,2.730887491
24.41600,-1.847028624
24.41650,-3.983389478
24.41700,-3.983389478
24.41750,-1.236639809
24.41800,3.036081899
24.41850,6.088025976
24.41900,4.25685953
24.41950,-0.9314454012
24.42000,-6.42494474
24.42050,-10.08727763
24.42100,-12.8340273
24.42150,-14.35999934
24.42200,-13.44441612
24.42250,-13.13922171
24.42300,-17.41194342
24.42350,-23.21063716
24.42400,-21.37947072
24.42450,-8.561305594
24.42500,6.088025976
24.42550,12.19191413
24.42600,12.19191413
24.42650,17.99060788
24.42700,32.94513385
24.42750,43.93213253
24.42800,33.55552267
24.42850,2.730887491
24.42900,-28.09374769
24.42950,-39.69113518
24.43000,-36.02880229
24.43050,-36.6391911
24.43100,-45.79502333
24.43150,-46.40541215
24.43200,-29.31452532
24.43250,-8.561305594
24.43300,0.899721045
24.43350,8.529581238
24.43400,28.06202333
24.43450,49.42563187
24.43500,48.51004865
24.43550,25.01007925
24.43600,4.25685953
24.43650,0.5945266373
24.43700,4.25685953
24.43750,3.646470714
24.43800,6.088025976
24.43850,20.43216314
24.43900,37.21785556
24.43950,39.35421642
24.44000,25.62046807
24.44050,10.36074768
24.44100,5.477637161
24.44150,8.529581238
24.44200,7.003609199
24.44250,-6.119750332
24.44300,-23.21063716
24.44350,-28.09374769
24.44400,-16.8015546
24.44450,-1.847028624
24.44500,3.646470714
24.44550,5.477637161
24.44600,12.19191413
24.44650,19.82177432
24.44700,17.07502465
24.44750,5.477637161
24.44800,-3.983389478
24.44850,-8.256111186
24.44900,-12.52883289
24.44950,-15.88597138
24.45000,-11.91844408
24.45050,-5.509361517
24.45100,-10.69766645
24.45150,-26.26258124
24.45200,-30.53530295
24.45250,-11.61324967
24.45300,13.71788617
24.45350,22.26332958
24.45400,12.49710854
24.45450,1.204915453
24.45500,-1.541834217
24.45550,0.2893322296
24.45600,2.425693084
24.45650,5.477637161
24.45700,8.834775645
24.45750,9.750358868
24.45800,8.22438683
24.45850,6.393220384
24.45900,5.172442753
24.45950,3.951665122
24.46000,3.951665122
24.46050,5.172442753
24.46100,6.088025976
24.46150,5.172442753
24.46200,3.951665122
24.46250,3.646470714
24.46300,1.204915453
24.46350,-4.898972701
24.46400,-9.782083225
24.46450,-8.866500001
24.46500,-4.288583886
24.46550,-0.01586217811
24.46600,4.562053937
24.46650,7.919192422
24.46700,6.088025976
24.46750,1.815304268
24.46800,1.51010986
24.46850,-3.983389478
24.46900,-38.47035755
24.46950,-97.98326705
24.47000,-127.892319
24.47050,-78.14563055
24.47100,26.23085688
24.47150,103.7502364
24.47200,107.4125693
24.47250,67.73729633
24.47300,33.25032826
24.47350,7.308803607
24.47400,-32.36646939
24.47450,-79.36640818
24.47500,-94.62612857
24.47550,-56.78202201
24.47600,10.36074768
24.47650,60.41263055
24.47700,63.46457462
24.47750,27.45163452
24.47800,-6.42494474
24.47850,-3.067806255
24.47900,32.94513385
24.47950,62.24379699
24.48000,56.13990884
24.48050,30.808773
24.48100,17.07502465
24.48150,19.82177432
24.48200,18.29580228
24.48250,2.425693084
24.48300,-13.74961052
24.48350,-16.49636019
24.48400,-9.171694409
24.48450,-3.067806255
24.48500,-0.9314454012
24.48550,-1.236639809
24.48600,-4.593778294
24.48650,-11.91844408
24.48700,-16.8015546
24.48750,-14.97038816
24.48800,-8.561305594
24.48850,-4.898972701
24.48900,-6.42494474
24.48950,-9.171694409
24.49000,-10.08727763
24.49050,-8.866500001
24.49100,-7.340527963
24.49150,-6.730139148
24.49200,-7.340527963
24.49250,-8.256111186
24.49300,-7.645722371
24.49350,-5.204167109
24.49400,-3.373000663
24.49450,-4.898972701
24.49500,-9.476888817
24.49550,-14.05480493
24.49600,-15.27558256
24.49650,-12.8340273
24.49700,-8.866500001
24.49750,-7.950916778
24.49800,-11.61324967
24.49850,-16.19116579
24.49900,-14.35999934
24.49950,-7.340527963
24.50000,-3.678195071
24.50050,-7.035333555
24.50100,-7.950916778
24.50150,0.2893322296
24.50200,10.36074768
24.50250,5.477637161
24.50300,-12.22363849
24.50350,-24.43141479
24.50400,-18.93791546
24.50450,-4.898972701
24.50500,3.036081899
24.50550,4.25685953
24.50600,4.562053937
24.50650,4.867248345
24.50700,2.425693084
24.50750,0.899721045
24.50800,3.951665122
24.50850,8.22438683
24.50900,7.308803607
24.50950,3.036081899
24.51000,2.730887491
24.51050,5.782831568
24.51100,3.646470714
24.51150,-6.730139148
24.51200,-18.32752664
24.51250,-20.46388749
24.51300,-9.782083225
24.51350,7.308803607
24.51400,19.82177432
24.51450,19.21138551
24.51500,7.919192422
24.51550,-0.3210565858
24.51600,2.730887491
24.51650,14.02308058
24.51700,21.65294077
24.51750,21.65294077
24.51800,19.51657991
24.51850,18.60099669
24.51900,14.63346939
24.51950,6.393220384
24.52000,-3.067806255
24.52050,-10.08727763
24.52100,-13.13922171
24.52150,-11.91844408
24.52200,-6.730139148
24.52250,-3.373000663
24.52300,-7.035333555
24.52350,-9.782083225
24.52400,3.646470714
24.52450,34.16591148
24.52500,59.49704732
24.52550,58.5814641
24.52600,37.21785556
24.52650,17.99060788
24.52700,14.63346939
24.52750,17.99060788
24.52800,13.10749735
24.52850,-4.898972701
24.52900,-28.39894209
24.52950,-44.5742457
24.53000,-44.87944011
24.53050,-32.06127499
24.53100,-19.54830427
24.53150,-16.49636019
24.53200,-18.93791546
24.53250,-17.71713782
24.53300,-13.44441612
24.53350,-12.22363849
24.53400,-14.66519375
24.53450,-14.35999934
24.53500,-11.61324967
24.53550,-13.13922171
24.53600,-18.02233223
24.53650,-13.74961052
24.53700,4.562053937
24.53750,23.78930162
24.53800,27.45163452
24.53850,16.15944143
24.53900,3.341276307
24.53950,-1.236639809
24.54000,-0.01586217811
24.54050,-0.3210565858
24.54100,-6.730139148
24.54150,-15.58077697
24.54200,-19.54830427
24.54250,-13.44441612
24.54300,-0.9314454012
24.54350,8.834775645
24.54400,10.9711365
24.54450,5.782831568
24.54500,-3.067806255
24.54550,-12.22363849
24.54600,-13.13922171
24.54650,-0.01586217811
24.54700,21.04255195
24.54750,34.47110589
24.54800,31.72435622
24.54850,19.21138551
24.54900,9.445164461
24.54950,6.088025976
24.55000,3.036081899
24.55050,-1.847028624
24.55100,-7.645722371
24.55150,-9.171694409
24.55200,-4.288583886
24.55250,3.341276307
24.55300,7.613998014
24.55350,7.003609199
24.55400,7.003609199
24.55450,13.41269176
24.55500,23.17891281
24.55550,28.06202333
24.55600,26.53605129
24.55650,24.70488485
24.55700,23.78930162
24.55750,17.68541347
24.55800,3.341276307
24.55850,-11.61324967
24.55900,-18.63272105
24.55950,-18.93791546
24.56000,-20.46388749
24.56050,-28.39894209
24.56100,-40.30152399
24.56150,-48.541773
24.56200,-46.10021774
24.56250,-30.84049736
24.56300,-9.476888817
24.56350,7.613998014
24.56400,14.63346939
24.56450,12.19191413
24.56500,5.782831568
24.56550,1.51010986
24.56600,2.425693084
24.56650,3.036081899
24.56700,-3.983389478
24.56750,-15.88597138
24.56800,-15.88597138
24.56850,3.036081899
24.56900,25.31527366
24.56950,29.58799537
24.57000,18.29580228
24.57050,9.750358868
24.57100,9.445164461
24.57150,3.341276307
24.57200,-10.69766645
24.57250,-15.88597138
24.57300,0.2893322296
24.57350,25.31527366
24.57400,37.52304997
24.57450,32.33474504
24.57500,20.12696873
24.57550,7.308803607
24.57600,-4.593778294
24.57650,-12.52883289
24.57700,-11.30805526
24.57750,-4.898972701
24.57800,-0.6262509935
24.57850,-1.541834217
24.57900,-6.119750332
24.57950,-11.30805526
24.58000,-15.58077697
24.58050,-18.02233223
24.58100,-19.54830427
24.58150,-21.37947072
24.58200,-20.46388749
24.58250,-11.30805526
24.58300,4.562053937
24.58350,17.99060788
24.58400,20.73735755
24.58450,8.22438683
24.58500,-21.98985953
24.58550,-59.83396609
24.58600,-74.48329766
24.58650,-35.72360788
24.58700,42.7113549
24.58750,105.8865973
24.58800,111.3800966
24.58850,72.01001804
24.58900,32.94513385
24.58950,17.38021906
24.59000,14.32827498
24.59050,10.36074768
24.59100,4.867248345
24.59150,1.815304268
24.59200,-0.01586217811
24.59250,-2.45741744
24.59300,-2.762611847
24.59350,-2.762611847
24.59400,-5.814555924
24.59450,-8.256111186
24.59500,-3.983389478
24.59550,3.036081899
24.59600,3.036081899
24.59650,-3.983389478
24.59700,-7.340527963
24.59750,-2.762611847
24.59800,-0.01586217811
24.59850,-4.898972701
24.59900,-11.61324967
24.59950,-12.22363849
24.60000,-9.171694409
24.60050,-7.645722371
24.60100,-7.340527963
24.60150,-8.256111186
24.60200,-13.44441612
24.60250,-20.15869309
24.60300,-21.98985953
24.60350,-16.49636019
24.60400,-9.476888817
24.60450,-4.288583886
24.60500,-1.236639809
24.60550,-3.678195071
24.60600,-10.39247204
24.60650,-10.39247204
24.60700,-4.898972701
24.60750,-23.82102598
24.60800,-87.30146278
24.60850,-150.4767052
24.60900,-136.4377624
24.60950,-35.41841347
24.61000,70.17885159
24.61050,104.9710141
24.61100,84.21779435
24.61150,68.65287955
24.61200,73.23079567
24.61250,65.90612989
24.61300,38.43863319
24.61350,18.60099669
24.61400,21.95813518
24.61450,31.72435622
24.61500,32.02955063
24.61550,28.06202333
24.61600,22.26332958
24.61650,3.951665122
24.61700,-28.39894209
24.61750,-54.34046675
24.61800,-55.25604997
24.61850,-38.16516314
24.61900,-23.51583157
24.61950,-20.15869309
24.62000,-20.15869309
24.62050,-14.05480493
24.62100,-5.814555924
24.62150,-7.645722371
24.62200,-20.46388749
24.62250,-24.43141479
24.62300,-5.204167109
24.62350,23.78930162
24.62400,34.16591148
24.62450,21.95813518
24.62500,9.445164461
24.62550,9.750358868
24.62600,9.139970053
24.62650,-3.983389478
24.62700,-19.24310986
24.62750,-23.51583157
24.62800,-22.90544276
24.62850,-24.7366092
24.62900,-19.54830427
24.62950,2.120498676
24.63000,26.53605129
24.63050,32.02955063
24.63100,19.82177432
24.63150,8.529581238
24.63200,5.782831568
24.63250,4.25685953
24.63300,-1.236639809
24.63350,-6.119750332
24.63400,-7.645722371
24.63450,-9.171694409
24.63500,-12.52883289
24.63550,-13.74961052
24.63600,-11.30805526
24.63650,-7.645722371
24.63700,-4.288583886
24.63750,-2.45741744
24.63800,-2.762611847
24.63850,-3.983389478
24.63900,-0.9314454012
24.63950,5.172442753
24.64000,8.529581238
24.64050,3.646470714
24.64100,-3.067806255
24.64150,-3.678195071
24.64200,0.5945266373
24.64250,3.036081899
24.64300,0.899721045
24.64350,-1.236639809
24.64400,-0.6262509935
24.64450,-0.01586217811
24.64500,-0.6262509935
24.64550,-1.541834217
24.64600,0.2893322296
24.64650,4.867248345
24.64700,7.919192422
24.64750,8.529581238
24.64800,6.698414791
24.64850,3.951665122
24.64900,0.899721045
24.64950,-0.9314454012
24.65000,-1.236639809
24.65050,-1.541834217
24.65100,-3.678195071
24.65150,-7.340527963
24.65200,-10.39247204
24.65250,-11.61324967
24.65300,-8.256111186
24.65350,2.120498676
24.65400,16.46463584
24.65450,22.26332958
24.65500,13.41269176
24.65550,0.2893322296
24.65600,-2.152223032
24.65650,1.815304268
24.65700,-0.01586217811
24.65750,-10.39247204
24.65800,-15.27558256
24.65850,-7.035333555
24.65900,3.646470714
24.65950,5.782831568
24.66000,1.51010986
24.66050,-1.541834217
24.66100,-3.067806255
24.66150,-4.288583886
24.66200,-2.152223032
24.66250,1.204915453
24.66300,-1.541834217
24.66350,-11.30805526
24.66400,-13.13922171
24.66450,-1.541834217
24.66500,7.613998014
24.66550,2.730887491
24.66600,-5.204167109
24.66650,1.204915453
24.66700,16.46463584
24.66750,19.82177432
24.66800,9.139970053
24.66850,1.204915453
24.66900,4.562053937
24.66950,6.698414791
24.67000,-5.814555924
24.67050,-30.23010854
24.67100,-48.541773
24.67150,-44.26905129
24.67200,-11.91844408
24.67250,31.41916182
24.67300,57.97107529
24.67350,50.34121509
24.67400,22.26332958
24.67450,1.204915453
24.67500,-4.593778294
24.67550,-7.035333555
24.67600,-10.39247204
24.67650,-5.814555924
24.67700,9.445164461
24.67750,22.56852399
24.67800,19.82177432
24.67850,7.613998014
24.67900,1.204915453
24.67950,4.867248345
24.68000,9.139970053
24.68050,4.562053937
24.68100,-4.898972701
24.68150,-11.30805526
24.68200,-9.782083225
24.68250,-2.45741744
24.68300,4.867248345
24.68350,9.445164461
24.68400,10.36074768
24.68450,9.445164461
24.68500,8.529581238
24.68550,7.308803607
24.68600,2.120498676
24.68650,-7.035333555
24.68700,-16.19116579
24.68750,-17.41194342
24.68800,-10.08727763
24.68850,-2.152223032
24.68900,-0.01586217811
24.68950,-0.6262509935
24.69000,-0.01586217811
24.69050,0.2893322296
24.69100,-3.373000663
24.69150,-9.476888817
24.69200,-10.69766645
24.69250,-7.340527963
24.69300,-4.593778294
24.69350,-4.288583886
24.69400,-3.678195071
24.69450,-0.9314454012
24.69500,1.204915453
24.69550,0.899721045
24.69600,-0.01586217811
24.69650,1.204915453
24.69700,4.562053937
24.69750,9.139970053
24.69800,12.19191413
24.69850,12.19191413
24.69900,8.529581238
24.69950,4.562053937
24.70000,3.341276307
24.70050,4.25685953
24.70100,3.951665122
24.70150,-0.3210565858
24.70200,-10.69766645
24.70250,-21.98985953
24.70300,-25.34699802
24.70350,-16.8015546
24.70400,-6.119750332
24.70450,-6.42494474
24.70500,-11.91844408
24.70550,-3.678195071
24.70600,21.34774636
24.70650,40.26979964
24.70700,31.11396741
24.70750,4.562053937
24.70800,-14.97038816
24.70850,-29.92491413
24.70900,-57.39241083
24.70950,-90.04821245
24.71000,-87.9118516
24.71050,-29.92491413
24.71100,46.98407661
24.71150,86.3541552
24.71200,74.75676771
24.71250,47.28927102
24.71300,34.16591148
24.71350,30.808773
24.71400,21.34774636
24.71450,9.139970053
24.71500,6.698414791
24.71550,10.36074768
24.71600,6.393220384
24.71650,-4.898972701
24.71700,-10.08727763
24.71750,-4.898972701
24.71800,-2.152223032
24.71850,-8.256111186
24.71900,-10.69766645
24.71950,2.425693084
24.72000,21.65294077
24.72050,24.70488485
24.72100,7.613998014
24.72150,-11.00286086
24.72200,-15.27558256
24.72250,-8.866500001
24.72300,-4.898972701
24.72350,-5.204167109
24.72400,-5.204167109
24.72450,-3.067806255
24.72500,-1.236639809
24.72550,2.120498676
24.72600,10.05555328
24.72650,17.38021906
24.72700,16.76983025
24.72750,8.529581238
24.72800,0.5945266373
24.72850,-3.067806255
24.72900,-6.42494474
24.72950,-12.8340273
24.73000,-19.85349868
24.73050,-22.29505394
24.73100,-17.10674901
24.73150,-6.42494474
24.73200,3.036081899
24.73250,6.698414791
24.73300,8.22438683
24.73350,14.32827498
24.73400,14.63346939
24.73450,-16.8015546
24.73500,-81.80796344
24.73550,-133.0806239
24.73600,-116.9053203
24.73650,-36.94438551
24.73700,43.01654931
24.73750,69.56846278
24.73800,50.34121509
24.73850,28.06202333
24.73900,23.48410721
24.73950,25.01007925
24.74000,18.9061911
24.74050,9.139970053
24.74100,3.341276307
24.74150,-0.3210565858
24.74200,-7.950916778
24.74250,-14.97038816
24.74300,-12.52883289
24.74350,-0.01586217811
24.74400,14.32827498
24.74450,21.04255195
24.74500,18.29580228
24.74550,12.80230295
24.74600,9.750358868
24.74650,10.05555328
24.74700,10.36074768
24.74750,9.139970053
24.74800,7.308803607
24.74850,6.088025976
24.74900,4.867248345
24.74950,3.341276307
24.75000,1.51010986
24.75050,-0.01586217811
24.75100,-3.983389478
24.75150,-12.52883289
24.75200,-23.51583157
24.75250,-29.31452532
24.75300,-26.56777565
24.75350,-21.98985953
24.75400,-23.21063716
24.75450,-25.34699802
24.75500,-14.35999934
24.75550,10.66594209
24.75600,32.94513385
24.75650,35.99707793
24.75700,25.01007925
24.75750,15.85424702
24.75800,14.02308058
24.75850,12.80230295
24.75900,9.750358868
24.75950,10.36074768
24.76000,14.02308058
24.76050,10.36074768
24.76100,-6.119750332
24.76150,-24.12622039
24.76200,-28.39894209
24.76250,-18.32752664
24.76300,-8.561305594
24.76350,-8.561305594
24.76400,-12.8340273
24.76450,-12.22363849
