"type","name","time_units","begin_time","frequency","count","units"
"signal","Ultium EMG-EXT.DIG. RT","s",21.98000,2000,22000,"uV"

"time","value"
21.98000,4.157720917
21.98050,16.36549722
21.98100,26.74210709
21.98150,16.06030282
21.98200,-17.20588762
21.98250,-50.16688365
21.98300,-57.79674385
21.98350,-43.75780109
21.98400,-25.75133104
21.98450,-8.965638615
21.98500,18.80705249
21.98550,61.22907516
21.98600,99.68357053
21.98650,113.4173189
21.98700,99.07318171
21.98750,69.77451857
21.98800,41.08624425
21.98850,20.63821893
21.98900,7.209664994
21.98950,-3.472139276
21.99000,-12.3227771
21.99050,-13.54355473
21.99100,-6.218888945
21.99150,2.32655447
21.99200,5.378498547
21.99250,1.716165655
21.99300,-5.303305722
21.99350,-17.51108203
21.99400,-33.07599682
21.99450,-44.67338432
21.99500,-50.16688365
21.99550,-55.9655774
21.99600,-59.32271589
21.99650,-42.53702346
21.99700,0.8005824318
21.99750,44.74857714
21.99800,56.04077023
21.99850,34.06677287
21.99900,7.209664994
21.99950,-7.439666576
22.00000,-15.37472118
22.00050,-20.86822052
22.00100,-17.51108203
22.00150,-6.524083353
22.00200,-1.335778422
22.00250,-3.472139276
22.00300,2.021360063
22.00350,21.85899656
22.00400,39.2550778
22.00450,42.00182747
22.00500,39.2550778
22.00550,40.17066103
22.00600,35.59274491
22.00650,16.06030282
22.00700,-6.524083353
22.00750,-18.42666525
22.00800,-25.75133104
22.00850,-41.92663465
22.00900,-59.62791029
22.00950,-59.62791029
22.01000,-43.45260668
22.01050,-31.55002478
22.01100,-33.99158005
22.01150,-37.65391294
22.01200,-29.71885834
22.01250,-15.98510999
22.01300,-6.218888945
22.01350,-1.946167238
22.01400,-3.166944868
22.01450,-12.62797151
22.01500,-25.44613663
22.01550,-27.88769189
22.01600,-15.98510999
22.01650,-4.998111315
22.01700,-10.18641625
22.01750,-27.88769189
22.01800,-42.23182905
22.01850,-46.50455076
22.01900,-46.19935635
22.01950,-46.80974517
22.02000,-47.72532839
22.02050,-44.67338432
22.02100,-29.71885834
22.02150,5.683692955
22.02200,58.7875199
22.02250,107.3134307
22.02300,126.5406784
22.02350,114.6380965
22.02400,90.22254389
22.02450,71.60568502
22.02500,62.7550472
22.02550,59.70310312
22.02600,59.39790871
22.02650,56.95635345
22.02700,46.88493799
22.02750,28.57327353
22.02800,7.514859401
22.02850,-13.84874914
22.02900,-38.56949616
22.02950,-61.15388233
22.03000,-64.81621522
22.03050,-40.0954682
22.03100,-1.64097283
22.03150,23.69016301
22.03200,23.99535742
22.03250,11.78758111
22.03300,2.936943286
22.03350,0.1901936164
22.03400,-2.556556053
22.03450,-6.218888945
22.03500,-4.387722499
22.03550,3.242137693
22.03600,9.651220255
22.03650,10.26160907
22.03700,8.735637032
22.03750,9.04083144
22.03800,5.988887363
22.03850,-6.524083353
22.03900,-23.92016459
22.03950,-34.29677445
22.04000,-33.07599682
22.04050,-26.97210867
22.04100,-24.53055341
22.04150,-27.88769189
22.04200,-31.55002478
22.04250,-27.88769189
22.04300,-10.79680506
22.04350,15.449914
22.04400,34.06677287
22.04450,30.09924557
22.04500,10.56680348
22.04550,-4.082528091
22.04600,-4.998111315
22.04650,-2.251361645
22.04700,-7.744860984
22.04750,-16.90069321
22.04800,-16.90069321
22.04850,-8.660444207
22.04900,-5.913694538
22.04950,-12.3227771
22.05000,-18.12147085
22.05050,-15.37472118
22.05100,-12.62797151
22.05150,-16.2903044
22.05200,-16.2903044
22.05250,0.8005824318
22.05300,26.13171827
22.05350,30.70963439
22.05400,1.716165655
22.05450,-35.51755208
22.05500,-45.58896754
22.05550,-21.17341492
22.05600,12.09277552
22.05650,28.26807912
22.05700,24.60574623
22.05750,15.75510841
22.05800,11.4823867
22.05850,10.26160907
22.05900,5.988887363
22.05950,-1.64097283
22.06000,-8.965638615
22.06050,-14.15394355
22.06100,-20.86822052
22.06150,-32.46560801
22.06200,-42.23182905
22.06250,-42.23182905
22.06300,-34.29677445
22.06350,-30.02405275
22.06400,-31.85521919
22.06450,-23.00458137
22.06500,11.78758111
22.06550,63.0602416
22.06600,99.68357053
22.06650,101.2095426
22.06700,73.74204587
22.06750,40.47585543
22.06800,18.80705249
22.06850,11.4823867
22.06900,11.78758111
22.06950,10.26160907
22.07000,-1.64097283
22.07050,-23.61497018
22.07100,-42.23182905
22.07150,-44.97857872
22.07200,-37.04352412
22.07250,-34.29677445
22.07300,-36.1279409
22.07350,-19.64744288
22.07400,28.26807912
22.07450,81.37190606
22.07500,97.85240408
22.07550,70.07971298
22.07600,30.40443998
22.07650,8.430442624
22.07700,2.021360063
22.07750,-3.472139276
22.07800,-9.57602743
22.07850,-9.881221838
22.07900,-6.218888945
22.07950,-5.60850013
22.08000,-6.829277761
22.08050,-5.60850013
22.08100,-4.387722499
22.08150,-8.355249799
22.08200,-15.67991558
22.08250,-19.34224848
22.08300,-15.37472118
22.08350,-3.777333684
22.08400,9.956414663
22.08450,16.06030282
22.08500,8.125248217
22.08550,-2.556556053
22.08600,-0.7253896067
22.08650,9.956414663
22.08700,8.735637032
22.08750,-10.79680506
22.08800,-29.10846952
22.08850,-27.88769189
22.08900,-17.81627644
22.08950,-18.42666525
22.09000,-29.10846952
22.09050,-35.21235768
22.09100,-32.46560801
22.09150,-27.27730308
22.09200,-20.2578317
22.09250,-7.134472168
22.09300,6.599276178
22.09350,11.78758111
22.09400,7.820053809
22.09450,3.547332101
22.09500,2.631748878
22.09550,2.32655447
22.09600,2.021360063
22.09650,1.105776839
22.09700,-8.355249799
22.09750,-30.63444156
22.09800,-50.16688365
22.09850,-45.89416195
22.09900,-19.95263729
22.09950,2.631748878
22.10000,4.768109732
22.10050,-6.524083353
22.10100,-16.59549881
22.10150,-23.30977578
22.10200,-28.49808071
22.10250,-27.88769189
22.10300,-18.12147085
22.10350,-7.134472168
22.10400,-6.218888945
22.10450,-11.10199947
22.10500,-8.965638615
22.10550,2.936943286
22.10600,16.36549722
22.10650,25.21613505
22.10700,34.06677287
22.10750,44.74857714
22.10800,50.85246529
22.10850,48.71610444
22.10900,45.05377155
22.10950,46.57974359
22.11000,48.71610444
22.11050,44.13818833
22.11100,33.15118965
22.11150,21.55380216
22.11200,11.17719229
22.11250,0.4953880241
22.11300,-7.134472168
22.11350,-5.60850013
22.11400,5.07330414
22.11450,17.58627486
22.11500,23.07977419
22.11550,21.85899656
22.11600,21.24860775
22.11650,27.65769031
22.11700,37.11871695
22.11750,35.2875505
22.11800,15.449914
22.11850,-8.050055392
22.11900,-14.45913795
22.11950,-6.524083353
22.12000,-8.660444207
22.12050,-26.66691426
22.12100,-35.82274649
22.12150,-15.98510999
22.12200,12.70316433
22.12250,18.80705249
22.12300,1.716165655
22.12350,-12.3227771
22.12400,-10.79680506
22.12450,-3.166944868
22.12500,1.410971247
22.12550,5.378498547
22.12600,7.820053809
22.12650,4.462915324
22.12700,0.8005824318
22.12750,2.631748878
22.12800,1.716165655
22.12850,-10.18641625
22.12900,-23.00458137
22.12950,-20.86822052
22.13000,-9.881221838
22.13050,-9.270833022
22.13100,-18.73185966
22.13150,-23.30977578
22.13200,-26.05652545
22.13250,-40.40066261
22.13300,-57.49154944
22.13350,-53.52402214
22.13400,-30.93963597
22.13450,-13.23836032
22.13500,-1.946167238
22.13550,28.57327353
22.13600,79.54073962
22.13650,111.5861524
22.13700,98.7679873
22.13750,62.7550472
22.13800,34.98235609
22.13850,13.00835874
22.13900,-17.51108203
22.13950,-45.28377313
22.14000,-48.33571721
22.14050,-33.68638564
22.14100,-29.41366393
22.14150,-46.50455076
22.14200,-67.8681593
22.14250,-67.8681593
22.14300,-34.60196886
22.14350,22.16419097
22.14400,72.82646265
22.14450,82.5926837
22.14500,46.27454918
22.14550,-0.7253896067
22.14600,-20.86822052
22.14650,-13.23836032
22.14700,-2.251361645
22.14750,-0.420195199
22.14800,0.1901936164
22.14850,4.157720917
22.14900,5.07330414
22.14950,0.8005824318
22.15000,0.4953880241
22.15050,5.378498547
22.15100,4.462915324
22.15150,-9.270833022
22.15200,-27.58249748
22.15250,-38.87469057
22.15300,-41.62144024
22.15350,-38.56949616
22.15400,-28.80327512
22.15450,-12.93316591
22.15500,1.105776839
22.15550,8.430442624
22.15600,13.31355315
22.15650,20.02783012
22.15700,19.72263571
22.15750,4.768109732
22.15800,-15.67991558
22.15850,-23.92016459
22.15900,-15.06952677
22.15950,-1.335778422
22.16000,7.514859401
22.16050,14.22913637
22.16100,22.16419097
22.16150,29.48885676
22.16200,33.45638406
22.16250,35.2875505
22.16300,33.15118965
22.16350,23.07977419
22.16400,5.378498547
22.16450,-12.93316591
22.16500,-29.71885834
22.16550,-47.42013399
22.16600,-59.9331047
22.16650,-53.82921655
22.16700,-28.80327512
22.16750,-4.692916907
22.16800,2.631748878
22.16850,0.8005824318
22.16900,5.07330414
22.16950,14.22913637
22.17000,14.22913637
22.17050,4.462915324
22.17100,-0.1150007913
22.17150,7.209664994
22.17200,15.75510841
22.17250,15.14471959
22.17300,8.430442624
22.17350,-0.7253896067
22.17400,-16.2903044
22.17450,-33.38119123
22.17500,-37.95910735
22.17550,-26.05652545
22.17600,-13.54355473
22.17650,-11.71238828
22.17700,-9.881221838
22.17750,-0.420195199
22.17800,-0.1150007913
22.17850,-20.86822052
22.17900,-41.01105142
22.17950,-31.55002478
22.18000,-11.40719388
22.18050,-24.225359
22.18100,-64.20582641
22.18150,-70.92010338
22.18200,-15.37472118
22.18250,54.51479819
22.18300,79.23554521
22.18350,61.22907516
22.18400,40.78104984
22.18450,31.62521761
22.18500,18.50185808
22.18550,-0.420195199
22.18600,-10.79680506
22.18650,-12.62797151
22.18700,-17.81627644
22.18750,-19.95263729
22.18800,-1.335778422
22.18850,28.26807912
22.18900,38.03430017
22.18950,23.3849686
22.19000,19.4174413
22.19050,49.32649326
22.19100,88.08618303
22.19150,94.4952656
22.19200,61.22907516
22.19250,15.14471959
22.19300,-16.90069321
22.19350,-29.71885834
22.19400,-30.93963597
22.19450,-28.49808071
22.19500,-25.75133104
22.19550,-18.73185966
22.19600,-5.913694538
22.19650,8.430442624
22.19700,17.28108045
22.19750,20.33302452
22.19800,21.24860775
22.19850,20.02783012
22.19900,13.31355315
22.19950,4.768109732
22.20000,2.631748878
22.20050,6.29408177
22.20100,6.904470586
22.20150,0.1901936164
22.20200,-8.355249799
22.20250,-13.54355473
22.20300,-17.51108203
22.20350,-26.36171985
22.20400,-43.75780109
22.20450,-66.34218726
22.20500,-83.7382685
22.20550,-86.79021258
22.20600,-79.46554679
22.20650,-72.44607542
22.20700,-59.01752148
22.20750,-16.59549881
22.20800,58.17713108
22.20850,126.235484
22.20900,142.715982
22.20950,111.280958
22.21000,73.74204587
22.21050,55.73557582
22.21100,45.05377155
22.21150,26.13171827
22.21200,5.378498547
22.21250,-4.692916907
22.21300,-7.744860984
22.21350,-11.40719388
22.21400,-12.3227771
22.21450,-4.387722499
22.21500,5.378498547
22.21550,7.820053809
22.21600,2.631748878
22.21650,-3.166944868
22.21700,-7.744860984
22.21750,-11.10199947
22.21800,-14.45913795
22.21850,-19.03705407
22.21900,-28.1928863
22.21950,-40.0954682
22.22000,-44.0629955
22.22050,-32.46560801
22.22100,-13.23836032
22.22150,-3.472139276
22.22200,-11.40719388
22.22250,-26.05652545
22.22300,-30.02405275
22.22350,-21.47860933
22.22400,-12.62797151
22.22450,-13.23836032
22.22500,-14.45913795
22.22550,-1.64097283
22.22600,23.07977419
22.22650,39.2550778
22.22700,29.79405116
22.22750,2.631748878
22.22800,-18.42666525
22.22850,-17.20588762
22.22900,1.410971247
22.22950,19.4174413
22.23000,24.91094064
22.23050,24.30055182
22.23100,27.96288472
22.23150,31.93041202
22.23200,16.36549722
22.23250,-23.00458137
22.23300,-61.76427115
22.23350,-70.92010338
22.23400,-53.82921655
22.23450,-38.56949616
22.23500,-36.43313531
22.23550,-31.55002478
22.23600,-12.62797151
22.23650,7.514859401
22.23700,17.28108045
22.23750,23.3849686
22.23800,32.54080083
22.23850,31.01482879
22.23900,2.631748878
22.23950,-37.34871853
22.24000,-54.13441095
22.24050,-34.90716327
22.24100,-3.777333684
22.24150,12.39796992
22.24200,15.75510841
22.24250,20.33302452
22.24300,27.65769031
22.24350,28.57327353
22.24400,21.55380216
22.24450,16.67069163
22.24500,16.06030282
22.24550,11.17719229
22.24600,-1.335778422
22.24650,-10.18641625
22.24700,-5.60850013
22.24750,5.07330414
22.24800,9.956414663
22.24850,6.904470586
22.24900,4.462915324
22.24950,5.988887363
22.25000,8.430442624
22.25050,10.87199789
22.25100,14.22913637
22.25150,14.83952519
22.25200,9.956414663
22.25250,5.683692955
22.25300,9.04083144
22.25350,12.70316433
22.25400,5.683692955
22.25450,-8.355249799
22.25500,-19.64744288
22.25550,-33.99158005
22.25600,-63.29024319
22.25650,-94.11487836
22.25700,-92.58890632
22.25750,-52.91363332
22.25800,-11.71238828
22.25850,0.4953880241
22.25900,2.631748878
22.25950,25.82652386
22.26000,60.92388075
22.26050,69.46932416
22.26100,42.30702188
22.26150,9.346025847
22.26200,-2.861750461
22.26250,0.8005824318
22.26300,9.04083144
22.26350,20.02783012
22.26400,31.62521761
22.26450,33.15118965
22.26500,22.77457979
22.26550,17.28108045
22.26600,34.06677287
22.26650,66.7225745
22.26700,87.78098863
22.26750,78.9303508
22.26800,47.1901324
22.26850,16.06030282
22.26900,0.4953880241
22.26950,-5.913694538
22.27000,-19.03705407
22.27050,-36.43313531
22.27100,-41.31624583
22.27150,-25.75133104
22.27200,-5.60850013
22.27250,1.105776839
22.27300,-0.420195199
22.27350,2.631748878
22.27400,10.87199789
22.27450,9.346025847
22.27500,-4.692916907
22.27550,-15.98510999
22.27600,-12.3227771
22.27650,0.1901936164
22.27700,8.430442624
22.27750,3.547332101
22.27800,-13.54355473
22.27850,-37.95910735
22.27900,-58.40713266
22.27950,-62.67985437
22.28000,-49.86168925
22.28050,-32.77080242
22.28100,-25.44613663
22.28150,-28.80327512
22.28200,-30.93963597
22.28250,-22.08899815
22.28300,-6.829277761
22.28350,0.8005824318
22.28400,-0.420195199
22.28450,1.105776839
22.28500,14.83952519
22.28550,28.57327353
22.28600,28.26807912
22.28650,22.46938538
22.28700,33.15118965
22.28750,60.00829753
22.28800,72.52126824
22.28850,49.02129885
22.28900,3.852526509
22.28950,-30.02405275
22.29000,-39.17988498
22.29050,-30.63444156
22.29100,-14.76433236
22.29150,4.462915324
22.29200,24.91094064
22.29250,42.91741069
22.29300,51.76804852
22.29350,45.05377155
22.29400,23.07977419
22.29450,-0.7253896067
22.29500,-10.49161065
22.29550,-6.829277761
22.29600,-9.270833022
22.29650,-26.36171985
22.29700,-44.67338432
22.29750,-48.33571721
22.29800,-41.92663465
22.29850,-37.95910735
22.29900,-34.60196886
22.29950,-19.64744288
22.30000,7.209664994
22.30050,33.15118965
22.30100,46.57974359
22.30150,47.49532681
22.30200,40.17066103
22.30250,27.96288472
22.30300,14.22913637
22.30350,4.462915324
22.30400,2.021360063
22.30450,2.021360063
22.30500,-2.251361645
22.30550,-15.37472118
22.30600,-29.71885834
22.30650,-32.1604136
22.30700,-19.34224848
22.30750,-2.251361645
22.30800,2.631748878
22.30850,-7.439666576
22.30900,-21.78380374
22.30950,-25.75133104
22.31000,-17.51108203
22.31050,-6.524083353
22.31100,-2.251361645
22.31150,-4.387722499
22.31200,-6.524083353
22.31250,-5.303305722
22.31300,-4.387722499
22.31350,-7.439666576
22.31400,-10.49161065
22.31450,-8.355249799
22.31500,-2.861750461
22.31550,0.8005824318
22.31600,2.936943286
22.31650,6.29408177
22.31700,9.956414663
22.31750,12.70316433
22.31800,17.28108045
22.31850,23.3849686
22.31900,24.91094064
22.31950,23.07977419
22.32000,28.87846794
22.32050,40.78104984
22.32100,31.62521761
22.32150,-12.62797151
22.32200,-57.79674385
22.32250,-58.10193825
22.32300,-23.00458137
22.32350,-5.913694538
22.32400,-24.225359
22.32450,-38.26430175
22.32500,-18.42666525
22.32550,7.820053809
22.32600,7.514859401
22.32650,-6.829277761
22.32700,-7.744860984
22.32750,-1.946167238
22.32800,-13.84874914
22.32850,-34.90716327
22.32900,-36.1279409
22.32950,-16.59549881
22.33000,-0.7253896067
22.33050,3.242137693
22.33100,10.26160907
22.33150,25.21613505
22.33200,33.45638406
22.33250,28.57327353
22.33300,20.02783012
22.33350,10.87199789
22.33400,-5.60850013
22.33450,-23.30977578
22.33500,-23.30977578
22.33550,-5.303305722
22.33600,4.768109732
22.33650,-5.60850013
22.33700,-19.34224848
22.33750,-13.84874914
22.33800,3.242137693
22.33850,7.820053809
22.33900,-6.524083353
22.33950,-20.86822052
22.34000,-18.42666525
22.34050,-2.861750461
22.34100,10.56680348
22.34150,14.22913637
22.34200,12.39796992
22.34250,12.39796992
22.34300,15.449914
22.34350,17.28108045
22.34400,15.75510841
22.34450,12.70316433
22.34500,9.651220255
22.34550,6.599276178
22.34600,5.683692955
22.34650,11.78758111
22.34700,20.02783012
22.34750,17.28108045
22.34800,0.1901936164
22.34850,-17.20588762
22.34900,-22.08899815
22.34950,-20.56302611
22.35000,-27.58249748
22.35050,-40.70585702
22.35100,-45.58896754
22.35150,-38.87469057
22.35200,-30.63444156
22.35250,-20.86822052
22.35300,5.07330414
22.35350,46.88493799
22.35400,76.18360113
22.35450,68.55374094
22.35500,38.94988339
22.35550,23.69016301
22.35600,35.59274491
22.35650,50.85246529
22.35700,44.44338273
22.35750,20.63821893
22.35800,0.4953880241
22.35850,-6.524083353
22.35900,-8.355249799
22.35950,-12.62797151
22.36000,-20.2578317
22.36050,-29.71885834
22.36100,-38.87469057
22.36150,-43.45260668
22.36200,-44.0629955
22.36250,-51.69285569
22.36300,-72.75126982
22.36350,-88.01099021
22.36400,-64.20582641
22.36450,1.105776839
22.36500,66.7225745
22.36550,92.35890474
22.36600,87.78098863
22.36650,91.13812711
22.36700,110.6705692
22.36750,114.9432909
22.36800,82.5926837
22.36850,35.2875505
22.36900,7.820053809
22.36950,5.683692955
22.37000,8.735637032
22.37050,3.547332101
22.37100,-5.303305722
22.37150,-10.18641625
22.37200,-8.965638615
22.37250,-0.7253896067
22.37300,12.09277552
22.37350,21.24860775
22.37400,16.97588604
22.37450,-0.7253896067
22.37500,-23.30977578
22.37550,-40.40066261
22.37600,-45.28377313
22.37650,-40.0954682
22.37700,-34.29677445
22.37750,-38.87469057
22.37800,-50.16688365
22.37850,-51.9980501
22.37900,-35.51755208
22.37950,-12.3227771
22.38000,-0.1150007913
22.38050,-0.7253896067
22.38100,-8.355249799
22.38150,-17.20588762
22.38200,-22.39419255
22.38250,-16.90069321
22.38300,-0.420195199
22.38350,9.651220255
22.38400,-0.420195199
22.38450,-22.39419255
22.38500,-32.77080242
22.38550,-23.61497018
22.38600,-9.57602743
22.38650,-5.60850013
22.38700,-9.57602743
22.38750,-11.10199947
22.38800,-6.524083353
22.38850,-0.420195199
22.38900,2.32655447
22.38950,2.936943286
22.39000,9.346025847
22.39050,27.96288472
22.39100,48.71610444
22.39150,49.93688207
22.39200,24.30055182
22.39250,-9.881221838
22.39300,-30.32924715
22.39350,-32.46560801
22.39400,-22.39419255
22.39450,-4.387722499
22.39500,13.00835874
22.39550,17.89146926
22.39600,10.87199789
22.39650,8.125248217
22.39700,14.53433078
22.39750,7.514859401
22.39800,-26.36171985
22.39850,-65.12140963
22.39900,-77.02399153
22.39950,-62.37465996
22.40000,-43.75780109
22.40050,-28.80327512
22.40100,-11.10199947
22.40150,2.32655447
22.40200,-2.251361645
22.40250,-17.51108203
22.40300,-19.34224848
22.40350,-3.777333684
22.40400,13.00835874
22.40450,23.99535742
22.40500,34.06677287
22.40550,39.86546662
22.40600,33.45638406
22.40650,25.82652386
22.40700,34.67716169
22.40750,49.93688207
22.40800,39.2550778
22.40850,-2.251361645
22.40900,-37.95910735
22.40950,-36.43313531
22.41000,-9.270833022
22.41050,12.09277552
22.41100,16.36549722
22.41150,9.04083144
22.41200,-2.861750461
22.41250,-12.62797151
22.41300,-10.49161065
22.41350,0.8005824318
22.41400,6.599276178
22.41450,-0.1150007913
22.41500,-6.829277761
22.41550,-1.335778422
22.41600,7.820053809
22.41650,8.430442624
22.41700,5.07330414
22.41750,6.599276178
22.41800,11.4823867
22.41850,11.17719229
22.41900,8.735637032
22.41950,10.26160907
22.42000,11.17719229
22.42050,5.683692955
22.42100,1.410971247
22.42150,7.209664994
22.42200,16.36549722
22.42250,14.83952519
22.42300,5.378498547
22.42350,2.32655447
22.42400,5.07330414
22.42450,-0.7253896067
22.42500,-18.12147085
22.42550,-33.68638564
22.42600,-42.23182905
22.42650,-52.60843892
22.42700,-69.69932575
22.42750,-82.21229646
22.42800,-75.49801949
22.42850,-44.0629955
22.42900,5.378498547
22.42950,52.37843733
22.43000,70.07971298
22.43050,55.125187
22.43100,42.91741069
22.43150,65.50179686
22.43200,101.514737
22.43250,94.19007119
22.43300,27.04730149
22.43350,-48.94610602
22.43400,-78.85515798
22.43450,-61.45907674
22.43500,-33.99158005
22.43550,-19.34224848
22.43600,-10.79680506
22.43650,0.4953880241
22.43700,16.97588604
22.43750,34.67716169
22.43800,47.80052122
22.43850,48.10571563
22.43900,38.94988339
22.43950,37.42391136
22.44000,53.59921496
22.44050,74.6576291
22.44100,81.67710047
22.44150,71.91087943
22.44200,56.34596463
22.44250,40.47585543
22.44300,23.99535742
22.44350,10.56680348
22.44400,5.07330414
22.44450,1.410971247
22.44500,-12.62797151
22.44550,-37.95910735
22.44600,-58.71232707
22.44650,-62.67985437
22.44700,-52.60843892
22.44750,-39.48507938
22.44800,-28.80327512
22.44850,-20.56302611
22.44900,-14.76433236
22.44950,-11.40719388
22.45000,-7.439666576
22.45050,-1.946167238
22.45100,0.1901936164
22.45150,-3.472139276
22.45200,-9.881221838
22.45250,-10.18641625
22.45300,-2.556556053
22.45350,5.683692955
22.45400,8.430442624
22.45450,3.547332101
22.45500,-4.998111315
22.45550,-12.62797151
22.45600,-15.98510999
22.45650,-15.98510999
22.45700,-14.45913795
22.45750,-10.49161065
22.45800,-3.777333684
22.45850,3.547332101
22.45900,9.956414663
22.45950,15.449914
22.46000,15.75510841
22.46050,1.716165655
22.46100,-23.92016459
22.46150,-37.65391294
22.46200,-19.03705407
22.46250,14.83952519
22.46300,27.65769031
22.46350,10.26160907
22.46400,-7.134472168
22.46450,-4.692916907
22.46500,-1.64097283
22.46550,-23.00458137
22.46600,-55.66038299
22.46650,-65.12140963
22.46700,-38.87469057
22.46750,-0.1150007913
22.46800,21.85899656
22.46850,19.4174413
22.46900,6.599276178
22.46950,5.378498547
22.47000,17.58627486
22.47050,19.4174413
22.47100,-9.881221838
22.47150,-51.69285569
22.47200,-63.59543759
22.47250,-37.95910735
22.47300,-11.40719388
22.47350,-10.79680506
22.47400,-17.51108203
22.47450,-5.303305722
22.47500,14.53433078
22.47550,16.06030282
22.47600,-0.420195199
22.47650,-12.62797151
22.47700,-12.93316591
22.47750,-12.93316591
22.47800,-15.67991558
22.47850,-12.01758269
22.47900,-3.166944868
22.47950,-1.030584014
22.48000,-7.744860984
22.48050,-8.965638615
22.48100,3.852526509
22.48150,25.52132946
22.48200,44.13818833
22.48250,52.98882615
22.48300,51.76804852
22.48350,44.74857714
22.48400,35.89793932
22.48450,25.21613505
22.48500,11.4823867
22.48550,1.716165655
22.48600,5.683692955
22.48650,17.58627486
22.48700,16.36549722
22.48750,-7.439666576
22.48800,-39.17988498
22.48850,-58.40713266
22.48900,-63.59543759
22.48950,-62.98504878
22.49000,-56.27077181
22.49050,-43.75780109
22.49100,-34.60196886
22.49150,-30.93963597
22.49200,-11.40719388
22.49250,37.72910576
22.49300,89.00176626
22.49350,94.80046
22.49400,49.02129885
22.49450,-3.472139276
22.49500,-25.75133104
22.49550,-24.225359
22.49600,-23.61497018
22.49650,-21.78380374
22.49700,-1.335778422
22.49750,35.89793932
22.49800,69.16412976
22.49850,84.11865573
22.49900,82.28748929
22.49950,67.33296331
22.50000,37.72910576
22.50050,-1.030584014
22.50100,-35.21235768
22.50150,-54.43960536
22.50200,-56.27077181
22.50250,-40.0954682
22.50300,-8.050055392
22.50350,25.21613505
22.50400,39.2550778
22.50450,30.40443998
22.50500,15.75510841
22.50550,11.17719229
22.50600,12.70316433
22.50650,10.87199789
22.50700,7.820053809
22.50750,11.78758111
22.50800,19.11224689
22.50850,16.67069163
22.50900,1.105776839
22.50950,-17.51108203
22.51000,-28.1928863
22.51050,-29.41366393
22.51100,-26.05652545
22.51150,-28.1928863
22.51200,-40.70585702
22.51250,-55.66038299
22.51300,-50.47207806
22.51350,-12.93316591
22.51400,38.03430017
22.51450,68.24854653
22.51500,65.80699127
22.51550,49.02129885
22.51600,33.76157846
22.51650,16.36549722
22.51700,-7.134472168
22.51750,-25.14094222
22.51800,-23.00458137
22.51850,-7.744860984
22.51900,1.716165655
22.51950,1.410971247
22.52000,-1.030584014
22.52050,-5.303305722
22.52100,-15.37472118
22.52150,-25.44613663
22.52200,-21.17341492
22.52250,-1.030584014
22.52300,18.50185808
22.52350,22.46938538
22.52400,13.31355315
22.52450,2.021360063
22.52500,-5.60850013
22.52550,-9.57602743
22.52600,-9.270833022
22.52650,-5.303305722
22.52700,-1.030584014
22.52750,1.410971247
22.52800,3.547332101
22.52850,5.378498547
22.52900,4.462915324
22.52950,1.716165655
22.53000,1.105776839
22.53050,1.716165655
22.53100,-2.861750461
22.53150,-12.62797151
22.53200,-18.42666525
22.53250,-17.20588762
22.53300,-21.17341492
22.53350,-38.87469057
22.53400,-56.57596622
22.53450,-52.30324451
22.53500,-28.80327512
22.53550,-12.93316591
22.53600,-18.12147085
22.53650,-26.97210867
22.53700,-15.98510999
22.53750,10.26160907
22.53800,28.26807912
22.53850,23.99535742
22.53900,5.683692955
22.53950,-11.10199947
22.54000,-17.20588762
22.54050,-12.01758269
22.54100,-2.251361645
22.54150,-1.64097283
22.54200,-13.23836032
22.54250,-19.64744288
22.54300,-2.556556053
22.54350,26.74210709
22.54400,37.72910576
22.54450,19.72263571
22.54500,-1.946167238
22.54550,-1.946167238
22.54600,13.61874756
22.54650,20.94341334
22.54700,13.31355315
22.54750,5.988887363
22.54800,6.904470586
22.54850,5.378498547
22.54900,-10.49161065
22.54950,-33.38119123
22.55000,-44.97857872
22.55050,-38.87469057
22.55100,-22.08899815
22.55150,-1.64097283
22.55200,19.72263571
22.55250,36.81352254
22.55300,39.2550778
22.55350,27.3524959
22.55400,14.22913637
22.55450,9.346025847
22.55500,2.021360063
22.55550,-18.73185966
22.55600,-44.36818991
22.55650,-53.21882773
22.55700,-40.70585702
22.55750,-24.53055341
22.55800,-16.59549881
22.55850,-8.965638615
22.55900,9.651220255
22.55950,37.72910576
22.56000,61.22907516
22.56050,66.41738009
22.56100,46.88493799
22.56150,10.56680348
22.56200,-19.95263729
22.56250,-32.77080242
22.56300,-37.65391294
22.56350,-52.91363332
22.56400,-75.49801949
22.56450,-87.40060139
22.56500,-80.99151883
22.56550,-58.71232707
22.56600,-13.23836032
22.56650,62.44985279
22.56700,143.6315652
22.56750,181.7808662
22.56800,156.144536
22.56850,94.80046
22.56900,38.03430017
22.56950,2.631748878
22.57000,-12.93316591
22.57050,-14.45913795
22.57100,-10.18641625
22.57150,-12.62797151
22.57200,-22.69938696
22.57250,-30.93963597
22.57300,-33.38119123
22.57350,-35.82274649
22.57400,-34.90716327
22.57450,-18.12147085
22.57500,11.4823867
22.57550,31.3200232
22.57600,29.18366235
22.57650,18.50185808
22.57700,17.28108045
22.57750,24.30055182
22.57800,27.3524959
22.57850,23.99535742
22.57900,19.4174413
22.57950,15.75510841
22.58000,13.61874756
22.58050,13.61874756
22.58100,12.39796992
22.58150,4.462915324
22.58200,-6.524083353
22.58250,-10.49161065
22.58300,-5.913694538
22.58350,-2.556556053
22.58400,-6.524083353
22.58450,-9.57602743
22.58500,-5.60850013
22.58550,-1.030584014
22.58600,-3.777333684
22.58650,-8.660444207
22.58700,-7.439666576
22.58750,-1.030584014
22.58800,2.631748878
22.58850,2.32655447
22.58900,1.716165655
22.58950,-0.1150007913
22.59000,-6.524083353
22.59050,-13.54355473
22.59100,-14.15394355
22.59150,-8.660444207
22.59200,-3.472139276
22.59250,0.8005824318
22.59300,6.599276178
22.59350,8.430442624
22.59400,-1.030584014
22.59450,-18.12147085
22.59500,-27.27730308
22.59550,-22.08899815
22.59600,-17.20588762
22.59650,-26.05652545
22.59700,-44.0629955
22.59750,-52.30324451
22.59800,-39.17988498
22.59850,-8.660444207
22.59900,25.52132946
22.59950,48.41091003
22.60000,49.93688207
22.60050,32.84599524
22.60100,13.92394196
22.60150,9.04083144
22.60200,18.19666367
22.60250,26.43691268
22.60300,24.30055182
22.60350,14.83952519
22.60400,6.599276178
22.60450,2.936943286
22.60500,0.1901936164
22.60550,-1.64097283
22.60600,-0.420195199
22.60650,3.547332101
22.60700,6.599276178
22.60750,5.378498547
22.60800,2.936943286
22.60850,2.021360063
22.60900,1.410971247
22.60950,-0.1150007913
22.61000,-0.1150007913
22.61050,3.852526509
22.61100,5.07330414
22.61150,-4.998111315
22.61200,-25.14094222
22.61250,-43.14741228
22.61300,-50.16688365
22.61350,-49.55649484
22.61400,-45.28377313
22.61450,-33.99158005
22.61500,-15.06952677
22.61550,1.105776839
22.61600,2.936943286
22.61650,-6.524083353
22.61700,-10.79680506
22.61750,2.021360063
22.61800,20.33302452
22.61850,20.63821893
22.61900,-2.251361645
22.61950,-25.75133104
22.62000,-24.225359
22.62050,-0.1150007913
22.62100,21.24860775
22.62150,28.26807912
22.62200,31.93041202
22.62250,37.11871695
22.62300,26.43691268
22.62350,-9.57602743
22.62400,-44.36818991
22.62450,-43.14741228
22.62500,-13.84874914
22.62550,-0.1150007913
22.62600,-20.2578317
22.62650,-43.45260668
22.62700,-33.07599682
22.62750,-1.64097283
22.62800,7.209664994
22.62850,-19.03705407
22.62900,-47.42013399
22.62950,-45.28377313
22.63000,-22.08899815
22.63050,-10.79680506
22.63100,-22.08899815
22.63150,-36.43313531
22.63200,-35.82274649
22.63250,-23.61497018
22.63300,-11.40719388
22.63350,-2.251361645
22.63400,1.410971247
22.63450,-5.913694538
22.63500,-19.95263729
22.63550,-16.90069321
22.63600,16.36549722
22.63650,59.70310312
22.63700,76.18360113
22.63750,58.48232549
22.63800,31.01482879
22.63850,18.80705249
22.63900,24.30055182
22.63950,40.17066103
22.64000,58.17713108
22.64050,68.55374094
22.64100,60.92388075
22.64150,37.42391136
22.64200,12.39796992
22.64250,-2.556556053
22.64300,-8.050055392
22.64350,-7.439666576
22.64400,-1.335778422
22.64450,9.04083144
22.64500,20.02783012
22.64550,28.57327353
22.64600,33.15118965
22.64650,30.09924557
22.64700,16.97588604
22.64750,0.8005824318
22.64800,-5.60850013
22.64850,0.1901936164
22.64900,9.956414663
22.64950,12.09277552
22.65000,5.378498547
22.65050,-2.861750461
22.65100,-7.744860984
22.65150,-9.57602743
22.65200,-11.10199947
22.65250,-11.71238828
22.65300,-8.050055392
22.65350,-1.946167238
22.65400,-1.335778422
22.65450,-13.54355473
22.65500,-32.1604136
22.65550,-43.75780109
22.65600,-43.14741228
22.65650,-38.87469057
22.65700,-38.56949616
22.65750,-39.17988498
22.65800,-31.85521919
22.65850,-12.62797151
22.65900,14.83952519
22.65950,42.30702188
22.66000,56.95635345
22.66050,51.76804852
22.66100,30.70963439
22.66150,6.904470586
22.66200,-9.881221838
22.66250,-18.73185966
22.66300,-20.2578317
22.66350,-14.76433236
22.66400,-7.439666576
22.66450,-4.082528091
22.66500,-2.251361645
22.66550,6.29408177
22.66600,19.11224689
22.66650,21.85899656
22.66700,6.29408177
22.66750,-17.81627644
22.66800,-37.95910735
22.66850,-48.64091162
22.66900,-51.08246688
22.66950,-47.11493958
22.67000,-40.70585702
22.67050,-36.1279409
22.67100,-25.44613663
22.67150,4.768109732
22.67200,51.76804852
22.67250,85.94982218
22.67300,81.67710047
22.67350,48.71610444
22.67400,18.80705249
22.67450,8.125248217
22.67500,6.599276178
22.67550,1.105776839
22.67600,-7.134472168
22.67650,-11.71238828
22.67700,-12.3227771
22.67750,-13.84874914
22.67800,-16.90069321
22.67850,-16.90069321
22.67900,-10.49161065
22.67950,-0.1150007913
22.68000,6.599276178
22.68050,3.242137693
22.68100,-5.60850013
22.68150,-10.18641625
22.68200,-2.251361645
22.68250,13.61874756
22.68300,27.96288472
22.68350,32.84599524
22.68400,30.09924557
22.68450,25.82652386
22.68500,24.30055182
22.68550,24.91094064
22.68600,23.07977419
22.68650,17.58627486
22.68700,11.78758111
22.68750,7.209664994
22.68800,-0.1150007913
22.68850,-14.45913795
22.68900,-30.02405275
22.68950,-36.43313531
22.69000,-31.85521919
22.69050,-22.39419255
22.69100,-15.37472118
22.69150,-10.49161065
22.69200,-5.303305722
22.69250,0.1901936164
22.69300,5.378498547
22.69350,7.514859401
22.69400,4.157720917
22.69450,-3.777333684
22.69500,-10.18641625
22.69550,-11.40719388
22.69600,-10.18641625
22.69650,-8.355249799
22.69700,-0.7253896067
22.69750,14.22913637
22.69800,23.99535742
22.69850,13.00835874
22.69900,-9.57602743
22.69950,-23.92016459
22.70000,-23.61497018
22.70050,-23.61497018
22.70100,-32.1604136
22.70150,-38.87469057
22.70200,-36.43313531
22.70250,-30.32924715
22.70300,-26.97210867
22.70350,-23.92016459
22.70400,-21.78380374
22.70450,-27.58249748
22.70500,-36.73832972
22.70550,-32.46560801
22.70600,-12.93316591
22.70650,2.32655447
22.70700,4.768109732
22.70750,15.75510841
22.70800,55.125187
22.70850,100.5991538
22.70900,107.6186251
22.70950,63.0602416
22.71000,-1.64097283
22.71050,-48.33571721
22.71100,-64.20582641
22.71150,-58.10193825
22.71200,-40.40066261
22.71250,-14.45913795
22.71300,16.97588604
22.71350,49.93688207
22.71400,74.35243469
22.71450,78.31996199
22.71500,59.39790871
22.71550,31.62521761
22.71600,15.75510841
22.71650,16.36549722
22.71700,16.06030282
22.71750,-0.7253896067
22.71800,-25.75133104
22.71850,-36.43313531
22.71900,-26.97210867
22.71950,-13.84874914
22.72000,-12.01758269
22.72050,-15.37472118
22.72100,-11.10199947
22.72150,-4.082528091
22.72200,-10.79680506
22.72250,-33.99158005
22.72300,-59.32271589
22.72350,-72.44607542
22.72400,-70.30971456
22.72450,-53.21882773
22.72500,-18.12147085
22.72550,26.43691268
22.72600,58.17713108
22.72650,58.17713108
22.72700,32.84599524
22.72750,6.29408177
22.72800,-4.998111315
22.72850,-4.998111315
22.72900,-6.829277761
22.72950,-16.90069321
22.73000,-28.1928863
22.73050,-28.49808071
22.73100,-19.34224848
22.73150,-13.84874914
22.73200,-17.81627644
22.73250,-18.42666525
22.73300,-1.946167238
22.73350,23.69016301
22.73400,37.11871695
22.73450,31.93041202
22.73500,24.60574623
22.73550,28.57327353
22.73600,37.11871695
22.73650,38.33949458
22.73700,32.54080083
22.73750,27.96288472
22.73800,25.52132946
22.73850,20.63821893
22.73900,13.31355315
22.73950,9.346025847
22.74000,11.17719229
22.74050,15.75510841
22.74100,18.50185808
22.74150,15.14471959
22.74200,5.683692955
22.74250,-2.861750461
22.74300,-5.303305722
22.74350,-2.861750461
22.74400,-2.556556053
22.74450,-4.692916907
22.74500,-3.777333684
22.74550,-0.7253896067
22.74600,-3.472139276
22.74650,-15.98510999
22.74700,-30.02405275
22.74750,-38.26430175
22.74800,-39.79027379
22.74850,-37.34871853
22.74900,-32.1604136
22.74950,-26.97210867
22.75000,-22.69938696
22.75050,-10.18641625
22.75100,23.07977419
22.75150,70.38490739
22.75200,101.8199314
22.75250,95.71604323
22.75300,64.58621364
22.75350,36.50832813
22.75400,22.77457979
22.75450,14.83952519
22.75500,5.07330414
22.75550,-2.556556053
22.75600,-5.303305722
22.75650,-5.303305722
22.75700,-6.218888945
22.75750,-7.134472168
22.75800,-8.355249799
22.75850,-12.3227771
22.75900,-18.73185966
22.75950,-23.00458137
22.76000,-23.30977578
22.76050,-21.47860933
22.76100,-18.12147085
22.76150,-12.93316591
22.76200,-7.439666576
22.76250,-5.60850013
22.76300,-4.692916907
22.76350,2.32655447
22.76400,16.06030282
22.76450,24.30055182
22.76500,14.53433078
22.76550,-8.050055392
22.76600,-24.53055341
22.76650,-22.39419255
22.76700,-8.965638615
22.76750,0.1901936164
22.76800,-0.1150007913
22.76850,-6.524083353
22.76900,-12.01758269
22.76950,-13.54355473
22.77000,-8.355249799
22.77050,3.242137693
22.77100,16.97588604
22.77150,23.69016301
22.77200,20.02783012
22.77250,13.31355315
22.77300,11.78758111
22.77350,13.92394196
22.77400,10.26160907
22.77450,-4.387722499
22.77500,-22.39419255
22.77550,-29.10846952
22.77600,-24.53055341
22.77650,-25.44613663
22.77700,-43.14741228
22.77750,-66.64738167
22.77800,-74.58243627
22.77850,-59.62791029
22.77900,-33.68638564
22.77950,-9.270833022
22.78000,8.430442624
22.78050,15.75510841
22.78100,11.17719229
22.78150,4.768109732
22.78200,8.735637032
22.78250,17.89146926
22.78300,12.09277552
22.78350,-14.15394355
22.78400,-46.50455076
22.78450,-66.64738167
22.78500,-68.78374252
22.78550,-55.66038299
22.78600,-36.43313531
22.78650,-24.83574782
22.78700,-22.39419255
22.78750,-2.556556053
22.78800,58.48232549
22.78850,136.6120939
22.78900,174.151006
22.78950,146.6835093
22.79000,85.03423896
22.79050,29.18366235
22.79100,-11.40719388
22.79150,-39.48507938
22.79200,-44.36818991
22.79250,-22.69938696
22.79300,4.462915324
22.79350,16.36549722
22.79400,16.06030282
22.79450,17.28108045
22.79500,20.02783012
22.79550,16.36549722
22.79600,8.735637032
22.79650,3.547332101
22.79700,0.1901936164
22.79750,-2.556556053
22.79800,-5.60850013
22.79850,-12.93316591
22.79900,-32.77080242
22.79950,-55.35518859
22.80000,-59.01752148
22.80050,-38.56949616
22.80100,-16.90069321
22.80150,-15.06952677
22.80200,-28.1928863
22.80250,-40.70585702
22.80300,-45.58896754
22.80350,-43.45260668
22.80400,-33.68638564
22.80450,-19.34224848
22.80500,-7.134472168
22.80550,4.768109732
22.80600,24.30055182
22.80650,45.96935477
22.80700,54.51479819
22.80750,46.88493799
22.80800,37.42391136
22.80850,34.06677287
22.80900,30.70963439
22.80950,25.82652386
22.81000,25.21613505
22.81050,26.74210709
22.81100,16.06030282
22.81150,-6.524083353
22.81200,-25.14094222
22.81250,-30.02405275
22.81300,-31.24483038
22.81350,-34.29677445
22.81400,-27.88769189
22.81450,-7.134472168
22.81500,15.14471959
22.81550,30.09924557
22.81600,42.30702188
22.81650,53.29402056
22.81700,49.32649326
22.81750,24.91094064
22.81800,-0.420195199
22.81850,-6.218888945
22.81900,1.716165655
22.81950,5.683692955
22.82000,3.547332101
22.82050,5.07330414
22.82100,9.956414663
22.82150,6.29408177
22.82200,-5.913694538
22.82250,-13.84874914
22.82300,-8.965638615
22.82350,-0.7253896067
22.82400,-1.946167238
22.82450,-11.10199947
22.82500,-16.2903044
22.82550,-11.10199947
22.82600,-1.335778422
22.82650,3.242137693
22.82700,3.242137693
22.82750,3.547332101
22.82800,2.936943286
22.82850,-4.387722499
22.82900,-20.56302611
22.82950,-34.90716327
22.83000,-40.40066261
22.83050,-41.01105142
22.83100,-43.14741228
22.83150,-46.50455076
22.83200,-45.58896754
22.83250,-35.82274649
22.83300,-11.40719388
22.83350,31.62521761
22.83400,80.76151725
22.83450,106.3978475
22.83500,89.91734948
22.83550,48.71610444
22.83600,19.4174413
22.83650,19.72263571
22.83700,37.42391136
22.83750,50.54727089
22.83800,45.66416036
22.83850,20.94341334
22.83900,-12.93316591
22.83950,-36.1279409
22.84000,-36.1279409
22.84050,-21.78380374
22.84100,-12.3227771
22.84150,-12.62797151
22.84200,-13.84874914
22.84250,-11.71238828
22.84300,-11.10199947
22.84350,-15.06952677
22.84400,-18.42666525
22.84450,-20.2578317
22.84500,-25.44613663
22.84550,-35.21235768
22.84600,-39.79027379
22.84650,-32.77080242
22.84700,-18.42666525
22.84750,-4.692916907
22.84800,5.07330414
22.84850,12.39796992
22.84900,18.80705249
22.84950,25.52132946
22.85000,30.70963439
22.85050,27.96288472
22.85100,13.31355315
22.85150,-3.472139276
22.85200,-11.40719388
22.85250,-12.93316591
22.85300,-19.64744288
22.85350,-32.46560801
22.85400,-38.26430175
22.85450,-29.71885834
22.85500,-12.93316591
22.85550,5.988887363
22.85600,28.87846794
22.85650,49.32649326
22.85700,52.37843733
22.85750,34.67716169
22.85800,12.09277552
22.85850,-0.7253896067
22.85900,-12.62797151
22.85950,-32.46560801
22.86000,-46.80974517
22.86050,-36.43313531
22.86100,-4.998111315
22.86150,20.63821893
22.86200,24.91094064
22.86250,14.53433078
22.86300,4.462915324
22.86350,-0.1150007913
22.86400,-0.1150007913
22.86450,1.105776839
22.86500,0.4953880241
22.86550,-1.335778422
22.86600,-2.556556053
22.86650,-2.251361645
22.86700,-8.050055392
22.86750,-22.08899815
22.86800,-33.68638564
22.86850,-33.07599682
22.86900,-24.53055341
22.86950,-15.98510999
22.87000,-5.60850013
22.87050,7.209664994
22.87100,9.651220255
22.87150,-5.303305722
22.87200,-16.90069321
22.87250,-0.420195199
22.87300,27.65769031
22.87350,26.74210709
22.87400,-8.355249799
22.87450,-35.82274649
22.87500,-23.92016459
22.87550,4.462915324
22.87600,13.61874756
22.87650,0.8005824318
22.87700,-11.10199947
22.87750,-16.2903044
22.87800,-23.92016459
22.87850,-31.85521919
22.87900,-30.32924715
22.87950,-25.14094222
22.88000,-31.85521919
22.88050,-46.80974517
22.88100,-43.45260668
22.88150,-7.134472168
22.88200,45.96935477
22.88250,85.33943337
22.88300,94.19007119
22.88350,75.26801791
22.88400,43.2226051
22.88450,11.4823867
22.88500,-10.49161065
22.88550,-19.03705407
22.88600,-14.76433236
22.88650,-2.251361645
22.88700,8.735637032
22.88750,10.56680348
22.88800,5.683692955
22.88850,2.936943286
22.88900,4.157720917
22.88950,3.852526509
22.89000,2.936943286
22.89050,8.125248217
22.89100,17.89146926
22.89150,18.19666367
22.89200,4.157720917
22.89250,-8.965638615
22.89300,-7.744860984
22.89350,1.716165655
22.89400,4.768109732
22.89450,1.105776839
22.89500,1.410971247
22.89550,5.683692955
22.89600,3.547332101
22.89650,-5.303305722
22.89700,-12.62797151
22.89750,-13.23836032
22.89800,-11.71238828
22.89850,-10.79680506
22.89900,-6.524083353
22.89950,0.8005824318
22.90000,8.735637032
22.90050,15.449914
22.90100,23.69016301
22.90150,29.48885676
22.90200,27.04730149
22.90250,20.02783012
22.90300,16.36549722
22.90350,13.00835874
22.90400,-1.335778422
22.90450,-26.05652545
22.90500,-44.36818991
22.90550,-45.58896754
22.90600,-37.95910735
22.90650,-33.07599682
22.90700,-31.24483038
22.90750,-27.27730308
22.90800,-21.47860933
22.90850,-11.71238828
22.90900,10.56680348
22.90950,42.00182747
22.91000,61.22907516
22.91050,51.1576597
22.91100,23.3849686
22.91150,1.410971247
22.91200,-6.829277761
22.91250,-9.57602743
22.91300,-8.355249799
22.91350,2.936943286
22.91400,23.3849686
22.91450,38.64468899
22.91500,37.72910576
22.91550,23.99535742
22.91600,10.56680348
22.91650,8.125248217
22.91700,14.53433078
22.91750,14.53433078
22.91800,-4.998111315
22.91850,-34.29677445
22.91900,-46.19935635
22.91950,-33.07599682
22.92000,-19.34224848
22.92050,-27.27730308
22.92100,-47.42013399
22.92150,-54.43960536
22.92200,-47.11493958
22.92250,-42.84221787
22.92300,-48.64091162
22.92350,-51.9980501
22.92400,-42.84221787
22.92450,-20.2578317
22.92500,14.83952519
22.92550,60.00829753
22.92600,96.63162645
22.92650,101.8199314
22.92700,74.6576291
22.92750,40.47585543
22.92800,21.85899656
22.92850,18.19666367
22.92900,16.67069163
22.92950,9.04083144
22.93000,-4.082528091
22.93050,-21.47860933
22.93100,-37.65391294
22.93150,-45.89416195
22.93200,-43.75780109
22.93250,-37.34871853
22.93300,-36.73832972
22.93350,-42.84221787
22.93400,-44.0629955
22.93450,-23.92016459
22.93500,21.24860775
22.93550,70.38490739
22.93600,89.91734948
22.93650,67.0277689
22.93700,20.33302452
22.93750,-15.98510999
22.93800,-23.92016459
22.93850,-3.777333684
22.93900,32.54080083
22.93950,69.46932416
22.94000,88.39137744
22.94050,81.98229488
22.94100,57.87193667
22.94150,30.40443998
22.94200,7.514859401
22.94250,-6.524083353
22.94300,-12.3227771
22.94350,-15.37472118
22.94400,-25.75133104
22.94450,-41.31624583
22.94500,-46.50455076
22.94550,-32.77080242
22.94600,-15.37472118
22.94650,-12.93316591
22.94700,-22.39419255
22.94750,-27.88769189
22.94800,-23.92016459
22.94850,-16.59549881
22.94900,-9.270833022
22.94950,-3.777333684
22.95000,-6.218888945
22.95050,-21.47860933
22.95100,-38.56949616
22.95150,-38.26430175
22.95200,-18.73185966
22.95250,3.547332101
22.95300,15.14471959
22.95350,14.53433078
22.95400,7.820053809
22.95450,0.1901936164
22.95500,-4.082528091
22.95550,-4.082528091
22.95600,-4.387722499
22.95650,-11.10199947
22.95700,-19.64744288
22.95750,-19.34224848
22.95800,-8.660444207
22.95850,2.021360063
22.95900,4.157720917
22.95950,1.105776839
22.96000,1.105776839
22.96050,6.29408177
22.96100,11.78758111
22.96150,13.31355315
22.96200,13.31355315
22.96250,14.83952519
22.96300,13.00835874
22.96350,-1.335778422
22.96400,-25.75133104
22.96450,-42.23182905
22.96500,-37.65391294
22.96550,-24.83574782
22.96600,-26.66691426
22.96650,-42.84221787
22.96700,-49.25130043
22.96750,-32.46560801
22.96800,-3.166944868
22.96850,23.69016301
22.96900,46.88493799
22.96950,64.28101923
22.97000,67.0277689
22.97050,53.90440937
22.97100,41.69663306
22.97150,42.61221629
22.97200,45.35896596
22.97250,34.06677287
22.97300,13.00835874
22.97350,-1.335778422
22.97400,-9.57602743
22.97450,-24.53055341
22.97500,-45.89416195
22.97550,-54.13441095
22.97600,-37.95910735
22.97650,-10.79680506
22.97700,5.988887363
22.97750,9.346025847
22.97800,9.346025847
22.97850,11.17719229
22.97900,10.26160907
22.97950,2.936943286
22.98000,-5.60850013
22.98050,-9.881221838
22.98100,-8.965638615
22.98150,-5.303305722
22.98200,-1.030584014
22.98250,2.021360063
22.98300,2.32655447
22.98350,0.8005824318
22.98400,0.8005824318
22.98450,2.021360063
22.98500,-1.030584014
22.98550,-11.10199947
22.98600,-20.2578317
22.98650,-21.78380374
22.98700,-15.98510999
22.98750,-5.60850013
22.98800,5.988887363
22.98850,17.28108045
22.98900,24.60574623
22.98950,31.93041202
22.99000,44.13818833
22.99050,54.51479819
22.99100,49.32649326
22.99150,31.3200232
22.99200,20.02783012
22.99250,20.02783012
22.99300,7.209664994
22.99350,-34.60196886
22.99400,-78.24476916
22.99450,-82.51749087
22.99500,-48.33571721
22.99550,-13.54355473
22.99600,-2.556556053
22.99650,-4.082528091
22.99700,-1.64097283
22.99750,0.8005824318
22.99800,-3.472139276
22.99850,-10.49161065
22.99900,-11.10199947
22.99950,-5.60850013
23.00000,2.021360063
23.00050,9.346025847
23.00100,12.70316433
23.00150,9.04083144
23.00200,5.07330414
23.00250,8.125248217
23.00300,12.70316433
23.00350,7.820053809
23.00400,-4.387722499
23.00450,-13.23836032
23.00500,-17.20588762
23.00550,-25.14094222
23.00600,-33.99158005
23.00650,-30.02405275
23.00700,-15.67991558
23.00750,-8.965638615
23.00800,-17.51108203
23.00850,-25.75133104
23.00900,-21.78380374
23.00950,-12.62797151
23.01000,-6.218888945
23.01050,0.4953880241
23.01100,10.26160907
23.01150,16.97588604
23.01200,21.55380216
23.01250,34.67716169
23.01300,55.73557582
23.01350,63.67063042
23.01400,44.74857714
23.01450,13.31355315
23.01500,-9.881221838
23.01550,-20.86822052
23.01600,-25.14094222
23.01650,-24.225359
23.01700,-18.73185966
23.01750,-14.15394355
23.01800,-9.270833022
23.01850,7.514859401
23.01900,41.39143866
23.01950,76.79398995
23.02000,92.66409915
23.02050,82.5926837
23.02100,60.31349193
23.02150,45.66416036
23.02200,48.41091003
23.02250,56.65115904
23.02300,47.49532681
23.02350,20.63821893
23.02400,2.936943286
23.02450,8.735637032
23.02500,6.599276178
23.02550,-40.40066261
23.02600,-114.2577093
23.02650,-155.1537599
23.02700,-139.5888451
23.02750,-97.77721126
23.02800,-63.29024319
23.02850,-36.73832972
23.02900,-14.45913795
23.02950,-4.998111315
23.03000,-2.861750461
23.03050,17.28108045
23.03100,60.00829753
23.03150,90.22254389
23.03200,79.54073962
23.03250,45.05377155
23.03300,20.33302452
23.03350,11.17719229
23.03400,3.242137693
23.03450,-7.744860984
23.03500,-15.98510999
23.03550,-18.73185966
23.03600,-18.12147085
23.03650,-15.67991558
23.03700,-15.06952677
23.03750,-18.73185966
23.03800,-19.34224848
23.03850,-5.913694538
23.03900,12.70316433
23.03950,13.61874756
23.04000,-6.829277761
23.04050,-23.00458137
23.04100,-13.84874914
23.04150,9.04083144
23.04200,21.24860775
23.04250,18.19666367
23.04300,12.70316433
23.04350,11.17719229
23.04400,12.70316433
23.04450,16.67069163
23.04500,23.07977419
23.04550,26.13171827
23.04600,20.33302452
23.04650,9.346025847
23.04700,-0.1150007913
23.04750,-6.829277761
23.04800,-12.62797151
23.04850,-16.2903044
23.04900,-14.45913795
23.04950,-9.270833022
23.05000,-6.524083353
23.05050,-11.10199947
23.05100,-21.17341492
23.05150,-30.63444156
23.05200,-33.07599682
23.05250,-26.36171985
23.05300,-16.59549881
23.05350,-11.40719388
23.05400,-11.10199947
23.05450,-10.18641625
23.05500,-6.524083353
23.05550,-3.166944868
23.05600,-2.861750461
23.05650,-3.166944868
23.05700,-0.1150007913
23.05750,5.378498547
23.05800,9.651220255
23.05850,12.09277552
23.05900,14.83952519
23.05950,16.97588604
23.06000,13.31355315
23.06050,1.105776839
23.06100,-12.93316591
23.06150,-20.56302611
23.06200,-20.86822052
23.06250,-20.2578317
23.06300,-19.03705407
23.06350,-9.881221838
23.06400,7.820053809
23.06450,23.3849686
23.06500,26.13171827
23.06550,21.24860775
23.06600,20.02783012
23.06650,20.63821893
23.06700,14.22913637
23.06750,1.716165655
23.06800,-6.829277761
23.06850,-8.355249799
23.06900,-8.660444207
23.06950,-12.3227771
23.07000,-17.20588762
23.07050,-21.17341492
23.07100,-24.83574782
23.07150,-27.27730308
23.07200,-28.80327512
23.07250,-30.63444156
23.07300,-33.68638564
23.07350,-32.77080242
23.07400,-24.53055341
23.07450,-12.62797151
23.07500,-1.64097283
23.07550,9.956414663
23.07600,23.99535742
23.07650,35.89793932
23.07700,42.30702188
23.07750,42.91741069
23.07800,31.93041202
23.07850,3.852526509
23.07900,-28.1928863
23.07950,-37.34871853
23.08000,-16.90069321
23.08050,2.32655447
23.08100,-9.57602743
23.08150,-42.23182905
23.08200,-59.9331047
23.08250,-48.0305228
23.08300,-18.73185966
23.08350,13.00835874
23.08400,41.08624425
23.08450,55.43038141
23.08500,50.24207648
23.08550,34.98235609
23.08600,23.99535742
23.08650,16.67069163
23.08700,2.32655447
23.08750,-18.12147085
23.08800,-34.29677445
23.08850,-40.40066261
23.08900,-37.65391294
23.08950,-30.02405275
23.09000,-22.08899815
23.09050,-19.64744288
23.09100,-13.54355473
23.09150,16.06030282
23.09200,68.24854653
23.09250,104.5666811
23.09300,92.66409915
23.09350,47.80052122
23.09400,14.83952519
23.09450,10.87199789
23.09500,16.36549722
23.09550,13.00835874
23.09600,5.683692955
23.09650,5.683692955
23.09700,9.956414663
23.09750,10.87199789
23.09800,7.209664994
23.09850,1.716165655
23.09900,-4.082528091
23.09950,-11.71238828
23.10000,-20.2578317
23.10050,-28.49808071
23.10100,-34.60196886
23.10150,-37.34871853
23.10200,-35.51755208
23.10250,-29.41366393
23.10300,-22.39419255
23.10350,-18.73185966
23.10400,-18.12147085
23.10450,-9.57602743
23.10500,20.33302452
23.10550,65.80699127
23.10600,95.41084882
23.10650,85.03423896
23.10700,45.66416036
23.10750,9.651220255
23.10800,-7.134472168
23.10850,-11.71238828
23.10900,-11.40719388
23.10950,-6.829277761
23.11000,-2.556556053
23.11050,-6.524083353
23.11100,-10.18641625
23.11150,2.936943286
23.11200,27.3524959
23.11250,34.06677287
23.11300,10.87199789
23.11350,-17.51108203
23.11400,-22.39419255
23.11450,-8.660444207
23.11500,-0.1150007913
23.11550,-3.166944868
23.11600,-4.387722499
23.11650,2.32655447
23.11700,8.430442624
23.11750,7.820053809
23.11800,7.514859401
23.11850,11.78758111
23.11900,15.14471959
23.11950,10.26160907
23.12000,0.4953880241
23.12050,-9.270833022
23.12100,-21.78380374
23.12150,-38.56949616
23.12200,-52.91363332
23.12250,-55.04999418
23.12300,-45.89416195
23.12350,-35.51755208
23.12400,-34.90716327
23.12450,-42.84221787
23.12500,-46.19935635
23.12550,-28.49808071
23.12600,9.04083144
23.12650,44.44338273
23.12700,56.34596463
23.12750,54.20960378
23.12800,61.53426956
23.12850,78.01476758
23.12900,71.60568502
23.12950,27.04730149
23.13000,-25.44613663
23.13050,-48.0305228
23.13100,-41.92663465
23.13150,-36.73832972
23.13200,-43.45260668
23.13250,-45.89416195
23.13300,-36.1279409
23.13350,-28.80327512
23.13400,-34.60196886
23.13450,-43.14741228
23.13500,-41.31624583
23.13550,-32.77080242
23.13600,-25.75133104
23.13650,-19.64744288
23.13700,-11.71238828
23.13750,-7.744860984
23.13800,-9.270833022
23.13850,-8.355249799
23.13900,-0.1150007913
23.13950,8.430442624
23.14000,9.346025847
23.14050,6.599276178
23.14100,8.735637032
23.14150,10.87199789
23.14200,2.021360063
23.14250,-12.3227771
23.14300,-12.3227771
23.14350,12.09277552
23.14400,43.83299392
23.14450,57.26154786
23.14500,46.57974359
23.14550,28.26807912
23.14600,17.58627486
23.14650,14.53433078
23.14700,11.4823867
23.14750,9.346025847
23.14800,12.39796992
23.14850,17.89146926
23.14900,15.75510841
23.14950,6.599276178
23.15000,-0.1150007913
23.15050,0.4953880241
23.15100,-0.7253896067
23.15150,-9.270833022
23.15200,-15.98510999
23.15250,-9.270833022
23.15300,5.378498547
23.15350,15.449914
23.15400,16.36549722
23.15450,15.14471959
23.15500,14.83952519
23.15550,10.87199789
23.15600,1.105776839
23.15650,-7.744860984
23.15700,-11.40719388
23.15750,-10.49161065
23.15800,-8.050055392
23.15850,-5.60850013
23.15900,-1.64097283
23.15950,3.547332101
23.16000,8.125248217
23.16050,9.04083144
23.16100,4.462915324
23.16150,-1.64097283
23.16200,-3.777333684
23.16250,-0.7253896067
23.16300,2.32655447
23.16350,4.462915324
23.16400,6.904470586
23.16450,10.26160907
23.16500,12.70316433
23.16550,18.80705249
23.16600,31.93041202
23.16650,40.78104984
23.16700,29.18366235
23.16750,2.32655447
23.16800,-12.3227771
23.16850,-5.60850013
23.16900,0.8005824318
23.16950,-7.439666576
23.17000,-12.93316591
23.17050,2.32655447
23.17100,18.80705249
23.17150,4.768109732
23.17200,-31.24483038
23.17250,-51.38766129
23.17300,-44.0629955
23.17350,-37.34871853
23.17400,-52.91363332
23.17450,-77.63438035
23.17500,-88.31618462
23.17550,-74.58243627
23.17600,-37.65391294
23.17650,17.89146926
23.17700,73.74204587
23.17750,103.9562922
23.17800,100.9043482
23.17850,82.28748929
23.17900,65.80699127
23.17950,49.93688207
23.18000,29.48885676
23.18050,10.26160907
23.18100,0.8005824318
23.18150,-1.946167238
23.18200,-4.082528091
23.18250,-6.218888945
23.18300,-8.660444207
23.18350,-15.37472118
23.18400,-26.66691426
23.18450,-32.46560801
23.18500,-28.49808071
23.18550,-23.00458137
23.18600,-24.225359
23.18650,-27.58249748
23.18700,-24.53055341
23.18750,-18.12147085
23.18800,-15.67991558
23.18850,-13.84874914
23.18900,-3.166944868
23.18950,15.14471959
23.19000,29.79405116
23.19050,34.06677287
23.19100,33.45638406
23.19150,32.23560643
23.19200,29.18366235
23.19250,24.30055182
23.19300,20.94341334
23.19350,17.58627486
23.19400,8.735637032
23.19450,-5.303305722
23.19500,-15.98510999
23.19550,-21.78380374
23.19600,-31.24483038
23.19650,-47.11493958
23.19700,-55.66038299
23.19750,-41.62144024
23.19800,-10.18641625
23.19850,18.19666367
23.19900,32.23560643
23.19950,35.89793932
23.20000,35.2875505
23.20050,30.09924557
23.20100,20.02783012
23.20150,9.346025847
23.20200,2.021360063
23.20250,-2.251361645
23.20300,-4.998111315
23.20350,-6.524083353
23.20400,-12.93316591
23.20450,-29.10846952
23.20500,-48.64091162
23.20550,-55.35518859
23.20600,-44.67338432
23.20650,-31.85521919
23.20700,-31.24483038
23.20750,-35.51755208
23.20800,-26.66691426
23.20850,-2.861750461
23.20900,17.58627486
23.20950,23.69016301
23.21000,17.58627486
23.21050,6.29408177
23.21100,-5.303305722
23.21150,-5.60850013
23.21200,21.24860775
23.21250,68.55374094
23.21300,96.02123763
23.21350,73.13165706
23.21400,17.89146926
23.21450,-21.17341492
23.21500,-20.56302611
23.21550,1.716165655
23.21600,18.80705249
23.21650,24.91094064
23.21700,28.87846794
23.21750,32.23560643
23.21800,32.23560643
23.21850,27.96288472
23.21900,16.97588604
23.21950,-7.134472168
23.22000,-42.53702346
23.22050,-68.78374252
23.22100,-65.42660404
23.22150,-37.04352412
23.22200,-10.18641625
23.22250,-3.777333684
23.22300,-10.18641625
23.22350,-8.355249799
23.22400,10.26160907
23.22450,30.70963439
23.22500,33.15118965
23.22550,16.06030282
23.22600,-2.861750461
23.22650,-11.40719388
23.22700,-14.76433236
23.22750,-23.00458137
23.22800,-30.02405275
23.22850,-22.69938696
23.22900,-4.082528091
23.22950,3.547332101
23.23000,-9.881221838
23.23050,-28.80327512
23.23100,-31.24483038
23.23150,-18.12147085
23.23200,-8.355249799
23.23250,-12.01758269
23.23300,-20.86822052
23.23350,-24.53055341
23.23400,-22.08899815
23.23450,-17.51108203
23.23500,-14.76433236
23.23550,-16.90069321
23.23600,-24.53055341
23.23650,-28.1928863
23.23700,-15.06952677
23.23750,13.00835874
23.23800,36.50832813
23.23850,40.17066103
23.23900,31.93041202
23.23950,27.3524959
23.24000,25.52132946
23.24050,12.70316433
23.24100,-13.23836032
23.24150,-33.68638564
23.24200,-30.63444156
23.24250,-9.270833022
23.24300,9.651220255
23.24350,15.14471959
23.24400,13.92394196
23.24450,16.06030282
23.24500,18.80705249
23.24550,12.39796992
23.24600,-5.913694538
23.24650,-26.36171985
23.24700,-36.43313531
23.24750,-32.1604136
23.24800,-19.95263729
23.24850,-8.050055392
23.24900,-1.030584014
23.24950,2.32655447
23.25000,6.904470586
23.25050,16.36549722
23.25100,27.3524959
23.25150,34.06677287
23.25200,34.98235609
23.25250,32.54080083
23.25300,26.43691268
23.25350,13.92394196
23.25400,0.4953880241
23.25450,-1.64097283
23.25500,8.735637032
23.25550,16.67069163
23.25600,8.430442624
23.25650,-7.744860984
23.25700,-15.67991558
23.25750,-11.40719388
23.25800,-5.303305722
23.25850,-3.166944868
23.25900,-1.335778422
23.25950,1.410971247
23.26000,2.32655447
23.26050,2.631748878
23.26100,5.988887363
23.26150,8.735637032
23.26200,3.242137693
23.26250,-8.660444207
23.26300,-16.2903044
23.26350,-14.76433236
23.26400,-12.62797151
23.26450,-15.67991558
23.26500,-21.47860933
23.26550,-26.66691426
23.26600,-30.63444156
23.26650,-31.85521919
23.26700,-27.88769189
23.26750,-23.00458137
23.26800,-19.95263729
23.26850,-8.050055392
23.26900,26.43691268
23.26950,74.6576291
23.27000,103.6510978
23.27050,93.88487678
23.27100,61.22907516
23.27150,34.06677287
23.27200,18.50185808
23.27250,1.410971247
23.27300,-20.86822052
23.27350,-35.21235768
23.27400,-31.85521919
23.27450,-17.20588762
23.27500,-4.692916907
23.27550,1.105776839
23.27600,4.157720917
23.27650,7.209664994
23.27700,10.56680348
23.27750,14.83952519
23.27800,19.72263571
23.27850,23.99535742
23.27900,27.96288472
23.27950,32.84599524
23.28000,38.33949458
23.28050,40.17066103
23.28100,37.42391136
23.28150,31.62521761
23.28200,21.55380216
23.28250,-0.1150007913
23.28300,-36.1279409
23.28350,-70.00452015
23.28400,-80.99151883
23.28450,-66.03699285
23.28500,-46.80974517
23.28550,-43.75780109
23.28600,-55.04999418
23.28650,-63.29024319
23.28700,-56.57596622
23.28750,-34.90716327
23.28800,-6.524083353
23.28850,17.28108045
23.28900,26.74210709
23.28950,19.4174413
23.29000,1.716165655
23.29050,-18.73185966
23.29100,-37.04352412
23.29150,-44.36818991
23.29200,-32.77080242
23.29250,-9.57602743
23.29300,4.157720917
23.29350,2.021360063
23.29400,2.32655447
23.29450,27.96288472
23.29500,70.9952962
23.29550,99.98876493
23.29600,94.4952656
23.29650,65.19660246
23.29700,35.89793932
23.29750,22.16419097
23.29800,22.16419097
23.29850,24.30055182
23.29900,19.72263571
23.29950,10.87199789
23.30000,6.29408177
23.30050,8.125248217
23.30100,6.904470586
23.30150,-2.556556053
23.30200,-11.10199947
23.30250,-7.744860984
23.30300,4.768109732
23.30350,13.31355315
23.30400,11.4823867
23.30450,2.021360063
23.30500,-8.050055392
23.30550,-12.3227771
23.30600,-6.524083353
23.30650,-0.1150007913
23.30700,-11.71238828
23.30750,-42.23182905
23.30800,-62.67985437
23.30850,-48.94610602
23.30900,-15.98510999
23.30950,1.105776839
23.31000,-5.913694538
23.31050,-15.98510999
23.31100,-12.93316591
23.31150,-4.387722499
23.31200,-1.030584014
23.31250,0.4953880241
23.31300,5.378498547
23.31350,8.735637032
23.31400,6.904470586
23.31450,4.768109732
23.31500,4.768109732
23.31550,5.07330414
23.31600,6.904470586
23.31650,13.00835874
23.31700,16.36549722
23.31750,3.852526509
23.31800,-20.86822052
23.31850,-39.48507938
23.31900,-40.70585702
23.31950,-33.68638564
23.32000,-29.10846952
23.32050,-23.30977578
23.32100,-8.660444207
23.32150,10.87199789
23.32200,24.91094064
23.32250,28.87846794
23.32300,27.04730149
23.32350,22.77457979
23.32400,18.19666367
23.32450,14.53433078
23.32500,11.4823867
23.32550,9.651220255
23.32600,9.04083144
23.32650,8.430442624
23.32700,1.410971247
23.32750,-12.93316591
23.32800,-25.44613663
23.32850,-24.83574782
23.32900,-13.84874914
23.32950,-6.829277761
23.33000,-9.881221838
23.33050,-15.98510999
23.33100,-15.06952677
23.33150,-4.387722499
23.33200,10.26160907
23.33250,18.19666367
23.33300,13.00835874
23.33350,2.631748878
23.33400,-1.946167238
23.33450,-4.998111315
23.33500,-22.08899815
23.33550,-48.33571721
23.33600,-53.21882773
23.33650,-21.17341492
23.33700,16.97588604
23.33750,23.69016301
23.33800,5.378498547
23.33850,-3.472139276
23.33900,4.157720917
23.33950,5.683692955
23.34000,-7.744860984
23.34050,-18.42666525
23.34100,-16.90069321
23.34150,-14.76433236
23.34200,-11.71238828
23.34250,11.17719229
23.34300,55.125187
23.34350,82.28748929
23.34400,67.33296331
23.34450,31.62521761
23.34500,11.17719229
23.34550,8.430442624
23.34600,3.852526509
23.34650,-3.777333684
23.34700,-1.946167238
23.34750,3.547332101
23.34800,-5.60850013
23.34850,-30.02405275
23.34900,-45.28377313
23.34950,-38.56949616
23.35000,-22.69938696
23.35050,-11.10199947
23.35100,-2.556556053
23.35150,6.599276178
23.35200,11.4823867
23.35250,7.514859401
23.35300,0.1901936164
23.35350,-1.64097283
23.35400,1.410971247
23.35450,5.07330414
23.35500,5.07330414
23.35550,1.410971247
23.35600,-0.1150007913
23.35650,7.820053809
23.35700,25.21613505
23.35750,36.20313373
23.35800,23.99535742
23.35850,-5.913694538
23.35900,-29.71885834
23.35950,-32.46560801
23.36000,-22.08899815
23.36050,-13.23836032
23.36100,-9.57602743
23.36150,-7.744860984
23.36200,-8.355249799
23.36250,-13.84874914
23.36300,-20.86822052
23.36350,-19.64744288
23.36400,-8.050055392
23.36450,6.29408177
23.36500,12.09277552
23.36550,7.209664994
23.36600,2.631748878
23.36650,9.346025847
23.36700,27.65769031
23.36750,45.05377155
23.36800,49.63168766
23.36850,39.2550778
23.36900,22.16419097
23.36950,7.820053809
23.37000,2.32655447
23.37050,2.021360063
23.37100,-3.166944868
23.37150,-21.78380374
23.37200,-46.80974517
23.37250,-64.20582641
23.37300,-68.47854812
23.37350,-66.64738167
23.37400,-58.71232707
23.37450,-35.51755208
23.37500,4.462915324
23.37550,42.91741069
23.37600,57.26154786
23.37650,46.27454918
23.37700,26.43691268
23.37750,10.56680348
23.37800,-0.1150007913
23.37850,-4.082528091
23.37900,0.1901936164
23.37950,9.651220255
23.38000,13.00835874
23.38050,6.29408177
23.38100,0.4953880241
23.38150,3.547332101
23.38200,5.988887363
23.38250,-6.524083353
23.38300,-34.90716327
23.38350,-59.9331047
23.38400,-61.76427115
23.38450,-37.34871853
23.38500,-3.777333684
23.38550,14.22913637
23.38600,3.547332101
23.38650,-21.78380374
23.38700,-28.80327512
23.38750,7.209664994
23.38800,69.46932416
23.38850,112.1965412
23.38900,108.2290139
23.38950,77.70957317
23.39000,59.0927143
23.39050,60.61868634
23.39100,57.87193667
23.39150,34.06677287
23.39200,0.8005824318
23.39250,-20.56302611
23.39300,-29.41366393
23.39350,-33.99158005
23.39400,-37.34871853
23.39450,-38.26430175
23.39500,-39.79027379
23.39550,-42.84221787
23.39600,-35.21235768
23.39650,-10.18641625
23.39700,12.39796992
23.39750,2.631748878
23.39800,-39.48507938
23.39850,-77.32918594
23.39900,-78.85515798
23.39950,-52.60843892
23.40000,-26.66691426
23.40050,-14.45913795
23.40100,-9.57602743
23.40150,-6.829277761
23.40200,-5.913694538
23.40250,-2.556556053
23.40300,7.514859401
23.40350,15.449914
23.40400,5.988887363
23.40450,-15.67991558
23.40500,-27.27730308
23.40550,-16.2903044
23.40600,2.32655447
23.40650,10.26160907
23.40700,7.820053809
23.40750,6.904470586
23.40800,10.56680348
23.40850,12.70316433
23.40900,12.09277552
23.40950,11.78758111
23.41000,11.17719229
23.41050,7.514859401
23.41100,2.936943286
23.41150,2.936943286
23.41200,6.599276178
23.41250,9.346025847
23.41300,9.04083144
23.41350,9.04083144
23.41400,9.956414663
23.41450,10.26160907
23.41500,8.735637032
23.41550,6.599276178
23.41600,5.07330414
23.41650,7.209664994
23.41700,15.75510841
23.41750,27.65769031
23.41800,35.59274491
23.41850,36.20313373
23.41900,32.23560643
23.41950,26.43691268
23.42000,17.89146926
23.42050,6.599276178
23.42100,-3.472139276
23.42150,-10.79680506
23.42200,-15.98510999
23.42250,-16.59549881
23.42300,-9.881221838
23.42350,-1.030584014
23.42400,0.1901936164
23.42450,-1.946167238
23.42500,5.07330414
23.42550,22.46938538
23.42600,32.54080083
23.42650,21.55380216
23.42700,-0.7253896067
23.42750,-19.64744288
23.42800,-30.32924715
23.42850,-34.29677445
23.42900,-30.93963597
23.42950,-25.14094222
23.43000,-24.53055341
23.43050,-22.69938696
23.43100,0.1901936164
23.43150,42.30702188
23.43200,69.16412976
23.43250,56.34596463
23.43300,24.91094064
23.43350,11.17719229
23.43400,19.72263571
23.43450,27.96288472
23.43500,27.65769031
23.43550,27.65769031
23.43600,25.82652386
23.43650,10.56680348
23.43700,-10.49161065
23.43750,-13.23836032
23.43800,5.683692955
23.43850,22.77457979
23.43900,20.02783012
23.43950,9.04083144
23.44000,5.07330414
23.44050,4.157720917
23.44100,-1.946167238
23.44150,-6.829277761
23.44200,-2.251361645
23.44250,5.07330414
23.44300,4.768109732
23.44350,2.021360063
23.44400,7.820053809
23.44450,17.28108045
23.44500,12.39796992
23.44550,-8.355249799
23.44600,-24.83574782
23.44650,-23.00458137
23.44700,-17.51108203
23.44750,-27.58249748
23.44800,-45.89416195
23.44850,-46.19935635
23.44900,-21.17341492
23.44950,6.904470586
23.45000,15.75510841
23.45050,7.514859401
23.45100,-2.861750461
23.45150,-11.10199947
23.45200,-17.20588762
23.45250,-15.06952677
23.45300,-1.030584014
23.45350,13.31355315
23.45400,14.83952519
23.45450,7.209664994
23.45500,5.07330414
23.45550,6.904470586
23.45600,-1.030584014
23.45650,-22.08899815
23.45700,-38.87469057
23.45750,-41.92663465
23.45800,-41.92663465
23.45850,-50.16688365
23.45900,-58.40713266
23.45950,-54.13441095
23.46000,-40.0954682
23.46050,-31.85521919
23.46100,-32.1604136
23.46150,-26.05652545
23.46200,2.631748878
23.46250,49.02129885
23.46300,82.8978781
23.46350,79.84593403
23.46400,46.27454918
23.46450,16.36549722
23.46500,10.56680348
23.46550,11.4823867
23.46600,-4.387722499
23.46650,-26.97210867
23.46700,-22.39419255
23.46750,8.430442624
23.46800,24.91094064
23.46850,0.8005824318
23.46900,-36.43313531
23.46950,-44.97857872
23.47000,-26.05652545
23.47050,-13.84874914
23.47100,-22.69938696
23.47150,-32.77080242
23.47200,-28.80327512
23.47250,-21.17341492
23.47300,-21.78380374
23.47350,-22.69938696
23.47400,-10.79680506
23.47450,9.956414663
23.47500,26.43691268
23.47550,31.93041202
23.47600,29.18366235
23.47650,20.63821893
23.47700,8.735637032
23.47750,-4.387722499
23.47800,-20.2578317
23.47850,-39.48507938
23.47900,-54.74479977
23.47950,-52.91363332
23.48000,-35.21235768
23.48050,-20.56302611
23.48100,-16.59549881
23.48150,-4.387722499
23.48200,36.50832813
23.48250,88.08618303
23.48300,104.5666811
23.48350,69.16412976
23.48400,13.31355315
23.48450,-22.69938696
23.48500,-31.55002478
23.48550,-28.49808071
23.48600,-20.2578317
23.48650,-5.60850013
23.48700,8.735637032
23.48750,12.09277552
23.48800,12.70316433
23.48850,28.26807912
23.48900,54.20960378
23.48950,65.50179686
23.49000,52.68363174
23.49050,34.06677287
23.49100,23.3849686
23.49150,6.29408177
23.49200,-28.1928863
23.49250,-59.32271589
23.49300,-59.62791029
23.49350,-37.04352412
23.49400,-23.00458137
23.49450,-26.97210867
23.49500,-28.80327512
23.49550,-15.06952677
23.49600,0.1901936164
23.49650,5.07330414
23.49700,2.631748878
23.49750,0.4953880241
23.49800,-2.861750461
23.49850,-8.050055392
23.49900,-6.524083353
23.49950,3.547332101
23.50000,12.39796992
23.50050,13.00835874
23.50100,11.17719229
23.50150,13.61874756
23.50200,15.14471959
23.50250,7.209664994
23.50300,-9.57602743
23.50350,-26.36171985
23.50400,-35.51755208
23.50450,-32.77080242
23.50500,-20.86822052
23.50550,-11.10199947
23.50600,-9.270833022
23.50650,-3.777333684
23.50700,22.16419097
23.50750,64.28101923
23.50800,92.96929356
23.50850,84.72904455
23.50900,45.66416036
23.50950,1.105776839
23.51000,-28.49808071
23.51050,-33.68638564
23.51100,-16.90069321
23.51150,6.904470586
23.51200,18.80705249
23.51250,13.92394196
23.51300,6.29408177
23.51350,8.125248217
23.51400,15.14471959
23.51450,17.28108045
23.51500,12.70316433
23.51550,5.683692955
23.51600,-1.030584014
23.51650,-7.744860984
23.51700,-11.10199947
23.51750,-11.40719388
23.51800,-13.54355473
23.51850,-18.42666525
23.51900,-22.08899815
23.51950,-20.2578317
23.52000,-14.45913795
23.52050,-7.744860984
23.52100,0.4953880241
23.52150,11.4823867
23.52200,20.02783012
23.52250,20.63821893
23.52300,12.70316433
23.52350,0.1901936164
23.52400,-11.40719388
23.52450,-18.42666525
23.52500,-21.78380374
23.52550,-27.27730308
23.52600,-38.56949616
23.52650,-47.42013399
23.52700,-42.84221787
23.52750,-28.80327512
23.52800,-18.73185966
23.52850,-13.84874914
23.52900,-1.030584014
23.52950,22.77457979
23.53000,43.83299392
23.53050,48.41091003
23.53100,42.00182747
23.53150,37.11871695
23.53200,34.06677287
23.53250,25.82652386
23.53300,12.70316433
23.53350,0.1901936164
23.53400,-8.660444207
23.53450,-14.15394355
23.53500,-11.40719388
23.53550,-3.472139276
23.53600,-3.166944868
23.53650,-18.42666525
23.53700,-40.0954682
23.53750,-53.52402214
23.53800,-56.57596622
23.53850,-53.21882773
23.53900,-43.45260668
23.53950,-26.66691426
23.54000,-12.01758269
23.54050,-3.777333684
23.54100,10.87199789
23.54150,45.05377155
23.54200,81.67710047
23.54250,88.39137744
23.54300,61.53426956
23.54350,33.76157846
23.54400,33.76157846
23.54450,48.41091003
23.54500,46.27454918
23.54550,17.89146926
23.54600,-15.98510999
23.54650,-34.90716327
23.54700,-36.73832972
23.54750,-30.02405275
23.54800,-17.81627644
23.54850,-0.1150007913
23.54900,16.36549722
23.54950,20.33302452
23.55000,7.820053809
23.55050,-8.355249799
23.55100,-13.84874914
23.55150,-10.18641625
23.55200,-8.965638615
23.55250,-12.93316591
23.55300,-11.40719388
23.55350,3.242137693
23.55400,20.63821893
23.55450,24.30055182
23.55500,11.78758111
23.55550,-5.303305722
23.55600,-18.12147085
23.55650,-25.75133104
23.55700,-28.80327512
23.55750,-25.44613663
23.55800,-16.59549881
23.55850,-8.965638615
23.55900,-6.829277761
23.55950,-5.60850013
23.56000,-0.1150007913
23.56050,6.29408177
23.56100,6.904470586
23.56150,2.936943286
23.56200,1.105776839
23.56250,2.936943286
23.56300,1.105776839
23.56350,-5.913694538
23.56400,-11.40719388
23.56450,-10.49161065
23.56500,-7.744860984
23.56550,-7.134472168
23.56600,-4.082528091
23.56650,-0.420195199
23.56700,-4.998111315
23.56750,-19.95263729
23.56800,-30.93963597
23.56850,-24.53055341
23.56900,-8.355249799
23.56950,-0.1150007913
23.57000,-5.60850013
23.57050,-15.98510999
23.57100,-20.56302611
23.57150,-9.270833022
23.57200,23.3849686
23.57250,67.0277689
23.57300,94.4952656
23.57350,88.69657185
23.57400,61.83946397
23.57450,37.72910576
23.57500,26.43691268
23.57550,23.07977419
23.57600,22.77457979
23.57650,21.85899656
23.57700,16.36549722
23.57750,12.09277552
23.57800,16.06030282
23.57850,20.02783012
23.57900,5.683692955
23.57950,-22.08899815
23.58000,-33.38119123
23.58050,-15.06952677
23.58100,2.021360063
23.58150,-9.881221838
23.58200,-36.73832972
23.58250,-43.14741228
23.58300,-26.36171985
23.58350,-8.660444207
23.58400,-1.64097283
23.58450,0.1901936164
23.58500,-1.946167238
23.58550,-10.49161065
23.58600,-16.59549881
23.58650,-9.881221838
23.58700,-1.335778422
23.58750,-11.40719388
23.58800,-37.95910735
23.58850,-59.9331047
23.58900,-62.06946555
23.58950,-46.80974517
23.59000,-26.05652545
23.59050,-15.37472118
23.59100,-23.92016459
23.59150,-36.1279409
23.59200,-21.47860933
23.59250,25.52132946
23.59300,70.07971298
23.59350,75.57321232
23.59400,51.1576597
23.59450,32.23560643
23.59500,30.40443998
23.59550,26.74210709
23.59600,9.651220255
23.59650,-8.965638615
23.59700,-13.23836032
23.59750,-1.946167238
23.59800,16.06030282
23.59850,32.54080083
23.59900,40.47585543
23.59950,38.33949458
23.60000,34.67716169
23.60050,35.2875505
23.60100,32.23560643
23.60150,12.70316433
23.60200,-19.03705407
23.60250,-41.62144024
23.60300,-39.79027379
23.60350,-23.00458137
23.60400,-9.57602743
23.60450,-7.744860984
23.60500,-10.18641625
23.60550,-10.49161065
23.60600,-10.18641625
23.60650,-12.93316591
23.60700,-19.03705407
23.60750,-27.88769189
23.60800,-37.65391294
23.60850,-44.67338432
23.60900,-42.84221787
23.60950,-33.07599682
23.61000,-22.69938696
23.61050,-14.45913795
23.61100,-5.913694538
23.61150,4.462915324
23.61200,10.56680348
23.61250,8.430442624
23.61300,5.07330414
23.61350,9.956414663
23.61400,20.02783012
23.61450,24.30055182
23.61500,18.50185808
23.61550,9.346025847
23.61600,1.716165655
23.61650,-3.472139276
23.61700,-4.082528091
23.61750,2.32655447
23.61800,12.39796992
23.61850,16.67069163
23.61900,13.00835874
23.61950,9.04083144
23.62000,10.26160907
23.62050,13.61874756
23.62100,13.61874756
23.62150,9.956414663
23.62200,5.378498547
23.62250,2.631748878
23.62300,0.4953880241
23.62350,-0.1150007913
23.62400,0.8005824318
23.62450,2.631748878
23.62500,1.716165655
23.62550,-4.692916907
23.62600,-14.45913795
23.62650,-19.64744288
23.62700,-16.2903044
23.62750,-9.881221838
23.62800,-6.829277761
23.62850,-6.524083353
23.62900,-3.472139276
23.62950,-0.420195199
23.63000,-3.777333684
23.63050,-10.18641625
23.63100,-6.524083353
23.63150,6.599276178
23.63200,10.87199789
23.63250,-5.303305722
23.63300,-28.80327512
23.63350,-40.70585702
23.63400,-44.36818991
23.63450,-52.91363332
23.63500,-56.27077181
23.63550,-29.10846952
23.63600,28.26807912
23.63650,78.9303508
23.63700,89.91734948
23.63750,70.6901018
23.63800,53.29402056
23.63850,50.24207648
23.63900,46.88493799
23.63950,29.18366235
23.64000,5.988887363
23.64050,-6.829277761
23.64100,-7.439666576
23.64150,-6.524083353
23.64200,-9.57602743
23.64250,-11.10199947
23.64300,-8.965638615
23.64350,-15.67991558
23.64400,-41.01105142
23.64450,-70.30971456
23.64500,-77.93957476
23.64550,-59.9331047
23.64600,-38.87469057
23.64650,-28.1928863
23.64700,-12.93316591
23.64750,22.16419097
23.64800,66.7225745
23.64850,94.4952656
23.64900,92.35890474
23.64950,68.24854653
23.65000,39.56027221
23.65050,24.30055182
23.65100,30.70963439
23.65150,40.78104984
23.65200,27.65769031
23.65250,-6.524083353
23.65300,-30.32924715
23.65350,-24.53055341
23.65400,-8.660444207
23.65450,-7.134472168
23.65500,-14.76433236
23.65550,-16.90069321
23.65600,-19.03705407
23.65650,-32.77080242
23.65700,-49.25130043
23.65750,-51.69285569
23.65800,-42.84221787
23.65850,-33.99158005
23.65900,-29.10846952
23.65950,-28.49808071
23.66000,-36.1279409
23.66050,-41.62144024
23.66100,-18.42666525
23.66150,34.98235609
23.66200,78.01476758
23.66250,73.43685146
23.66300,36.81352254
23.66350,11.17719229
23.66400,7.820053809
23.66450,8.125248217
23.66500,2.936943286
23.66550,-0.7253896067
23.66600,-3.472139276
23.66650,-12.3227771
23.66700,-20.86822052
23.66750,-15.06952677
23.66800,-1.030584014
23.66850,3.242137693
23.66900,-1.946167238
23.66950,-0.420195199
23.67000,11.4823867
23.67050,19.4174413
23.67100,14.53433078
23.67150,4.157720917
23.67200,-3.777333684
23.67250,-12.3227771
23.67300,-21.47860933
23.67350,-26.05652545
23.67400,-26.97210867
23.67450,-29.71885834
23.67500,-31.55002478
23.67550,-20.86822052
23.67600,-0.1150007913
23.67650,13.92394196
23.67700,11.17719229
23.67750,-0.7253896067
23.67800,-9.57602743
23.67850,-12.62797151
23.67900,-12.62797151
23.67950,-9.270833022
23.68000,-2.861750461
23.68050,2.936943286
23.68100,9.651220255
23.68150,21.55380216
23.68200,36.81352254
23.68250,39.56027221
23.68300,20.02783012
23.68350,-8.965638615
23.68400,-26.36171985
23.68450,-25.14094222
23.68500,-16.59549881
23.68550,-10.49161065
23.68600,-6.524083353
23.68650,-4.387722499
23.68700,-6.829277761
23.68750,-11.10199947
23.68800,-11.40719388
23.68850,-8.355249799
23.68900,-11.71238828
23.68950,-21.47860933
23.69000,-26.36171985
23.69050,-18.73185966
23.69100,-6.524083353
23.69150,0.1901936164
23.69200,3.547332101
23.69250,9.956414663
23.69300,16.97588604
23.69350,18.50185808
23.69400,15.14471959
23.69450,14.53433078
23.69500,17.28108045
23.69550,17.58627486
23.69600,12.09277552
23.69650,4.768109732
23.69700,0.1901936164
23.69750,0.1901936164
23.69800,2.631748878
23.69850,5.378498547
23.69900,6.29408177
23.69950,5.07330414
23.70000,4.157720917
23.70050,2.936943286
23.70100,-1.335778422
23.70150,-9.270833022
23.70200,-15.98510999
23.70250,-15.67991558
23.70300,-8.050055392
23.70350,1.716165655
23.70400,9.956414663
23.70450,16.06030282
23.70500,20.63821893
23.70550,23.07977419
23.70600,21.85899656
23.70650,12.70316433
23.70700,-7.744860984
23.70750,-37.65391294
23.70800,-63.59543759
23.70850,-70.30971456
23.70900,-54.43960536
23.70950,-33.07599682
23.71000,-26.66691426
23.71050,-37.34871853
23.71100,-45.89416195
23.71150,-32.1604136
23.71200,6.29408177
23.71250,56.04077023
23.71300,97.24201527
23.71350,110.3653748
23.71400,86.25501659
23.71450,41.69663306
23.71500,9.956414663
23.71550,7.209664994
23.71600,16.97588604
23.71650,17.58627486
23.71700,9.956414663
23.71750,6.29408177
23.71800,4.768109732
23.71850,-1.030584014
23.71900,-7.134472168
23.71950,-2.556556053
23.72000,8.735637032
23.72050,18.50185808
23.72100,28.57327353
23.72150,38.64468899
23.72200,33.15118965
23.72250,5.378498547
23.72300,-21.47860933
23.72350,-23.92016459
23.72400,-13.84874914
23.72450,-17.81627644
23.72500,-32.1604136
23.72550,-35.21235768
23.72600,-31.55002478
23.72650,-41.31624583
23.72700,-54.13441095
23.72750,-42.23182905
23.72800,-15.06952677
23.72850,-12.93316591
23.72900,-41.92663465
23.72950,-61.45907674
23.73000,-50.47207806
23.73050,-33.07599682
23.73100,-29.41366393
23.73150,-26.05652545
23.73200,-12.01758269
23.73250,-1.030584014
23.73300,4.462915324
23.73350,29.79405116
23.73400,82.28748929
23.73450,124.4043176
23.73500,123.4887343
23.73550,97.85240408
23.73600,81.06671166
23.73650,70.6901018
23.73700,45.05377155
23.73750,9.651220255
23.73800,-8.355249799
23.73850,-3.777333684
23.73900,4.157720917
23.73950,4.768109732
23.74000,5.07330414
23.74050,9.04083144
23.74100,11.78758111
23.74150,9.956414663
23.74200,8.735637032
23.74250,7.514859401
23.74300,1.105776839
23.74350,-10.18641625
23.74400,-17.81627644
23.74450,-17.20588762
23.74500,-12.93316591
23.74550,-8.965638615
23.74600,-3.777333684
23.74650,1.716165655
23.74700,3.242137693
23.74750,-2.556556053
23.74800,-9.57602743
23.74850,-10.18641625
23.74900,-7.134472168
23.74950,-10.18641625
23.75000,-18.73185966
23.75050,-22.69938696
23.75100,-15.06952677
23.75150,-1.030584014
23.75200,9.651220255
23.75250,15.75510841
23.75300,19.72263571
23.75350,18.80705249
23.75400,10.26160907
23.75450,-0.420195199
23.75500,-8.355249799
23.75550,-18.12147085
23.75600,-33.68638564
23.75650,-47.11493958
23.75700,-49.25130043
23.75750,-46.19935635
23.75800,-49.86168925
23.75850,-57.49154944
23.75900,-53.52402214
23.75950,-37.34871853
23.76000,-25.14094222
23.76050,-23.61497018
23.76100,-18.42666525
23.76150,1.105776839
23.76200,23.99535742
23.76250,33.15118965
23.76300,29.79405116
23.76350,27.04730149
23.76400,29.79405116
23.76450,30.09924557
23.76500,22.46938538
23.76550,10.87199789
23.76600,3.852526509
23.76650,5.07330414
23.76700,12.70316433
23.76750,20.63821893
23.76800,20.63821893
23.76850,11.17719229
23.76900,-0.1150007913
23.76950,-5.303305722
23.77000,-4.692916907
23.77050,-5.303305722
23.77100,-12.62797151
23.77150,-22.39419255
23.77200,-27.88769189
23.77250,-28.80327512
23.77300,-27.88769189
23.77350,-24.53055341
23.77400,-16.2903044
23.77450,-4.387722499
23.77500,4.768109732
23.77550,10.56680348
23.77600,18.19666367
23.77650,28.87846794
23.77700,32.23560643
23.77750,20.94341334
23.77800,3.242137693
23.77850,-5.303305722
23.77900,-0.420195199
23.77950,7.209664994
23.78000,9.956414663
23.78050,9.04083144
23.78100,10.87199789
23.78150,15.449914
23.78200,17.89146926
23.78250,13.00835874
23.78300,-0.1150007913
23.78350,-16.2903044
23.78400,-23.30977578
23.78450,-14.15394355
23.78500,5.378498547
23.78550,23.69016301
23.78600,34.67716169
23.78650,38.94988339
23.78700,35.2875505
23.78750,21.24860775
23.78800,3.547332101
23.78850,-4.082528091
23.78900,-0.1150007913
23.78950,4.157720917
23.79000,1.716165655
23.79050,-3.166944868
23.79100,-5.913694538
23.79150,-9.270833022
23.79200,-18.42666525
23.79250,-30.02405275
23.79300,-35.82274649
23.79350,-32.1604136
23.79400,-19.64744288
23.79450,-5.303305722
23.79500,0.8005824318
23.79550,-4.082528091
23.79600,-9.881221838
23.79650,-2.861750461
23.79700,11.4823867
23.79750,12.70316433
23.79800,-8.050055392
23.79850,-36.43313531
23.79900,-51.38766129
23.79950,-50.47207806
23.80000,-43.45260668
23.80050,-38.26430175
23.80100,-34.60196886
23.80150,-26.97210867
23.80200,-8.660444207
23.80250,20.33302452
23.80300,44.13818833
23.80350,42.61221629
23.80400,18.19666367
23.80450,-3.166944868
23.80500,-4.082528091
23.80550,6.599276178
23.80600,13.31355315
23.80650,14.22913637
23.80700,16.67069163
23.80750,19.4174413
23.80800,14.53433078
23.80850,3.547332101
23.80900,-5.60850013
23.80950,-8.660444207
23.81000,-6.218888945
23.81050,-0.1150007913
23.81100,7.209664994
23.81150,12.09277552
23.81200,14.22913637
23.81250,20.02783012
23.81300,28.57327353
23.81350,29.18366235
23.81400,14.53433078
23.81450,-6.218888945
23.81500,-19.95263729
23.81550,-22.69938696
23.81600,-21.47860933
23.81650,-22.08899815
23.81700,-24.83574782
23.81750,-26.36171985
23.81800,-18.73185966
23.81850,5.683692955
23.81900,40.78104984
23.81950,61.83946397
23.82000,51.76804852
23.82050,21.55380216
23.82100,-1.335778422
23.82150,-7.134472168
23.82200,-5.303305722
23.82250,-4.692916907
23.82300,-0.1150007913
23.82350,11.17719229
23.82400,18.50185808
23.82450,9.651220255
23.82500,-12.93316591
23.82550,-35.51755208
23.82600,-48.64091162
23.82650,-52.30324451
23.82700,-49.25130043
23.82750,-44.0629955
23.82800,-41.01105142
23.82850,-39.48507938
23.82900,-29.41366393
23.82950,1.105776839
23.83000,50.85246529
23.83050,101.514737
23.83100,125.6250952
23.83150,107.3134307
23.83200,57.87193667
23.83250,13.00835874
23.83300,0.1901936164
23.83350,12.09277552
23.83400,20.94341334
23.83450,14.22913637
23.83500,2.936943286
23.83550,-5.303305722
23.83600,-14.15394355
23.83650,-15.37472118
23.83700,6.904470586
23.83750,38.94988339
23.83800,34.98235609
23.83850,-20.56302611
23.83900,-83.12787969
23.83950,-98.38760007
23.84000,-71.22529779
23.84050,-47.11493958
23.84100,-42.84221787
23.84150,-36.73832972
23.84200,-16.2903044
23.84250,2.021360063
23.84300,3.852526509
23.84350,-6.524083353
23.84400,-19.03705407
23.84450,-25.44613663
23.84500,-17.51108203
23.84550,7.820053809
23.84600,36.50832813
23.84650,51.46285411
23.84700,54.20960378
23.84750,56.95635345
23.84800,52.68363174
23.84850,26.13171827
23.84900,-13.23836032
23.84950,-36.43313531
23.85000,-32.77080242
23.85050,-21.78380374
23.85100,-17.81627644
23.85150,-12.01758269
23.85200,3.547332101
23.85250,18.80705249
23.85300,20.02783012
23.85350,11.17719229
23.85400,4.157720917
23.85450,0.4953880241
23.85500,-2.251361645
23.85550,-2.861750461
23.85600,0.8005824318
23.85650,4.462915324
23.85700,1.410971247
23.85750,-5.913694538
23.85800,-9.881221838
23.85850,-7.439666576
23.85900,-2.861750461
23.85950,-0.420195199
23.86000,-0.1150007913
23.86050,2.936943286
23.86100,12.70316433
23.86150,25.21613505
23.86200,30.70963439
23.86250,23.99535742
23.86300,11.17719229
23.86350,1.716165655
23.86400,-0.7253896067
23.86450,1.105776839
23.86500,6.29408177
23.86550,11.78758111
23.86600,10.56680348
23.86650,-0.420195199
23.86700,-13.54355473
23.86750,-15.67991558
23.86800,-5.303305722
23.86850,6.904470586
23.86900,10.87199789
23.86950,4.462915324
23.87000,-7.439666576
23.87050,-19.34224848
23.87100,-25.44613663
23.87150,-23.00458137
23.87200,-15.37472118
23.87250,-8.660444207
23.87300,-5.913694538
23.87350,-3.472139276
23.87400,2.021360063
23.87450,8.125248217
23.87500,6.29408177
23.87550,-7.744860984
23.87600,-28.1928863
23.87650,-41.31624583
23.87700,-41.92663465
23.87750,-38.56949616
23.87800,-41.31624583
23.87850,-46.50455076
23.87900,-40.70585702
23.87950,-22.08899815
23.88000,-1.946167238
23.88050,9.956414663
23.88100,18.50185808
23.88150,28.57327353
23.88200,36.20313373
23.88250,33.15118965
23.88300,18.50185808
23.88350,-1.335778422
23.88400,-20.56302611
23.88450,-30.02405275
23.88500,-24.53055341
23.88550,-11.71238828
23.88600,-7.134472168
23.88650,-12.93316591
23.88700,-8.355249799
23.88750,23.3849686
23.88800,69.77451857
23.88850,99.68357053
23.88900,100.2939593
23.88950,84.72904455
23.89000,67.63815772
23.89050,46.57974359
23.89100,14.53433078
23.89150,-22.39419255
23.89200,-46.80974517
23.89250,-47.72532839
23.89300,-32.77080242
23.89350,-16.90069321
23.89400,-6.218888945
23.89450,3.547332101
23.89500,13.92394196
23.89550,16.67069163
23.89600,5.988887363
23.89650,-8.660444207
23.89700,-12.3227771
23.89750,-4.387722499
23.89800,3.242137693
23.89850,5.378498547
23.89900,7.514859401
23.89950,14.22913637
23.90000,18.19666367
23.90050,16.06030282
23.90100,13.00835874
23.90150,11.78758111
23.90200,2.631748878
23.90250,-21.17341492
23.90300,-50.77727247
23.90350,-67.56296489
23.90400,-65.42660404
23.90450,-53.21882773
23.90500,-41.31624583
23.90550,-31.24483038
23.90600,-19.95263729
23.90650,-8.355249799
23.90700,0.1901936164
23.90750,3.547332101
23.90800,1.716165655
23.90850,-4.387722499
23.90900,-13.84874914
23.90950,-24.53055341
23.91000,-31.24483038
23.91050,-31.24483038
23.91100,-27.88769189
23.91150,-31.24483038
23.91200,-40.0954682
23.91250,-38.26430175
23.91300,-9.270833022
23.91350,37.72910576
23.91400,74.9628235
23.91450,82.28748929
23.91500,67.33296331
23.91550,50.24207648
23.91600,41.39143866
23.91650,36.81352254
23.91700,30.09924557
23.91750,20.94341334
23.91800,13.31355315
23.91850,10.26160907
23.91900,10.56680348
23.91950,9.04083144
23.92000,4.157720917
23.92050,0.1901936164
23.92100,2.32655447
23.92150,9.651220255
23.92200,15.449914
23.92250,14.53433078
23.92300,7.209664994
23.92350,-3.166944868
23.92400,-16.59549881
23.92450,-31.24483038
23.92500,-42.23182905
23.92550,-42.53702346
23.92600,-36.43313531
23.92650,-39.79027379
23.92700,-59.62791029
23.92750,-74.58243627
23.92800,-52.60843892
23.92850,3.852526509
23.92900,46.88493799
23.92950,35.59274491
23.93000,-6.524083353
23.93050,-19.64744288
23.93100,15.75510841
23.93150,56.95635345
23.93200,60.61868634
23.93250,40.17066103
23.93300,34.67716169
23.93350,49.02129885
23.93400,53.90440937
23.93450,36.50832813
23.93500,15.75510841
23.93550,9.346025847
23.93600,9.346025847
23.93650,0.8005824318
23.93700,-14.45913795
23.93750,-25.75133104
23.93800,-28.49808071
23.93850,-24.53055341
23.93900,-15.67991558
23.93950,-4.998111315
23.94000,-0.420195199
23.94050,-2.861750461
23.94100,-3.472139276
23.94150,4.768109732
23.94200,15.14471959
23.94250,12.70316433
23.94300,-2.556556053
23.94350,-16.90069321
23.94400,-19.95263729
23.94450,-16.2903044
23.94500,-13.84874914
23.94550,-11.71238828
23.94600,-5.60850013
23.94650,1.410971247
23.94700,3.852526509
23.94750,5.07330414
23.94800,15.75510841
23.94850,36.20313373
23.94900,50.85246529
23.94950,44.13818833
23.95000,17.28108045
23.95050,-14.15394355
23.95100,-38.87469057
23.95150,-53.52402214
23.95200,-58.10193825
23.95250,-50.47207806
23.95300,-32.77080242
23.95350,-17.51108203
23.95400,-14.76433236
23.95450,-22.39419255
23.95500,-27.58249748
23.95550,-18.73185966
23.95600,4.462915324
23.95650,32.84599524
23.95700,51.76804852
23.95750,51.76804852
23.95800,37.42391136
23.95850,23.3849686
23.95900,17.28108045
23.95950,10.26160907
23.96000,-4.082528091
23.96050,-15.37472118
23.96100,-8.050055392
23.96150,9.956414663
23.96200,12.39796992
23.96250,-8.050055392
23.96300,-28.49808071
23.96350,-26.05652545
23.96400,-8.660444207
23.96450,1.105776839
23.96500,-1.335778422
23.96550,-5.913694538
23.96600,-6.218888945
23.96650,-5.303305722
23.96700,-2.556556053
23.96750,5.988887363
23.96800,13.92394196
23.96850,7.209664994
23.96900,-12.3227771
23.96950,-27.58249748
23.97000,-26.36171985
23.97050,-18.42666525
23.97100,-21.47860933
23.97150,-39.48507938
23.97200,-58.40713266
23.97250,-56.27077181
23.97300,-18.42666525
23.97350,44.44338273
23.97400,98.7679873
23.97450,110.0601804
23.97500,78.01476758
23.97550,32.23560643
23.97600,0.4953880241
23.97650,-10.79680506
23.97700,-9.57602743
23.97750,-0.7253896067
23.97800,10.56680348
23.97850,13.61874756
23.97900,0.1901936164
23.97950,-21.17341492
23.98000,-34.60196886
23.98050,-30.63444156
23.98100,-15.98510999
23.98150,-4.387722499
23.98200,-6.218888945
23.98250,-15.67991558
23.98300,-15.67991558
23.98350,3.547332101
23.98400,27.65769031
23.98450,29.79405116
23.98500,7.209664994
23.98550,-13.84874914
23.98600,-12.93316591
23.98650,0.1901936164
23.98700,2.32655447
23.98750,-8.355249799
23.98800,-15.67991558
23.98850,-11.71238828
23.98900,-5.913694538
23.98950,-5.913694538
23.99000,-7.134472168
23.99050,-1.64097283
23.99100,9.346025847
23.99150,23.07977419
23.99200,34.98235609
23.99250,39.56027221
23.99300,31.01482879
23.99350,15.75510841
23.99400,7.209664994
23.99450,6.904470586
23.99500,2.631748878
23.99550,-13.84874914
23.99600,-31.85521919
23.99650,-34.60196886
23.99700,-21.78380374
23.99750,-6.829277761
23.99800,0.8005824318
23.99850,3.547332101
23.99900,6.599276178
23.99950,10.87199789
24.00000,13.61874756
24.00050,13.00835874
24.00100,10.26160907
24.00150,6.904470586
24.00200,5.378498547
24.00250,4.462915324
24.00300,-1.335778422
24.00350,-12.93316591
24.00400,-22.08899815
24.00450,-20.56302611
24.00500,-10.18641625
24.00550,-0.7253896067
24.00600,2.936943286
24.00650,5.378498547
24.00700,7.514859401
24.00750,0.8005824318
24.00800,-18.42666525
24.00850,-35.51755208
24.00900,-32.46560801
24.00950,-15.98510999
24.01000,-12.93316591
24.01050,-29.71885834
24.01100,-37.04352412
24.01150,-5.913694538
24.01200,48.41091003
24.01250,82.28748929
24.01300,77.70957317
24.01350,56.04077023
24.01400,41.69663306
24.01450,31.93041202
24.01500,14.22913637
24.01550,-11.10199947
24.01600,-36.73832972
24.01650,-60.84868792
24.01700,-81.60190765
24.01750,-91.06293429
24.01800,-85.56943495
24.01850,-74.27724186
24.01900,-64.81621522
24.01950,-46.50455076
24.02000,-8.050055392
24.02050,37.11871695
24.02100,62.7550472
24.02150,57.87193667
24.02200,38.94988339
24.02250,25.82652386
24.02300,23.69016301
24.02350,25.52132946
24.02400,24.91094064
24.02450,20.33302452
24.02500,13.00835874
24.02550,4.157720917
24.02600,-6.829277761
24.02650,-19.64744288
24.02700,-24.83574782
24.02750,-12.3227771
24.02800,12.39796992
24.02850,29.48885676
24.02900,26.13171827
24.02950,11.4823867
24.03000,1.716165655
24.03050,0.4953880241
24.03100,1.716165655
24.03150,4.462915324
24.03200,10.56680348
24.03250,16.97588604
24.03300,19.4174413
24.03350,22.46938538
24.03400,29.48885676
24.03450,34.37196728
24.03500,27.96288472
24.03550,16.06030282
24.03600,8.430442624
24.03650,6.599276178
24.03700,4.157720917
24.03750,2.936943286
24.03800,5.988887363
24.03850,3.852526509
24.03900,-16.2903044
24.03950,-47.72532839
24.04000,-64.81621522
24.04050,-55.66038299
24.04100,-33.38119123
24.04150,-16.2903044
24.04200,-7.134472168
24.04250,-0.1150007913
24.04300,5.378498547
24.04350,7.209664994
24.04400,7.820053809
24.04450,10.56680348
24.04500,13.00835874
24.04550,12.39796992
24.04600,7.820053809
24.04650,-3.166944868
24.04700,-22.39419255
24.04750,-43.45260668
24.04800,-55.35518859
24.04850,-57.18635503
24.04900,-57.18635503
24.04950,-55.9655774
24.05000,-42.84221787
24.05050,-11.71238828
24.05100,26.13171827
24.05150,57.26154786
24.05200,75.57321232
24.05250,79.54073962
24.05300,64.89140805
24.05350,33.45638406
24.05400,-3.777333684
24.05450,-37.65391294
24.05500,-63.29024319
24.05550,-66.64738167
24.05600,-28.80327512
24.05650,40.47585543
24.05700,94.4952656
24.05750,94.4952656
24.05800,54.20960378
24.05850,20.63821893
24.05900,15.14471959
24.05950,19.11224689
24.06000,12.70316433
24.06050,1.716165655
24.06100,-0.1150007913
24.06150,7.209664994
24.06200,14.53433078
24.06250,14.83952519
24.06300,4.768109732
24.06350,-12.01758269
24.06400,-23.30977578
24.06450,-18.42666525
24.06500,-5.60850013
24.06550,-3.166944868
24.06600,-12.62797151
24.06650,-17.51108203
24.06700,-8.965638615
24.06750,0.8005824318
24.06800,-0.1150007913
24.06850,-10.79680506
24.06900,-23.30977578
24.06950,-37.34871853
24.07000,-51.08246688
24.07050,-54.13441095
24.07100,-41.62144024
24.07150,-26.97210867
24.07200,-23.92016459
24.07250,-28.49808071
24.07300,-26.05652545
24.07350,-13.23836032
24.07400,-2.251361645
24.07450,1.716165655
24.07500,8.430442624
24.07550,21.24860775
24.07600,30.40443998
24.07650,23.07977419
24.07700,5.378498547
24.07750,-5.303305722
24.07800,-2.251361645
24.07850,5.988887363
24.07900,11.17719229
24.07950,17.58627486
24.08000,30.40443998
24.08050,40.47585543
24.08100,33.15118965
24.08150,10.56680348
24.08200,-7.439666576
24.08250,-10.79680506
24.08300,-8.355249799
24.08350,-13.23836032
24.08400,-24.83574782
24.08450,-33.38119123
24.08500,-37.04352412
24.08550,-37.65391294
24.08600,-30.32924715
24.08650,-14.15394355
24.08700,-3.166944868
24.08750,-13.23836032
24.08800,-34.60196886
24.08850,-38.56949616
24.08900,-18.73185966
24.08950,-5.60850013
24.09000,-26.66691426
24.09050,-62.06946555
24.09100,-64.20582641
24.09150,-13.54355473
24.09200,60.00829753
24.09250,110.6705692
24.09300,115.8588741
24.09350,86.25501659
24.09400,46.27454918
24.09450,16.67069163
24.09500,4.768109732
24.09550,4.462915324
24.09600,5.988887363
24.09650,9.04083144
24.09700,17.28108045
24.09750,23.3849686
24.09800,14.22913637
24.09850,-9.270833022
24.09900,-27.88769189
24.09950,-27.27730308
24.10000,-17.81627644
24.10050,-17.20588762
24.10100,-24.225359
24.10150,-22.39419255
24.10200,-3.777333684
24.10250,20.63821893
24.10300,38.03430017
24.10350,45.05377155
24.10400,45.05377155
24.10450,40.17066103
24.10500,32.23560643
24.10550,24.91094064
24.10600,20.02783012
24.10650,17.58627486
24.10700,16.97588604
24.10750,16.67069163
24.10800,11.4823867
24.10850,-0.1150007913
24.10900,-12.01758269
24.10950,-15.37472118
24.11000,-12.01758269
24.11050,-10.18641625
24.11100,-10.49161065
24.11150,-8.660444207
24.11200,-4.387722499
24.11250,-4.082528091
24.11300,-9.270833022
24.11350,-13.54355473
24.11400,-13.84874914
24.11450,-14.15394355
24.11500,-15.06952677
24.11550,-10.18641625
24.11600,1.716165655
24.11650,12.09277552
24.11700,11.4823867
24.11750,3.242137693
24.11800,-2.556556053
24.11850,-3.472139276
24.11900,-4.082528091
24.11950,-7.439666576
24.12000,-8.660444207
24.12050,-1.946167238
24.12100,8.430442624
24.12150,8.125248217
24.12200,-13.84874914
24.12250,-50.16688365
24.12300,-77.93957476
24.12350,-80.07593561
24.12400,-62.67985437
24.12450,-44.67338432
24.12500,-34.29677445
24.12550,-21.78380374
24.12600,6.29408177
24.12650,51.1576597
24.12700,93.27448797
24.12750,107.3134307
24.12800,85.64462777
24.12850,45.66416036
24.12900,13.92394196
24.12950,-0.7253896067
24.13000,-8.965638615
24.13050,-15.67991558
24.13100,-16.59549881
24.13150,-13.54355473
24.13200,-15.98510999
24.13250,-20.86822052
24.13300,-8.355249799
24.13350,25.52132946
24.13400,52.98882615
24.13450,48.10571563
24.13500,22.46938538
24.13550,7.820053809
24.13600,10.56680348
24.13650,13.61874756
24.13700,8.125248217
24.13750,4.462915324
24.13800,10.26160907
24.13850,16.97588604
24.13900,16.67069163
24.13950,12.70316433
24.14000,10.87199789
24.14050,12.70316433
24.14100,15.75510841
24.14150,16.97588604
24.14200,13.00835874
24.14250,1.716165655
24.14300,-12.01758269
24.14350,-24.225359
24.14400,-32.46560801
24.14450,-36.1279409
24.14500,-33.99158005
24.14550,-27.58249748
24.14600,-22.08899815
24.14650,-19.95263729
24.14700,-17.51108203
24.14750,-12.93316591
24.14800,-8.660444207
24.14850,-5.303305722
24.14900,1.105776839
24.14950,10.26160907
24.15000,14.83952519
24.15050,13.61874756
24.15100,14.83952519
24.15150,19.72263571
24.15200,16.67069163
24.15250,-2.861750461
24.15300,-30.93963597
24.15350,-49.25130043
24.15400,-48.64091162
24.15450,-31.85521919
24.15500,-5.60850013
24.15550,19.11224689
24.15600,30.70963439
24.15650,24.60574623
24.15700,10.87199789
24.15750,1.716165655
24.15800,-1.335778422
24.15850,-3.777333684
24.15900,-5.913694538
24.15950,-4.998111315
24.16000,-2.556556053
24.16050,-6.218888945
24.16100,-18.12147085
24.16150,-30.02405275
24.16200,-30.63444156
24.16250,-18.12147085
24.16300,-1.335778422
24.16350,8.430442624
24.16400,9.346025847
24.16450,9.651220255
24.16500,13.31355315
24.16550,13.61874756
24.16600,1.105776839
24.16650,-19.64744288
24.16700,-32.46560801
24.16750,-25.75133104
24.16800,-6.829277761
24.16850,7.514859401
24.16900,10.87199789
24.16950,10.26160907
24.17000,15.449914
24.17050,22.77457979
24.17100,18.19666367
24.17150,-4.998111315
24.17200,-36.1279409
24.17250,-54.74479977
24.17300,-55.04999418
24.17350,-47.42013399
24.17400,-42.53702346
24.17450,-38.56949616
24.17500,-30.32924715
24.17550,-21.47860933
24.17600,-18.42666525
24.17650,-19.64744288
24.17700,-17.81627644
24.17750,-10.79680506
24.17800,-4.998111315
24.17850,-2.861750461
24.17900,-0.420195199
24.17950,3.547332101
24.18000,9.346025847
24.18050,20.63821893
24.18100,40.78104984
24.18150,61.22907516
24.18200,64.28101923
24.18250,46.27454918
24.18300,25.52132946
24.18350,20.02783012
24.18400,21.55380216
24.18450,9.651220255
24.18500,-19.03705407
24.18550,-46.80974517
24.18600,-53.82921655
24.18650,-41.01105142
24.18700,-25.75133104
24.18750,-22.39419255
24.18800,-31.24483038
24.18850,-40.0954682
24.18900,-40.0954682
24.18950,-32.46560801
24.19000,-21.47860933
24.19050,-1.64097283
24.19100,34.98235609
24.19150,78.9303508
24.19200,104.8718755
24.19250,100.5991538
24.19300,82.5926837
24.19350,67.0277689
24.19400,47.80052122
24.19450,15.449914
24.19500,-14.15394355
24.19550,-18.42666525
24.19600,-1.946167238
24.19650,6.904470586
24.19700,-1.030584014
24.19750,-6.524083353
24.19800,4.462915324
24.19850,18.50185808
24.19900,18.80705249
24.19950,11.4823867
24.20000,13.61874756
24.20050,23.99535742
24.20100,29.48885676
24.20150,25.82652386
24.20200,20.33302452
24.20250,15.14471959
24.20300,5.378498547
24.20350,-7.744860984
24.20400,-16.59549881
24.20450,-17.81627644
24.20500,-17.20588762
24.20550,-18.73185966
24.20600,-19.95263729
24.20650,-18.73185966
24.20700,-18.12147085
24.20750,-19.34224848
24.20800,-16.2903044
24.20850,-4.387722499
24.20900,7.514859401
24.20950,5.07330414
24.21000,-12.3227771
24.21050,-32.46560801
24.21100,-43.75780109
24.21150,-47.11493958
24.21200,-48.33571721
24.21250,-47.42013399
24.21300,-39.79027379
24.21350,-22.69938696
24.21400,2.631748878
24.21450,33.45638406
24.21500,60.00829753
24.21550,68.24854653
24.21600,51.1576597
24.21650,17.58627486
24.21700,-12.62797151
24.21750,-25.75133104
24.21800,-21.78380374
24.21850,-12.62797151
24.21900,-15.98510999
24.21950,-39.17988498
24.22000,-66.95257608
24.22050,-65.73179845
24.22100,-18.42666525
24.22150,49.02129885
24.22200,89.91734948
24.22250,81.67710047
24.22300,46.88493799
24.22350,20.33302452
24.22400,13.31355315
24.22450,12.70316433
24.22500,3.852526509
24.22550,-14.45913795
24.22600,-32.46560801
24.22650,-37.95910735
24.22700,-27.88769189
24.22750,-13.54355473
24.22800,-7.439666576
24.22850,-6.829277761
24.22900,2.32655447
24.22950,22.77457979
24.23000,36.81352254
24.23050,29.79405116
24.23100,9.956414663
24.23150,-3.472139276
24.23200,-2.861750461
24.23250,4.157720917
24.23300,8.430442624
24.23350,5.988887363
24.23400,-0.1150007913
24.23450,-0.7253896067
24.23500,11.17719229
24.23550,29.48885676
24.23600,34.98235609
24.23650,20.02783012
24.23700,-0.1150007913
24.23750,-9.881221838
24.23800,-13.23836032
24.23850,-23.30977578
24.23900,-37.65391294
24.23950,-39.79027379
24.24000,-23.30977578
24.24050,-2.251361645
24.24100,7.209664994
24.24150,6.29408177
24.24200,5.683692955
24.24250,7.820053809
24.24300,5.683692955
24.24350,-4.387722499
24.24400,-16.90069321
24.24450,-21.78380374
24.24500,-16.59549881
24.24550,-7.439666576
24.24600,0.4953880241
24.24650,5.378498547
24.24700,6.29408177
24.24750,3.242137693
24.24800,1.716165655
24.24850,5.378498547
24.24900,9.04083144
24.24950,2.936943286
24.25000,-10.79680506
24.25050,-16.59549881
24.25100,-3.472139276
24.25150,19.72263571
24.25200,37.42391136
24.25250,42.00182747
24.25300,36.20313373
24.25350,23.99535742
24.25400,11.78758111
24.25450,3.852526509
24.25500,-6.218888945
24.25550,-30.32924715
24.25600,-61.45907674
24.25650,-73.66685305
24.25700,-55.35518859
24.25750,-28.49808071
24.25800,-19.34224848
24.25850,-23.30977578
24.25900,-14.76433236
24.25950,11.17719229
24.26000,31.93041202
24.26050,28.57327353
24.26100,9.956414663
24.26150,-4.082528091
24.26200,-6.218888945
24.26250,-1.64097283
24.26300,0.4953880241
24.26350,-4.387722499
24.26400,-15.37472118
24.26450,-24.53055341
24.26500,-21.47860933
24.26550,-5.60850013
24.26600,13.92394196
24.26650,29.48885676
24.26700,39.2550778
24.26750,40.17066103
24.26800,28.26807912
24.26850,8.125248217
24.26900,-5.60850013
24.26950,-5.60850013
24.27000,-1.946167238
24.27050,-9.57602743
24.27100,-23.92016459
24.27150,-26.66691426
24.27200,-12.3227771
24.27250,4.768109732
24.27300,14.53433078
24.27350,21.85899656
24.27400,31.62521761
24.27450,35.89793932
24.27500,24.60574623
24.27550,5.988887363
24.27600,-4.082528091
24.27650,-3.166944868
24.27700,0.8005824318
24.27750,5.683692955
24.27800,15.449914
24.27850,27.3524959
24.27900,32.23560643
24.27950,28.87846794
24.28000,23.99535742
24.28050,20.33302452
24.28100,14.83952519
24.28150,5.988887363
24.28200,-2.251361645
24.28250,-8.965638615
24.28300,-15.06952677
24.28350,-19.64744288
24.28400,-19.34224848
24.28450,-17.81627644
24.28500,-22.39419255
24.28550,-33.07599682
24.28600,-42.23182905
24.28650,-41.31624583
24.28700,-30.32924715
24.28750,-13.84874914
24.28800,1.410971247
24.28850,9.04083144
24.28900,8.125248217
24.28950,2.631748878
24.29000,-5.60850013
24.29050,-23.00458137
24.29100,-48.64091162
24.29150,-64.81621522
24.29200,-53.52402214
24.29250,-24.225359
24.29300,-5.303305722
24.29350,-7.134472168
24.29400,-7.744860984
24.29450,17.28108045
24.29500,61.53426956
24.29550,94.19007119
24.29600,94.4952656
24.29650,69.77451857
24.29700,40.47585543
24.29750,20.94341334
24.29800,11.4823867
24.29850,7.514859401
24.29900,7.209664994
24.29950,11.78758111
24.30000,18.19666367
24.30050,20.02783012
24.30100,13.61874756
24.30150,6.29408177
24.30200,4.462915324
24.30250,3.547332101
24.30300,-4.387722499
24.30350,-14.45913795
24.30400,-13.54355473
24.30450,-2.861750461
24.30500,-0.1150007913
24.30550,-15.06952677
24.30600,-37.95910735
24.30650,-58.40713266
24.30700,-75.19282509
24.30750,-86.17982376
24.30800,-84.04346291
24.30850,-71.53049219
24.30900,-65.73179845
24.30950,-67.56296489
24.31000,-47.11493958
24.31050,18.19666367
24.31100,101.514737
24.31150,146.6835093
24.31200,132.3393722
24.31250,88.69657185
24.31300,53.59921496
24.31350,35.59274491
24.31400,24.91094064
24.31450,17.28108045
24.31500,13.61874756
24.31550,10.87199789
24.31600,5.07330414
24.31650,0.1901936164
24.31700,-0.1150007913
24.31750,-0.420195199
24.31800,-7.439666576
24.31850,-18.73185966
24.31900,-26.66691426
24.31950,-29.10846952
24.32000,-29.10846952
24.32050,-24.53055341
24.32100,-10.18641625
24.32150,10.87199789
24.32200,24.91094064
24.32250,22.46938538
24.32300,10.26160907
24.32350,1.716165655
24.32400,-0.1150007913
24.32450,-5.60850013
24.32500,-20.86822052
24.32550,-37.34871853
24.32600,-41.62144024
24.32650,-31.55002478
24.32700,-17.20588762
24.32750,-7.134472168
24.32800,-3.472139276
24.32850,-5.60850013
24.32900,-10.18641625
24.32950,-13.23836032
24.33000,-12.62797151
24.33050,-10.49161065
24.33100,-9.57602743
24.33150,-8.050055392
24.33200,-3.472139276
24.33250,0.8005824318
24.33300,2.021360063
24.33350,0.8005824318
24.33400,1.105776839
24.33450,2.021360063
24.33500,-0.1150007913
24.33550,-2.556556053
24.33600,-1.946167238
24.33650,0.8005824318
24.33700,-0.7253896067
24.33750,-5.913694538
24.33800,-2.556556053
24.33850,14.83952519
24.33900,33.15118965
24.33950,33.76157846
24.34000,16.36549722
24.34050,-0.420195199
24.34100,-3.166944868
24.34150,0.1901936164
24.34200,-4.998111315
24.34250,-19.34224848
24.34300,-30.32924715
24.34350,-29.41366393
24.34400,-20.56302611
24.34450,-10.18641625
24.34500,-2.861750461
24.34550,-5.303305722
24.34600,-23.00458137
24.34650,-43.45260668
24.34700,-44.67338432
24.34750,-23.92016459
24.34800,-4.387722499
24.34850,-6.218888945
24.34900,-17.81627644
24.34950,-15.06952677
24.35000,3.547332101
24.35050,20.63821893
24.35100,25.82652386
24.35150,22.77457979
24.35200,9.04083144
24.35250,-22.08899815
24.35300,-61.15388233
24.35350,-80.38113002
24.35400,-68.47854812
24.35450,-40.70585702
24.35500,-16.59549881
24.35550,3.547332101
24.35600,27.3524959
24.35650,50.54727089
24.35700,62.14465838
24.35750,58.48232549
24.35800,45.35896596
24.35850,29.48885676
24.35900,20.63821893
24.35950,23.69016301
24.36000,28.87846794
24.36050,19.4174413
24.36100,-3.472139276
24.36150,-18.73185966
24.36200,-9.57602743
24.36250,12.09277552
24.36300,24.60574623
24.36350,23.3849686
24.36400,20.02783012
24.36450,18.80705249
24.36500,13.92394196
24.36550,3.852526509
24.36600,-4.692916907
24.36650,-8.965638615
24.36700,-13.84874914
24.36750,-19.34224848
24.36800,-17.81627644
24.36850,-2.251361645
24.36900,17.28108045
24.36950,23.99535742
24.37000,12.09277552
24.37050,-6.524083353
24.37100,-15.37472118
24.37150,-9.881221838
24.37200,0.8005824318
24.37250,10.26160907
24.37300,15.449914
24.37350,15.75510841
24.37400,10.56680348
24.37450,4.768109732
24.37500,4.157720917
24.37550,6.904470586
24.37600,5.07330414
24.37650,2.32655447
24.37700,12.09277552
24.37750,34.06677287
24.37800,44.74857714
24.37850,24.30055182
24.37900,-13.23836032
24.37950,-35.51755208
24.38000,-26.66691426
24.38050,-4.387722499
24.38100,7.514859401
24.38150,5.988887363
24.38200,3.242137693
24.38250,5.378498547
24.38300,5.378498547
24.38350,-4.387722499
24.38400,-20.86822052
24.38450,-33.68638564
24.38500,-40.70585702
24.38550,-46.19935635
24.38600,-48.64091162
24.38650,-42.53702346
24.38700,-30.93963597
24.38750,-24.53055341
24.38800,-19.64744288
24.38850,2.631748878
24.38900,47.1901324
24.38950,85.64462777
24.39000,90.5277383
24.39050,71.30049061
24.39100,55.73557582
24.39150,49.93688207
24.39200,38.64468899
24.39250,19.72263571
24.39300,6.29408177
24.39350,0.1901936164
24.39400,-7.744860984
24.39450,-18.42666525
24.39500,-23.30977578
24.39550,-28.49808071
24.39600,-43.14741228
24.39650,-50.47207806
24.39700,-23.61497018
24.39750,26.43691268
24.39800,54.51479819
24.39850,40.17066103
24.39900,16.06030282
24.39950,15.75510841
24.40000,30.40443998
24.40050,32.23560643
24.40100,20.94341334
24.40150,18.50185808
24.40200,33.76157846
24.40250,52.37843733
24.40300,55.73557582
24.40350,37.42391136
24.40400,7.514859401
24.40450,-14.15394355
24.40500,-19.03705407
24.40550,-16.2903044
24.40600,-19.03705407
24.40650,-22.08899815
24.40700,-11.10199947
24.40750,7.209664994
24.40800,9.346025847
24.40850,-8.965638615
24.40900,-25.75133104
24.40950,-24.83574782
24.41000,-18.12147085
24.41050,-20.2578317
24.41100,-27.27730308
24.41150,-26.36171985
24.41200,-17.20588762
24.41250,-8.355249799
24.41300,-5.60850013
24.41350,-8.965638615
24.41400,-17.51108203
24.41450,-25.44613663
24.41500,-26.36171985
24.41550,-25.44613663
24.41600,-32.46560801
24.41650,-45.89416195
24.41700,-50.16688365
24.41750,-36.73832972
24.41800,-17.20588762
24.41850,-6.218888945
24.41900,-4.692916907
24.41950,-5.913694538
24.42000,-6.829277761
24.42050,-8.965638615
24.42100,-11.10199947
24.42150,-11.40719388
24.42200,-12.3227771
24.42250,-15.98510999
24.42300,-17.81627644
24.42350,-12.62797151
24.42400,-2.556556053
24.42450,4.157720917
24.42500,6.599276178
24.42550,8.735637032
24.42600,12.09277552
24.42650,12.39796992
24.42700,8.125248217
24.42750,3.242137693
24.42800,0.1901936164
24.42850,-4.387722499
24.42900,-11.10199947
24.42950,-9.270833022
24.43000,6.599276178
24.43050,28.87846794
24.43100,44.74857714
24.43150,49.93688207
24.43200,47.49532681
24.43250,38.64468899
24.43300,24.91094064
24.43350,12.39796992
24.43400,2.32655447
24.43450,-15.06952677
24.43500,-44.97857872
24.43550,-69.08893693
24.43600,-66.64738167
24.43650,-42.23182905
24.43700,-20.56302611
24.43750,-12.62797151
24.43800,-7.439666576
24.43850,4.157720917
24.43900,16.36549722
24.43950,17.58627486
24.44000,5.988887363
24.44050,-9.270833022
24.44100,-16.59549881
24.44150,-10.49161065
24.44200,-2.251361645
24.44250,-8.965638615
24.44300,-24.83574782
24.44350,-22.39419255
24.44400,6.599276178
24.44450,29.48885676
24.44500,15.14471959
24.44550,-18.12147085
24.44600,-28.80327512
24.44650,-8.355249799
24.44700,14.83952519
24.44750,24.60574623
24.44800,29.48885676
24.44850,33.45638406
24.44900,27.3524959
24.44950,9.956414663
24.45000,-1.64097283
24.45050,1.716165655
24.45100,11.4823867
24.45150,16.36549722
24.45200,16.36549722
24.45250,11.78758111
24.45300,-0.420195199
24.45350,-16.90069321
24.45400,-25.44613663
24.45450,-20.56302611
24.45500,-10.79680506
24.45550,-4.692916907
24.45600,-0.420195199
24.45650,5.988887363
24.45700,13.31355315
24.45750,16.36549722
24.45800,15.449914
24.45850,13.92394196
24.45900,13.31355315
24.45950,10.56680348
24.46000,4.462915324
24.46050,-2.251361645
24.46100,-5.303305722
24.46150,-2.556556053
24.46200,0.8005824318
24.46250,1.716165655
24.46300,2.631748878
24.46350,7.514859401
24.46400,15.449914
24.46450,23.07977419
24.46500,29.18366235
24.46550,32.23560643
24.46600,26.43691268
24.46650,9.04083144
24.46700,-11.10199947
24.46750,-20.2578317
24.46800,-14.15394355
24.46850,-2.251361645
24.46900,4.157720917
24.46950,1.716165655
24.47000,-4.082528091
24.47050,-7.134472168
24.47100,-6.524083353
24.47150,-7.439666576
24.47200,-14.76433236
24.47250,-23.92016459
24.47300,-26.66691426
24.47350,-22.39419255
24.47400,-18.42666525
24.47450,-18.42666525
24.47500,-23.00458137
24.47550,-33.68638564
24.47600,-50.47207806
24.47650,-66.03699285
24.47700,-72.75126982
24.47750,-72.75126982
24.47800,-69.08893693
24.47850,-52.91363332
24.47900,-15.67991558
24.47950,26.43691268
24.48000,50.85246529
24.48050,59.70310312
24.48100,78.9303508
24.48150,113.7225133
24.48200,135.3913162
24.48250,122.2679567
24.48300,89.91734948
24.48350,66.11218568
24.48400,54.51479819
24.48450,41.69663306
24.48500,27.04730149
24.48550,19.4174413
24.48600,16.97588604
24.48650,8.430442624
24.48700,-7.439666576
24.48750,-21.78380374
24.48800,-27.88769189
24.48850,-28.49808071
24.48900,-27.88769189
24.48950,-25.44613663
24.49000,-20.86822052
24.49050,-16.59549881
24.49100,-14.45913795
24.49150,-12.62797151
24.49200,-9.57602743
24.49250,-6.829277761
24.49300,-5.60850013
24.49350,-4.387722499
24.49400,-2.251361645
24.49450,-1.946167238
24.49500,-6.829277761
24.49550,-14.15394355
24.49600,-17.20588762
24.49650,-13.54355473
24.49700,-8.965638615
24.49750,-11.40719388
24.49800,-23.00458137
24.49850,-36.1279409
24.49900,-41.01105142
24.49950,-33.68638564
24.50000,-19.95263729
24.50050,-10.49161065
24.50100,-11.40719388
24.50150,-17.51108203
24.50200,-16.90069321
24.50250,-5.60850013
24.50300,6.904470586
24.50350,10.87199789
24.50400,7.820053809
24.50450,6.599276178
24.50500,9.346025847
24.50550,11.17719229
24.50600,9.346025847
24.50650,7.820053809
24.50700,10.26160907
24.50750,15.14471959
24.50800,16.67069163
24.50850,12.39796992
24.50900,5.378498547
24.50950,1.410971247
24.51000,0.8005824318
24.51050,-0.1150007913
24.51100,-4.387722499
24.51150,-10.49161065
24.51200,-15.37472118
24.51250,-19.95263729
24.51300,-22.39419255
24.51350,-18.12147085
24.51400,-4.387722499
24.51450,10.87199789
24.51500,20.33302452
24.51550,24.91094064
24.51600,31.01482879
24.51650,37.42391136
24.51700,37.72910576
24.51750,31.01482879
24.51800,21.55380216
24.51850,9.651220255
24.51900,-9.270833022
24.51950,-31.85521919
24.52000,-43.45260668
24.52050,-35.82274649
24.52100,-16.90069321
24.52150,-0.1150007913
24.52200,7.820053809
24.52250,10.87199789
24.52300,11.78758111
24.52350,9.651220255
24.52400,5.07330414
24.52450,3.852526509
24.52500,8.430442624
24.52550,11.17719229
24.52600,1.716165655
24.52650,-14.76433236
24.52700,-17.81627644
24.52750,1.716165655
24.52800,22.16419097
24.52850,14.83952519
24.52900,-15.98510999
24.52950,-38.56949616
24.53000,-34.60196886
24.53050,-19.64744288
24.53100,-16.90069321
24.53150,-25.75133104
24.53200,-31.85521919
24.53250,-29.10846952
24.53300,-20.2578317
24.53350,-5.60850013
24.53400,12.09277552
24.53450,23.07977419
24.53500,20.33302452
24.53550,12.09277552
24.53600,8.430442624
24.53650,6.904470586
24.53700,1.716165655
24.53750,-1.030584014
24.53800,5.378498547
24.53850,15.14471959
24.53900,12.70316433
24.53950,-1.335778422
24.54000,-13.54355473
24.54050,-18.42666525
24.54100,-23.61497018
24.54150,-31.55002478
24.54200,-30.32924715
24.54250,-15.37472118
24.54300,0.4953880241
24.54350,5.378498547
24.54400,2.32655447
24.54450,3.242137693
24.54500,9.651220255
24.54550,14.83952519
24.54600,13.61874756
24.54650,7.514859401
24.54700,1.410971247
24.54750,-0.7253896067
24.54800,1.716165655
24.54850,4.768109732
24.54900,3.242137693
24.54950,-4.082528091
24.55000,-13.84874914
24.55050,-25.75133104
24.55100,-39.48507938
24.55150,-47.42013399
24.55200,-37.34871853
24.55250,-9.881221838
24.55300,19.4174413
24.55350,39.2550778
24.55400,50.24207648
24.55450,55.73557582
24.55500,54.51479819
24.55550,47.1901324
24.55600,41.69663306
24.55650,38.33949458
24.55700,26.43691268
24.55750,2.631748878
24.55800,-20.86822052
24.55850,-30.93963597
24.55900,-28.80327512
24.55950,-23.30977578
24.56000,-19.64744288
24.56050,-19.03705407
24.56100,-21.17341492
24.56150,-19.03705407
24.56200,-7.744860984
24.56250,1.410971247
24.56300,-8.965638615
24.56350,-35.51755208
24.56400,-49.86168925
24.56450,-37.95910735
24.56500,-19.34224848
24.56550,-14.76433236
24.56600,-17.81627644
24.56650,-13.23836032
24.56700,-1.030584014
24.56750,15.75510841
24.56800,47.49532681
24.56850,96.93682086
24.56900,134.1705386
24.56950,127.1510672
24.57000,81.98229488
24.57050,37.11871695
24.57100,12.70316433
24.57150,0.1901936164
24.57200,-8.050055392
24.57250,-5.303305722
24.57300,9.956414663
24.57350,22.77457979
24.57400,21.85899656
24.57450,15.75510841
24.57500,13.92394196
24.57550,10.56680348
24.57600,-4.082528091
24.57650,-23.30977578
24.57700,-29.10846952
24.57750,-16.2903044
24.57800,-1.030584014
24.57850,0.4953880241
24.57900,-12.01758269
24.57950,-28.1928863
24.58000,-41.62144024
24.58050,-51.9980501
24.58100,-58.10193825
24.58150,-58.71232707
24.58200,-58.10193825
24.58250,-58.10193825
24.58300,-46.19935635
24.58350,-8.660444207
24.58400,44.74857714
24.58450,81.06671166
24.58500,80.76151725
24.58550,59.70310312
24.58600,44.13818833
24.58650,36.20313373
24.58700,22.46938538
24.58750,3.547332101
24.58800,-7.134472168
24.58850,-5.60850013
24.58900,-2.251361645
24.58950,-4.082528091
24.59000,-6.829277761
24.59050,-5.913694538
24.59100,-4.387722499
24.59150,-4.692916907
24.59200,-3.777333684
24.59250,-0.1150007913
24.59300,1.716165655
24.59350,-0.1150007913
24.59400,-3.777333684
24.59450,-1.946167238
24.59500,3.242137693
24.59550,3.242137693
24.59600,-10.18641625
24.59650,-32.1604136
24.59700,-48.33571721
24.59750,-49.86168925
24.59800,-44.36818991
24.59850,-43.14741228
24.59900,-44.36818991
24.59950,-34.60196886
24.60000,-6.829277761
24.60050,30.40443998
24.60100,58.17713108
24.60150,60.31349193
24.60200,34.98235609
24.60250,-1.64097283
24.60300,-25.44613663
24.60350,-24.53055341
24.60400,-8.355249799
24.60450,4.768109732
24.60500,9.346025847
24.60550,12.39796992
24.60600,23.07977419
24.60650,44.13818833
24.60700,67.33296331
24.60750,75.87840673
24.60800,55.73557582
24.60850,15.14471959
24.60900,-17.20588762
24.60950,-29.41366393
24.61000,-39.17988498
24.61050,-63.59543759
24.61100,-88.01099021
24.61150,-85.87462936
24.61200,-61.15388233
24.61250,-42.84221787
24.61300,-40.0954682
24.61350,-33.99158005
24.61400,-15.06952677
24.61450,-1.64097283
24.61500,-7.439666576
24.61550,-17.51108203
24.61600,-14.15394355
24.61650,-9.270833022
24.61700,-27.27730308
24.61750,-60.84868792
24.61800,-73.05646423
24.61850,-43.75780109
24.61900,3.852526509
24.61950,33.45638406
24.62000,35.59274491
24.62050,28.87846794
24.62100,28.57327353
24.62150,29.18366235
24.62200,19.72263571
24.62250,4.157720917
24.62300,-3.166944868
24.62350,0.4953880241
24.62400,7.514859401
24.62450,10.26160907
24.62500,15.14471959
24.62550,27.65769031
24.62600,41.69663306
24.62650,45.66416036
24.62700,37.42391136
24.62750,26.43691268
24.62800,20.02783012
24.62850,16.67069163
24.62900,15.14471959
24.62950,17.28108045
24.63000,19.4174413
24.63050,9.346025847
24.63100,-14.76433236
24.63150,-36.73832972
24.63200,-38.26430175
24.63250,-24.53055341
24.63300,-14.45913795
24.63350,-14.76433236
24.63400,-13.23836032
24.63450,-3.472139276
24.63500,3.547332101
24.63550,2.32655447
24.63600,3.852526509
24.63650,18.19666367
24.63700,34.06677287
24.63750,32.23560643
24.63800,13.31355315
24.63850,-3.777333684
24.63900,-6.524083353
24.63950,0.1901936164
24.64000,6.599276178
24.64050,9.346025847
24.64100,9.651220255
24.64150,8.430442624
24.64200,6.599276178
24.64250,6.29408177
24.64300,7.514859401
24.64350,9.346025847
24.64400,11.4823867
24.64450,13.61874756
24.64500,14.53433078
24.64550,14.22913637
24.64600,13.61874756
24.64650,13.00835874
24.64700,11.17719229
24.64750,9.651220255
24.64800,9.651220255
24.64850,8.430442624
24.64900,4.462915324
24.64950,0.4953880241
24.65000,-0.1150007913
24.65050,-2.251361645
24.65100,-8.355249799
24.65150,-10.49161065
24.65200,-0.7253896067
24.65250,11.17719229
24.65300,10.26160907
24.65350,-2.251361645
24.65400,-15.37472118
24.65450,-30.02405275
24.65500,-52.60843892
24.65550,-72.14088101
24.65600,-72.75126982
24.65650,-64.51102082
24.65700,-69.39413134
24.65750,-72.75126982
24.65800,-33.38119123
24.65850,45.96935477
24.65900,104.8718755
24.65950,99.68357053
24.66000,59.0927143
24.66050,34.37196728
24.66100,30.09924557
24.66150,21.24860775
24.66200,5.07330414
24.66250,-1.946167238
24.66300,-1.64097283
24.66350,-3.777333684
24.66400,-0.420195199
24.66450,20.02783012
24.66500,41.39143866
24.66550,36.20313373
24.66600,11.17719229
24.66650,-2.861750461
24.66700,0.8005824318
24.66750,2.631748878
24.66800,-5.913694538
24.66850,-10.79680506
24.66900,-5.303305722
24.66950,-1.335778422
24.67000,-4.387722499
24.67050,-4.998111315
24.67100,-0.7253896067
24.67150,-4.082528091
24.67200,-20.56302611
24.67250,-36.73832972
24.67300,-41.01105142
24.67350,-37.95910735
24.67400,-35.51755208
24.67450,-35.21235768
24.67500,-40.0954682
24.67550,-51.9980501
24.67600,-54.74479977
24.67650,-21.78380374
24.67700,44.44338273
24.67750,102.1251258
24.67800,111.5861524
24.67850,80.15112843
24.67900,46.88493799
24.67950,31.93041202
24.68000,22.46938538
24.68050,2.936943286
24.68100,-18.73185966
24.68150,-27.27730308
24.68200,-21.47860933
24.68250,-13.23836032
24.68300,-10.49161065
24.68350,-10.79680506
24.68400,-10.18641625
24.68450,-7.439666576
24.68500,-4.082528091
24.68550,-1.946167238
24.68600,-3.777333684
24.68650,-9.270833022
24.68700,-13.23836032
24.68750,-12.01758269
24.68800,-6.524083353
24.68850,-1.946167238
24.68900,-0.1150007913
24.68950,1.716165655
24.69000,3.242137693
24.69050,2.32655447
24.69100,-0.420195199
24.69150,-3.777333684
24.69200,-8.660444207
24.69250,-17.81627644
24.69300,-29.71885834
24.69350,-35.82274649
24.69400,-29.41366393
24.69450,-14.76433236
24.69500,-4.387722499
24.69550,-3.166944868
24.69600,-4.998111315
24.69650,-1.64097283
24.69700,5.988887363
24.69750,11.4823867
24.69800,14.83952519
24.69850,19.4174413
24.69900,23.69016301
24.69950,17.89146926
24.70000,-0.1150007913
24.70050,-20.86822052
24.70100,-33.07599682
24.70150,-37.04352412
24.70200,-36.43313531
24.70250,-32.1604136
24.70300,-23.92016459
24.70350,-11.71238828
24.70400,6.904470586
24.70450,33.45638406
24.70500,56.34596463
24.70550,55.43038141
24.70600,29.18366235
24.70650,1.105776839
24.70700,-9.57602743
24.70750,-10.79680506
24.70800,-15.37472118
24.70850,-16.90069321
24.70900,-4.082528091
24.70950,13.31355315
24.71000,13.61874756
24.71050,-6.218888945
24.71100,-28.49808071
24.71150,-38.56949616
24.71200,-37.04352412
24.71250,-28.49808071
24.71300,-13.54355473
24.71350,2.32655447
24.71400,13.92394196
24.71450,20.94341334
24.71500,27.04730149
24.71550,30.70963439
24.71600,31.62521761
24.71650,34.67716169
24.71700,39.86546662
24.71750,33.45638406
24.71800,10.26160907
24.71850,-11.40719388
24.71900,-10.49161065
24.71950,4.157720917
24.72000,2.631748878
24.72050,-22.39419255
24.72100,-45.89416195
24.72150,-44.97857872
24.72200,-24.53055341
24.72250,-4.692916907
24.72300,4.157720917
24.72350,3.852526509
24.72400,-1.946167238
24.72450,-8.660444207
24.72500,-10.49161065
24.72550,-4.998111315
24.72600,5.378498547
24.72650,16.36549722
24.72700,23.99535742
24.72750,27.3524959
24.72800,30.70963439
24.72850,37.72910576
24.72900,41.08624425
24.72950,27.04730149
24.73000,-3.166944868
24.73050,-26.66691426
24.73100,-25.44613663
24.73150,-10.18641625
24.73200,-1.64097283
24.73250,-1.335778422
24.73300,2.631748878
24.73350,7.820053809
24.73400,-1.335778422
24.73450,-21.17341492
24.73500,-30.32924715
24.73550,-23.61497018
24.73600,-19.95263729
24.73650,-33.99158005
24.73700,-54.13441095
24.73750,-62.67985437
24.73800,-52.60843892
24.73850,-20.2578317
24.73900,34.98235609
24.73950,92.96929356
24.74000,115.2484853
24.74050,85.94982218
24.74100,35.59274491
24.74150,4.768109732
24.74200,-1.946167238
24.74250,-7.134472168
24.74300,-18.73185966
24.74350,-20.56302611
24.74400,-3.166944868
24.74450,20.02783012
24.74500,31.3200232
24.74550,28.87846794
24.74600,23.07977419
24.74650,20.94341334
24.74700,20.94341334
24.74750,16.97588604
24.74800,9.04083144
24.74850,1.716165655
24.74900,-1.946167238
24.74950,-5.913694538
24.75000,-12.62797151
24.75050,-14.76433236
24.75100,-7.134472168
24.75150,2.936943286
24.75200,2.936943286
24.75250,-4.082528091
24.75300,-4.692916907
24.75350,3.242137693
24.75400,4.768109732
24.75450,-8.050055392
24.75500,-23.00458137
24.75550,-24.53055341
24.75600,-15.37472118
24.75650,-6.829277761
24.75700,-1.335778422
24.75750,4.157720917
24.75800,5.683692955
24.75850,-1.946167238
24.75900,-12.62797151
24.75950,-14.15394355
24.76000,-6.829277761
24.76050,-4.692916907
24.76100,-12.62797151
24.76150,-18.73185966
24.76200,-12.62797151
24.76250,-1.030584014
24.76300,1.105776839
24.76350,-7.744860984
24.76400,-14.45913795
24.76450,-10.79680506
24.76500,-3.472139276
24.76550,-3.166944868
24.76600,-4.998111315
24.76650,2.021360063
24.76700,17.28108045
24.76750,28.57327353
24.76800,28.57327353
24.76850,22.77457979
24.76900,15.449914
24.76950,5.683692955
24.77000,-3.166944868
24.77050,-8.660444207
24.77100,-17.81627644
