time,Brachiarod, EXt Carp,EXT DIG,Flex CarpU,Flex Carp R
472.96,-0.9407491788,13.50130643,8.297749404,-12.21250446,-5.432185919
472.9605,-0.9407491788,14.41688965,8.908138219,-11.60211564,-7.873741181
472.961,-1.551137994,10.75455676,6.466582957,-10.68653242,-6.042574735
472.9615,-2.466721217,6.787029459,0.9730836188,-8.855365973,-3.295825065
472.962,-3.38230444,4.04027979,-3.604832497,-7.634588342,-1.159464212
472.9625,-4.297887663,1.903918936,-5.435998943,-7.939782749,0.9768966423
472.963,-2.466721217,-0.2324419177,-5.741193351,-10.38133801,3.418451904
472.9635,1.500806083,-2.673997179,-5.435998943,-12.82289327,7.080784796
472.964,5.468333383,-6.336330072,-3.910026904,-13.7384765,13.79506177
472.9645,5.773527791,-8.777885333,-0.8580828275,-12.51769887,23.2560884
472.965,3.637166937,-8.167496518,0.9730836188,-10.99172683,29.66517097
472.9655,2.721583714,-5.115552441,0.3626948034,-9.770949196,28.44439334
472.966,3.942361344,-2.979191587,-0.5528884197,-7.939782749,22.03531077
472.9665,5.773527791,-2.063608364,0.05750039565,-6.108616303,17.76258907
472.967,6.689111014,-1.148025141,1.583472434,-4.582644265,16.84700584
472.9675,7.299499829,0.07275248999,1.583472434,-4.887838672,15.93142262
472.968,7.299499829,-0.2324419177,0.05750039565,-5.803421896,12.87947854
472.9685,6.994305421,-2.979191587,-0.5528884197,-5.498227488,10.13272887
472.969,7.909888645,-6.946718887,-0.8580828275,-4.582644265,8.606756835
472.9695,10.65663831,-10.30385737,-0.8580828275,-3.667061042,6.165201573
472.97,14.0137768,-13.35580145,-1.163277235,-3.056672226,2.502868681
472.9705,15.53974884,-14.88177349,-1.468471643,-2.446283411,0.6717022346
472.971,15.53974884,-13.66099586,-2.078860458,-1.835894595,0.9768966423
472.9715,15.84494324,-8.777885333,-3.604832497,-1.530700188,0.06131341924
472.972,16.76052647,0.9883357131,-4.825610128,-0.9203113723,-5.432185919
472.9725,15.84494324,16.85844491,-2.689249274,-0.004728149245,-10.62049085
472.973,13.09819358,36.69608141,2.19386125,-0.3099225569,-11.23087967
472.9735,10.0462495,56.53371791,7.076971773,-2.141089003,-8.789324404
472.974,8.215083052,73.92979915,9.518527034,-4.582644265,-7.873741181
472.9745,6.994305421,87.96874191,10.12891585,-5.19303308,-9.094518812
472.975,5.468333383,94.68301888,10.43411026,-4.582644265,-9.704907627
472.9755,3.942361344,86.74796428,9.823721442,-3.667061042,-8.484129996
472.976,3.331972529,65.68955015,7.992554996,-3.056672226,-7.263352366
472.9765,4.247555752,42.79996957,6.771777365,-3.056672226,-7.568546773
472.977,5.468333383,25.70908274,5.550999734,-3.667061042,-9.094518812
472.9775,5.163138975,6.481835052,2.804250065,-3.361866634,-9.094518812
472.978,1.806000491,-27.3947442,-1.468471643,-1.835894595,-5.432185919
472.9785,-3.687498848,-70.7323501,-3.910026904,-0.3099225569,1.892479865
472.979,-7.655026148,-99.11543001,-1.773666051,-0.9203113723,8.911951243
472.9795,-8.265414964,-95.75829153,2.19386125,-2.751477819,11.0483121
472.98,-7.34983174,-66.7648228,4.635416511,-3.361866634,8.606756835
472.9805,-8.265414964,-30.14149387,4.635416511,-1.530700188,4.944423942
472.981,-9.486192594,-0.2324419177,4.940610919,-0.9203113723,2.502868681
472.9815,-8.265414964,19.60519458,6.16138855,-1.835894595,-1.159464212
472.982,-4.603082071,31.50777648,5.856194142,-1.835894595,-6.347769142
472.9825,-2.16152681,39.13763668,3.41463888,0.3004662585,-10.01010203
472.983,-3.077110033,47.07269128,0.9730836188,2.436827112,-9.704907627
472.9835,-5.823859702,55.9233291,-0.247694012,1.216049482,-6.958157958
472.984,-7.960220556,59.8908564,-1.468471643,-0.6151169646,-2.990630658
472.9845,-8.265414964,50.73502417,-3.299638089,-0.9203113723,2.197674273
472.985,-6.739442925,21.13116662,-6.351582166,-0.004728149245,10.13272887
472.9855,-6.434248517,-27.0895498,-10.92949828,-0.004728149245,19.2885611
472.986,-10.40177582,-83.24532081,-16.72819203,-0.3099225569,28.74958774
472.9865,-17.11605279,-127.8037043,-21.00091374,0.6056606662,37.29503116
472.987,-18.64202483,-148.5569241,-21.00091374,2.131632705,41.87294727
472.9875,-12.53813667,-149.1673129,-17.94896966,0.9108550739,38.51580879
472.988,-7.34983174,-141.2322583,-14.28663677,-1.530700188,29.35997656
472.9885,-9.486192594,-127.4985099,-11.23469269,-2.751477819,18.67817229
472.989,-14.06410871,-100.6414021,-5.435998943,-0.004728149245,6.470395981
472.9895,-10.09658141,-61.57651787,3.719833288,5.793965597,-12.14646289
472.99,2.416389306,-27.0895498,12.57047111,13.7290202,-32.89968261
472.9905,12.18261035,-14.88177349,17.75877604,21.6640748,-41.75032044
472.991,12.79299917,-22.51163368,19.28474808,24.71601887,-31.67890498
472.9915,10.0462495,-30.14149387,19.8951369,19.22251954,-16.11399019
472.992,10.35144391,-24.03760572,18.67435927,10.0666873,-12.14646289
472.9925,11.87741594,-10.60905178,13.79124874,6.404354412,-19.16593427
472.993,9.435860683,-0.5376363254,6.466582957,8.235520859,-23.13346157
472.9935,4.55275016,4.955863013,0.6678892111,7.625132043,-16.11399019
472.994,1.806000491,12.58572321,-1.468471643,-0.004728149245,-6.347769142
472.9945,2.416389306,23.87791629,-0.8580828275,-9.16056038,-2.990630658
472.995,2.721583714,32.72855411,0.3626948034,-10.38133801,-4.211408289
472.9955,1.195611675,35.17010938,2.804250065,-4.277449857,-5.126991512
472.996,-0.3303603634,32.42335971,4.940610919,0.9108550739,-4.516602696
472.9965,-0.9407491788,29.37141563,5.245805327,2.131632705,-5.737380327
472.997,-0.02516595566,26.92986037,3.109444473,2.436827112,-8.178935589
472.9975,1.806000491,26.01427714,0.9730836188,4.573187966,-9.39971322
472.998,3.026778121,25.70908274,0.9730836188,6.099160005,-8.178935589
472.9985,1.806000491,25.09869392,2.499055657,5.488771189,-6.65296355
472.999,-0.9407491788,26.01427714,3.719833288,4.573187966,-6.347769142
472.9995,-4.603082071,30.89738767,4.025027696,4.878382374,-9.39971322
473.0,-6.434248517,38.83244227,4.330222103,4.573187966,-17.63996223
473.0005,-6.434248517,42.79996957,3.41463888,2.436827112,-31.06851617
473.001,-5.518665294,37.30647023,1.278278026,-0.6151169646,-45.10745892
473.0015,-5.213470887,28.45583241,0.05750039565,-2.141089003,-56.0944576
473.002,-5.823859702,27.84544359,0.6678892111,-2.446283411,-63.72431779
473.0025,-6.434248517,37.30647023,1.583472434,-2.751477819,-67.9970395
473.003,-4.297887663,45.85191365,0.3626948034,-2.751477819,-67.69184509
473.0035,-0.6355547711,43.71555279,-2.384054866,-2.141089003,-63.11392897
473.004,1.806000491,35.17010938,-4.52041572,-1.835894595,-57.31523523
473.0045,1.195611675,29.06622122,-4.215221312,-2.141089003,-49.38018063
473.005,-2.16152681,25.09869392,-3.299638089,-0.9203113723,-31.98409939
473.0055,-8.265414964,14.11169524,-2.078860458,2.131632705,-0.5490753962
473.006,-14.36930312,-6.031135664,0.05750039565,4.267993559,36.98983675
473.0065,-18.03163601,-26.17396657,3.109444473,2.131632705,68.42486074
473.007,-18.94721923,-38.38174288,3.41463888,-0.004728149245,90.3988581
473.0075,-22.30435772,-46.62199189,0.05750039565,2.131632705,111.1520778
473.008,-31.46018995,-60.96612905,-3.910026904,7.930326451,129.4637423
473.0085,-39.39524455,-79.88818233,-3.604832497,9.761492897,131.2949087
473.009,-35.73291166,-88.73882015,0.05750039565,4.267993559,108.7105226
473.0095,-21.6939689,-77.75182147,4.940610919,-2.141089003,75.13913771
473.01,-8.875803779,-52.11549123,7.38216618,-3.361866634,49.80800187
473.0105,-3.992693256,-26.47916098,7.38216618,-0.004728149245,36.07425353
473.011,-1.856332402,-9.388274149,6.16138855,2.131632705,23.56128281
473.0115,3.637166937,1.293530121,4.635416511,2.436827112,9.522340058
473.012,8.825471868,10.44936235,4.330222103,3.352410335,4.028840719
473.0125,6.689111014,18.38441695,3.719833288,6.70954882,9.827534466
473.013,-0.02516595566,22.96233307,1.278278026,9.761492897,16.54181144
473.0135,-3.077110033,24.48830511,-1.773666051,9.761492897,12.87947854
473.014,-0.3303603634,26.92986037,-3.299638089,6.404354412,1.587285458
473.0145,3.026778121,34.25452615,-2.384054866,2.436827112,-8.789324404
473.015,3.942361344,44.93633042,-0.8580828275,0.6056606662,-15.80879578
473.0155,2.416389306,52.26099621,-1.468471643,0.9108550739,-21.60748953
473.016,-0.3303603634,51.34541298,-3.910026904,2.74202152,-24.96462801
473.0165,-1.856332402,44.93633042,-6.046387758,4.267993559,-25.57501683
473.017,2.416389306,39.74802549,-6.656776574,5.793965597,-26.18540564
473.0175,13.70858239,37.91685904,-6.046387758,6.404354412,-28.93215531
473.018,24.39038666,32.1181653,-4.825610128,6.404354412,-29.84773854
473.0185,25.00077548,16.2480561,-2.994443681,4.878382374,-24.6594336
473.019,16.15013765,-4.505163626,-0.5528884197,2.74202152,-17.63996223
473.0195,7.299499829,-17.93371756,3.109444473,0.9108550739,-15.80879578
473.02,3.942361344,-16.40774553,5.550999734,-2.141089003,-18.25035104
473.0205,2.721583714,-6.031135664,4.330222103,-6.719005119,-18.55554545
473.021,-1.856332402,2.209113344,1.583472434,-9.465754788,-14.89321256
473.0215,-8.570609371,5.261057421,2.19386125,-9.16056038,-13.06204611
473.022,-12.53813667,7.397418275,6.771777365,-8.855365973,-14.58801815
473.0225,-9.791387002,12.89091761,7.992554996,-11.29692123,-15.80879578
473.023,-0.9407491788,20.82597221,2.19386125,-13.7384765,-14.58801815
473.0235,12.48780476,28.45583241,-2.078860458,-13.12808768,-13.06204611
473.024,26.83194192,35.47530378,4.025027696,-9.770949196,-11.84126848
473.0245,36.29296856,42.18958075,14.09644315,-5.803421896,-7.568546773
473.025,38.12413501,45.85191365,10.73930467,-0.004728149245,2.197674273
473.0255,33.54621889,42.79996957,-8.182748612,8.540715266,13.18467295
473.026,27.13713633,36.0856926,-25.57882985,16.47576987,18.67817229
473.0265,21.64363699,33.64413734,-26.18921867,17.6965475,16.54181144
473.027,17.37091528,33.33894293,-18.55935847,14.03421461,10.43792328
473.0275,14.31897121,21.13116662,-18.86455288,11.89785375,4.334035127
473.028,11.87741594,-13.05060704,-28.32557952,13.11863138,2.502868681
473.0285,7.299499829,-57.91418497,-33.20869004,11.89785375,4.028840719
473.029,1.195611675,-85.07648726,-29.24116274,5.183576782,4.334035127
473.0295,-3.992693256,-77.14143266,-24.66324663,-2.446283411,-0.8542698039
473.03,-6.12905411,-45.09601985,-26.49441307,-6.108616303,-8.789324404
473.0305,-4.908276479,-12.13502382,-25.88402426,-5.498227488,-13.36724052
473.031,-3.38230444,7.397418275,-12.15027591,-3.667061042,-12.4516573
473.0315,-3.077110033,18.68961136,9.518527034,-2.141089003,-10.62049085
473.032,-2.771915625,26.92986037,22.03149775,-0.9203113723,-11.53607407
473.0325,-2.466721217,31.50777648,15.9276096,-0.004728149245,-13.36724052
473.033,-2.771915625,29.37141563,1.888666842,1.521243889,-11.84126848
473.0335,-4.603082071,24.79349951,-0.247694012,5.793965597,-7.568546773
473.034,-6.12905411,22.65713866,15.9276096,10.67707612,-2.990630658
473.0345,-6.434248517,18.68961136,39.42757899,12.81343697,0.06131341924
473.035,-5.213470887,6.787029459,54.38210497,10.98227053,1.28209105
473.0355,-3.38230444,-6.031135664,55.6028826,8.540715266,-0.2438809885
473.036,-0.6355547711,-6.946718887,50.10938326,6.70954882,-6.347769142
473.0365,2.721583714,2.209113344,43.39510629,5.793965597,-13.06204611
473.037,5.773527791,-0.8428307331,33.32369084,5.183576782,-13.36724052
473.0375,7.909888645,-28.61552183,17.45358163,4.573187966,-2.990630658
473.038,10.0462495,-60.35574023,1.278278026,1.826438297,12.57428413
473.0385,13.09819358,-64.93365635,-7.572359797,-3.972255449,23.56128281
473.039,14.92936002,-40.51810373,-9.708720651,-9.16056038,24.47686604
473.0395,14.0137768,-13.05060704,-9.403526243,-8.855365973,17.15220025
473.04,12.48780476,-1.758413956,-10.01391506,-3.361866634,5.860007166
473.0405,13.70858239,-1.453219549,-7.877554205,0.3004662585,-7.873741181
473.041,16.15013765,-1.453219549,-2.078860458,-0.3099225569,-25.26982242
473.0415,14.0137768,-0.8428307331,4.330222103,-5.19303308,-41.44512603
473.042,5.468333383,-0.5376363254,7.687360588,-12.82289327,-49.38018063
473.0425,-5.213470887,4.04027979,7.687360588,-20.14755906,-47.85420859
473.043,-15.89527516,13.80650084,5.550999734,-21.9787255,-42.66590366
473.0435,-28.10305146,18.99480577,3.109444473,-13.7384765,-39.30876517
473.044,-43.05757744,15.63766728,3.41463888,-1.835894595,-38.69837636
473.0445,-54.04457612,12.58572321,9.518527034,0.6056606662,-36.86720991
473.045,-54.34977053,19.60519458,18.67435927,-8.244977157,-30.45812735
473.0455,-47.02510474,29.67661004,21.42110893,-17.40080939,-18.55554545
473.046,-41.5316054,29.67661004,12.2652767,-15.56964294,-4.821797104
473.0465,-40.92121659,19.60519458,-2.689249274,-6.108616303,4.639229535
473.047,-41.5316054,9.228584721,-13.67624795,-0.3099225569,6.470395981
473.0475,-40.31082777,4.650668606,-15.5074144,-2.446283411,4.334035127
473.048,-38.47966133,3.124696567,-9.708720651,-5.803421896,3.418451904
473.0485,-34.20693962,2.209113344,3.41463888,-3.972255449,3.418451904
473.049,-21.6939689,2.209113344,22.03149775,4.267993559,0.6717022346
473.0495,-2.16152681,1.598724528,35.7652461,17.39135309,-5.126991512
473.05,14.31897121,-1.758413956,33.01849643,30.51471262,-11.53607407
473.0505,21.9488314,-7.251913295,18.36916486,36.92379518,-15.50360137
473.051,24.08519225,-9.998662964,8.602943811,32.95626788,-14.28282374
473.0515,26.22155311,-9.693468556,10.73930467,22.27446361,-7.263352366
473.052,28.35791396,-9.693468556,11.65488789,11.89785375,2.808063089
473.0525,26.52674751,-9.998662964,-2.994443681,5.793965597,8.301562427
473.053,23.16960903,-7.86230211,-27.10480189,1.826438297,5.554812758
473.0535,22.55922021,-3.284385995,-43.2801055,-0.9203113723,2.197674273
473.054,23.16960903,-0.5376363254,-44.19568872,-2.141089003,8.301562427
473.0545,21.9488314,-1.453219549,-39.61777261,-2.141089003,22.03531077
473.055,19.50727614,-3.284385995,-38.70218938,-2.751477819,32.10672623
473.0555,18.59169291,-2.673997179,-41.14374464,-4.582644265,34.8534759
473.056,16.45533206,-0.5376363254,-41.75413346,-5.803421896,32.41192064
473.0565,10.35144391,0.07275248999,-39.3125782,-4.887838672,27.2236157
473.057,3.331972529,-0.2324419177,-36.26063412,-3.361866634,18.9833667
473.0575,-0.6355547711,-1.758413956,-33.20869004,-2.446283411,11.65870091
473.058,-4.603082071,-4.505163626,-30.46194037,-1.530700188,8.301562427
473.0585,-12.84333108,-5.725941256,-25.88402426,1.216049482,3.113257496
473.059,-21.08358009,-2.979191587,-19.16974729,5.793965597,-11.23087967
473.0595,-22.60955213,1.598724528,-12.45547032,7.930326451,-27.71137768
473.06,-20.77838568,1.903918936,-8.48794302,3.047215928,-28.01657209
473.0605,-25.96669061,-2.368802772,-9.403526243,-7.329393934,-10.62049085
473.061,-39.39524455,-5.725941256,-12.45547032,-15.56964294,6.775590389
473.0615,-51.60302086,-2.673997179,-13.37105354,-14.34886531,10.43792328
473.062,-56.48613138,2.819502159,-10.92949828,-4.887838672,6.470395981
473.0625,-55.57054816,3.124696567,-7.572359797,3.962799151,7.385979204
473.063,-50.07704882,-2.979191587,-4.825610128,5.793965597,12.57428413
473.0635,-37.5640781,-9.083079741,-2.689249274,1.521243889,14.10025617
473.064,-20.77838568,-10.60905178,-1.163277235,-2.446283411,13.18467295
473.0645,-10.40177582,-9.083079741,-0.247694012,-3.361866634,16.23661703
473.065,-10.70697023,-8.167496518,-0.8580828275,-1.22550578,21.11972755
473.0655,-13.14852549,-9.388274149,-2.689249274,0.6056606662,19.59375551
473.066,-7.655026148,-9.998662964,-3.910026904,0.6056606662,10.74311769
473.0665,2.111194898,-8.167496518,-1.773666051,-0.9203113723,2.808063089
473.067,7.604694237,-5.115552441,2.499055657,-3.667061042,0.6717022346
473.0675,7.299499829,-2.063608364,5.550999734,-5.19303308,1.892479865
473.068,6.994305421,-0.8428307331,4.940610919,-4.582644265,2.502868681
473.0685,10.65663831,-1.148025141,4.025027696,-3.056672226,4.028840719
473.069,15.84494324,-1.758413956,5.550999734,-1.22550578,5.860007166
473.0695,21.33844258,-2.673997179,7.687360588,-0.004728149245,6.775590389
473.07,27.74752515,-4.505163626,7.076971773,0.3004662585,6.470395981
473.0705,33.24102448,-6.946718887,4.330222103,-0.9203113723,7.996368019
473.071,33.8514133,-7.86230211,3.719833288,-3.361866634,12.26908973
473.0715,28.05271955,-7.251913295,5.550999734,-3.972255449,14.71064499
473.072,20.72805377,-6.031135664,6.771777365,-2.751477819,12.26908973
473.0725,18.28649851,-5.115552441,5.856194142,-1.530700188,6.470395981
473.073,20.42285936,-4.199969218,4.940610919,-0.6151169646,0.9768966423
473.0735,22.55922021,-3.89477481,5.245805327,0.9108550739,-2.075047435
473.074,21.03324818,-3.89477481,5.550999734,1.826438297,-2.990630658
473.0745,17.37091528,-4.505163626,6.771777365,-0.6151169646,-2.68543625
473.075,14.31897121,-4.505163626,10.73930467,-6.108616303,-2.075047435
473.0755,11.26702713,-2.979191587,15.9276096,-10.38133801,-2.68543625
473.076,6.689111014,-2.673997179,18.67435927,-11.29692123,-3.906213881
473.0765,2.416389306,-3.589580402,17.75877604,-11.60211564,-3.906213881
473.077,3.026778121,-4.810358033,16.53799841,-13.12808768,-3.295825065
473.0775,11.87741594,-4.505163626,15.31722078,-13.12808768,-2.990630658
473.078,25.00077548,-3.589580402,12.87566552,-10.0761436,-2.380241842
473.0785,36.59816297,-4.505163626,9.518527034,-5.19303308,0.6717022346
473.079,42.39685671,-6.946718887,6.771777365,-0.9203113723,7.691173612
473.0795,40.87088468,-8.777885333,3.719833288,3.352410335,14.10025617
473.08,32.63063567,-9.083079741,-2.078860458,9.761492897,16.23661703
473.0805,21.33844258,-9.083079741,-9.098331835,14.33940901,14.71064499
473.081,12.18261035,-9.083079741,-11.23469269,14.33940901,12.87947854
473.0815,7.299499829,-9.083079741,-7.572359797,10.98227053,11.65870091
473.082,5.163138975,-9.083079741,-3.604832497,8.235520859,11.3535065
473.0825,3.026778121,-9.998662964,-2.994443681,7.319937636,11.3535065
473.083,1.500806083,-10.30385737,-2.994443681,5.183576782,10.74311769
473.0835,0.8904172674,-7.86230211,-0.5528884197,2.436827112,8.606756835
473.084,1.195611675,-3.89477481,1.888666842,1.216049482,4.334035127
473.0845,1.195611675,-1.758413956,2.499055657,1.826438297,0.6717022346
473.085,-0.02516595566,-2.368802772,1.888666842,1.521243889,0.3665078269
473.0855,-1.551137994,-3.284385995,2.19386125,-0.6151169646,2.197674273
473.086,-3.38230444,-2.673997179,3.41463888,-2.446283411,3.418451904
473.0865,-3.38230444,-2.673997179,3.41463888,-1.835894595,1.587285458
473.087,-1.856332402,-4.505163626,2.499055657,-0.6151169646,0.06131341924
473.0875,-0.6355547711,-6.641524479,2.804250065,-2.141089003,0.9768966423
473.088,-1.551137994,-5.420746849,4.635416511,-5.19303308,3.418451904
473.0885,-3.077110033,-2.368802772,6.466582957,-6.719005119,4.334035127
473.089,-3.077110033,-0.2324419177,6.466582957,-4.887838672,4.028840719
473.0895,-1.551137994,-1.148025141,5.856194142,-3.056672226,3.113257496
473.09,-1.856332402,-3.89477481,6.16138855,-3.056672226,2.197674273
473.0905,-3.077110033,-7.557107703,7.38216618,-3.361866634,0.9768966423
473.091,-1.551137994,-11.524635,7.992554996,-2.141089003,-0.8542698039
473.0915,3.637166937,-14.88177349,6.771777365,-0.004728149245,-2.380241842
473.092,9.435860683,-15.79735671,4.330222103,0.6056606662,-2.990630658
473.0925,11.87741594,-13.96619026,3.41463888,-0.9203113723,-3.295825065
473.093,11.87741594,-11.21944059,3.719833288,-2.751477819,-3.906213881
473.0935,11.26702713,-9.693468556,3.719833288,-2.446283411,-4.211408289
473.094,11.87741594,-8.777885333,3.109444473,-1.835894595,-3.295825065
473.0945,12.79299917,-6.946718887,2.804250065,-2.446283411,-2.990630658
473.095,14.31897121,-3.89477481,2.804250065,-3.667061042,-4.516602696
473.0955,16.45533206,1.903918936,0.9730836188,-4.277449857,-6.042574735
473.096,16.76052647,11.36494557,-1.773666051,-5.19303308,-5.126991512
473.0965,14.92936002,22.04674984,-1.773666051,-6.719005119,-2.990630658
473.097,13.40338798,28.150638,1.583472434,-7.024199526,-2.075047435
473.0975,15.84494324,24.79349951,3.41463888,-6.108616303,-2.990630658
473.098,21.64363699,15.02727847,-1.163277235,-3.972255449,-1.769853027
473.0985,26.83194192,5.566251829,-7.877554205,-1.835894595,2.197674273
473.099,28.96830278,1.903918936,-9.098331835,-0.004728149245,5.24961835
473.0995,27.74752515,3.124696567,-6.351582166,2.131632705,4.334035127
473.1,23.16960903,4.955863013,-6.961970981,2.436827112,1.587285458
473.1005,14.92936002,5.566251829,-12.15027591,0.6056606662,0.6717022346
473.101,2.721583714,4.955863013,-12.15027591,-0.3099225569,2.808063089
473.1015,-11.01216463,5.566251829,-0.8580828275,2.436827112,7.080784796
473.102,-22.60955213,7.397418275,14.70683197,7.014743228,10.74311769
473.1025,-28.10305146,11.05975117,24.77824742,9.761492897,11.65870091
473.103,-26.57707943,15.33247288,25.38863623,9.761492897,7.691173612
473.1035,-22.30435772,17.46883373,19.58994249,8.540715266,2.197674273
473.104,-19.55760805,16.55325051,13.18085993,7.319937636,-0.8542698039
473.1045,-20.16799686,12.89091761,8.297749404,5.183576782,-2.075047435
473.105,-22.60955213,8.313001498,6.16138855,2.436827112,-3.295825065
473.1055,-25.05110739,2.514307752,5.856194142,1.216049482,-4.516602696
473.106,-26.27188502,-6.031135664,4.940610919,2.131632705,-2.990630658
473.1065,-25.96669061,-15.79735671,3.719833288,3.352410335,-0.5490753962
473.107,-24.74591298,-19.4596896,4.330222103,3.047215928,-2.075047435
473.1075,-24.44071857,-10.91424619,6.771777365,2.131632705,-7.873741181
473.108,-24.44071857,6.481835052,8.297749404,0.9108550739,-11.84126848
473.1085,-19.55760805,23.57272188,5.856194142,0.6056606662,-9.39971322
473.109,-7.34983174,33.94933174,1.888666842,1.216049482,-4.516602696
473.1095,8.215083052,41.27399753,0.3626948034,1.826438297,-2.68543625
473.11,19.50727614,52.26099621,2.19386125,0.3004662585,-5.432185919
473.1105,21.03324818,68.13110541,4.940610919,-2.751477819,-11.53607407
473.111,15.53974884,78.81290968,4.940610919,-4.887838672,-17.94515664
473.1115,8.52027746,73.92979915,2.499055657,-3.972255449,-19.77632308
473.112,2.721583714,55.61813469,-0.247694012,-1.530700188,-13.36724052
473.1125,-0.6355547711,35.78049819,-1.163277235,-0.6151169646,-2.68543625
473.113,-2.466721217,21.43636103,-0.5528884197,-1.530700188,5.860007166
473.1135,-2.771915625,6.787029459,0.05750039565,-3.361866634,11.65870091
473.114,-0.9407491788,-17.93371756,-1.163277235,-5.19303308,17.76258907
473.1145,3.637166937,-49.97913037,-4.52041572,-6.719005119,21.42492196
473.115,9.741055091,-74.6998774,-6.961970981,-5.803421896,16.54181144
473.1155,12.48780476,-86.29726489,-7.572359797,-3.056672226,5.24961835
473.116,9.130666275,-93.62193067,-7.877554205,-0.9203113723,0.6717022346
473.1165,4.247555752,-106.4400958,-8.793137428,-0.3099225569,9.522340058
473.117,2.721583714,-120.4790386,-10.01391506,1.521243889,22.64569959
473.1175,2.721583714,-120.4790386,-10.92949828,7.014743228,24.78206044
473.118,-0.9407491788,-96.06348594,-10.92949828,11.89785375,11.3535065
473.1185,-6.739442925,-51.81029682,-9.403526243,10.37188171,-9.704907627
473.119,-6.434248517,-4.199969218,-5.130804535,3.352410335,-28.93215531
473.1195,1.195611675,26.62466596,0.05750039565,-2.141089003,-40.52954281
473.12,8.215083052,34.86491497,3.41463888,-3.972255449,-42.66590366
473.1205,6.078722198,29.06622122,4.025027696,-3.972255449,-35.34123787
473.121,-3.992693256,19.60519458,2.19386125,-3.667061042,-17.33476782
473.1215,-16.81085838,4.345474198,0.05750039565,-0.004728149245,12.26908973
473.122,-29.01863469,-20.98566164,-3.910026904,5.488771189,47.97683543
473.1225,-38.47966133,-43.87524222,-8.48794302,9.45629849,69.64563838
473.123,-41.5316054,-40.21290933,-11.23469269,7.014743228,61.10019496
473.1235,-35.42771725,-8.167496518,-10.01391506,1.826438297,30.27555978
473.124,-25.6614962,25.09869392,-6.351582166,-0.9203113723,2.808063089
473.1245,-20.16799686,36.0856926,-3.299638089,-0.6151169646,-4.821797104
473.125,-19.25241364,30.89738767,-2.078860458,-0.3099225569,-1.464658619
473.1255,-18.64202483,27.84544359,-2.078860458,-1.530700188,-2.380241842
473.126,-15.59008075,26.92986037,-1.773666051,-2.446283411,-8.178935589
473.1265,-11.31735904,12.89091761,-1.468471643,-1.530700188,-11.23087967
473.127,-7.960220556,-14.57657908,-1.163277235,-0.004728149245,-9.094518812
473.1275,-6.739442925,-39.2973261,-2.384054866,2.131632705,-5.126991512
473.128,-7.34983174,-46.9271863,-5.130804535,3.962799151,-0.5490753962
473.1285,-9.791387002,-40.51810373,-7.572359797,3.962799151,6.165201573
473.129,-11.31735904,-28.92071624,-6.961970981,2.131632705,12.26908973
473.1295,-9.791387002,-16.40774553,-3.910026904,0.3004662585,12.26908973
473.13,-7.655026148,-4.505163626,-0.5528884197,-0.3099225569,4.639229535
473.1305,-6.434248517,4.650668606,0.3626948034,-0.004728149245,-4.821797104
473.131,-5.823859702,10.44936235,0.9730836188,0.6056606662,-11.53607407
473.1315,-3.077110033,15.02727847,3.109444473,0.9108550739,-13.97762934
473.132,-0.02516595566,20.82597221,5.550999734,1.216049482,-14.58801815
473.1325,0.280028452,29.06622122,6.771777365,1.521243889,-17.02957341
473.133,-0.3303603634,40.35841431,6.771777365,0.9108550739,-22.52307275
473.1335,-0.6355547711,53.17657943,7.38216618,-0.3099225569,-30.15293294
473.134,0.280028452,62.63760607,8.908138219,-1.22550578,-35.95162669
473.1345,1.500806083,64.16357811,9.213332627,-1.22550578,-36.86720991
473.135,2.111194898,58.67007877,6.16138855,-0.6151169646,-32.5944882
473.1355,3.331972529,50.73502417,1.278278026,0.3004662585,-25.26982242
473.136,3.637166937,42.79996957,-3.604832497,1.521243889,-16.4191846
473.1365,0.8904172674,33.03374852,-6.961970981,3.047215928,-7.873741181
473.137,-2.16152681,21.43636103,-7.877554205,4.267993559,-1.769853027
473.1375,-2.771915625,15.02727847,-5.130804535,3.352410335,-2.075047435
473.138,-0.6355547711,19.60519458,-0.247694012,-0.004728149245,-8.789324404
473.1385,-0.02516595566,27.84544359,1.583472434,-3.056672226,-17.02957341
473.139,-1.551137994,20.2155834,-1.468471643,-3.667061042,-15.50360137
473.1395,-2.466721217,-10.91424619,-7.877554205,-0.9203113723,2.808063089
473.14,-0.02516595566,-48.45315833,-12.15027591,1.216049482,30.8859486
473.1405,3.637166937,-62.49210109,-11.8450815,0.6056606662,50.41839069
473.141,6.078722198,-44.48563103,-8.48794302,-1.22550578,50.11319628
473.1415,6.994305421,-13.35580145,-3.299638089,-2.751477819,34.54828149
473.142,8.825471868,8.618195906,2.499055657,-4.277449857,18.06778347
473.1425,10.35144391,18.07922254,7.992554996,-7.329393934,9.827534466
473.143,7.299499829,17.46883373,8.908138219,-10.0761436,11.65870091
473.1435,-0.02516595566,4.04027979,2.804250065,-7.939782749,18.67817229
473.144,-5.518665294,-22.20643927,-6.046387758,-0.3099225569,26.00283807
473.1445,-5.823859702,-45.40121426,-12.15027591,7.014743228,29.97036537
473.145,-3.687498848,-47.53757511,-12.45547032,9.761492897,31.49633741
473.1455,-6.12905411,-33.19343795,-9.708720651,8.540715266,33.63269827
473.146,-11.62255345,-20.07007842,-7.267165389,7.319937636,34.24308708
473.1465,-14.36930312,-16.10255112,-6.351582166,6.70954882,28.74958774
473.147,-12.23294226,-13.66099586,-5.435998943,5.183576782,18.67817229
473.1475,-10.09658141,-8.167496518,-3.604832497,1.521243889,11.65870091
473.148,-10.70697023,-1.453219549,-1.163277235,-1.835894595,10.43792328
473.1485,-9.486192594,4.04027979,0.3626948034,-4.277449857,7.691173612
473.149,-2.16152681,8.313001498,0.6678892111,-4.887838672,-1.769853027
473.1495,6.383916606,6.176640644,1.278278026,-4.277449857,-11.84126848
473.15,8.825471868,-6.031135664,4.330222103,-2.141089003,-15.50360137
473.1505,5.163138975,-18.23891197,8.297749404,1.216049482,-15.50360137
473.151,3.942361344,-14.88177349,8.908138219,5.183576782,-18.25035104
473.1515,8.825471868,2.819502159,5.550999734,8.540715266,-24.3542392
473.152,15.53974884,20.2155834,1.888666842,10.67707612,-28.01657209
473.1525,19.50727614,27.23505478,0.6678892111,10.67707612,-28.93215531
473.153,19.81247054,28.150638,1.278278026,8.540715266,-28.6269609
473.1535,18.59169291,26.31947155,1.583472434,6.099160005,-24.3542392
473.154,16.76052647,19.30000018,0.3626948034,5.488771189,-15.19840697
473.1545,14.92936002,9.838973536,-1.773666051,5.793965597,-9.094518812
473.155,14.62416561,4.345474198,-6.046387758,3.657604743,-13.06204611
473.1555,16.15013765,0.07275248999,-10.62430387,-2.446283411,-20.08151749
473.156,17.9813041,-13.35580145,-12.45547032,-9.770949196,-19.16593427
473.1565,18.28649851,-33.80382676,-9.708720651,-13.12808768,-11.84126848
473.157,16.45533206,-44.18043663,-3.910026904,-12.51769887,-11.53607407
473.1575,14.92936002,-34.41421558,-0.5528884197,-11.29692123,-21.91268394
473.158,15.84494324,-13.96619026,-3.910026904,-10.99172683,-32.2892938
473.1585,18.28649851,3.429890975,-11.23469269,-10.68653242,-31.98409939
473.159,17.9813041,15.33247288,-16.42299762,-9.770949196,-24.04904479
473.1595,12.18261035,22.65713866,-16.42299762,-8.550171565,-14.89321256
473.16,1.500806083,22.65713866,-13.67624795,-6.719005119,-4.516602696
473.1605,-10.70697023,15.02727847,-15.5074144,-2.141089003,7.385979204
473.161,-21.08358009,6.787029459,-20.39052492,3.657604743,16.54181144
473.1615,-26.27188502,3.735085382,-17.33858084,6.70954882,17.45739466
473.162,-24.74591298,1.903918936,1.278278026,4.573187966,11.65870091
473.1625,-19.25241364,-0.8428307331,26.91460827,-0.004728149245,4.944423942
473.163,-16.20046956,-0.2324419177,39.7327734,-2.141089003,0.6717022346
473.1635,-19.86280246,6.787029459,31.7977188,-0.6151169646,0.06131341924
473.164,-27.79785706,14.41688965,14.70683197,2.436827112,1.587285458
473.1645,-32.98616199,14.72208406,4.025027696,5.793965597,2.502868681
473.165,-32.68096758,11.36494557,3.109444473,8.235520859,0.06131341924
473.1655,-28.71344028,10.75455676,5.550999734,9.151104082,-3.906213881
473.166,-22.30435772,12.2805288,7.076971773,7.625132043,-3.601019473
473.1665,-14.36930312,11.67013998,9.213332627,4.267993559,-0.8542698039
473.167,-6.434248517,10.14416794,12.87566552,0.3004662585,-1.769853027
473.1675,-1.245943586,11.97533439,15.01202637,-3.361866634,-7.263352366
473.168,1.500806083,16.2480561,15.62241519,-7.939782749,-10.62049085
473.1685,5.468333383,18.38441695,16.53799841,-12.21250446,-7.568546773
473.169,8.825471868,17.77402814,18.67435927,-14.0436709,-3.906213881
473.1695,9.741055091,16.55325051,18.06397045,-11.60211564,-3.906213881
473.17,10.35144391,14.72208406,11.04449907,-6.719005119,-4.516602696
473.1705,15.84494324,11.36494557,1.278278026,-2.141089003,-1.464658619
473.171,23.47480344,7.702612683,-7.572359797,0.3004662585,3.418451904
473.1715,26.22155311,5.261057421,-14.89702558,0.9108550739,5.860007166
473.172,21.9488314,4.955863013,-23.13727459,0.3004662585,6.775590389
473.1725,17.9813041,5.261057421,-29.54635715,-0.6151169646,8.606756835
473.173,19.20208173,6.481835052,-29.24116274,-0.3099225569,10.13272887
473.1735,21.03324818,7.702612683,-22.83208018,1.826438297,7.691173612
473.174,18.28649851,7.092223867,-17.33858084,5.183576782,2.197674273
473.1745,12.48780476,4.955863013,-14.59183117,5.793965597,-0.5490753962
473.175,9.435860683,4.345474198,-4.52041572,2.436827112,0.3665078269
473.1755,9.741055091,7.092223867,18.97955367,-2.141089003,3.113257496
473.176,12.48780476,10.44936235,47.05743918,-7.024199526,1.587285458
473.1765,17.37091528,12.58572321,58.65482667,-11.60211564,-4.821797104
473.177,20.72805377,14.41688965,45.83666155,-14.95925413,-13.97762934
473.1775,16.15013765,16.2480561,22.33669216,-13.43328209,-19.77632308
473.178,3.026778121,17.77402814,6.466582957,-5.803421896,-20.99710071
473.1785,-10.40177582,17.77402814,0.6678892111,2.74202152,-21.30229512
473.179,-16.81085838,16.85844491,-4.825610128,5.183576782,-24.04904479
473.1795,-18.03163601,14.41688965,-16.72819203,-0.6151169646,-26.18540564
473.18,-20.47319127,8.313001498,-28.93596834,-10.68653242,-22.21787834
473.1805,-24.44071857,1.293530121,-32.90349564,-18.31639261,-13.97762934
473.181,-26.57707943,-1.453219549,-29.85155156,-20.14755906,-8.178935589
473.1815,-25.6614962,-0.2324419177,-24.66324663,-17.7060038,-7.568546773
473.182,-23.21994094,0.3779468977,-18.25416407,-14.65405972,-7.568546773
473.1825,-19.25241364,-1.453219549,-4.215221312,-15.87483735,-5.126991512
473.183,-13.14852549,-1.148025141,20.50552571,-19.23197583,-3.295825065
473.1835,-7.655026148,4.345474198,47.36263359,-15.56964294,-6.042574735
473.184,-4.908276479,10.44936235,57.73924345,0.3004662585,-11.23087967
473.1845,-2.466721217,8.313001498,43.08991188,24.71601887,-14.89321256
473.185,1.806000491,-0.5376363254,12.57047111,46.99521064,-13.06204611
473.1855,3.637166937,-8.167496518,-12.45547032,60.42376458,-6.042574735
473.186,-0.6355547711,-10.91424619,-18.25416407,64.39129188,2.197674273
473.1865,-7.34983174,-10.30385737,-7.877554205,59.20298694,6.165201573
473.187,-7.34983174,-9.388274149,4.635416511,47.30040504,3.418451904
473.1875,-0.02516595566,-9.083079741,9.213332627,34.78743433,-0.5490753962
473.188,9.130666275,-9.998662964,2.804250065,25.93679651,1.587285458
473.1885,16.76052647,-12.74541263,-9.098331835,18.00174191,10.74311769
473.189,27.13713633,-16.40774553,-20.08533051,5.793965597,19.59375551
473.1895,37.8189406,-18.54410638,-24.66324663,-7.329393934,24.17167163
473.19,40.87088468,-18.84930079,-22.83208018,-13.12808768,25.08725485
473.1905,33.8514133,-17.01813434,-16.11780321,-8.550171565,22.34050518
473.191,25.61116429,-14.27138467,-9.098331835,-1.835894595,15.0158394
473.1915,23.16960903,-12.44021823,-5.130804535,-0.6151169646,9.827534466
473.192,22.55922021,-13.96619026,-5.435998943,-3.667061042,14.10025617
473.1925,17.67610969,-17.01813434,-7.877554205,-5.803421896,23.2560884
473.193,10.65663831,-16.71293993,-8.793137428,-6.719005119,25.08725485
473.1935,5.773527791,-11.82982941,-7.572359797,-7.634588342,20.20414433
473.194,-0.6355547711,-8.472690926,-5.741193351,-6.719005119,25.69764367
473.1945,-14.36930312,-10.60905178,-4.52041572,-2.751477819,47.36644661
473.195,-28.71344028,-13.05060704,-2.384054866,0.3004662585,66.89888871
473.1955,-31.15499554,-9.388274149,0.9730836188,-1.22550578,65.06772226
473.196,-22.60955213,-1.453219549,4.330222103,-7.024199526,47.06125221
473.1965,-16.81085838,2.209113344,5.856194142,-11.90731005,29.35997656
473.197,-20.16799686,1.903918936,7.076971773,-13.12808768,14.10025617
473.1975,-23.83032976,2.514307752,9.823721442,-11.60211564,-8.484129996
473.198,-19.55760805,6.787029459,11.65488789,-8.855365973,-35.34123787
473.1985,-13.45371989,9.228584721,11.04449907,-6.413810711,-51.21134707
473.199,-12.84333108,6.481835052,8.602943811,-5.498227488,-51.51654148
473.1995,-13.7589143,2.819502159,6.771777365,-7.939782749,-49.38018063
473.2,-8.875803779,1.293530121,6.771777365,-10.68653242,-52.43212471
473.2005,-1.551137994,0.6831413054,7.38216618,-10.68653242,-50.60095826
473.201,-3.38230444,-1.453219549,7.38216618,-7.024199526,-34.73084906
473.2015,-15.59008075,-3.589580402,6.466582957,-2.751477819,-13.06204611
473.202,-28.40824587,-3.284385995,4.635416511,-0.6151169646,-1.464658619
473.2025,-34.20693962,-2.979191587,2.19386125,-0.6151169646,-1.769853027
473.203,-36.03810606,-4.810358033,0.3626948034,-1.22550578,-4.821797104
473.2035,-36.95368929,-8.167496518,0.05750039565,-1.22550578,-5.737380327
473.204,-35.12252284,-10.30385737,0.05750039565,-1.835894595,-6.65296355
473.2045,-29.01863469,-11.524635,-1.773666051,-3.056672226,-8.789324404
473.205,-20.77838568,-14.27138467,-4.52041572,-4.887838672,-9.39971322
473.2055,-14.06410871,-18.84930079,-5.741193351,-5.498227488,-7.568546773
473.206,-8.265414964,-21.29085605,-4.215221312,-3.972255449,-5.126991512
473.2065,-1.856332402,-19.76488401,-1.163277235,-2.446283411,-2.68543625
473.207,3.331972529,-16.71293993,-0.247694012,-2.751477819,0.3665078269
473.2075,7.604694237,-15.4921623,-3.299638089,-4.582644265,5.554812758
473.208,12.48780476,-15.79735671,-8.182748612,-6.719005119,9.827534466
473.2085,20.42285936,-15.79735671,-10.62430387,-7.939782749,11.65870091
473.209,28.66310837,-14.88177349,-9.708720651,-9.770949196,11.0483121
473.2095,33.54621889,-13.05060704,-7.877554205,-11.60211564,9.21714565
473.21,35.68257975,-9.083079741,-7.877554205,-12.51769887,7.385979204
473.2105,36.59816297,-0.8428307331,-9.403526243,-10.99172683,7.691173612
473.211,35.37738534,9.838973536,-9.708720651,-8.244977157,11.0483121
473.2115,30.18908041,18.07922254,-8.48794302,-5.803421896,15.93142262
473.212,22.55922021,18.38441695,-6.961970981,-4.582644265,19.59375551
473.2125,16.76052647,12.2805288,-4.825610128,-3.972255449,20.50933874
473.213,14.62416561,5.566251829,0.05750039565,-3.361866634,18.67817229
473.2135,15.53974884,3.124696567,7.992554996,-0.9203113723,14.40545058
473.214,18.28649851,5.261057421,16.53799841,3.047215928,7.996368019
473.2145,21.33844258,7.702612683,20.50552571,7.930326451,2.197674273
473.215,21.9488314,8.00780709,18.97955367,9.45629849,1.587285458
473.2155,17.67610969,5.261057421,14.70683197,7.319937636,6.470395981
473.216,10.0462495,1.598724528,9.823721442,3.962799151,11.65870091
473.2165,2.111194898,-0.8428307331,6.16138855,2.74202152,15.0158394
473.217,-6.12905411,-2.063608364,4.025027696,2.74202152,17.45739466
473.2175,-16.20046956,-2.368802772,3.719833288,1.826438297,21.11972755
473.218,-24.13552416,-3.589580402,4.940610919,-0.004728149245,22.64569959
473.2185,-23.52513535,-5.115552441,5.245805327,-0.9203113723,17.45739466
473.219,-13.14852549,-5.115552441,3.109444473,0.6056606662,7.996368019
473.2195,-0.02516595566,-4.199969218,-0.5528884197,3.047215928,0.9768966423
473.22,8.52027746,-4.505163626,-3.604832497,4.878382374,-0.5490753962
473.2205,10.0462495,-5.420746849,-3.299638089,4.878382374,-1.159464212
473.221,6.994305421,-5.420746849,-0.8580828275,4.267993559,-2.68543625
473.2215,2.721583714,-4.199969218,0.9730836188,3.047215928,-2.075047435
473.222,-0.6355547711,-3.284385995,1.278278026,2.436827112,0.6717022346
473.2225,-2.466721217,-4.199969218,0.3626948034,1.826438297,3.418451904
473.223,-3.077110033,-5.115552441,0.05750039565,1.521243889,2.197674273
473.2235,-3.38230444,-5.115552441,0.05750039565,0.9108550739,-0.2438809885
473.224,-3.687498848,-4.810358033,0.05750039565,0.6056606662,-1.159464212
473.2245,-3.077110033,-4.810358033,-0.8580828275,0.6056606662,-0.5490753962
473.225,-0.9407491788,-3.589580402,-1.773666051,0.6056606662,-1.769853027
473.2255,0.8904172674,-0.2324419177,-1.773666051,-0.004728149245,-4.211408289
473.226,1.500806083,4.04027979,-0.8580828275,-0.004728149245,-5.126991512
473.2265,1.806000491,4.955863013,-0.247694012,0.3004662585,-4.516602696
473.227,4.247555752,3.429890975,-1.468471643,0.9108550739,-5.737380327
473.2275,8.215083052,2.514307752,-2.994443681,1.216049482,-9.39971322
473.228,11.57222154,3.429890975,-3.299638089,0.6056606662,-12.4516573
473.2285,12.18261035,2.819502159,-1.163277235,-0.004728149245,-10.92568526
473.229,10.65663831,0.07275248999,1.278278026,-0.004728149245,-6.347769142
473.2295,8.52027746,-1.758413956,2.499055657,-0.3099225569,-3.906213881
473.23,7.604694237,-2.368802772,1.888666842,-0.6151169646,-3.295825065
473.2305,7.604694237,-5.725941256,0.9730836188,-0.6151169646,0.6717022346
473.231,6.994305421,-13.05060704,0.9730836188,0.3004662585,10.74311769
473.2315,3.942361344,-20.37527283,1.888666842,0.9108550739,21.11972755
473.232,0.8904172674,-21.59605046,1.888666842,1.216049482,24.17167163
473.2325,2.721583714,-18.84930079,0.05750039565,2.436827112,18.9833667
473.233,10.35144391,-17.62852316,-2.689249274,5.488771189,9.522340058
473.2335,18.28649851,-17.93371756,-4.825610128,8.540715266,1.587285458
473.234,19.20208173,-16.10255112,-3.910026904,7.930326451,-1.464658619
473.2345,12.48780476,-11.524635,-2.078860458,4.267993559,0.9768966423
473.235,4.55275016,-7.557107703,-1.163277235,1.826438297,7.996368019
473.2355,1.195611675,-3.89477481,-1.163277235,1.826438297,12.87947854
473.236,2.111194898,4.345474198,0.05750039565,1.521243889,11.0483121
473.2365,3.942361344,18.07922254,1.583472434,-0.6151169646,4.639229535
473.237,3.942361344,29.37141563,1.583472434,-2.751477819,0.06131341924
473.2375,2.416389306,29.67661004,-0.247694012,-2.446283411,-1.464658619
473.238,-0.6355547711,23.26752748,-1.773666051,-1.22550578,-1.159464212
473.2385,-4.603082071,22.65713866,-1.163277235,-1.22550578,-0.8542698039
473.239,-7.34983174,33.64413734,0.05750039565,-2.751477819,-2.380241842
473.2395,-6.434248517,47.07269128,0.6678892111,-3.667061042,-5.737380327
473.24,-2.466721217,50.73502417,0.9730836188,-3.361866634,-7.873741181
473.2405,-0.9407491788,44.63113601,1.888666842,-3.667061042,-4.516602696
473.241,-3.992693256,39.13763668,2.19386125,-4.887838672,1.892479865
473.2415,-7.044637333,37.91685904,1.278278026,-5.498227488,2.197674273
473.242,-6.434248517,34.86491497,0.05750039565,-5.803421896,-8.484129996
473.2425,-3.38230444,29.37141563,1.278278026,-7.329393934,-23.13346157
473.243,-2.466721217,32.1181653,4.940610919,-8.550171565,-33.51007143
473.2435,-4.603082071,47.07269128,9.213332627,-7.329393934,-39.30876517
473.244,-5.823859702,56.53371791,11.34969348,-4.582644265,-41.75032044
473.2445,-4.603082071,41.27399753,10.43411026,-3.667061042,-36.5620155
473.245,-3.077110033,7.702612683,7.687360588,-5.498227488,-24.3542392
473.2455,-2.466721217,-18.23891197,4.940610919,-6.108616303,-16.724379
473.246,-1.856332402,-25.56357776,2.19386125,-3.056672226,-20.99710071
473.2465,-0.02516595566,-28.00513302,-2.384054866,1.826438297,-25.88021124
473.247,0.280028452,-41.73888137,-9.098331835,4.573187966,-16.724379
473.2475,-0.3303603634,-66.45962839,-13.98144236,4.573187966,4.334035127
473.248,-2.16152681,-96.36868034,-15.5074144,4.878382374,29.05478215
473.2485,-5.213470887,-130.550454,-14.59183117,6.099160005,59.26902851
473.249,-11.92774786,-162.2906724,-14.59183117,8.235520859,94.3663854
473.2495,-19.25241364,-169.6153382,-12.76066473,9.151104082,113.2884387
473.25,-20.16799686,-139.7062862,-5.741193351,7.930326451,93.14560777
473.2505,-11.92774786,-87.51804252,3.41463888,4.267993559,42.7885305
473.251,-1.551137994,-43.2648534,8.602943811,-0.004728149245,0.06131341924
473.2515,3.942361344,-21.90124486,6.16138855,-2.446283411,-13.97762934
473.252,5.773527791,-17.01813434,0.6678892111,-1.530700188,-11.53607407
473.2525,7.604694237,-16.40774553,-1.773666051,-0.004728149245,-10.92568526
473.253,8.215083052,-15.4921623,-1.163277235,0.6056606662,-11.53607407
473.2535,4.55275016,-11.82982941,0.05750039565,0.6056606662,-7.568546773
473.254,-0.6355547711,-3.589580402,0.3626948034,1.216049482,-2.990630658
473.2545,-2.771915625,4.955863013,0.9730836188,2.131632705,-3.906213881
473.255,-1.245943586,9.228584721,0.6678892111,1.826438297,-6.042574735
473.2555,-0.02516595566,11.67013998,-0.8580828275,0.9108550739,-3.601019473
473.256,-1.551137994,19.91038899,-2.994443681,0.6056606662,0.3665078269
473.2565,-4.603082071,33.33894293,-3.299638089,0.6056606662,0.6717022346
473.257,-7.044637333,42.79996957,-2.384054866,-0.3099225569,-0.8542698039
473.2575,-8.570609371,44.32594161,-1.773666051,-3.056672226,0.06131341924
473.258,-7.044637333,43.10516398,-1.773666051,-5.803421896,1.587285458
473.2585,-0.6355547711,44.32594161,-1.773666051,-7.939782749,-1.159464212
473.259,7.909888645,44.32594161,-1.773666051,-9.465754788,-6.958157958
473.2595,13.09819358,41.27399753,-2.689249274,-9.770949196,-10.31529644
473.26,12.79299917,39.44283108,-2.994443681,-8.244977157,-10.92568526
473.2605,10.96183272,40.96880312,-2.078860458,-4.887838672,-14.28282374
473.261,12.18261035,33.03374852,0.05750039565,-3.361866634,-22.52307275
473.2615,14.31897121,3.124696567,0.6678892111,-4.277449857,-30.45812735
473.262,12.79299917,-38.38174288,0.05750039565,-5.19303308,-33.81526584
473.2625,6.994305421,-61.27132346,0.6678892111,-3.361866634,-33.51007143
473.263,0.280028452,-45.70640867,2.804250065,-0.004728149245,-33.81526584
473.2635,-3.687498848,-5.115552441,4.940610919,2.131632705,-36.5620155
473.264,-5.823859702,29.98180444,4.635416511,3.047215928,-39.30876517
473.2645,-8.875803779,46.46230246,4.025027696,4.267993559,-40.2243484
473.265,-12.23294226,52.56619061,5.245805327,5.183576782,-39.61395958
473.2655,-13.7589143,58.36488436,6.466582957,4.267993559,-37.17240432
473.266,-11.92774786,59.58566199,4.940610919,2.74202152,-31.37371057
473.2665,-8.265414964,47.37788568,0.05750039565,3.657604743,-20.3867119
473.267,-4.603082071,24.79349951,-4.825610128,7.014743228,-5.737380327
473.2675,-2.771915625,4.345474198,-6.046387758,9.45629849,10.13272887
473.268,-3.38230444,-7.557107703,-3.299638089,8.540715266,26.00283807
473.2685,-4.603082071,-16.10255112,1.583472434,5.488771189,40.95736405
473.269,-3.992693256,-24.03760572,6.466582957,2.131632705,51.33397391
473.2695,-0.02516595566,-28.31032743,8.297749404,-2.141089003,54.38591799
473.27,5.773527791,-29.22591065,6.466582957,-8.550171565,53.47033477
473.2705,10.35144391,-33.49863236,3.719833288,-13.7384765,53.77552917
473.271,11.57222154,-43.57004781,2.19386125,-14.0436709,53.77552917
473.2715,9.741055091,-48.45315833,-0.5528884197,-10.0761436,46.7560578
473.272,8.215083052,-35.0246044,-6.961970981,-5.19303308,29.05478215
473.2725,10.0462495,-3.89477481,-9.708720651,-3.361866634,6.165201573
473.273,14.92936002,28.150638,0.9730836188,-5.19303308,-15.19840697
473.2735,18.89688732,44.32594161,23.25227538,-7.634588342,-30.76332176
473.274,18.28649851,41.57919194,37.59641254,-6.108616303,-35.64643228
473.2745,14.0137768,27.54024918,29.35616353,1.521243889,-25.88021124
473.275,8.215083052,13.50130643,6.16138855,10.98227053,-6.042574735
473.2755,3.331972529,5.261057421,-10.01391506,16.47576987,8.911951243
473.276,0.280028452,2.209113344,-10.31910947,17.6965475,8.606756835
473.2765,-0.3303603634,-0.5376363254,-3.604832497,17.39135309,-0.8542698039
473.277,-0.6355547711,-8.472690926,0.3626948034,18.00174191,-5.432185919
473.2775,-2.771915625,-20.68046723,0.9730836188,17.6965475,0.3665078269
473.278,-6.12905411,-31.3622715,0.9730836188,13.7290202,9.522340058
473.2785,-8.570609371,-35.3297988,0.9730836188,6.099160005,15.0158394
473.279,-8.570609371,-34.10902117,-0.5528884197,-2.141089003,22.64569959
473.2795,-10.09658141,-29.22591065,-4.52041572,-6.719005119,39.73658642
473.28,-15.59008075,-19.4596896,-10.01391506,-5.19303308,56.82747325
473.2805,-20.47319127,-3.284385995,-14.59183117,-2.141089003,55.91189003
473.281,-17.42124719,15.02727847,-16.72819203,-4.887838672,33.02230945
473.2815,-9.180998187,26.92986037,-17.33858084,-12.82289327,5.860007166
473.282,-7.044637333,26.31947155,-21.30610814,-16.79042057,-6.347769142
473.2825,-14.97969193,19.60519458,-27.4099963,-10.99172683,-5.737380327
473.283,-23.21994094,17.46883373,-28.02038511,-4.277449857,-7.263352366
473.2835,-22.30435772,23.26752748,-21.00091374,-5.498227488,-17.02957341
473.284,-15.28488634,30.28699885,-15.20221999,-10.68653242,-26.79579446
473.2845,-11.62255345,30.28699885,-20.69571933,-9.770949196,-29.23734972
473.285,-13.14852549,24.79349951,-31.98791241,-2.446283411,-29.54254413
473.2855,-14.67449753,20.2155834,-38.09180057,2.436827112,-31.98409939
473.286,-15.59008075,18.07922254,-39.61777261,4.573187966,-32.5944882
473.2865,-19.55760805,15.63766728,-44.80607754,9.761492897,-25.57501683
473.287,-25.6614962,12.58572321,-47.85802161,17.08615868,-16.11399019
473.2875,-26.88227383,10.44936235,-34.73466208,18.30693631,-13.67243493
473.288,-21.08358009,10.14416794,-6.656776574,11.59265934,-18.55554545
473.2885,-13.7589143,10.14416794,16.232804,5.183576782,-21.60748953
473.289,-9.486192594,11.67013998,21.11591453,2.74202152,-18.25035104
473.2895,-5.518665294,19.30000018,20.81072012,-1.530700188,-13.06204611
473.29,-0.02516595566,33.64413734,32.40810761,-9.16056038,-11.53607407
473.2905,4.857944568,48.29346891,54.38210497,-10.99172683,-12.7568517
473.291,4.55275016,55.9233291,69.64182535,-1.530700188,-13.67243493
473.2915,3.026778121,56.83891232,69.64182535,10.67707612,-15.19840697
473.292,7.604694237,52.87138502,60.48599312,14.64460342,-18.86073986
473.2925,18.89688732,45.54671924,49.80418885,10.67707612,-22.21787834
473.293,29.27349718,34.86491497,38.81719017,6.70954882,-21.91268394
473.2935,34.46180211,23.87791629,28.1353859,5.488771189,-20.08151749
473.294,37.51374619,16.2480561,19.8951369,3.047215928,-20.3867119
473.2945,42.39685671,10.44936235,13.79124874,-0.9203113723,-22.52307275
473.295,46.97477283,2.819502159,7.076971773,-3.667061042,-22.82826716
473.2955,45.14360638,-6.946718887,0.05750039565,-4.277449857,-20.08151749
473.296,35.07219093,-17.93371756,-4.52041572,-3.056672226,-15.80879578
473.2965,20.42285936,-27.0895498,-6.046387758,-0.004728149245,-9.704907627
473.297,5.773527791,-34.71940999,-7.877554205,4.573187966,1.28209105
473.2975,-6.739442925,-39.60252051,-10.92949828,7.319937636,17.15220025
473.298,-15.89527516,-38.9921317,-11.5398871,6.099160005,31.191143
473.2985,-20.16799686,-31.66746591,-8.182748612,4.573187966,39.43139201
473.299,-19.25241364,-20.07007842,-3.910026904,6.099160005,44.61969694
473.2995,-14.97969193,-8.167496518,-0.5528884197,7.930326451,50.41839069
473.3,-10.70697023,0.9883357131,2.499055657,5.183576782,53.77552917
473.3005,-7.655026148,6.481835052,6.771777365,-0.6151169646,49.80800187
473.301,-3.38230444,8.00780709,9.823721442,-4.277449857,38.51580879
473.3015,3.331972529,7.397418275,9.213332627,-4.887838672,25.69764367
473.302,11.26702713,7.397418275,5.245805327,-6.719005119,16.84700584
473.3025,14.92936002,7.397418275,0.05750039565,-10.68653242,12.57428413
473.303,10.35144391,6.176640644,-5.741193351,-11.90731005,10.13272887
473.3035,-1.551137994,2.819502159,-13.06585914,-7.634588342,6.165201573
473.304,-15.89527516,-0.2324419177,-19.7801361,-3.056672226,0.06131341924
473.3045,-27.18746824,-3.89477481,-24.35805222,-1.22550578,-4.516602696
473.305,-32.68096758,-9.388274149,-25.88402426,-0.004728149245,-4.516602696
473.3055,-33.5965508,-16.10255112,-24.05285781,3.047215928,-2.68543625
473.306,-30.23941232,-19.4596896,-17.94896966,5.183576782,-7.263352366
473.3065,-22.30435772,-12.74541263,-9.098331835,3.047215928,-23.74385038
473.307,-9.791387002,1.903918936,-2.078860458,-0.004728149245,-45.71784774
473.3075,3.026778121,17.77402814,-0.8580828275,1.216049482,-61.89315134
473.308,11.57222154,25.70908274,-3.299638089,6.404354412,-65.86067864
473.3085,10.35144391,25.09869392,-5.435998943,9.45629849,-61.58795694
473.309,0.5852228597,21.43636103,-5.435998943,6.70954882,-53.34770793
473.3095,-11.92774786,19.30000018,-4.825610128,0.6056606662,-42.97109807
473.31,-20.16799686,17.77402814,-3.604832497,-6.413810711,-31.06851617
473.3105,-19.86280246,14.72208406,-1.163277235,-14.0436709,-21.60748953
473.311,-11.31735904,11.05975117,2.19386125,-21.6735311,-17.33476782
473.3115,-0.02516595566,8.618195906,4.940610919,-27.47222484,-15.80879578
473.312,8.52027746,4.04027979,5.856194142,-29.6085857,-11.53607407
473.3125,11.57222154,-9.998662964,4.025027696,-28.69300247,-4.821797104
473.313,10.96183272,-31.66746591,2.19386125,-26.25144721,-0.2438809885
473.3135,10.65663831,-47.53757511,3.109444473,-21.9787255,0.06131341924
473.314,11.57222154,-47.2323807,8.297749404,-16.18003176,0.3665078269
473.3145,10.35144391,-33.80382676,11.65488789,-7.329393934,4.944423942
473.315,3.637166937,-21.29085605,5.245805327,6.70954882,11.3535065
473.3155,-6.12905411,-15.1869679,-10.01391506,24.71601887,15.0158394
473.316,-14.67449753,-12.44021823,-23.74766341,39.67054485,13.79506177
473.3165,-17.42124719,-9.083079741,-25.27363544,44.24846097,10.74311769
473.317,-15.59008075,-7.557107703,-17.33858084,38.44976722,8.606756835
473.3175,-12.84333108,-8.167496518,-10.31910947,27.76796295,6.470395981
473.318,-11.31735904,-7.86230211,-9.403526243,19.22251954,3.418451904
473.3185,-10.40177582,-5.115552441,-10.92949828,13.42382579,-0.2438809885
473.319,-10.09658141,-2.673997179,-10.31910947,8.845909674,-3.295825065
473.3195,-9.486192594,-2.673997179,-8.793137428,4.878382374,-3.601019473
473.32,-9.180998187,-2.979191587,-8.793137428,1.826438297,-2.075047435
473.3205,-8.265414964,-1.758413956,-10.31910947,-1.22550578,-0.8542698039
473.321,-6.12905411,-1.148025141,-8.793137428,-5.19303308,-1.464658619
473.3215,-4.297887663,-2.673997179,-1.773666051,-8.244977157,-2.68543625
473.322,-3.077110033,-3.589580402,9.213332627,-7.634588342,-2.68543625
473.3225,-2.466721217,-1.453219549,20.81072012,-3.361866634,-0.8542698039
473.323,-2.771915625,0.6831413054,28.44058031,-0.004728149245,1.28209105
473.3235,-3.687498848,0.07275248999,29.96655235,0.3004662585,3.418451904
473.324,-3.992693256,-1.453219549,25.38863623,-0.3099225569,4.639229535
473.3245,-3.687498848,-1.148025141,16.84319282,-0.6151169646,6.165201573
473.325,-3.687498848,-0.5376363254,8.602943811,-0.004728149245,7.996368019
473.3255,-5.823859702,-2.063608364,3.41463888,0.6056606662,9.522340058
473.326,-8.570609371,-6.336330072,0.9730836188,1.216049482,11.0483121
473.3265,-7.044637333,-9.998662964,-0.247694012,3.352410335,14.40545058
473.327,-0.02516595566,-11.21944059,-2.078860458,6.099160005,20.20414433
473.3275,7.299499829,-9.998662964,-3.299638089,7.014743228,25.39244926
473.328,9.435860683,-8.167496518,-2.994443681,5.488771189,26.9184213
473.3285,8.825471868,-6.031135664,-2.078860458,3.657604743,23.86647722
473.329,11.57222154,-4.199969218,-2.384054866,3.962799151,19.2885611
473.3295,17.9813041,-2.368802772,-2.689249274,5.183576782,16.84700584
473.33,21.03324818,-0.2324419177,-1.163277235,4.573187966,18.06778347
473.3305,17.67610969,2.514307752,0.9730836188,1.521243889,19.89894992
473.331,13.09819358,4.650668606,2.804250065,-0.6151169646,18.06778347
473.3315,13.09819358,5.261057421,2.499055657,-0.6151169646,10.13272887
473.332,17.37091528,4.955863013,1.583472434,-0.3099225569,-1.769853027
473.3325,21.33844258,4.650668606,1.278278026,-0.6151169646,-11.53607407
473.333,22.25402581,3.124696567,1.583472434,-1.835894595,-13.67243493
473.3335,21.33844258,0.9883357131,1.888666842,-2.141089003,-9.094518812
473.334,20.42285936,-0.2324419177,1.583472434,-2.141089003,-4.211408289
473.3345,19.20208173,0.07275248999,0.3626948034,-2.446283411,-2.380241842
473.335,17.9813041,0.07275248999,-0.247694012,-3.056672226,-1.159464212
473.3355,17.06572088,-0.5376363254,-0.247694012,-3.056672226,3.113257496
473.336,16.15013765,-1.758413956,0.3626948034,-3.667061042,9.21714565
473.3365,16.76052647,-2.368802772,1.888666842,-5.19303308,13.48986736
473.337,17.37091528,-3.284385995,2.804250065,-5.19303308,15.3210338
473.3375,16.15013765,-4.505163626,3.109444473,-2.751477819,15.62622821
473.338,12.18261035,-4.810358033,2.499055657,-1.22550578,12.26908973
473.3385,7.909888645,-3.284385995,0.9730836188,-2.751477819,5.24961835
473.339,5.163138975,-2.979191587,-0.247694012,-5.498227488,0.06131341924
473.3395,3.026778121,-5.115552441,-0.247694012,-4.887838672,0.6717022346
473.34,-0.9407491788,-6.946718887,0.05750039565,-2.751477819,4.639229535
473.3405,-6.739442925,-5.420746849,-0.247694012,-2.141089003,2.808063089
473.341,-11.31735904,-1.453219549,-0.5528884197,-3.667061042,-4.516602696
473.3415,-14.97969193,-0.5376363254,0.6678892111,-4.582644265,-10.01010203
473.342,-20.16799686,-4.199969218,3.109444473,-2.751477819,-9.39971322
473.3425,-25.96669061,-9.998662964,3.719833288,-1.22550578,-9.094518812
473.343,-28.40824587,-13.96619026,2.19386125,-1.22550578,-14.89321256
473.3435,-25.35630179,-14.57657908,0.6678892111,-1.22550578,-23.43865597
473.344,-19.55760805,-13.66099586,0.9730836188,-0.3099225569,-25.88021124
473.3445,-13.45371989,-13.05060704,1.278278026,0.6056606662,-21.91268394
473.345,-7.960220556,-13.35580145,0.05750039565,0.6056606662,-16.724379
473.3455,-3.077110033,-13.35580145,-1.468471643,0.6056606662,-13.97762934
473.346,0.5852228597,-10.91424619,-0.247694012,0.3004662585,-11.53607407
473.3465,3.637166937,-6.031135664,2.19386125,-0.6151169646,-8.484129996
473.347,5.773527791,0.3779468977,3.719833288,-2.446283411,-3.601019473
473.3475,6.078722198,8.00780709,2.499055657,-2.141089003,4.944423942
473.348,3.942361344,16.2480561,1.888666842,0.3004662585,17.76258907
473.3485,0.8904172674,22.35194425,4.330222103,0.9108550739,29.05478215
473.349,-0.02516595566,22.65713866,7.992554996,-1.530700188,31.191143
473.3495,2.416389306,15.33247288,9.213332627,-4.887838672,24.47686604
473.35,6.078722198,5.566251829,6.771777365,-5.19303308,17.15220025
473.3505,8.52027746,0.9883357131,3.719833288,-3.056672226,15.93142262
473.351,9.130666275,1.598724528,2.19386125,-1.530700188,17.45739466
473.3515,8.215083052,3.124696567,1.278278026,-0.9203113723,17.15220025
473.352,6.383916606,0.9883357131,0.05750039565,-0.004728149245,15.0158394
473.3525,4.857944568,-1.758413956,-0.8580828275,0.9108550739,13.48986736
473.353,4.247555752,-2.979191587,-0.8580828275,1.521243889,12.87947854
473.3535,3.942361344,-2.979191587,-0.5528884197,1.826438297,11.0483121
473.354,3.331972529,-4.199969218,-0.8580828275,2.131632705,6.775590389
473.3545,3.942361344,-4.810358033,-1.468471643,1.216049482,1.892479865
473.355,5.163138975,-3.589580402,-0.5528884197,-0.3099225569,-2.075047435
473.3555,5.773527791,-2.063608364,1.583472434,-1.835894595,-5.432185919
473.356,4.55275016,-3.589580402,3.109444473,-2.141089003,-6.347769142
473.3565,2.721583714,-7.86230211,2.499055657,-2.141089003,-3.906213881
473.357,1.195611675,-11.524635,2.499055657,-3.056672226,0.3665078269
473.3575,-1.856332402,-12.44021823,4.940610919,-3.361866634,4.334035127
473.358,-7.34983174,-11.21944059,8.297749404,-2.751477819,6.775590389
473.3585,-11.62255345,-8.472690926,8.908138219,-3.972255449,9.21714565
473.359,-10.40177582,-4.199969218,6.466582957,-8.244977157,11.96389532
473.3595,-5.823859702,0.07275248999,3.109444473,-12.82289327,12.57428413
473.36,-4.297887663,3.124696567,0.05750039565,-13.12808768,9.21714565
473.3605,-7.34983174,5.566251829,-2.994443681,-8.855365973,4.639229535
473.361,-11.01216463,8.618195906,-6.046387758,-2.446283411,0.9768966423
473.3615,-11.62255345,11.97533439,-7.572359797,2.131632705,0.06131341924
473.362,-10.40177582,11.36494557,-6.961970981,4.878382374,2.502868681
473.3625,-9.486192594,7.702612683,-5.741193351,5.183576782,7.080784796
473.363,-8.875803779,6.787029459,-5.130804535,5.183576782,9.827534466
473.3635,-8.570609371,11.67013998,-4.215221312,6.099160005,7.385979204
473.364,-8.265414964,15.94286169,-3.299638089,8.540715266,1.892479865
473.3645,-7.655026148,10.44936235,-3.299638089,9.761492897,0.06131341924
473.365,-5.213470887,-4.199969218,-3.910026904,7.930326451,6.165201573
473.3655,-2.16152681,-16.71293993,-3.910026904,4.573187966,13.18467295
473.366,-0.3303603634,-17.93371756,-1.773666051,3.047215928,12.57428413
473.3665,1.195611675,-9.693468556,0.6678892111,2.74202152,6.165201573
473.367,5.468333383,-2.063608364,1.583472434,0.9108550739,0.9768966423
473.3675,11.57222154,-0.5376363254,1.888666842,-2.141089003,0.06131341924
473.368,15.23455443,-3.284385995,1.888666842,-3.972255449,-1.159464212
473.3685,14.31897121,-5.420746849,1.888666842,-2.141089003,-6.347769142
473.369,11.26702713,-5.420746849,0.9730836188,0.6056606662,-12.7568517
473.3695,9.741055091,-6.031135664,-0.247694012,1.826438297,-17.02957341
473.37,8.825471868,-7.251913295,-1.163277235,1.216049482,-19.16593427
473.3705,8.52027746,-7.251913295,-1.773666051,-0.004728149245,-19.77632308
473.371,10.65663831,-4.199969218,-2.078860458,-0.004728149245,-17.33476782
473.3715,15.23455443,-0.8428307331,-2.078860458,-0.3099225569,-11.53607407
473.372,19.50727614,-0.8428307331,-0.8580828275,-1.22550578,-6.347769142
473.3725,21.64363699,-3.284385995,0.6678892111,-1.530700188,-4.821797104
473.373,22.25402581,-4.810358033,2.19386125,-1.22550578,-5.737380327
473.3735,21.03324818,-5.420746849,1.583472434,-1.22550578,-3.906213881
473.374,15.84494324,-8.167496518,0.05750039565,-1.530700188,2.808063089
473.3745,7.604694237,-12.74541263,-0.247694012,-1.835894595,11.96389532
473.375,0.5852228597,-13.66099586,0.6678892111,-1.22550578,18.67817229
473.3755,-2.16152681,-7.557107703,1.888666842,-0.004728149245,19.2885611
473.376,-2.771915625,0.3779468977,0.6678892111,0.6056606662,13.79506177
473.3765,-3.38230444,3.429890975,-1.773666051,0.6056606662,6.775590389
473.377,-4.603082071,3.124696567,-2.994443681,0.3004662585,2.808063089
473.3775,-7.960220556,4.650668606,-1.163277235,0.9108550739,1.587285458
473.378,-13.14852549,8.923390313,1.583472434,0.9108550739,-2.075047435
473.3785,-18.33683042,11.97533439,2.19386125,-0.004728149245,-12.14646289
473.379,-20.16799686,11.67013998,1.278278026,-0.9203113723,-24.3542392
473.3795,-20.16799686,12.2805288,1.888666842,-1.22550578,-32.5944882
473.38,-22.91474653,16.85844491,4.330222103,-0.6151169646,-35.64643228
473.3805,-29.01863469,22.96233307,6.16138855,-0.3099225569,-39.30876517
473.381,-31.46018995,26.31947155,5.245805327,-0.9203113723,-45.71784774
473.3815,-25.6614962,25.40388833,3.109444473,-0.9203113723,-50.29576385
473.382,-16.20046956,20.52077781,1.583472434,0.3004662585,-49.38018063
473.3825,-9.791387002,15.33247288,0.05750039565,2.436827112,-45.10745892
473.383,-7.34983174,13.19611202,-1.468471643,2.131632705,-41.75032044
473.3835,-7.34983174,12.58572321,-1.773666051,-0.3099225569,-35.64643228
473.384,-10.09658141,8.00780709,0.05750039565,-3.056672226,-19.77632308
473.3845,-14.67449753,-2.673997179,2.499055657,-3.972255449,5.860007166
473.385,-18.64202483,-13.96619026,2.19386125,-2.751477819,29.97036537
473.3855,-18.33683042,-14.88177349,-1.163277235,-0.9203113723,40.34697524
473.386,-12.84333108,-2.368802772,-4.825610128,0.3004662585,34.54828149
473.3865,-3.077110033,13.19611202,-5.130804535,1.826438297,22.64569959
473.387,9.435860683,18.99480577,-4.215221312,3.657604743,19.59375551
473.3875,21.9488314,9.533779129,-6.656776574,4.267993559,31.80153182
473.388,28.66310837,-6.946718887,-13.37105354,2.131632705,50.41839069
473.3885,28.96830278,-17.01813434,-20.39052492,-0.6151169646,58.96383411
473.389,27.13713633,-12.44021823,-21.91649696,-0.9203113723,50.7235851
473.3895,25.9163587,0.3779468977,-18.25416407,1.216049482,36.07425353
473.39,24.39038666,8.923390313,-14.89702558,1.521243889,28.44439334
473.3905,22.55922021,6.481835052,-13.06585914,-3.972255449,27.2236157
473.391,24.69558107,-2.368802772,-7.572359797,-10.68653242,22.64569959
473.3915,32.02024685,-10.60905178,6.466582957,-10.68653242,13.18467295
473.392,38.42932941,-16.10255112,24.1678586,-3.667061042,7.691173612
473.3925,39.34491264,-20.37527283,32.1029132,3.352410335,9.827534466
473.393,36.29296856,-24.03760572,25.99902505,7.625132043,14.40545058
473.3935,32.93583008,-29.22591065,14.70683197,11.28746494,18.9833667
473.394,28.66310837,-39.2973261,8.908138219,15.56018664,26.30803248
473.3945,20.11766495,-51.81029682,10.43411026,14.94979783,35.46386471
473.395,7.604694237,-58.52457379,12.57047111,6.404354412,38.21061438
473.3955,-3.992693256,-56.08301853,10.12891585,-1.835894595,31.191143
473.396,-11.92774786,-49.36874156,3.41463888,-1.530700188,20.81453314
473.3965,-15.89527516,-41.43368696,-4.825610128,4.267993559,11.96389532
473.397,-16.50566397,-29.22591065,-12.45547032,7.014743228,4.028840719
473.3975,-14.67449753,-13.66099586,-17.64377525,4.878382374,-0.2438809885
473.398,-14.97969193,-5.725941256,-19.7801361,3.047215928,3.418451904
473.3985,-19.25241364,-9.998662964,-20.08533051,3.962799151,13.18467295
473.399,-23.21994094,-14.27138467,-19.4749417,3.047215928,14.10025617
473.3995,-20.77838568,-5.420746849,-18.25416407,-2.751477819,0.9768966423
473.4,-12.23294226,9.228584721,-15.8126088,-9.465754788,-11.53607407
473.4005,-5.213470887,11.36494557,-13.06585914,-12.21250446,-10.01010203
473.401,-5.213470887,-2.368802772,-10.31910947,-11.60211564,1.587285458
473.4015,-9.486192594,-18.23891197,-7.572359797,-10.99172683,8.301562427
473.402,-11.92774786,-24.64799453,-6.046387758,-10.38133801,7.080784796
473.4025,-11.62255345,-25.25838335,-7.267165389,-8.244977157,4.639229535
473.403,-9.791387002,-26.78435539,-9.708720651,-4.582644265,1.892479865
473.4035,-7.34983174,-27.69993861,-9.708720651,-2.446283411,-5.126991512
473.404,-3.992693256,-23.1220225,-5.130804535,-3.361866634,-15.50360137
473.4045,-2.771915625,-15.4921623,0.6678892111,-5.19303308,-21.91268394
473.405,-6.434248517,-7.557107703,5.550999734,-5.498227488,-25.88021124
473.4055,-12.23294226,3.429890975,10.12891585,-4.887838672,-36.5620155
473.406,-12.84333108,25.40388833,17.14838723,-5.19303308,-54.26329115
473.4065,-7.655026148,56.83891232,24.1678586,-6.413810711,-63.72431779
473.407,-4.603082071,87.35835309,26.91460827,-5.498227488,-54.87367997
473.4075,-6.739442925,104.7544343,22.64188657,-1.835894595,-35.34123787
473.408,-8.265414964,105.3648231,13.18085993,1.216049482,-21.60748953
473.4085,-3.992693256,92.85185243,0.3626948034,2.131632705,-20.08151749
473.409,1.195611675,73.31941034,-11.23469269,3.047215928,-21.91268394
473.4095,0.5852228597,50.12463535,-17.64377525,6.099160005,-18.55554545
473.41,-3.077110033,26.01427714,-16.72819203,8.235520859,-10.62049085
473.4105,-2.771915625,7.702612683,-11.23469269,4.878382374,-2.990630658
473.411,-0.02516595566,-1.758413956,-6.656776574,-0.3099225569,3.723646312
473.4115,-3.992693256,-9.693468556,-5.741193351,-0.004728149245,10.74311769
473.412,-12.84333108,-25.56357776,-8.182748612,6.404354412,13.79506177
473.4125,-13.14852549,-44.48563103,-10.31910947,7.014743228,4.639229535
473.413,-0.3303603634,-49.97913037,-10.31910947,-3.667061042,-17.02957341
473.4135,14.62416561,-34.41421558,-9.708720651,-17.40080939,-36.86720991
473.414,17.9813041,-10.30385737,-13.37105354,-22.89430873,-38.39318195
473.4145,11.26702713,4.955863013,-23.442469,-20.14755906,-21.30229512
473.415,3.942361344,8.313001498,-33.51388445,-15.87483735,-2.075047435
473.4155,-0.02516595566,6.176640644,-35.65024531,-11.29692123,4.334035127
473.416,-3.992693256,2.819502159,-32.90349564,-3.972255449,0.9768966423
473.4165,-8.265414964,-2.063608364,-34.42946767,3.047215928,-1.769853027
473.417,-7.960220556,-6.031135664,-36.56582853,3.352410335,-2.075047435
473.4175,-3.687498848,-3.284385995,-20.08533051,-2.141089003,-4.211408289
473.418,-2.771915625,5.871446236,20.81072012,-3.056672226,-7.873741181
473.4185,-9.180998187,12.89091761,65.06390924,6.70954882,-6.65296355
473.419,-18.94721923,10.75455676,84.59635133,19.83290835,0.9768966423
473.4195,-24.13552416,-1.148025141,79.10285199,24.41082447,7.691173612
473.42,-22.30435772,-18.54410638,70.25221417,18.30693631,6.165201573
473.4205,-16.20046956,-31.0570771,71.4729918,9.761492897,-0.2438809885
473.421,-10.09658141,-29.22591065,75.4405191,6.099160005,-5.432185919
473.4215,-5.518665294,-11.21944059,72.38857502,7.930326451,-7.568546773
473.422,-3.077110033,11.97533439,63.23274279,10.98227053,-9.39971322
473.4225,-2.466721217,26.31947155,50.71977207,13.7290202,-11.23087967
473.423,-3.38230444,27.84544359,32.40810761,14.64460342,-10.92568526
473.4235,-4.297887663,22.96233307,9.823721442,14.03421461,-9.094518812
473.424,-3.38230444,19.30000018,-5.741193351,13.11863138,-8.484129996
473.4245,-0.02516595566,17.16363932,-10.01391506,11.89785375,-9.094518812
473.425,3.026778121,13.50130643,-11.8450815,10.37188171,-9.39971322
473.4255,3.942361344,7.397418275,-21.91649696,7.014743228,-8.484129996
473.426,2.416389306,2.514307752,-36.87102294,2.74202152,-7.263352366
473.4265,1.195611675,1.293530121,-46.94243839,-0.9203113723,-5.432185919
473.427,1.500806083,1.598724528,-49.68918806,-1.835894595,-1.159464212
473.4275,0.8904172674,-2.368802772,-49.99438247,-0.004728149245,4.639229535
473.428,-1.245943586,-15.1869679,-50.29957688,2.74202152,10.43792328
473.4285,-3.992693256,-31.3622715,-47.55282721,3.657604743,15.62622821
473.429,-3.38230444,-40.51810373,-40.83855024,2.131632705,20.50933874
473.4295,1.500806083,-37.77135406,-32.59830123,0.3004662585,22.03531077
473.43,8.52027746,-26.78435539,-23.74766341,-0.004728149245,18.37297788
473.4305,14.0137768,-13.66099586,-12.45547032,-0.3099225569,12.26908973
473.431,17.67610969,-0.2324419177,-1.773666051,-3.056672226,8.606756835
473.4315,21.9488314,12.2805288,2.804250065,-6.413810711,5.24961835
473.432,27.13713633,16.55325051,0.3626948034,-7.634588342,-4.516602696
473.4325,30.49427481,9.228584721,-2.078860458,-6.413810711,-20.3867119
473.433,28.35791396,0.6831413054,0.05750039565,-4.887838672,-31.67890498
473.4335,22.25402581,4.955863013,5.550999734,-4.887838672,-30.15293294
473.434,16.15013765,22.04674984,8.297749404,-4.887838672,-20.08151749
473.4345,12.18261035,36.39088701,7.38216618,-4.277449857,-12.14646289
473.435,9.435860683,33.94933174,4.940610919,-3.972255449,-10.31529644
473.4355,6.078722198,18.07922254,0.6678892111,-4.887838672,-11.23087967
473.436,3.331972529,1.293530121,-7.267165389,-5.803421896,-12.7568517
473.4365,1.806000491,-9.388274149,-18.25416407,-5.498227488,-14.89321256
473.437,-0.02516595566,-16.10255112,-25.57882985,-3.972255449,-16.4191846
473.4375,-4.297887663,-19.76488401,-25.57882985,-3.056672226,-14.89321256
473.438,-9.180998187,-17.32332875,-21.61130255,-2.141089003,-10.62049085
473.4385,-12.23294226,-9.083079741,-18.25416407,-1.530700188,-6.042574735
473.439,-13.45371989,-1.758413956,-15.5074144,-1.22550578,-0.8542698039
473.4395,-17.11605279,-0.8428307331,-8.793137428,-0.6151169646,4.334035127
473.44,-24.44071857,-5.115552441,2.499055657,1.826438297,7.691173612
473.4405,-30.54460673,-5.725941256,15.31722078,6.099160005,6.775590389
473.441,-30.84980113,0.9883357131,22.94708097,7.625132043,4.028840719
473.4415,-24.44071857,11.36494557,24.1678586,3.657604743,1.28209105
473.442,-15.59008075,17.46883373,20.81072012,-2.446283411,-1.464658619
473.4425,-7.960220556,17.16363932,16.84319282,-6.413810711,-5.126991512
473.443,-1.551137994,14.72208406,12.87566552,-6.413810711,-5.126991512
473.4435,2.721583714,12.89091761,8.297749404,-4.887838672,1.587285458
473.444,3.942361344,10.14416794,2.804250065,-2.141089003,13.79506177
473.4445,1.500806083,2.819502159,-1.773666051,1.521243889,23.86647722
473.445,-1.551137994,-8.472690926,-4.825610128,5.793965597,29.05478215
473.4455,-2.466721217,-18.84930079,-5.741193351,7.319937636,30.58075419
473.446,-0.9407491788,-21.59605046,-5.435998943,5.183576782,27.2236157
473.4465,1.806000491,-15.1869679,-2.994443681,1.216049482,17.76258907
473.447,4.55275016,-5.115552441,1.583472434,-1.22550578,6.775590389
473.4475,5.773527791,1.598724528,5.550999734,-1.835894595,0.6717022346
473.448,4.55275016,3.429890975,4.940610919,-0.6151169646,0.3665078269
473.4485,1.195611675,4.345474198,2.499055657,1.521243889,-1.464658619
473.449,-0.9407491788,8.00780709,2.499055657,3.352410335,-10.92568526
473.4495,-0.9407491788,11.67013998,5.856194142,3.047215928,-22.21787834
473.45,-0.3303603634,11.36494557,7.076971773,2.74202152,-28.93215531
473.4505,-1.551137994,6.481835052,3.719833288,4.267993559,-31.67890498
473.451,-3.687498848,3.124696567,0.05750039565,6.404354412,-34.73084906
473.4515,-2.16152681,4.04027979,-0.8580828275,6.099160005,-35.64643228
473.452,3.026778121,6.481835052,0.05750039565,3.352410335,-28.6269609
473.4525,8.215083052,5.871446236,-0.8580828275,1.826438297,-16.11399019
473.453,9.741055091,4.04027979,-2.689249274,2.131632705,-7.263352366
473.4535,9.435860683,5.261057421,-2.078860458,1.521243889,-6.042574735
473.454,8.52027746,8.923390313,-0.247694012,-0.6151169646,-4.211408289
473.4545,4.55275016,10.75455676,0.05750039565,-2.141089003,4.028840719
473.455,-2.466721217,9.838973536,-0.5528884197,-1.530700188,14.10025617
473.4555,-7.34983174,8.923390313,0.05750039565,-2.141089003,16.23661703
473.456,-3.992693256,10.44936235,1.888666842,-6.108616303,11.3535065
473.4565,6.383916606,12.89091761,4.635416511,-10.38133801,8.301562427
473.457,16.76052647,13.19611202,7.38216618,-10.38133801,10.74311769
473.4575,20.11766495,11.36494557,9.518527034,-7.024199526,15.62622821
473.458,14.92936002,7.092223867,9.213332627,-4.277449857,20.50933874
473.4585,5.773527791,1.903918936,5.550999734,-3.972255449,26.61322689
473.459,-0.6355547711,-2.063608364,1.583472434,-4.582644265,33.02230945
473.4595,-2.771915625,-2.673997179,0.3626948034,-3.667061042,35.1586703
473.46,-2.16152681,-0.8428307331,2.19386125,-2.141089003,31.80153182
473.4605,-2.466721217,0.6831413054,3.719833288,-1.22550578,27.2236157
473.461,-3.077110033,0.9883357131,3.41463888,-1.22550578,24.17167163
473.4615,-1.856332402,0.9883357131,3.41463888,-1.530700188,21.73011637
473.462,-1.551137994,1.598724528,4.330222103,-2.141089003,19.59375551
473.4625,-5.518665294,1.598724528,6.16138855,-3.361866634,19.2885611
473.463,-12.23294226,0.3779468977,7.992554996,-4.582644265,19.89894992
473.4635,-14.06410871,-0.8428307331,9.518527034,-6.108616303,15.93142262
473.464,-7.960220556,-1.453219549,10.12891585,-7.634588342,7.996368019
473.4645,-2.16152681,-2.673997179,8.908138219,-7.939782749,3.418451904
473.465,-3.992693256,-4.199969218,6.771777365,-6.413810711,6.470395981
473.4655,-12.84333108,-3.284385995,6.466582957,-4.277449857,11.96389532
473.466,-20.77838568,2.514307752,7.992554996,-3.667061042,12.26908973
473.4665,-22.30435772,10.44936235,7.38216618,-3.972255449,7.385979204
473.467,-16.50566397,14.11169524,1.888666842,-2.446283411,2.808063089
473.4675,-6.434248517,10.75455676,-6.351582166,0.6056606662,0.6717022346
473.468,3.026778121,4.04027979,-12.15027591,3.352410335,-0.8542698039
473.4685,7.299499829,-0.2324419177,-12.76066473,2.74202152,-3.295825065
473.469,6.689111014,-0.2324419177,-8.793137428,1.216049482,-4.821797104
473.4695,6.994305421,1.293530121,-4.825610128,2.131632705,-5.432185919
473.47,13.40338798,0.9883357131,-3.604832497,5.488771189,-6.958157958
473.4705,21.33844258,-0.8428307331,-4.215221312,7.319937636,-8.789324404
473.471,24.08519225,-1.758413956,-5.130804535,5.793965597,-8.178935589
473.4715,21.33844258,-1.453219549,-4.52041572,3.047215928,-5.432185919
473.472,17.9813041,-0.8428307331,-3.299638089,2.131632705,-4.211408289
473.4725,17.06572088,-1.758413956,-2.689249274,2.74202152,-4.821797104
473.473,16.15013765,-4.199969218,-2.384054866,2.131632705,-4.821797104
473.4735,13.40338798,-6.946718887,-1.163277235,0.6056606662,-2.68543625
473.474,10.0462495,-8.472690926,0.3626948034,-0.004728149245,-0.5490753962
473.4745,8.825471868,-7.86230211,1.583472434,1.521243889,0.3665078269
473.475,8.825471868,-6.336330072,1.278278026,2.74202152,1.587285458
473.4755,9.130666275,-4.505163626,1.278278026,1.826438297,2.808063089
473.476,8.825471868,-4.505163626,1.583472434,-0.004728149245,3.418451904
473.4765,8.215083052,-4.810358033,1.888666842,-0.6151169646,2.502868681
473.477,6.383916606,-5.115552441,2.19386125,-0.9203113723,2.502868681
473.4775,3.026778121,-4.810358033,2.499055657,-1.530700188,4.334035127
473.478,-0.9407491788,-5.115552441,3.41463888,-2.446283411,6.165201573
473.4785,-3.077110033,-4.810358033,4.025027696,-2.751477819,6.470395981
473.479,-1.856332402,-2.979191587,3.719833288,-2.141089003,5.24961835
473.4795,0.5852228597,0.6831413054,3.41463888,-1.835894595,4.334035127
473.48,1.500806083,4.345474198,4.025027696,-2.446283411,2.197674273
473.4805,0.5852228597,6.176640644,4.940610919,-3.667061042,-0.2438809885
473.481,0.280028452,6.176640644,5.550999734,-4.887838672,-1.464658619
473.4815,1.500806083,5.871446236,4.635416511,-4.887838672,0.6717022346
473.482,3.637166937,7.702612683,3.109444473,-2.751477819,5.24961835
473.4825,4.857944568,12.2805288,1.888666842,-0.004728149245,8.301562427
473.483,6.078722198,17.16363932,1.278278026,1.521243889,8.911951243
473.4835,7.604694237,18.07922254,1.583472434,1.826438297,7.385979204
473.484,7.909888645,16.2480561,2.804250065,1.216049482,3.723646312
473.4845,5.773527791,16.85844491,5.550999734,0.6056606662,-0.8542698039
473.485,3.026778121,22.96233307,8.297749404,-0.3099225569,-4.211408289
473.4855,1.500806083,31.81297089,8.297749404,-0.6151169646,-3.906213881
473.486,-0.02516595566,38.22205345,6.16138855,0.3004662585,-0.8542698039
473.4865,-4.297887663,38.83244227,3.109444473,2.131632705,0.9768966423
473.487,-9.180998187,29.37141563,0.9730836188,3.657604743,0.6717022346
473.4875,-11.31735904,6.481835052,-2.384054866,5.793965597,-0.2438809885
473.488,-11.62255345,-23.4272169,-6.961970981,9.45629849,0.06131341924
473.4885,-14.67449753,-44.18043663,-9.098331835,11.89785375,1.892479865
473.489,-20.16799686,-43.2648534,-5.741193351,7.014743228,3.113257496
473.4895,-21.99916331,-27.69993861,0.6678892111,-3.972255449,2.502868681
473.49,-16.81085838,-15.1869679,6.466582957,-14.95925413,0.06131341924
473.4905,-7.34983174,-15.1869679,10.73930467,-20.14755906,-2.990630658
473.491,-0.02516595566,-22.51163368,13.18085993,-21.06314228,-5.432185919
473.4915,2.721583714,-29.22591065,12.87566552,-19.84236465,-6.042574735
473.492,3.026778121,-31.0570771,9.823721442,-15.87483735,-5.432185919
473.4925,2.721583714,-29.83629946,9.213332627,-9.770949196,-4.211408289
473.493,2.111194898,-30.14149387,14.09644315,-3.972255449,-1.769853027
473.4935,2.111194898,-37.16096525,15.9276096,0.3004662585,2.808063089
473.494,4.55275016,-47.2323807,4.635416511,8.235520859,7.080784796
473.4945,8.825471868,-46.62199189,-14.89702558,22.27446361,7.385979204
473.495,10.65663831,-26.78435539,-26.49441307,34.48223992,3.113257496
473.4955,6.994305421,1.293530121,-22.52688577,36.31340637,-1.159464212
473.496,-0.02516595566,19.60519458,-11.8450815,28.07315736,-3.906213881
473.4965,-4.908276479,24.48830511,-5.435998943,18.61213072,-8.484129996
473.497,-3.38230444,26.92986037,-3.604832497,12.20304816,-18.25035104
473.4975,1.195611675,33.64413734,-2.384054866,7.319937636,-28.01657209
473.498,5.163138975,37.91685904,-1.163277235,2.131632705,-29.23734972
473.4985,7.299499829,33.03374852,-1.773666051,-1.22550578,-21.60748953
473.499,10.65663831,24.79349951,-2.078860458,-2.141089003,-13.36724052
473.4995,16.45533206,19.91038899,-1.163277235,-2.446283411,-10.62049085
473.5,21.64363699,14.41688965,-1.468471643,-1.835894595,-8.789324404
473.5005,22.86441462,-0.2324419177,-4.52041572,-0.004728149245,-0.8542698039
473.501,21.64363699,-23.1220225,-7.572359797,2.74202152,11.65870091
473.5015,21.03324818,-42.959659,-7.572359797,2.74202152,21.42492196
473.502,19.81247054,-50.28432478,-6.656776574,-0.004728149245,23.2560884
473.5025,13.70858239,-46.9271863,-6.656776574,-0.6151169646,20.50933874
473.503,1.806000491,-42.65446459,-6.656776574,0.9108550739,19.89894992
473.5035,-12.23294226,-46.62199189,-5.741193351,2.131632705,22.950894
473.504,-22.60955213,-59.1349626,-6.961970981,0.3004662585,27.2236157
473.5045,-27.49266265,-71.95312773,-11.5398871,-2.446283411,29.66517097
473.505,-26.57707943,-74.39468299,-14.89702558,-3.056672226,26.00283807
473.5055,-21.38877449,-61.88171227,-14.28663677,-2.141089003,14.71064499
473.506,-13.7589143,-38.68693729,-13.67624795,-1.835894595,-4.516602696
473.5065,-5.213470887,-13.05060704,-14.89702558,-2.446283411,-27.10098887
473.507,1.195611675,9.533779129,-10.92949828,-2.751477819,-42.97109807
473.5075,5.163138975,26.31947155,2.499055657,-2.141089003,-46.02304214
473.508,7.604694237,35.47530378,16.84319282,-0.6151169646,-36.5620155
473.5085,8.825471868,37.30647023,18.06397045,0.9108550739,-24.3542392
473.509,10.96183272,36.69608141,6.16138855,2.131632705,-17.02957341
473.5095,13.09819358,36.0856926,-5.435998943,2.131632705,-14.28282374
473.51,13.40338798,32.42335971,-7.877554205,1.216049482,-10.01010203
473.5105,10.35144391,23.26752748,-2.078860458,2.131632705,-2.990630658
473.511,5.468333383,11.67013998,5.550999734,3.962799151,2.808063089
473.5115,1.195611675,2.514307752,12.87566552,3.047215928,10.13272887
473.512,-3.38230444,-7.251913295,16.53799841,-0.6151169646,28.13919893
473.5125,-9.791387002,-22.81682809,15.62241519,-4.277449857,57.43786207
473.513,-15.28488634,-38.68693729,11.9600823,-3.972255449,80.32744264
473.5135,-14.97969193,-41.73888137,9.823721442,-1.530700188,76.97030416
473.514,-8.570609371,-26.47916098,9.823721442,-0.3099225569,50.11319628
473.5145,-2.466721217,-3.89477481,8.297749404,-0.6151169646,21.73011637
473.515,-0.02516595566,11.97533439,4.330222103,-0.9203113723,7.080784796
473.5155,-0.02516595566,18.38441695,0.9730836188,-0.6151169646,2.808063089
473.516,0.8904172674,20.52077781,-0.247694012,-1.530700188,0.3665078269
473.5165,1.500806083,20.52077781,-2.994443681,-3.361866634,-1.464658619
473.517,-0.9407491788,18.38441695,-7.267165389,-4.582644265,-0.8542698039
473.5175,-5.213470887,16.2480561,-9.708720651,-5.19303308,0.06131341924
473.518,-7.960220556,16.2480561,-8.182748612,-4.582644265,-1.769853027
473.5185,-9.486192594,15.02727847,-4.825610128,-1.835894595,-5.126991512
473.519,-11.01216463,8.923390313,-2.994443681,0.3004662585,-6.65296355
473.5195,-12.23294226,0.07275248999,-3.604832497,-0.004728149245,-6.347769142
473.52,-11.62255345,-6.336330072,-6.046387758,-4.582644265,-6.042574735
473.5205,-9.486192594,-6.946718887,-9.098331835,-8.244977157,-6.65296355
473.521,-9.486192594,-3.284385995,-11.23469269,-7.939782749,-8.789324404
473.5215,-11.31735904,0.3779468977,-10.01391506,-5.803421896,-10.31529644
473.522,-14.36930312,1.293530121,-7.877554205,-5.19303308,-6.042574735
473.5225,-17.11605279,-1.758413956,-6.656776574,-5.19303308,3.418451904
473.523,-18.94721923,-3.589580402,-5.741193351,-3.972255449,10.13272887
473.5235,-19.25241364,1.293530121,-2.994443681,-3.056672226,7.996368019
473.524,-17.7264416,11.67013998,0.6678892111,-4.887838672,1.28209105
473.5245,-16.20046956,21.74155544,3.109444473,-7.329393934,-3.906213881
473.525,-13.7589143,30.89738767,4.635416511,-6.719005119,-11.53607407
473.5255,-8.570609371,43.10516398,7.992554996,-4.887838672,-26.18540564
473.526,-1.856332402,54.70255147,11.34969348,-5.498227488,-38.08798754
473.5265,1.500806083,55.61813469,11.34969348,-7.634588342,-36.5620155
473.527,0.280028452,46.46230246,9.823721442,-6.719005119,-28.6269609
473.5275,-1.551137994,37.61166464,11.04449907,-3.056672226,-30.45812735
473.528,-1.551137994,32.1181653,13.79124874,-0.3099225569,-39.61395958
473.5285,-2.16152681,19.91038899,13.18085993,-0.004728149245,-38.08798754
473.529,-5.823859702,0.9883357131,9.213332627,1.521243889,-24.04904479
473.5295,-7.655026148,-8.167496518,7.076971773,3.962799151,-19.77632308
473.53,-3.077110033,-0.2324419177,5.550999734,3.657604743,-34.42565465
473.5305,3.026778121,7.397418275,1.278278026,1.216049482,-44.80226451
473.531,3.026778121,-5.420746849,-2.384054866,0.9108550739,-25.26982242
473.5315,-2.466721217,-33.19343795,0.05750039565,2.436827112,16.23661703
473.532,-4.908276479,-54.55704649,8.297749404,-0.004728149245,51.63916832
473.5325,2.721583714,-61.88171227,12.2652767,-11.90731005,63.23655581
473.533,14.31897121,-62.18690668,4.940610919,-28.99819688,55.60669562
473.5335,19.50727614,-56.99860175,-11.8450815,-41.20597319,40.95736405
473.534,14.31897121,-40.82329814,-33.51388445,-41.20597319,29.05478215
473.5345,5.163138975,-16.71293993,-48.77360484,-29.9137801,25.08725485
473.535,0.5852228597,1.598724528,-44.80607754,-14.65405972,24.47686604
473.5355,2.111194898,8.313001498,-18.55935847,-3.667061042,17.76258907
473.536,4.55275016,8.00780709,11.34969348,1.216049482,5.554812758
473.5365,0.5852228597,4.04027979,25.38863623,7.319937636,-0.8542698039
473.537,-8.265414964,-3.589580402,26.91460827,19.52771394,4.639229535
473.5375,-14.97969193,-10.91424619,33.93407965,33.26146229,14.10025617
473.538,-11.62255345,-10.60905178,46.75224477,38.75496163,14.71064499
473.5385,-0.6355547711,-5.115552441,46.75224477,34.48223992,7.691173612
473.539,9.435860683,-2.063608364,27.8301915,28.37835177,0.9768966423
473.5395,12.48780476,-1.453219549,8.297749404,26.24199091,-2.68543625
473.54,9.435860683,3.429890975,3.719833288,25.6316021,-6.958157958
473.5405,5.773527791,14.72208406,3.719833288,21.35888039,-12.14646289
473.541,4.247555752,23.26752748,-6.656776574,13.7290202,-16.11399019
473.5415,4.247555752,25.40388833,-23.74766341,6.70954882,-19.77632308
473.542,4.55275016,25.40388833,-31.98791241,2.436827112,-22.82826716
473.5425,6.078722198,25.70908274,-28.32557952,0.9108550739,-24.04904479
473.543,8.825471868,25.09869392,-22.22169137,1.216049482,-20.6919063
473.5435,10.35144391,23.87791629,-18.86455288,2.74202152,-14.58801815
473.544,8.825471868,24.1831107,-13.98144236,3.352410335,-8.789324404
473.5445,3.942361344,21.13116662,-6.961970981,1.521243889,-5.432185919
473.545,-1.245943586,4.955863013,-2.384054866,-0.9203113723,-4.516602696
473.5455,-5.823859702,-24.34280013,-2.689249274,-2.141089003,-2.68543625
473.546,-8.265414964,-50.58951919,-5.130804535,-0.3099225569,0.3665078269
473.5465,-6.739442925,-56.99860175,-6.656776574,1.826438297,2.808063089
473.547,-0.6355547711,-42.65446459,-6.351582166,1.216049482,-0.2438809885
473.5475,7.909888645,-21.29085605,-3.604832497,-3.361866634,-9.094518812
473.548,13.40338798,-5.115552441,0.05750039565,-8.855365973,-13.36724052
473.5485,10.65663831,1.903918936,2.499055657,-10.38133801,-7.263352366
473.549,2.416389306,2.819502159,2.499055657,-6.719005119,3.113257496
473.5495,-3.992693256,0.9883357131,0.3626948034,-0.6151169646,9.827534466
473.55,-5.213470887,-0.8428307331,-2.384054866,3.657604743,12.87947854
473.5505,-3.992693256,-2.063608364,-6.351582166,5.183576782,16.84700584
473.551,-2.771915625,-1.758413956,-8.793137428,4.878382374,18.37297788
473.5515,-0.6355547711,-0.2324419177,-8.182748612,4.267993559,11.0483121
473.552,4.55275016,1.903918936,-6.351582166,4.267993559,-2.075047435
473.5525,11.57222154,3.735085382,-6.656776574,3.352410335,-10.01010203
473.553,14.31897121,4.04027979,-9.098331835,-0.004728149245,-8.789324404
473.5535,10.96183272,2.819502159,-9.708720651,-5.19303308,-7.568546773
473.554,4.247555752,2.209113344,-8.182748612,-8.244977157,-13.97762934
473.5545,-1.551137994,4.955863013,-7.267165389,-7.329393934,-25.26982242
473.555,-7.960220556,10.14416794,-6.046387758,-4.277449857,-34.12046024
473.5555,-14.97969193,14.11169524,0.6678892111,-1.530700188,-37.78279314
473.556,-20.47319127,14.11169524,13.18085993,0.6056606662,-37.78279314
473.5565,-22.30435772,11.97533439,24.47305301,3.352410335,-36.86720991
473.557,-22.60955213,12.2805288,27.8301915,5.183576782,-38.69837636
473.5575,-23.52513535,16.55325051,24.47305301,5.183576782,-44.80226451
473.558,-24.13552416,21.13116662,18.67435927,5.183576782,-52.1269303
473.5585,-21.08358009,19.91038899,12.2652767,6.404354412,-55.48406878
473.559,-14.67449753,12.89091761,5.856194142,6.70954882,-52.73731911
473.5595,-8.875803779,5.566251829,0.6678892111,2.74202152,-47.24381977
473.56,-5.213470887,3.429890975,-1.468471643,-4.582644265,-42.36070925
473.5605,-0.9407491788,6.481835052,-1.773666051,-11.60211564,-38.39318195
473.561,6.689111014,10.75455676,-1.163277235,-15.26444853,-34.42565465
473.5615,17.67610969,12.2805288,0.05750039565,-15.26444853,-30.15293294
473.562,27.74752515,11.36494557,-0.247694012,-11.90731005,-24.3542392
473.5625,33.54621889,10.14416794,-1.773666051,-7.329393934,-17.02957341
473.563,32.93583008,11.97533439,-2.994443681,-4.582644265,-9.704907627
473.5635,26.83194192,17.46883373,-2.078860458,-4.582644265,-4.516602696
473.564,19.81247054,23.87791629,0.3626948034,-5.19303308,0.06131341924
473.5645,15.84494324,25.40388833,1.278278026,-4.277449857,6.775590389
473.565,14.92936002,17.77402814,-0.247694012,-3.056672226,19.59375551
473.5655,12.48780476,3.735085382,-2.384054866,-2.446283411,36.98983675
473.566,9.130666275,-8.167496518,-3.299638089,-1.530700188,52.55475154
473.5665,8.215083052,-12.44021823,-3.299638089,-0.004728149245,60.18461174
473.567,9.741055091,-9.693468556,-3.299638089,0.3004662585,61.10019496
473.5675,8.215083052,-6.641524479,-1.773666051,-0.004728149245,62.32097259
473.568,0.280028452,-9.693468556,0.05750039565,0.9108550739,69.64563838
473.5685,-8.875803779,-17.01813434,-0.5528884197,3.657604743,77.58069298
473.569,-11.31735904,-23.4272169,-3.910026904,3.657604743,76.35991534
473.5695,-6.12905411,-25.86877216,-6.961970981,-1.22550578,65.98330548
473.57,-2.466721217,-24.64799453,-7.267165389,-7.024199526,54.99630681
473.5705,-3.687498848,-20.37527283,-6.046387758,-5.803421896,46.7560578
473.571,-3.992693256,-12.13502382,-4.52041572,-0.004728149245,33.93789267
473.5715,1.806000491,-1.758413956,-2.078860458,1.521243889,11.0483121
473.572,10.0462495,4.04027979,1.278278026,-2.141089003,-9.39971322
473.5725,9.130666275,2.209113344,4.025027696,-5.19303308,-13.06204611
473.573,-1.551137994,-3.284385995,3.41463888,-2.446283411,-0.8542698039
473.5735,-12.23294226,-7.251913295,0.05750039565,3.352410335,9.21714565
473.574,-14.97969193,-7.251913295,-2.994443681,7.319937636,5.860007166
473.5745,-12.53813667,-5.725941256,-2.994443681,8.540715266,-5.737380327
473.575,-12.53813667,-4.505163626,-0.8580828275,8.845909674,-17.33476782
473.5755,-14.67449753,-2.368802772,1.278278026,8.845909674,-28.3217665
473.576,-13.7589143,-0.2324419177,2.499055657,7.930326451,-38.69837636
473.5765,-8.875803779,-0.8428307331,3.109444473,7.319937636,-42.66590366
473.577,-5.213470887,-3.89477481,3.109444473,7.625132043,-36.5620155
473.5775,-5.823859702,-6.031135664,3.109444473,7.625132043,-25.88021124
473.578,-9.180998187,-4.810358033,3.109444473,5.793965597,-17.02957341
473.5785,-13.14852549,-3.589580402,3.109444473,4.573187966,-7.263352366
473.579,-17.11605279,-5.115552441,2.499055657,5.183576782,6.165201573
473.5795,-18.64202483,-7.251913295,1.888666842,6.404354412,17.76258907
473.58,-17.11605279,-5.420746849,1.888666842,5.793965597,18.06778347
473.5805,-13.7589143,0.3779468977,2.804250065,3.352410335,9.21714565
473.581,-11.62255345,5.261057421,3.41463888,1.521243889,1.892479865
473.5815,-10.40177582,6.787029459,2.804250065,0.3004662585,-0.2438809885
473.582,-7.960220556,5.566251829,2.19386125,-0.9203113723,-1.769853027
473.5825,-7.655026148,4.04027979,2.499055657,-2.141089003,-1.464658619
473.583,-12.84333108,1.293530121,2.499055657,-1.835894595,5.554812758
473.5835,-21.08358009,-1.453219549,1.278278026,-0.004728149245,16.84700584
473.584,-25.35630179,-2.673997179,0.05750039565,0.9108550739,21.11972755
473.5845,-23.83032976,-1.758413956,0.3626948034,-0.004728149245,16.84700584
473.585,-19.86280246,-0.8428307331,1.888666842,-1.22550578,13.79506177
473.5855,-16.20046956,-2.063608364,1.888666842,-0.6151169646,17.76258907
473.586,-11.31735904,-5.115552441,-0.247694012,0.9108550739,20.20414433
473.5865,-5.518665294,-7.86230211,-0.8580828275,0.9108550739,13.79506177
473.587,-1.856332402,-9.083079741,1.888666842,-0.3099225569,4.639229535
473.5875,-0.9407491788,-9.693468556,4.940610919,-1.530700188,0.6717022346
473.588,1.806000491,-9.998662964,4.635416511,-1.530700188,-0.5490753962
473.5885,10.0462495,-8.777885333,1.583472434,-0.9203113723,-6.042574735
473.589,20.42285936,-5.725941256,0.05750039565,-0.6151169646,-13.67243493
473.5895,29.27349718,-2.063608364,1.583472434,-2.141089003,-17.02957341
473.59,35.98777415,-0.2324419177,3.41463888,-4.277449857,-16.4191846
473.5905,42.39685671,0.07275248999,2.499055657,-5.498227488,-17.02957341
473.591,45.7539952,0.07275248999,-0.247694012,-4.582644265,-18.55554545
473.5915,41.7864679,0.6831413054,-3.299638089,-2.751477819,-15.50360137
473.592,30.49427481,1.598724528,-3.604832497,-1.835894595,-6.65296355
473.5925,15.53974884,1.903918936,-0.8580828275,-2.751477819,2.502868681
473.593,2.721583714,3.124696567,0.6678892111,-3.056672226,7.385979204
473.5935,-1.551137994,6.481835052,-1.163277235,-0.004728149245,6.470395981
473.594,2.416389306,8.923390313,-6.351582166,5.183576782,2.808063089
473.5945,10.0462495,7.702612683,-8.793137428,9.761492897,0.9768966423
473.595,13.40338798,3.735085382,-5.741193351,10.0666873,3.113257496
473.5955,11.26702713,1.293530121,-2.078860458,7.014743228,5.24961835
473.596,9.435860683,1.293530121,-1.773666051,3.352410335,2.502868681
473.5965,10.96183272,1.293530121,-4.52041572,0.6056606662,-4.516602696
473.597,12.18261035,0.07275248999,-5.130804535,0.3004662585,-9.39971322
473.5975,10.35144391,-0.2324419177,-3.604832497,0.9108550739,-6.958157958
473.598,6.689111014,0.9883357131,-2.384054866,0.9108550739,-2.075047435
473.5985,3.637166937,2.514307752,-2.078860458,-0.3099225569,-0.5490753962
473.599,0.5852228597,2.209113344,-0.8580828275,-2.446283411,-2.68543625
473.5995,-1.245943586,1.903918936,0.9730836188,-2.141089003,-4.211408289
473.6,-0.3303603634,2.819502159,0.6678892111,0.6056606662,-4.821797104
473.6005,3.331972529,2.819502159,-2.689249274,4.573187966,-4.211408289
473.601,5.468333383,0.9883357131,-5.741193351,7.319937636,-1.159464212
473.6015,2.416389306,-0.2324419177,-5.130804535,7.014743228,4.639229535
473.602,-2.16152681,0.07275248999,-2.384054866,5.488771189,8.911951243
473.6025,-5.823859702,0.9883357131,-0.8580828275,3.047215928,8.606756835
473.603,-9.180998187,0.6831413054,-0.5528884197,1.216049482,6.165201573
473.6035,-14.97969193,0.3779468977,-0.247694012,-0.004728149245,6.165201573
473.604,-19.55760805,1.293530121,0.05750039565,0.3004662585,7.080784796
473.6045,-18.94721923,2.514307752,0.3626948034,1.216049482,5.554812758
473.605,-13.45371989,1.903918936,0.9730836188,0.6056606662,1.28209105
473.6055,-7.960220556,0.9883357131,1.583472434,-0.9203113723,-1.769853027
473.606,-3.687498848,1.598724528,1.278278026,-2.446283411,-5.126991512
473.6065,0.8904172674,4.345474198,-0.247694012,-1.835894595,-8.484129996
473.607,6.078722198,7.702612683,-0.8580828275,-0.004728149245,-9.704907627
473.6075,7.604694237,9.533779129,0.9730836188,1.216049482,-6.65296355
473.608,4.857944568,9.228584721,3.41463888,2.131632705,-2.68543625
473.6085,1.195611675,7.702612683,3.719833288,2.131632705,-2.68543625
473.609,-0.9407491788,9.228584721,1.888666842,0.6056606662,-5.432185919
473.6095,-2.771915625,14.41688965,1.583472434,-1.835894595,-5.432185919
473.61,-1.856332402,18.07922254,1.888666842,-3.056672226,-3.601019473
473.6105,4.857944568,14.11169524,0.3626948034,-1.835894595,-4.516602696
473.611,17.06572088,3.124696567,-2.689249274,-0.3099225569,-8.484129996
473.6115,26.83194192,-7.86230211,-4.825610128,-0.004728149245,-10.01010203
473.612,28.05271955,-19.1544952,-3.604832497,-0.3099225569,-4.516602696
473.6125,23.77999785,-34.10902117,-0.5528884197,-0.004728149245,3.418451904
473.613,21.64363699,-50.58951919,0.3626948034,1.216049482,9.21714565
473.6135,23.16960903,-56.99860175,-0.247694012,1.521243889,11.96389532
473.614,23.16960903,-48.14796393,-1.163277235,0.9108550739,13.79506177
473.6145,18.28649851,-32.58304913,0.05750039565,1.216049482,15.0158394
473.615,11.26702713,-21.59605046,4.025027696,2.74202152,13.18467295
473.6155,6.689111014,-16.71293993,8.297749404,2.74202152,10.43792328
473.616,4.55275016,-11.21944059,10.73930467,0.6056606662,9.21714565
473.6165,3.637166937,-2.063608364,11.34969348,-1.22550578,9.522340058
473.617,2.111194898,8.00780709,11.04449907,-1.835894595,8.301562427
473.6175,-0.02516595566,15.02727847,10.73930467,-1.530700188,6.165201573
473.618,-2.16152681,13.50130643,10.12891585,-0.6151169646,5.860007166
473.6185,-4.908276479,4.650668606,7.687360588,-0.004728149245,7.385979204
473.619,-7.34983174,-2.979191587,1.278278026,0.6056606662,7.080784796
473.6195,-8.875803779,0.3779468977,-9.098331835,-0.6151169646,4.944423942
473.62,-10.40177582,14.11169524,-20.08533051,-3.972255449,3.723646312
473.6205,-12.84333108,26.01427714,-24.35805222,-7.024199526,4.944423942
473.621,-15.59008075,29.37141563,-19.7801361,-7.939782749,4.944423942
473.6215,-16.81085838,29.06622122,-13.06585914,-7.329393934,2.502868681
473.622,-14.97969193,28.45583241,-11.5398871,-6.719005119,0.06131341924
473.6225,-10.70697023,24.48830511,-10.62430387,-5.19303308,0.06131341924
473.623,-5.823859702,17.16363932,0.6678892111,-2.751477819,-2.380241842
473.6235,-3.992693256,15.33247288,22.33669216,-0.9203113723,-12.4516573
473.624,-5.518665294,25.09869392,36.68082932,-1.22550578,-27.10098887
473.6245,-7.960220556,41.27399753,32.1029132,-1.835894595,-39.00357077
473.625,-7.34983174,55.31294028,16.232804,-1.530700188,-46.32823655
473.6255,-3.992693256,65.07916133,6.466582957,-0.004728149245,-50.29576385
473.626,-0.6355547711,70.87785508,8.602943811,0.6056606662,-51.21134707
473.6265,-0.02516595566,70.57266067,14.70683197,0.9108550739,-46.02304214
473.627,-0.6355547711,66.29993896,17.45358163,0.6056606662,-35.03604347
473.6275,-0.9407491788,65.38435574,16.53799841,0.3004662585,-23.43865597
473.628,-0.9407491788,69.35188304,13.48605433,-0.9203113723,-15.80879578
473.6285,-0.6355547711,70.87785508,9.213332627,-3.056672226,-11.53607407
473.629,0.5852228597,65.38435574,6.466582957,-4.582644265,-6.958157958
473.6295,2.111194898,51.34541298,6.466582957,-3.972255449,4.639229535
473.63,1.500806083,19.30000018,3.719833288,-1.835894595,29.66517097
473.6305,-1.245943586,-40.21290933,-6.351582166,-0.004728149245,62.93136141
473.631,-4.297887663,-111.6284007,-21.91649696,1.216049482,86.4313308
473.6315,-4.297887663,-154.9660066,-32.59830123,1.521243889,85.51574758
473.632,-2.771915625,-150.9984793,-32.90349564,1.216049482,65.67811108
473.6325,-1.551137994,-125.9725379,-26.18921867,-0.004728149245,44.00930813
473.633,-0.9407491788,-116.2063168,-17.03338644,-2.751477819,32.10672623
473.6335,-0.9407491788,-122.0050106,-7.572359797,-7.024199526,29.35997656
473.634,-2.16152681,-120.784233,0.9730836188,-10.0761436,31.80153182
473.6345,-3.687498848,-103.3881517,5.856194142,-10.99172683,36.07425353
473.635,-2.466721217,-81.71934877,6.771777365,-11.60211564,38.51580879
473.6355,1.500806083,-61.27132346,6.16138855,-13.7384765,33.93789267
473.636,5.773527791,-35.94018762,6.16138855,-15.56964294,24.17167163
473.6365,5.468333383,-6.641524479,5.245805327,-13.7384765,16.23661703
473.637,1.806000491,14.11169524,0.9730836188,-7.634588342,12.57428413
473.6375,-0.6355547711,22.04674984,-5.130804535,-1.22550578,10.74311769
473.638,-1.551137994,21.43636103,-11.5398871,3.047215928,10.43792328
473.6385,-3.992693256,16.2480561,-17.94896966,6.404354412,11.96389532
473.639,-8.875803779,1.293530121,-23.13727459,10.98227053,12.87947854
473.6395,-14.06410871,-24.64799453,-23.13727459,15.25499224,11.65870091
473.64,-19.25241364,-54.25185208,-16.72819203,16.78096427,12.26908973
473.6405,-25.96669061,-75.61546062,-8.182748612,15.56018664,17.76258907
473.641,-32.37577317,-78.36221029,-4.52041572,14.64460342,18.06778347
473.6415,-33.90174521,-58.21937938,-6.656776574,14.03421461,-0.2438809885
473.642,-28.10305146,-24.64799453,-8.182748612,10.67707612,-31.67890498
473.6425,-19.86280246,4.04027979,-4.215221312,3.047215928,-55.78926319
473.643,-15.28488634,18.07922254,1.583472434,-5.803421896,-61.89315134
473.6435,-15.59008075,23.26752748,4.025027696,-13.43328209,-58.53601286
473.644,-16.20046956,29.37141563,2.19386125,-21.06314228,-54.26329115
473.6445,-14.36930312,34.55972056,0.05750039565,-30.82936333,-45.10745892
473.645,-11.92774786,31.50777648,-1.773666051,-39.37480674,-30.15293294
473.6455,-9.791387002,24.48830511,-3.299638089,-39.98519556,-19.77632308
473.646,-7.655026148,22.65713866,-2.078860458,-31.13455773,-21.60748953
473.6465,-5.213470887,23.26752748,2.499055657,-18.92678143,-25.57501683
473.647,-4.908276479,15.33247288,3.41463888,-7.634588342,-16.11399019
473.6475,-7.044637333,-1.453219549,-6.351582166,4.267993559,4.334035127
473.648,-8.265414964,-13.96619026,-19.4749417,18.30693631,19.59375551
473.6485,-4.603082071,-10.30385737,-20.08533051,29.29393499,19.89894992
473.649,3.331972529,6.787029459,-4.825610128,31.12510144,8.606756835
473.6495,11.57222154,26.31947155,12.2652767,25.6316021,-4.821797104
473.65,17.67610969,38.52724786,22.94708097,18.61213072,-16.11399019
473.6505,22.86441462,40.0532199,31.18732998,13.11863138,-21.30229512
473.651,27.44233074,33.33894293,43.08991188,7.319937636,-18.55554545
473.6515,28.96830278,24.1831107,52.55093852,0.9108550739,-10.01010203
473.652,26.83194192,17.46883373,49.49899444,-3.361866634,0.06131341924
473.6525,22.25402581,11.67013998,35.46005169,-3.361866634,11.3535065
473.653,17.37091528,4.955863013,20.2003313,0.6056606662,24.17167163
473.6535,14.31897121,-1.148025141,8.602943811,5.793965597,34.8534759
473.654,13.70858239,-2.979191587,-0.5528884197,9.45629849,36.68464234
473.6545,15.84494324,-0.2324419177,-9.708720651,10.67707612,29.66517097
473.655,17.06572088,2.514307752,-18.25416407,10.98227053,20.81453314
473.6555,15.23455443,2.819502159,-24.66324663,11.59265934,15.93142262
473.656,12.79299917,3.429890975,-26.79960748,12.20304816,13.79506177
473.6565,12.48780476,7.092223867,-22.83208018,11.89785375,10.74311769
473.657,12.79299917,11.97533439,-16.11780321,9.761492897,6.470395981
473.6575,10.0462495,14.72208406,-10.92949828,7.319937636,4.334035127
473.658,4.55275016,15.33247288,-10.31910947,6.099160005,3.418451904
473.6585,-0.02516595566,17.16363932,-11.23469269,6.404354412,1.28209105
473.659,-0.9407491788,20.2155834,-10.31910947,7.319937636,-2.380241842
473.6595,-3.077110033,21.74155544,-8.793137428,7.625132043,-4.211408289
473.66,-7.044637333,19.30000018,-10.01391506,4.878382374,-3.601019473
473.6605,-9.180998187,15.33247288,-16.11780321,-2.141089003,-2.68543625
473.661,-7.044637333,13.50130643,-23.74766341,-10.68653242,-3.906213881
473.6615,-2.466721217,13.80650084,-26.18921867,-14.65405972,-6.042574735
473.662,-0.3303603634,14.11169524,-21.61130255,-12.51769887,-6.958157958
473.6625,-0.6355547711,13.19611202,-16.42299762,-7.939782749,-6.347769142
473.663,-2.466721217,12.58572321,-15.5074144,-5.19303308,-5.737380327
473.6635,-5.213470887,14.11169524,-11.5398871,-5.803421896,-5.737380327
473.664,-8.570609371,15.94286169,6.466582957,-9.16056038,-6.347769142
473.6645,-10.09658141,17.16363932,33.01849643,-14.34886531,-7.873741181
473.665,-9.180998187,18.38441695,45.83666155,-17.7060038,-9.094518812
473.6655,-7.34983174,20.2155834,34.54446847,-16.18003176,-9.39971322
473.666,-7.34983174,21.43636103,15.62241519,-11.29692123,-8.789324404
473.6665,-8.265414964,20.2155834,9.518527034,-7.939782749,-8.789324404
473.667,-7.655026148,18.07922254,15.01202637,-6.719005119,-9.704907627
473.6675,-5.213470887,18.07922254,16.53799841,-4.277449857,-9.704907627
473.668,-1.551137994,19.30000018,9.823721442,0.9108550739,-7.568546773
473.6685,0.8904172674,18.38441695,2.499055657,6.404354412,-3.601019473
473.669,1.195611675,14.72208406,-2.994443681,8.540715266,0.06131341924
473.6695,-0.6355547711,11.67013998,-10.62430387,8.540715266,2.197674273
473.67,-3.38230444,12.2805288,-17.33858084,7.930326451,3.113257496
473.6705,-3.687498848,14.11169524,-13.06585914,7.625132043,1.892479865
473.671,-0.9407491788,14.11169524,1.583472434,7.319937636,-1.769853027
473.6715,3.026778121,11.67013998,15.31722078,8.235520859,-7.568546773
473.672,8.215083052,10.14416794,19.8951369,9.45629849,-12.4516573
473.6725,14.62416561,10.75455676,20.50552571,7.625132043,-15.80879578
473.673,21.64363699,12.58572321,22.33669216,2.131632705,-17.94515664
473.6735,26.22155311,13.19611202,22.03149775,-1.530700188,-19.47112867
473.674,24.69558107,12.89091761,16.232804,-1.22550578,-19.16593427
473.6745,18.89688732,11.97533439,10.43411026,0.3004662585,-17.33476782
473.675,13.09819358,10.44936235,9.823721442,-1.22550578,-17.33476782
473.6755,10.0462495,8.618195906,11.04449907,-5.803421896,-19.16593427
473.676,9.130666275,7.702612683,8.297749404,-8.855365973,-19.47112867
473.6765,6.383916606,8.00780709,3.719833288,-7.939782749,-16.11399019
473.677,-0.6355547711,8.00780709,2.804250065,-4.887838672,-10.31529644
473.6775,-10.70697023,5.261057421,4.330222103,-2.141089003,-6.042574735
473.678,-17.42124719,-0.2324419177,0.6678892111,-0.6151169646,-3.906213881
473.6785,-17.42124719,-6.641524479,-10.01391506,-0.004728149245,-2.990630658
473.679,-13.7589143,-11.82982941,-21.30610814,0.9108550739,-2.075047435
473.6795,-10.40177582,-14.57657908,-24.66324663,0.9108550739,-0.8542698039
473.68,-8.570609371,-15.1869679,-18.86455288,-0.3099225569,1.587285458
473.6805,-5.823859702,-13.35580145,-10.62430387,-3.056672226,6.775590389
473.681,-1.856332402,-11.21944059,-5.435998943,-6.413810711,11.3535065
473.6815,1.195611675,-9.998662964,-3.910026904,-7.329393934,14.40545058
473.682,2.111194898,-10.60905178,-3.910026904,-6.108616303,18.06778347
473.6825,2.416389306,-10.60905178,-2.689249274,-4.887838672,24.17167163
473.683,3.942361344,-9.388274149,-0.8580828275,-5.498227488,29.97036537
473.6835,6.078722198,-6.641524479,-0.247694012,-6.108616303,30.27555978
473.684,6.383916606,-2.368802772,-0.8580828275,-5.498227488,26.00283807
473.6845,2.721583714,3.429890975,-2.384054866,-3.361866634,21.11972755
473.685,-1.551137994,10.14416794,-3.910026904,-1.530700188,14.71064499
473.6855,-4.603082071,15.02727847,-5.130804535,-0.3099225569,0.3665078269
473.686,-4.603082071,16.2480561,-6.046387758,-0.3099225569,-21.60748953
473.6865,-3.077110033,14.41688965,-5.741193351,-2.446283411,-41.75032044
473.687,-0.6355547711,10.44936235,-4.215221312,-7.024199526,-49.68537504
473.6875,0.8904172674,6.176640644,-2.384054866,-12.21250446,-44.49707011
473.688,1.806000491,4.345474198,-1.468471643,-14.0436709,-33.20487702
473.6885,0.5852228597,5.261057421,-0.5528884197,-11.90731005,-24.3542392
473.689,-1.856332402,6.787029459,0.05750039565,-8.244977157,-21.60748953
473.6895,-3.38230444,6.176640644,0.05750039565,-5.498227488,-24.04904479
473.69,-1.856332402,3.429890975,-0.5528884197,-3.361866634,-24.3542392
473.6905,-0.9407491788,1.293530121,-2.384054866,-0.6151169646,-16.11399019
473.691,-3.992693256,2.819502159,-3.299638089,3.047215928,-3.601019473
473.6915,-10.09658141,7.092223867,-3.299638089,5.793965597,2.197674273
473.692,-13.45371989,11.05975117,-2.384054866,5.488771189,-1.464658619
473.6925,-10.70697023,12.2805288,-1.468471643,3.352410335,-6.65296355
473.693,-3.687498848,8.923390313,-0.8580828275,3.352410335,-2.990630658
473.6935,2.111194898,1.598724528,-1.468471643,7.014743228,6.775590389
473.694,3.942361344,-5.420746849,-4.215221312,13.11863138,13.79506177
473.6945,-0.3303603634,-9.083079741,-6.656776574,17.08615868,12.87947854
473.695,-9.486192594,-8.167496518,-6.656776574,16.78096427,8.911951243
473.6955,-19.25241364,-6.336330072,-4.52041572,13.42382579,7.385979204
473.696,-23.21994094,-6.336330072,-2.689249274,8.540715266,7.385979204
473.6965,-20.16799686,-7.557107703,-1.773666051,4.267993559,6.775590389
473.697,-13.7589143,-8.777885333,-1.773666051,2.131632705,5.860007166
473.6975,-7.960220556,-10.30385737,-2.078860458,3.047215928,6.775590389
473.698,-3.38230444,-13.96619026,-2.994443681,3.657604743,8.606756835
473.6985,-0.3303603634,-18.54410638,-3.910026904,1.216049482,8.606756835
473.699,0.8904172674,-21.29085605,-3.910026904,-2.141089003,5.860007166
473.6995,2.111194898,-20.98566164,-4.215221312,-3.361866634,1.28209105
473.7,6.689111014,-19.1544952,-6.656776574,-1.22550578,-2.990630658
473.7005,15.23455443,-16.71293993,-8.182748612,-0.004728149245,-8.178935589
473.701,21.64363699,-13.96619026,-6.046387758,-1.530700188,-12.4516573
473.7015,19.20208173,-11.82982941,-1.163277235,-4.277449857,-11.23087967
473.702,7.604694237,-12.13502382,1.888666842,-4.887838672,-1.159464212
473.7025,-4.297887663,-14.57657908,1.278278026,-3.056672226,13.48986736
473.703,-9.180998187,-16.71293993,0.05750039565,-0.9203113723,22.950894
473.7035,-6.12905411,-15.79735671,0.05750039565,-0.004728149245,23.2560884
473.704,-1.245943586,-12.44021823,0.6678892111,0.6056606662,20.50933874
473.7045,-0.02516595566,-9.083079741,1.583472434,0.6056606662,21.11972755
473.705,0.280028452,-7.251913295,2.19386125,0.9108550739,22.64569959
473.7055,3.942361344,-5.115552441,2.804250065,1.521243889,19.2885611
473.706,10.65663831,-2.673997179,3.41463888,0.9108550739,11.96389532
473.7065,16.15013765,-1.148025141,4.025027696,-2.141089003,5.24961835
473.707,18.89688732,-2.063608364,5.550999734,-6.108616303,-0.8542698039
473.7075,19.50727614,-4.505163626,6.771777365,-6.719005119,-8.789324404
473.708,19.20208173,-7.86230211,6.16138855,-2.751477819,-14.58801815
473.7085,14.62416561,-10.91424619,3.719833288,1.216049482,-10.31529644
473.709,4.857944568,-13.66099586,0.9730836188,2.436827112,0.9768966423
473.7095,-6.739442925,-14.57657908,0.3626948034,1.216049482,8.301562427
473.71,-16.81085838,-12.74541263,0.9730836188,0.9108550739,4.944423942
473.7105,-24.74591298,-8.777885333,1.888666842,2.74202152,-1.769853027
473.711,-30.54460673,-4.810358033,2.804250065,4.573187966,-3.906213881
473.7115,-30.23941232,-2.368802772,4.635416511,4.267993559,-3.906213881
473.712,-20.16799686,-2.368802772,5.550999734,2.131632705,-6.958157958
473.7125,-2.466721217,-4.505163626,5.245805327,0.9108550739,-12.4516573
473.713,13.40338798,-7.251913295,4.025027696,0.9108550739,-15.80879578
473.7135,21.9488314,-8.167496518,3.41463888,0.9108550739,-15.80879578
473.714,22.55922021,-6.336330072,3.719833288,-0.004728149245,-14.28282374
473.7145,17.67610969,-3.589580402,3.719833288,-1.22550578,-10.92568526
473.715,8.52027746,-2.368802772,3.719833288,-0.004728149245,-6.042574735
473.7155,-0.02516595566,-2.979191587,3.41463888,1.826438297,-3.295825065
473.716,-3.687498848,-1.453219549,4.025027696,2.131632705,-4.516602696
473.7165,-5.518665294,4.04027979,6.16138855,0.3004662585,-4.211408289
473.717,-12.84333108,12.58572321,8.297749404,-0.9203113723,0.6717022346
473.7175,-26.88227383,18.68961136,7.992554996,-0.004728149245,6.470395981
473.718,-36.64849488,20.82597221,4.940610919,2.436827112,4.944423942
473.7185,-31.76538436,21.74155544,1.888666842,4.573187966,-1.464658619
473.719,-16.20046956,23.87791629,1.583472434,5.488771189,-4.516602696
473.7195,-3.077110033,24.1831107,2.804250065,6.404354412,0.06131341924
473.72,-0.02516595566,19.91038899,2.804250065,6.404354412,7.080784796
473.7205,-3.077110033,14.72208406,1.583472434,4.878382374,12.87947854
473.721,-6.434248517,12.58572321,2.19386125,2.436827112,17.45739466
473.7215,-7.655026148,9.228584721,4.330222103,1.216049482,21.11972755
473.722,-8.265414964,-4.199969218,4.635416511,1.521243889,22.950894
473.7225,-8.265414964,-29.22591065,1.583472434,2.74202152,22.64569959
473.723,-7.044637333,-52.42068563,-1.163277235,5.183576782,20.50933874
473.7235,-5.213470887,-58.8297682,-1.163277235,7.014743228,17.15220025
473.724,-4.297887663,-48.14796393,0.6678892111,6.404354412,13.18467295
473.7245,-3.687498848,-33.19343795,2.19386125,3.047215928,8.911951243
473.725,-2.466721217,-22.81682809,2.19386125,-0.004728149245,4.944423942
473.7255,-0.02516595566,-16.71293993,2.499055657,-0.6151169646,0.6717022346
473.726,2.416389306,-11.82982941,2.804250065,-0.004728149245,-3.601019473
473.7265,5.468333383,-8.472690926,1.888666842,0.6056606662,-6.347769142
473.727,7.909888645,-8.167496518,-0.247694012,1.216049482,-7.568546773
473.7275,10.35144391,-7.557107703,-2.078860458,0.9108550739,-10.62049085
473.728,13.70858239,-4.505163626,-2.078860458,-0.3099225569,-14.89321256
473.7285,18.28649851,-1.453219549,-2.689249274,-2.141089003,-14.28282374
473.729,21.9488314,-2.368802772,-5.741193351,-3.056672226,-6.042574735
473.7295,22.86441462,-5.725941256,-8.48794302,-1.835894595,2.502868681
473.73,22.25402581,-5.725941256,-8.182748612,-0.9203113723,4.334035127
473.7305,21.9488314,-0.8428307331,-4.825610128,-0.9203113723,1.28209105
473.731,20.42285936,3.429890975,-1.468471643,-0.3099225569,0.3665078269
473.7315,16.76052647,3.735085382,0.05750039565,1.216049482,1.892479865
473.732,12.79299917,1.293530121,0.3626948034,1.826438297,0.3665078269
473.7325,10.96183272,-0.2324419177,0.9730836188,-0.004728149245,-2.68543625
473.733,10.65663831,-1.758413956,1.278278026,-1.22550578,-2.68543625
473.7335,9.130666275,-2.673997179,0.6678892111,-0.004728149245,-2.68543625
473.734,6.689111014,-0.5376363254,1.278278026,1.521243889,-13.06204611
473.7345,6.383916606,5.871446236,2.804250065,0.3004662585,-31.37371057
473.735,9.741055091,11.97533439,4.330222103,-2.751477819,-40.52954281
473.7355,12.48780476,12.89091761,3.719833288,-4.582644265,-30.76332176
473.736,11.26702713,11.05975117,1.888666842,-3.667061042,-13.97762934
473.7365,7.604694237,11.36494557,0.6678892111,-1.530700188,-8.484129996
473.737,6.689111014,14.11169524,0.6678892111,-0.004728149245,-16.4191846
473.7375,8.52027746,14.41688965,0.3626948034,0.6056606662,-24.3542392
473.738,10.35144391,11.36494557,-0.247694012,0.3004662585,-22.21787834
473.7385,8.825471868,8.00780709,-1.163277235,0.3004662585,-10.92568526
473.739,5.468333383,4.650668606,-1.468471643,2.436827112,1.28209105
473.7395,2.416389306,-2.979191587,-1.468471643,5.183576782,10.13272887
473.74,2.416389306,-15.4921623,-1.468471643,4.267993559,16.54181144
473.7405,3.637166937,-26.17396657,-0.8580828275,-0.6151169646,27.83400452
473.741,1.806000491,-32.88824354,-0.5528884197,-1.835894595,47.36644661
473.7415,-5.518665294,-39.2973261,-1.468471643,5.183576782,67.81447193
473.742,-15.59008075,-46.62199189,-2.689249274,13.11863138,76.05472094
473.7425,-21.08358009,-48.45315833,-3.910026904,10.67707612,68.42486074
473.743,-20.47319127,-41.43368696,-4.52041572,-0.3099225569,55.30150121
473.7435,-17.7264416,-29.83629946,-4.825610128,-9.16056038,45.53528017
473.744,-16.81085838,-20.68046723,-4.215221312,-8.550171565,36.98983675
473.7445,-15.89527516,-14.88177349,-2.384054866,-2.751477819,26.30803248
473.745,-13.7589143,-11.524635,-0.247694012,0.3004662585,19.59375551
473.7455,-11.31735904,-14.27138467,-0.5528884197,-0.004728149245,20.81453314
473.746,-10.09658141,-21.90124486,-4.52041572,-2.446283411,21.11972755
473.7465,-7.960220556,-22.51163368,-10.01391506,-5.19303308,8.911951243
473.747,-2.16152681,-7.86230211,-13.37105354,-7.634588342,-7.568546773
473.7475,5.163138975,10.44936235,-13.67624795,-7.634588342,-6.347769142
473.748,6.994305421,12.2805288,-13.67624795,-4.277449857,18.9833667
473.7485,-0.02516595566,-3.589580402,-14.89702558,-0.6151169646,49.19761306
473.749,-10.09658141,-15.79735671,-11.8450815,1.216049482,59.87941733
473.7495,-14.97969193,-7.251913295,2.19386125,1.216049482,47.06125221
473.75,-11.31735904,12.89091761,24.77824742,0.9108550739,24.47686604
473.7505,-2.466721217,26.01427714,42.47952307,0.3004662585,5.554812758
473.751,4.55275016,25.70908274,43.08991188,-0.004728149245,-3.906213881
473.7515,6.994305421,23.57272188,29.66135794,0.9108550739,-5.737380327
473.752,5.163138975,29.37141563,15.9276096,3.352410335,-3.295825065
473.7525,1.500806083,40.35841431,10.43411026,6.404354412,-1.464658619
473.753,-2.16152681,47.68308009,11.34969348,8.540715266,-2.075047435
473.7535,-5.518665294,47.9882745,11.9600823,9.151104082,-3.601019473
473.754,-5.213470887,45.24152483,9.213332627,7.319937636,-5.737380327
473.7545,-0.02516595566,44.63113601,4.635416511,2.436827112,-11.84126848
473.755,8.215083052,45.24152483,-0.5528884197,-2.141089003,-20.99710071
473.7555,13.09819358,42.49477516,-4.52041572,-3.667061042,-26.49060005
473.756,11.87741594,34.55972056,-3.910026904,-1.530700188,-24.96462801
473.7565,8.52027746,23.87791629,1.278278026,-0.004728149245,-19.77632308
473.757,7.299499829,12.2805288,6.771777365,-1.22550578,-17.33476782
473.7575,6.383916606,-0.8428307331,8.297749404,-2.141089003,-17.02957341
473.758,3.942361344,-16.71293993,6.466582957,-1.530700188,-15.50360137
473.7585,1.500806083,-27.69993861,4.635416511,-0.3099225569,-13.06204611
473.759,2.721583714,-26.47916098,1.888666842,-0.3099225569,-11.53607407
473.7595,6.689111014,-14.88177349,-3.604832497,-0.3099225569,-12.14646289
473.76,8.52027746,-3.89477481,-10.62430387,-0.004728149245,-13.36724052
473.7605,6.383916606,-2.368802772,-15.20221999,-0.004728149245,-13.97762934
473.761,2.416389306,-8.472690926,-16.72819203,-1.22550578,-12.7568517
473.7615,0.5852228597,-13.66099586,-18.55935847,-1.835894595,-9.094518812
473.762,1.500806083,-12.74541263,-21.00091374,-0.004728149245,-5.126991512
473.7625,4.857944568,-6.336330072,-21.30610814,3.047215928,-3.906213881
473.763,9.130666275,-0.5376363254,-18.55935847,4.267993559,-6.958157958
473.7635,10.65663831,-0.2324419177,-14.28663677,3.962799151,-8.484129996
473.764,5.468333383,-3.284385995,-10.31910947,3.657604743,-5.737380327
473.7645,-3.992693256,-4.199969218,-6.046387758,2.131632705,-0.8542698039
473.765,-11.92774786,1.293530121,-2.994443681,-0.004728149245,0.06131341924
473.7655,-16.81085838,10.44936235,-2.384054866,-0.004728149245,-1.159464212
473.766,-21.6939689,18.99480577,-2.689249274,2.131632705,-1.464658619
473.7665,-27.79785706,29.37141563,1.278278026,3.047215928,-0.5490753962
473.767,-30.54460673,45.24152483,10.43411026,-0.6151169646,-2.380241842
473.7675,-25.05110739,64.77396692,18.36916486,-5.19303308,-10.01010203
473.768,-12.53813667,78.81290968,18.67435927,-5.19303308,-21.30229512
473.7685,0.280028452,82.17004816,12.87566552,-1.530700188,-30.76332176
473.769,9.435860683,75.45577119,8.297749404,0.3004662585,-35.64643228
473.7695,14.0137768,63.55318929,8.908138219,-0.6151169646,-37.17240432
473.77,14.92936002,50.42982976,13.48605433,-2.141089003,-37.78279314
473.7705,14.31897121,34.55972056,17.45358163,-2.446283411,-39.30876517
473.771,14.62416561,11.97533439,17.45358163,-4.582644265,-41.13993162
473.7715,16.76052647,-20.07007842,12.87566552,-7.024199526,-42.66590366
473.772,17.9813041,-53.64146327,5.245805327,-4.887838672,-42.36070925
473.7725,15.53974884,-77.44662707,-2.994443681,2.74202152,-37.78279314
473.773,10.0462495,-89.65440337,-13.67624795,9.45629849,-26.79579446
473.7735,6.383916606,-97.58945797,-27.10480189,8.235520859,-10.62049085
473.774,9.435860683,-103.9985405,-40.22816142,0.9108550739,4.334035127
473.7745,17.06572088,-101.5569853,-46.94243839,-3.972255449,12.87947854
473.775,23.47480344,-85.68687607,-44.80607754,-2.446283411,16.23661703
473.7755,22.55922021,-65.84923957,-37.78660616,1.521243889,19.2885611
473.776,15.53974884,-51.199908,-31.3775236,3.047215928,23.86647722
473.7765,8.825471868,-41.12849255,-29.85155156,1.216049482,24.78206044
473.777,6.383916606,-29.83629946,-33.51388445,-0.004728149245,20.20414433
473.7775,5.468333383,-18.84930079,-35.03985649,0.9108550739,13.48986736
473.778,2.721583714,-12.13502382,-24.05285781,3.047215928,9.21714565
473.7785,-0.9407491788,-6.031135664,2.19386125,2.74202152,6.775590389
473.779,-2.771915625,2.514307752,31.49252439,0.3004662585,1.892479865
473.7795,-2.771915625,11.36494557,46.14185596,-0.3099225569,-3.601019473
473.78,-5.823859702,14.11169524,43.39510629,2.131632705,-5.432185919
473.7805,-13.14852549,13.19611202,35.15485728,6.099160005,-2.075047435
473.781,-19.86280246,13.19611202,29.96655235,8.540715266,2.197674273
473.7815,-20.77838568,12.89091761,23.55746979,9.151104082,4.334035127
473.782,-14.97969193,8.618195906,11.9600823,10.37188171,4.639229535
473.7825,-7.655026148,4.04027979,0.05750039565,13.42382579,5.554812758
473.783,-3.38230444,4.04027979,-4.52041572,16.17057546,7.996368019
473.7835,-3.077110033,6.787029459,-3.299638089,14.94979783,11.0483121
473.784,-5.518665294,5.566251829,-2.689249274,7.319937636,16.84700584
473.7845,-8.875803779,1.598724528,-3.910026904,-3.056672226,26.9184213
473.785,-12.23294226,0.07275248999,-4.215221312,-10.38133801,36.98983675
473.7855,-14.97969193,4.04027979,-2.078860458,-10.38133801,38.51580879
473.786,-16.50566397,10.14416794,0.05750039565,-5.19303308,28.44439334
473.7865,-17.42124719,14.72208406,-0.247694012,-0.004728149245,13.79506177
473.787,-18.03163601,12.58572321,-6.656776574,1.826438297,4.639229535
473.7875,-18.94721923,0.9883357131,-17.94896966,2.74202152,-0.5490753962
473.788,-16.81085838,-12.13502382,-25.88402426,1.216049482,-12.7568517
473.7885,-10.70697023,-13.66099586,-22.22169137,-5.498227488,-34.73084906
473.789,-3.077110033,-0.2324419177,-11.5398871,-17.09561498,-53.34770793
473.7895,1.195611675,11.05975117,-5.435998943,-26.86183603,-53.34770793
473.79,1.500806083,6.481835052,-4.215221312,-29.6085857,-35.03604347
473.7905,1.195611675,-6.946718887,4.635416511,-28.69300247,-13.97762934
473.791,2.111194898,-11.524635,26.60941387,-28.38780807,-2.68543625
473.7915,2.721583714,-3.589580402,44.61588392,-28.99819688,-2.68543625
473.792,2.721583714,5.566251829,42.17432866,-26.25144721,-7.568546773
473.7925,4.247555752,9.533779129,25.99902505,-20.75794787,-12.7568517
473.793,8.825471868,12.89091761,13.79124874,-13.43328209,-16.724379
473.7935,12.79299917,19.60519458,11.04449907,-1.22550578,-19.77632308
473.794,10.35144391,25.09869392,9.518527034,17.08615868,-20.6919063
473.7945,1.500806083,24.48830511,5.856194142,36.31340637,-19.16593427
473.795,-7.044637333,21.43636103,4.635416511,44.24846097,-16.724379
473.7955,-11.62255345,20.2155834,6.771777365,38.44976722,-15.50360137
473.796,-11.62255345,20.52077781,5.550999734,27.46276854,-16.724379
473.7965,-11.01216463,19.91038899,-0.247694012,19.83290835,-18.25035104
473.797,-10.40177582,18.07922254,-4.215221312,13.7290202,-15.50360137
473.7975,-7.655026148,17.16363932,-2.689249274,4.573187966,-7.873741181
473.798,-1.856332402,16.2480561,-0.5528884197,-5.498227488,1.892479865
473.7985,5.773527791,14.41688965,-2.078860458,-11.29692123,10.13272887
473.799,11.26702713,11.36494557,-5.130804535,-10.38133801,17.15220025
473.7995,12.48780476,8.923390313,-5.435998943,-7.024199526,22.64569959
473.8,10.0462495,8.00780709,-4.215221312,-4.277449857,24.78206044
473.8005,6.994305421,8.313001498,-3.604832497,-2.446283411,22.64569959
473.801,5.773527791,8.618195906,-3.910026904,-0.6151169646,17.76258907
473.8015,6.689111014,8.00780709,-2.994443681,-0.004728149245,11.96389532
