"type","name","time_units","begin_time","frequency","count","units"
"signal","Ultium EMG-EXT.DIG. RT","s",395.98000,2000,22000,"uV"

"time","value"
395.98000,28.40153495
395.98050,14.97298101
395.98100,-7.001016343
395.98150,-17.98801502
395.98200,-13.1049045
395.98250,-6.695821935
395.98300,-7.001016343
395.98350,-5.169849897
395.98400,2.765204703
395.98450,10.08987049
395.98500,7.648315227
395.98550,-0.897128189
395.98600,-8.221793974
395.98650,-10.96854364
395.98700,-10.66334924
395.98750,-9.137377197
395.98800,-5.780238712
395.98850,2.765204703
395.98900,15.58336983
395.98950,23.82361883
395.99000,21.38206357
395.99050,13.75220338
395.99100,13.14181457
395.99150,20.46648035
395.99200,22.90803561
395.99250,12.83662016
395.99300,-0.5919337813
395.99350,-4.864655489
395.99400,0.01845503415
395.99450,4.59637115
395.99500,4.59637115
395.99550,3.680787927
395.99600,4.291176742
395.99650,5.511954373
395.99700,4.901565557
395.99750,3.680787927
395.99800,1.239232665
395.99850,-1.507517004
395.99900,-3.643877858
395.99950,-4.254266674
396.00000,-3.338683451
396.00050,-3.338683451
396.00100,-3.949072266
396.00150,-4.559461081
396.00200,-4.559461081
396.00250,-4.559461081
396.00300,-4.864655489
396.00350,-4.254266674
396.00400,-4.254266674
396.00450,-4.864655489
396.00500,-6.08543312
396.00550,-6.695821935
396.00600,-5.475044304
396.00650,-2.11790582
396.00700,3.070399111
396.00750,8.869092857
396.00800,12.53142575
396.00850,13.44700897
396.00900,12.83662016
396.00950,12.22623134
396.01000,10.08987049
396.01050,2.460010296
396.01100,-12.18932127
396.01150,-28.9750137
396.01200,-37.82565152
396.01250,-34.16331863
396.01300,-22.56593114
396.01350,-12.49451568
396.01400,-8.526988381
396.01450,-7.306210751
396.01500,-5.780238712
396.01550,-4.254266674
396.01600,-4.559461081
396.01650,-5.475044304
396.01700,-4.864655489
396.01750,-3.949072266
396.01800,-3.949072266
396.01850,-4.864655489
396.01900,-4.864655489
396.01950,-5.475044304
396.02000,-6.695821935
396.02050,-7.916599566
396.02100,-6.08543312
396.02150,-2.423100227
396.02200,-0.2867393736
396.02250,0.01845503415
396.02300,2.765204703
396.02350,9.174287265
396.02400,13.75220338
396.02450,9.784676081
396.02500,-3.033489043
396.02550,-17.0724318
396.02600,-22.56593114
396.02650,-17.3776262
396.02700,-7.611405158
396.02750,-0.2867393736
396.02800,3.070399111
396.02850,6.427537596
396.02900,9.479481673
396.02950,8.56389845
396.03000,3.070399111
396.03050,-1.812711412
396.03100,-4.864655489
396.03150,-7.611405158
396.03200,-10.05296042
396.03250,-4.254266674
396.03300,13.14181457
396.03350,30.84309021
396.03400,31.45347903
396.03450,16.19375864
396.03500,4.291176742
396.03550,9.174287265
396.03600,23.51842443
396.03650,29.31711817
396.03700,20.16128594
396.03750,2.154815888
396.03800,-14.63087654
396.03850,-23.48151436
396.03900,-21.95554232
396.03950,-15.24126535
396.04000,-12.18932127
396.04050,-13.1049045
396.04100,-11.88412687
396.04150,-5.475044304
396.04200,0.6288438496
396.04250,1.84962148
396.04300,1.84962148
396.04350,4.59637115
396.04400,6.427537596
396.04450,3.375593519
396.04500,-1.202322597
396.04550,-3.033489043
396.04600,-3.338683451
396.04650,-6.695821935
396.04700,-11.88412687
396.04750,-14.32568213
396.04800,-12.79971009
396.04850,-9.747766012
396.04900,-7.306210751
396.04950,-6.695821935
396.05000,-7.001016343
396.05050,-6.08543312
396.05100,-1.812711412
396.05150,2.460010296
396.05200,2.765204703
396.05250,1.239232665
396.05300,2.460010296
396.05350,5.511954373
396.05400,4.901565557
396.05450,3.680787927
396.05500,11.31064812
396.05550,26.5703685
396.05600,36.33658955
396.05650,36.03139514
396.05700,36.33658955
396.05750,37.86256159
396.05800,24.43400765
396.05850,-10.35815483
396.05900,-44.8451229
396.05950,-52.7801775
396.06000,-38.43604034
396.06050,-24.39709758
396.06100,-18.29320943
396.06150,-10.05296042
396.06200,3.985982334
396.06250,14.3625922
396.06300,16.80414746
396.06350,19.24570272
396.06400,27.18075732
396.06450,34.2002287
396.06500,33.58983988
396.06550,25.34959087
396.06600,13.14181457
396.06650,0.3236494419
396.06700,-10.35815483
396.06750,-21.3451535
396.06800,-35.99448507
396.06850,-52.7801775
396.06900,-60.10484328
396.06950,-50.03342783
396.07000,-31.11137455
396.07050,-17.68282061
396.07100,-11.27373805
396.07150,-3.338683451
396.07200,6.732732004
396.07250,13.75220338
396.07300,16.49895305
396.07350,21.38206357
396.07400,28.09634054
396.07450,32.36906225
396.07500,33.28464547
396.07550,33.28464547
396.07600,26.5703685
396.07650,5.81714878
396.07700,-20.42957028
396.07750,-32.63734659
396.07800,-22.56593114
396.07850,-5.475044304
396.07900,2.765204703
396.07950,5.206759965
396.08000,10.7002593
396.08050,17.71973068
396.08100,17.71973068
396.08150,8.869092857
396.08200,-0.897128189
396.08250,-5.475044304
396.08300,-4.864655489
396.08350,-2.11790582
396.08400,0.01845503415
396.08450,-2.11790582
396.08500,-7.001016343
396.08550,-6.390627528
396.08600,4.291176742
396.08650,20.46648035
396.08700,31.14828462
396.08750,31.75867344
396.08800,27.18075732
396.08850,22.6028412
396.08900,19.55089713
396.08950,17.71973068
396.09000,16.80414746
396.09050,14.6677866
396.09100,8.258704042
396.09150,-1.812711412
396.09200,-9.442571605
396.09250,-10.66334924
396.09300,-7.001016343
396.09350,-2.423100227
396.09400,0.6288438496
396.09450,1.84962148
396.09500,2.460010296
396.09550,4.291176742
396.09600,6.122343188
396.09650,5.81714878
396.09700,2.765204703
396.09750,0.3236494419
396.09800,0.9340382573
396.09850,0.3236494419
396.09900,-4.864655489
396.09950,-10.96854364
396.10000,-10.66334924
396.10050,-5.780238712
396.10100,-2.11790582
396.10150,-2.11790582
396.10200,-2.11790582
396.10250,-2.728294635
396.10300,-5.780238712
396.10350,-9.137377197
396.10400,-7.306210751
396.10450,0.01845503415
396.10500,8.258704042
396.10550,12.22623134
396.10600,10.08987049
396.10650,1.84962148
396.10700,-7.306210751
396.10750,-11.88412687
396.10800,-11.27373805
396.10850,-15.85165417
396.10900,-28.66981929
396.10950,-36.29967948
396.11000,-25.31268081
396.11050,-3.949072266
396.11100,7.037926411
396.11150,1.544427073
396.11200,-10.35815483
396.11250,-16.15684857
396.11300,-7.916599566
396.11350,16.19375864
396.11400,47.62878264
396.11450,65.33005828
396.11500,57.70019809
396.11550,38.4729504
396.11600,29.01192377
396.11650,26.87556291
396.11700,12.53142575
396.11750,-16.46204298
396.11800,-41.79317882
396.11850,-49.42303901
396.11900,-45.76070612
396.11950,-39.65681797
396.12000,-30.50098574
396.12050,-17.3776262
396.12100,-6.390627528
396.12150,-3.643877858
396.12200,-7.001016343
396.12250,-12.49451568
396.12300,-17.3776262
396.12350,-19.20879265
396.12400,-14.32568213
396.12450,-5.475044304
396.12500,0.01845503415
396.12550,-0.897128189
396.12600,-2.728294635
396.12650,-2.728294635
396.12700,-1.507517004
396.12750,-0.5919337813
396.12800,0.9340382573
396.12850,2.765204703
396.12900,2.765204703
396.12950,0.9340382573
396.13000,1.239232665
396.13050,2.460010296
396.13100,1.239232665
396.13150,-1.202322597
396.13200,-1.507517004
396.13250,2.154815888
396.13300,5.511954373
396.13350,4.59637115
396.13400,2.460010296
396.13450,1.84962148
396.13500,2.154815888
396.13550,1.239232665
396.13600,-0.5919337813
396.13650,-1.202322597
396.13700,0.3236494419
396.13750,3.680787927
396.13800,6.732732004
396.13850,9.174287265
396.13900,10.08987049
396.13950,8.258704042
396.14000,3.375593519
396.14050,-2.423100227
396.14100,-6.08543312
396.14150,-7.001016343
396.14200,-6.390627528
396.14250,-5.780238712
396.14300,-5.475044304
396.14350,-4.254266674
396.14400,-2.728294635
396.14450,-2.423100227
396.14500,-3.338683451
396.14550,-4.864655489
396.14600,-6.08543312
396.14650,-6.390627528
396.14700,-4.864655489
396.14750,-0.897128189
396.14800,4.901565557
396.14850,10.3950649
396.14900,12.53142575
396.14950,11.61584253
396.15000,11.61584253
396.15050,12.53142575
396.15100,8.258704042
396.15150,-4.864655489
396.15200,-19.81918147
396.15250,-22.87112554
396.15300,-12.18932127
396.15350,0.01845503415
396.15400,3.985982334
396.15450,2.460010296
396.15500,3.985982334
396.15550,7.648315227
396.15600,5.511954373
396.15650,-4.559461081
396.15700,-16.15684857
396.15750,-20.42957028
396.15800,-14.93607094
396.15850,-2.728294635
396.15900,10.08987049
396.15950,17.71973068
396.16000,18.6353139
396.16050,15.88856423
396.16100,12.83662016
396.16150,10.3950649
396.16200,7.953509634
396.16250,6.732732004
396.16300,7.037926411
396.16350,7.037926411
396.16400,6.427537596
396.16450,10.08987049
396.16500,18.3301195
396.16550,24.43400765
396.16600,20.77167476
396.16650,11.61584253
396.16700,5.206759965
396.16750,3.680787927
396.16800,0.9340382573
396.16850,-6.08543312
396.16900,-12.79971009
396.16950,-14.02048772
396.17000,-9.137377197
396.17050,-1.202322597
396.17100,6.122343188
396.17150,9.479481673
396.17200,7.343120819
396.17250,2.460010296
396.17300,-0.2867393736
396.17350,-0.2867393736
396.17400,-0.2867393736
396.17450,-1.507517004
396.17500,-2.423100227
396.17550,-2.423100227
396.17600,-3.643877858
396.17650,-7.306210751
396.17700,-11.88412687
396.17750,-14.02048772
396.17800,-12.79971009
396.17850,-10.05296042
396.17900,-7.916599566
396.17950,-7.306210751
396.18000,-7.306210751
396.18050,-6.695821935
396.18100,-5.169849897
396.18150,-3.949072266
396.18200,-3.949072266
396.18250,-3.949072266
396.18300,-3.338683451
396.18350,-3.033489043
396.18400,-3.643877858
396.18450,-4.254266674
396.18500,-3.033489043
396.18550,-0.2867393736
396.18600,1.544427073
396.18650,1.544427073
396.18700,0.01845503415
396.18750,-1.507517004
396.18800,-2.11790582
396.18850,-1.812711412
396.18900,-1.202322597
396.18950,-0.5919337813
396.19000,-0.2867393736
396.19050,0.6288438496
396.19100,0.6288438496
396.19150,-1.202322597
396.19200,-4.559461081
396.19250,-4.559461081
396.19300,0.01845503415
396.19350,5.206759965
396.19400,7.648315227
396.19450,9.174287265
396.19500,12.22623134
396.19550,13.44700897
396.19600,7.953509634
396.19650,-0.5919337813
396.19700,-5.169849897
396.19750,-7.306210751
396.19800,-15.54645976
396.19850,-28.66981929
396.19900,-34.77370744
396.19950,-28.66981929
396.20000,-20.12437587
396.20050,-12.49451568
396.20100,3.985982334
396.20150,34.5054231
396.20200,59.83655894
396.20250,62.58330861
396.20300,49.76514349
396.20350,40.91450567
396.20400,35.42100633
396.20450,18.02492509
396.20500,-11.27373805
396.20550,-38.43604034
396.20600,-58.88406565
396.20650,-76.89053571
396.20700,-82.07884064
396.20750,-56.13731598
396.20800,-8.221793974
396.20850,25.04439647
396.20900,27.79114613
396.20950,22.6028412
396.21000,28.09634054
396.21050,27.18075732
396.21100,-2.423100227
396.21150,-43.01395645
396.21200,-56.13731598
396.21250,-35.07890185
396.21300,-8.526988381
396.21350,2.765204703
396.21400,6.732732004
396.21450,12.22623134
396.21500,13.14181457
396.21550,4.901565557
396.21600,-4.254266674
396.21650,-9.137377197
396.21700,-13.4100989
396.21750,-19.81918147
396.21800,-19.81918147
396.21850,-9.137377197
396.21900,2.154815888
396.21950,5.206759965
396.22000,4.59637115
396.22050,9.174287265
396.22100,16.80414746
396.22150,18.94050831
396.22200,15.58336983
396.22250,13.14181457
396.22300,12.83662016
396.22350,11.31064812
396.22400,9.174287265
396.22450,9.174287265
396.22500,9.784676081
396.22550,6.122343188
396.22600,-0.897128189
396.22650,-3.643877858
396.22700,2.460010296
396.22750,12.83662016
396.22800,17.41453627
396.22850,11.00545371
396.22900,0.9340382573
396.22950,-2.728294635
396.23000,1.544427073
396.23050,7.648315227
396.23100,8.56389845
396.23150,6.427537596
396.23200,5.511954373
396.23250,4.291176742
396.23300,3.375593519
396.23350,9.174287265
396.23400,22.2976468
396.23450,26.87556291
396.23500,8.56389845
396.23550,-17.68282061
396.23600,-23.48151436
396.23650,-5.780238712
396.23700,7.037926411
396.23750,-2.11790582
396.23800,-18.59840384
396.23850,-22.26073673
396.23900,-18.59840384
396.23950,-21.3451535
396.24000,-22.26073673
396.24050,-4.559461081
396.24100,25.65478528
396.24150,43.35606093
396.24200,39.69372804
396.24250,29.92750699
396.24300,26.2651741
396.24350,22.2976468
396.24400,11.61584253
396.24450,1.544427073
396.24500,0.6288438496
396.24550,3.985982334
396.24600,3.375593519
396.24650,0.3236494419
396.24700,0.01845503415
396.24750,1.544427073
396.24800,0.9340382573
396.24850,-0.5919337813
396.24900,0.01845503415
396.24950,2.460010296
396.25000,3.375593519
396.25050,3.375593519
396.25100,6.122343188
396.25150,10.7002593
396.25200,13.75220338
396.25250,14.3625922
396.25300,13.75220338
396.25350,10.3950649
396.25400,1.544427073
396.25450,-9.747766012
396.25500,-16.15684857
396.25550,-14.02048772
396.25600,-9.747766012
396.25650,-11.27373805
396.25700,-14.02048772
396.25750,-8.526988381
396.25800,6.122343188
396.25850,17.41453627
396.25900,13.44700897
396.25950,-3.949072266
396.26000,-23.48151436
396.26050,-33.55292981
396.26100,-31.11137455
396.26150,-21.65034791
396.26200,-14.32568213
396.26250,-14.63087654
396.26300,-18.29320943
396.26350,-15.24126535
396.26400,-5.475044304
396.26450,2.154815888
396.26500,0.6288438496
396.26550,-7.001016343
396.26600,-14.32568213
396.26650,-17.98801502
396.26700,-18.29320943
396.26750,-12.49451568
396.26800,-1.507517004
396.26850,7.343120819
396.26900,8.869092857
396.26950,5.206759965
396.27000,3.680787927
396.27050,5.206759965
396.27100,4.901565557
396.27150,2.154815888
396.27200,0.01845503415
396.27250,-0.5919337813
396.27300,-0.5919337813
396.27350,-0.2867393736
396.27400,0.9340382573
396.27450,2.460010296
396.27500,1.84962148
396.27550,0.01845503415
396.27600,0.9340382573
396.27650,5.81714878
396.27700,8.869092857
396.27750,7.343120819
396.27800,3.375593519
396.27850,2.765204703
396.27900,6.732732004
396.27950,11.31064812
396.28000,11.31064812
396.28050,6.732732004
396.28100,1.544427073
396.28150,-1.507517004
396.28200,-4.864655489
396.28250,-11.88412687
396.28300,-19.51398706
396.28350,-21.0399591
396.28400,-15.24126535
396.28450,-6.390627528
396.28500,1.239232665
396.28550,9.784676081
396.28600,17.10934187
396.28650,18.02492509
396.28700,10.08987049
396.28750,1.84962148
396.28800,-0.2867393736
396.28850,0.01845503415
396.28900,-5.780238712
396.28950,-14.93607094
396.29000,-17.3776262
396.29050,-8.526988381
396.29100,2.765204703
396.29150,8.869092857
396.29200,11.00545371
396.29250,14.97298101
396.29300,20.77167476
396.29350,23.21323002
396.29400,22.6028412
396.29450,24.43400765
396.29500,29.62231258
396.29550,30.2327014
396.29600,21.38206357
396.29650,9.479481673
396.29700,2.154815888
396.29750,-3.643877858
396.29800,-16.46204298
396.29850,-33.85812422
396.29900,-40.57240119
396.29950,-27.14384725
396.30000,-1.202322597
396.30050,21.38206357
396.30100,30.84309021
396.30150,25.65478528
396.30200,11.31064812
396.30250,-3.949072266
396.30300,-14.93607094
396.30350,-23.17631995
396.30400,-35.68929067
396.30450,-51.25420546
396.30500,-57.05289921
396.30550,-46.37109494
396.30600,-27.75423607
396.30650,-14.02048772
396.30700,-7.916599566
396.30750,-1.202322597
396.30800,7.648315227
396.30850,10.7002593
396.30900,5.206759965
396.30950,0.01845503415
396.31000,3.985982334
396.31050,11.31064812
396.31100,12.53142575
396.31150,10.3950649
396.31200,15.88856423
396.31250,29.01192377
396.31300,38.4729504
396.31350,39.69372804
396.31400,39.99892244
396.31450,41.52489448
396.31500,29.92750699
396.31550,-1.812711412
396.31600,-37.21526271
396.31650,-49.11784461
396.31700,-35.07890185
396.31750,-16.46204298
396.31800,-8.526988381
396.31850,-6.08543312
396.31900,0.01845503415
396.31950,5.81714878
396.32000,4.901565557
396.32050,-1.507517004
396.32100,-6.390627528
396.32150,-6.695821935
396.32200,-5.780238712
396.32250,-4.864655489
396.32300,-1.202322597
396.32350,5.206759965
396.32400,11.00545371
396.32450,12.22623134
396.32500,10.3950649
396.32550,12.53142575
396.32600,19.24570272
396.32650,21.68725798
396.32700,9.174287265
396.32750,-14.93607094
396.32800,-35.38409626
396.32850,-38.74123474
396.32900,-28.05943047
396.32950,-15.24126535
396.33000,-7.001016343
396.33050,-2.11790582
396.33100,0.3236494419
396.33150,1.84962148
396.33200,2.765204703
396.33250,4.291176742
396.33300,6.732732004
396.33350,9.174287265
396.33400,10.08987049
396.33450,8.258704042
396.33500,3.375593519
396.33550,-2.423100227
396.33600,-5.780238712
396.33650,-5.475044304
396.33700,-4.864655489
396.33750,-4.254266674
396.33800,-2.728294635
396.33850,-1.202322597
396.33900,-1.812711412
396.33950,-4.864655489
396.34000,-5.169849897
396.34050,0.3236494419
396.34100,10.3950649
396.34150,18.94050831
396.34200,21.68725798
396.34250,17.71973068
396.34300,10.08987049
396.34350,2.765204703
396.34400,-2.11790582
396.34450,-7.001016343
396.34500,-10.66334924
396.34550,-10.05296042
396.34600,-4.559461081
396.34650,0.9340382573
396.34700,2.765204703
396.34750,3.070399111
396.34800,4.901565557
396.34850,7.648315227
396.34900,7.953509634
396.34950,7.343120819
396.35000,7.343120819
396.35050,5.81714878
396.35100,0.01845503415
396.35150,-6.08543312
396.35200,-7.306210751
396.35250,-4.254266674
396.35300,-2.11790582
396.35350,-2.423100227
396.35400,-1.202322597
396.35450,0.3236494419
396.35500,-2.11790582
396.35550,-8.526988381
396.35600,-10.05296042
396.35650,-2.728294635
396.35700,5.206759965
396.35750,3.985982334
396.35800,-4.864655489
396.35850,-11.27373805
396.35900,-9.747766012
396.35950,-5.169849897
396.36000,-4.864655489
396.36050,-7.306210751
396.36100,-5.475044304
396.36150,4.291176742
396.36200,16.49895305
396.36250,22.90803561
396.36300,20.16128594
396.36350,14.3625922
396.36400,11.61584253
396.36450,11.61584253
396.36500,10.3950649
396.36550,6.732732004
396.36600,4.291176742
396.36650,5.206759965
396.36700,6.427537596
396.36750,4.901565557
396.36800,1.239232665
396.36850,-1.202322597
396.36900,-2.728294635
396.36950,-4.254266674
396.37000,-4.559461081
396.37050,-3.338683451
396.37100,-2.423100227
396.37150,-3.033489043
396.37200,-2.11790582
396.37250,0.01845503415
396.37300,0.01845503415
396.37350,-4.254266674
396.37400,-8.526988381
396.37450,-6.08543312
396.37500,-0.2867393736
396.37550,2.154815888
396.37600,6.427537596
396.37650,18.3301195
396.37700,31.75867344
396.37750,32.06386784
396.37800,20.46648035
396.37850,14.3625922
396.37900,19.55089713
396.37950,18.94050831
396.38000,-1.202322597
396.38050,-28.36462488
396.38100,-40.26720678
396.38150,-38.13084593
396.38200,-38.13084593
396.38250,-40.57240119
396.38300,-32.33215218
396.38350,-14.02048772
396.38400,-5.169849897
396.38450,-12.49451568
396.38500,-20.42957028
396.38550,-17.3776262
396.38600,-12.18932127
396.38650,-16.76723739
396.38700,-23.78670877
396.38750,-21.3451535
396.38800,-15.85165417
396.38850,-18.90359824
396.38900,-24.70229199
396.38950,-15.54645976
396.39000,9.174287265
396.39050,29.92750699
396.39100,30.5378958
396.39150,17.71973068
396.39200,6.732732004
396.39250,4.901565557
396.39300,6.122343188
396.39350,3.985982334
396.39400,-0.5919337813
396.39450,-1.812711412
396.39500,4.901565557
396.39550,17.71973068
396.39600,26.5703685
396.39650,25.34959087
396.39700,17.71973068
396.39750,10.7002593
396.39800,8.258704042
396.39850,9.784676081
396.39900,14.05739779
396.39950,16.19375864
396.40000,13.44700897
396.40050,10.08987049
396.40100,12.22623134
396.40150,14.3625922
396.40200,5.81714878
396.40250,-14.32568213
396.40300,-32.33215218
396.40350,-37.21526271
396.40400,-28.66981929
396.40450,-11.88412687
396.40500,6.122343188
396.40550,16.80414746
396.40600,14.6677866
396.40650,11.92103693
396.40700,22.2976468
396.40750,35.72620074
396.40800,30.5378958
396.40850,5.511954373
396.40900,-17.0724318
396.40950,-26.53345844
396.41000,-31.72176337
396.41050,-32.942541
396.41100,-18.90359824
396.41150,3.985982334
396.41200,11.00545371
396.41250,-1.202322597
396.41300,-7.306210751
396.41350,0.6288438496
396.41400,-5.169849897
396.41450,-39.96201237
396.41500,-69.87106433
396.41550,-61.02042651
396.41600,-28.66981929
396.41650,-8.526988381
396.41700,-3.949072266
396.41750,5.206759965
396.41800,17.41453627
396.41850,14.6677866
396.41900,-0.897128189
396.41950,-7.001016343
396.42000,1.544427073
396.42050,8.56389845
396.42100,5.206759965
396.42150,0.9340382573
396.42200,1.84962148
396.42250,3.070399111
396.42300,2.460010296
396.42350,4.291176742
396.42400,7.953509634
396.42450,7.648315227
396.42500,1.544427073
396.42550,-3.643877858
396.42600,-4.864655489
396.42650,-3.949072266
396.42700,-5.475044304
396.42750,-10.05296042
396.42800,-16.15684857
396.42850,-18.29320943
396.42900,-11.27373805
396.42950,0.6288438496
396.43000,8.258704042
396.43050,7.953509634
396.43100,9.174287265
396.43150,18.02492509
396.43200,25.34959087
396.43250,22.2976468
396.43300,15.27817542
396.43350,17.71973068
396.43400,29.01192377
396.43450,36.03139514
396.43500,31.45347903
396.43550,23.21323002
396.43600,21.68725798
396.43650,25.34959087
396.43700,22.2976468
396.43750,4.59637115
396.43800,-21.0399591
396.43850,-38.13084593
396.43900,-34.77370744
396.43950,-17.68282061
396.44000,-1.812711412
396.44050,4.59637115
396.44100,6.122343188
396.44150,6.427537596
396.44200,5.511954373
396.44250,3.680787927
396.44300,4.291176742
396.44350,6.122343188
396.44400,3.375593519
396.44450,-3.643877858
396.44500,-7.611405158
396.44550,-3.949072266
396.44600,0.3236494419
396.44650,-1.202322597
396.44700,-5.780238712
396.44750,-6.08543312
396.44800,-3.033489043
396.44850,-1.812711412
396.44900,-1.202322597
396.44950,5.206759965
396.45000,15.88856423
396.45050,21.07686917
396.45100,16.19375864
396.45150,10.7002593
396.45200,13.14181457
396.45250,18.6353139
396.45300,18.3301195
396.45350,13.44700897
396.45400,14.3625922
396.45450,22.90803561
396.45500,28.40153495
396.45550,23.21323002
396.45600,13.44700897
396.45650,8.258704042
396.45700,3.985982334
396.45750,-7.001016343
396.45800,-21.0399591
396.45850,-26.22826403
396.45900,-19.81918147
396.45950,-13.1049045
396.46000,-13.1049045
396.46050,-14.32568213
396.46100,-10.05296042
396.46150,-3.338683451
396.46200,0.01845503415
396.46250,2.154815888
396.46300,5.206759965
396.46350,5.511954373
396.46400,-0.897128189
396.46450,-9.442571605
396.46500,-12.49451568
396.46550,-9.442571605
396.46600,-5.475044304
396.46650,-2.11790582
396.46700,1.239232665
396.46750,3.680787927
396.46800,2.154815888
396.46850,-1.507517004
396.46900,-3.033489043
396.46950,-2.728294635
396.47000,-2.728294635
396.47050,-2.728294635
396.47100,-0.2867393736
396.47150,1.84962148
396.47200,0.01845503415
396.47250,-5.169849897
396.47300,-7.916599566
396.47350,-6.08543312
396.47400,-3.033489043
396.47450,-0.897128189
396.47500,1.239232665
396.47550,3.070399111
396.47600,1.239232665
396.47650,-3.338683451
396.47700,-5.169849897
396.47750,-2.728294635
396.47800,0.01845503415
396.47850,0.6288438496
396.47900,1.544427073
396.47950,3.680787927
396.48000,3.680787927
396.48050,2.460010296
396.48100,5.206759965
396.48150,12.22623134
396.48200,12.53142575
396.48250,-0.5919337813
396.48300,-17.68282061
396.48350,-22.87112554
396.48400,-14.93607094
396.48450,-7.306210751
396.48500,-7.916599566
396.48550,-10.96854364
396.48600,-8.832182789
396.48650,-3.949072266
396.48700,-1.812711412
396.48750,-0.5919337813
396.48800,3.985982334
396.48850,10.08987049
396.48900,13.44700897
396.48950,14.97298101
396.49000,18.02492509
396.49050,18.02492509
396.49100,10.08987049
396.49150,0.01845503415
396.49200,-0.2867393736
396.49250,5.511954373
396.49300,1.544427073
396.49350,-16.15684857
396.49400,-28.36462488
396.49450,-20.12437587
396.49500,-4.559461081
396.49550,-3.338683451
396.49600,-14.93607094
396.49650,-21.0399591
396.49700,-17.68282061
396.49750,-20.12437587
396.49800,-33.24773541
396.49850,-39.96201237
396.49900,-25.92306962
396.49950,-1.507517004
396.50000,13.75220338
396.50050,14.6677866
396.50100,9.784676081
396.50150,8.869092857
396.50200,13.44700897
396.50250,17.71973068
396.50300,19.24570272
396.50350,21.07686917
396.50400,26.2651741
396.50450,31.45347903
396.50500,32.36906225
396.50550,34.2002287
396.50600,47.01839382
396.50650,63.49889184
396.50700,63.49889184
396.50750,44.27164415
396.50800,25.34959087
396.50850,14.3625922
396.50900,-10.05296042
396.50950,-59.49445447
396.51000,-100.6956995
396.51050,-94.28661695
396.51100,-50.94901105
396.51150,-15.54645976
396.51200,-8.221793974
396.51250,-10.05296042
396.51300,-5.169849897
396.51350,-1.202322597
396.51400,-7.001016343
396.51450,-13.1049045
396.51500,-10.66334924
396.51550,-6.08543312
396.51600,-9.137377197
396.51650,-18.29320943
396.51700,-26.22826403
396.51750,-28.66981929
396.51800,-23.17631995
396.51850,-11.57893246
396.51900,-3.033489043
396.51950,-2.11790582
396.52000,0.01845503415
396.52050,13.75220338
396.52100,31.75867344
396.52150,38.4729504
396.52200,34.2002287
396.52250,30.5378958
396.52300,30.2327014
396.52350,24.73920206
396.52400,13.75220338
396.52450,2.460010296
396.52500,-8.832182789
396.52550,-22.26073673
396.52600,-28.05943047
396.52650,-15.85165417
396.52700,2.154815888
396.52750,2.765204703
396.52800,-12.49451568
396.52850,-18.59840384
396.52900,-4.254266674
396.52950,11.31064812
396.53000,9.479481673
396.53050,-1.202322597
396.53100,-4.254266674
396.53150,0.01845503415
396.53200,1.239232665
396.53250,-2.423100227
396.53300,-3.338683451
396.53350,-0.2867393736
396.53400,0.6288438496
396.53450,0.01845503415
396.53500,0.01845503415
396.53550,0.01845503415
396.53600,-6.08543312
396.53650,-17.3776262
396.53700,-23.78670877
396.53750,-18.90359824
396.53800,-7.916599566
396.53850,-0.2867393736
396.53900,2.765204703
396.53950,6.122343188
396.54000,12.22623134
396.54050,15.58336983
396.54100,11.31064812
396.54150,2.460010296
396.54200,-1.507517004
396.54250,0.6288438496
396.54300,0.6288438496
396.54350,-10.35815483
396.54400,-28.36462488
396.54450,-35.99448507
396.54500,-22.56593114
396.54550,3.070399111
396.54600,22.90803561
396.54650,26.5703685
396.54700,18.02492509
396.54750,8.56389845
396.54800,3.375593519
396.54850,1.239232665
396.54900,-0.5919337813
396.54950,-4.559461081
396.55000,-9.442571605
396.55050,-10.66334924
396.55100,-3.643877858
396.55150,11.00545371
396.55200,26.87556291
396.55250,36.03139514
396.55300,38.167756
396.55350,37.25217277
396.55400,32.97945107
396.55450,22.90803561
396.55500,11.61584253
396.55550,8.258704042
396.55600,13.44700897
396.55650,16.80414746
396.55700,11.92103693
396.55750,5.81714878
396.55800,7.037926411
396.55850,11.61584253
396.55900,9.784676081
396.55950,1.239232665
396.56000,-4.864655489
396.56050,-7.001016343
396.56100,-11.57893246
396.56150,-19.20879265
396.56200,-23.78670877
396.56250,-22.26073673
396.56300,-19.20879265
396.56350,-15.85165417
396.56400,-5.780238712
396.56450,11.31064812
396.56500,24.43400765
396.56550,22.6028412
396.56600,10.3950649
396.56650,0.6288438496
396.56700,-1.202322597
396.56750,-0.2867393736
396.56800,-0.5919337813
396.56850,-1.507517004
396.56900,-1.812711412
396.56950,-0.5919337813
396.57000,0.9340382573
396.57050,1.544427073
396.57100,-0.2867393736
396.57150,-2.423100227
396.57200,-1.507517004
396.57250,0.01845503415
396.57300,-3.949072266
396.57350,-14.02048772
396.57400,-20.12437587
396.57450,-15.85165417
396.57500,-6.390627528
396.57550,-1.202322597
396.57600,-0.5919337813
396.57650,0.3236494419
396.57700,3.375593519
396.57750,5.511954373
396.57800,6.732732004
396.57850,8.869092857
396.57900,11.00545371
396.57950,11.00545371
396.58000,9.784676081
396.58050,4.291176742
396.58100,-13.71529331
396.58150,-45.45551171
396.58200,-72.31261959
396.58250,-71.39703637
396.58300,-45.15031731
396.58350,-18.90359824
396.58400,-7.306210751
396.58450,-1.202322597
396.58500,11.31064812
396.58550,21.38206357
396.58600,18.02492509
396.58650,10.08987049
396.58700,13.75220338
396.58750,22.2976468
396.58800,17.41453627
396.58850,2.154815888
396.58900,-1.812711412
396.58950,7.037926411
396.59000,5.511954373
396.59050,-16.76723739
396.59100,-37.21526271
396.59150,-34.77370744
396.59200,-21.3451535
396.59250,-17.68282061
396.59300,-14.93607094
396.59350,4.901565557
396.59400,33.89503429
396.59450,42.74567211
396.59500,25.95997969
396.59550,8.258704042
396.59600,6.122343188
396.59650,11.00545371
396.59700,10.3950649
396.59750,7.953509634
396.59800,10.3950649
396.59850,13.44700897
396.59900,9.784676081
396.59950,3.070399111
396.60000,0.3236494419
396.60050,2.460010296
396.60100,5.511954373
396.60150,8.56389845
396.60200,12.22623134
396.60250,14.97298101
396.60300,14.97298101
396.60350,13.14181457
396.60400,9.479481673
396.60450,0.3236494419
396.60500,-14.63087654
396.60550,-27.75423607
396.60600,-30.50098574
396.60650,-22.87112554
396.60700,-14.02048772
396.60750,-11.57893246
396.60800,-12.79971009
396.60850,-12.79971009
396.60900,-10.66334924
396.60950,-9.137377197
396.61000,-7.001016343
396.61050,0.3236494419
396.61100,11.61584253
396.61150,18.94050831
396.61200,17.71973068
396.61250,14.97298101
396.61300,16.80414746
396.61350,16.19375864
396.61400,4.291176742
396.61450,-14.32568213
396.61500,-25.61787521
396.61550,-23.78670877
396.61600,-16.46204298
396.61650,-12.79971009
396.61700,-11.88412687
396.61750,-9.747766012
396.61800,-4.559461081
396.61850,0.6288438496
396.61900,3.680787927
396.61950,2.154815888
396.62000,0.6288438496
396.62050,7.037926411
396.62100,20.16128594
396.62150,27.79114613
396.62200,23.51842443
396.62250,18.6353139
396.62300,23.51842443
396.62350,25.95997969
396.62400,7.343120819
396.62450,-26.53345844
396.62500,-47.89706697
396.62550,-40.8775956
396.62600,-17.68282061
396.62650,1.239232665
396.62700,9.784676081
396.62750,9.479481673
396.62800,1.544427073
396.62850,-11.27373805
396.62900,-20.73476469
396.62950,-23.17631995
396.63000,-24.09190317
396.63050,-28.36462488
396.63100,-28.9750137
396.63150,-15.24126535
396.63200,11.31064812
396.63250,36.33658955
396.63300,45.79761619
396.63350,36.33658955
396.63400,17.10934187
396.63450,0.9340382573
396.63500,-1.812711412
396.63550,7.343120819
396.63600,18.6353139
396.63650,22.2976468
396.63700,18.94050831
396.63750,15.27817542
396.63800,14.05739779
396.63850,11.00545371
396.63900,4.291176742
396.63950,-0.897128189
396.64000,-2.728294635
396.64050,-8.221793974
396.64100,-24.09190317
396.64150,-40.57240119
396.64200,-37.82565152
396.64250,-10.05296042
396.64300,23.21323002
396.64350,38.77814481
396.64400,32.36906225
396.64450,18.6353139
396.64500,10.7002593
396.64550,11.00545371
396.64600,17.10934187
396.64650,23.21323002
396.64700,22.90803561
396.64750,14.05739779
396.64800,3.985982334
396.64850,0.01845503415
396.64900,-2.11790582
396.64950,-13.71529331
396.65000,-33.55292981
396.65050,-46.67628934
396.65100,-43.01395645
396.65150,-29.89059692
396.65200,-20.12437587
396.65250,-16.15684857
396.65300,-11.88412687
396.65350,-3.949072266
396.65400,3.070399111
396.65450,7.037926411
396.65500,10.3950649
396.65550,15.58336983
396.65600,19.55089713
396.65650,18.3301195
396.65700,15.88856423
396.65750,16.80414746
396.65800,16.49895305
396.65850,5.206759965
396.65900,-15.24126535
396.65950,-29.89059692
396.66000,-25.92306962
396.66050,-10.35815483
396.66100,0.01845503415
396.66150,0.01845503415
396.66200,-1.812711412
396.66250,0.01845503415
396.66300,1.239232665
396.66350,-0.897128189
396.66400,-2.728294635
396.66450,1.239232665
396.66500,8.869092857
396.66550,12.83662016
396.66600,11.92103693
396.66650,11.31064812
396.66700,13.14181457
396.66750,14.6677866
396.66800,13.44700897
396.66850,8.869092857
396.66900,0.6288438496
396.66950,-12.49451568
396.67000,-26.22826403
396.67050,-31.41656896
396.67100,-24.70229199
396.67150,-13.1049045
396.67200,-5.169849897
396.67250,-1.507517004
396.67300,2.154815888
396.67350,6.122343188
396.67400,6.732732004
396.67450,2.765204703
396.67500,-0.5919337813
396.67550,-0.897128189
396.67600,2.154815888
396.67650,8.56389845
396.67700,17.71973068
396.67750,25.34959087
396.67800,26.87556291
396.67850,24.43400765
396.67900,21.07686917
396.67950,16.19375864
396.68000,7.953509634
396.68050,0.6288438496
396.68100,0.6288438496
396.68150,5.81714878
396.68200,6.427537596
396.68250,0.9340382573
396.68300,-2.11790582
396.68350,0.6288438496
396.68400,3.070399111
396.68450,-0.2867393736
396.68500,-4.254266674
396.68550,-3.949072266
396.68600,-1.812711412
396.68650,-0.897128189
396.68700,2.154815888
396.68750,11.31064812
396.68800,19.24570272
396.68850,20.46648035
396.68900,18.3301195
396.68950,18.3301195
396.69000,14.97298101
396.69050,0.9340382573
396.69100,-18.29320943
396.69150,-30.80618014
396.69200,-30.50098574
396.69250,-22.56593114
396.69300,-12.49451568
396.69350,-7.306210751
396.69400,-12.18932127
396.69450,-23.17631995
396.69500,-26.83865284
396.69550,-19.51398706
396.69600,-13.4100989
396.69650,-15.85165417
396.69700,-13.71529331
396.69750,7.037926411
396.69800,34.5054231
396.69850,41.52489448
396.69900,24.12881324
396.69950,4.901565557
396.70000,-1.507517004
396.70050,-4.559461081
396.70100,-14.02048772
396.70150,-20.73476469
396.70200,-10.35815483
396.70250,10.08987049
396.70300,19.24570272
396.70350,8.56389845
396.70400,-4.254266674
396.70450,1.239232665
396.70500,22.90803561
396.70550,39.08333922
396.70600,38.77814481
396.70650,31.75867344
396.70700,28.40153495
396.70750,17.71973068
396.70800,-13.4100989
396.70850,-52.7801775
396.70900,-70.78664755
396.70950,-57.96848243
396.71000,-34.16331863
396.71050,-17.98801502
396.71100,-7.916599566
396.71150,1.544427073
396.71200,5.206759965
396.71250,-3.033489043
396.71300,-15.24126535
396.71350,-17.98801502
396.71400,-12.79971009
396.71450,-10.35815483
396.71500,-12.18932127
396.71550,-13.1049045
396.71600,-11.27373805
396.71650,-10.35815483
396.71700,-10.66334924
396.71750,-9.747766012
396.71800,-7.001016343
396.71850,-1.812711412
396.71900,5.511954373
396.71950,14.05739779
396.72000,19.55089713
396.72050,19.85609153
396.72100,18.02492509
396.72150,16.49895305
396.72200,14.05739779
396.72250,7.037926411
396.72300,-5.169849897
396.72350,-21.3451535
396.72400,-35.38409626
396.72450,-39.65681797
396.72500,-31.41656896
396.72550,-17.3776262
396.72600,-7.306210751
396.72650,-3.033489043
396.72700,0.6288438496
396.72750,5.206759965
396.72800,7.037926411
396.72850,5.206759965
396.72900,5.206759965
396.72950,8.258704042
396.73000,11.61584253
396.73050,13.14181457
396.73100,13.75220338
396.73150,12.83662016
396.73200,6.122343188
396.73250,-3.338683451
396.73300,-8.526988381
396.73350,-5.169849897
396.73400,0.6288438496
396.73450,2.154815888
396.73500,-0.5919337813
396.73550,-5.780238712
396.73600,-11.27373805
396.73650,-15.54645976
396.73700,-15.85165417
396.73750,-12.49451568
396.73800,-9.747766012
396.73850,-8.832182789
396.73900,-5.475044304
396.73950,4.59637115
396.74000,17.71973068
396.74050,27.79114613
396.74100,33.28464547
396.74150,37.86256159
396.74200,41.83008889
396.74250,43.05086652
396.74300,39.08333922
396.74350,32.36906225
396.74400,25.34959087
396.74450,15.58336983
396.74500,-2.728294635
396.74550,-28.9750137
396.74600,-51.86459428
396.74650,-58.88406565
396.74700,-49.11784461
396.74750,-32.942541
396.74800,-18.29320943
396.74850,-5.780238712
396.74900,5.81714878
396.74950,13.44700897
396.75000,13.14181457
396.75050,8.869092857
396.75100,5.81714878
396.75150,6.732732004
396.75200,8.258704042
396.75250,8.869092857
396.75300,9.479481673
396.75350,12.83662016
396.75400,19.55089713
396.75450,25.04439647
396.75500,22.90803561
396.75550,14.3625922
396.75600,9.174287265
396.75650,12.22623134
396.75700,12.83662016
396.75750,-0.897128189
396.75800,-23.78670877
396.75850,-35.68929067
396.75900,-28.66981929
396.75950,-13.4100989
396.76000,-3.033489043
396.76050,0.01845503415
396.76100,0.01845503415
396.76150,1.239232665
396.76200,4.291176742
396.76250,5.81714878
396.76300,2.460010296
396.76350,-2.423100227
396.76400,0.01845503415
396.76450,11.61584253
396.76500,18.02492509
396.76550,4.291176742
396.76600,-17.3776262
396.76650,-25.0074864
396.76700,-14.02048772
396.76750,-0.897128189
396.76800,3.375593519
396.76850,5.206759965
396.76900,8.869092857
396.76950,9.174287265
396.77000,6.732732004
396.77050,10.08987049
396.77100,18.94050831
396.77150,22.2976468
396.77200,17.41453627
396.77250,17.10934187
396.77300,25.04439647
396.77350,25.95997969
396.77400,10.08987049
396.77450,-9.442571605
396.77500,-18.59840384
396.77550,-21.0399591
396.77600,-26.22826403
396.77650,-28.05943047
396.77700,-17.3776262
396.77750,-0.5919337813
396.77800,6.732732004
396.77850,3.375593519
396.77900,0.01845503415
396.77950,0.3236494419
396.78000,0.3236494419
396.78050,-1.507517004
396.78100,-1.507517004
396.78150,1.239232665
396.78200,4.291176742
396.78250,3.985982334
396.78300,-0.5919337813
396.78350,-9.137377197
396.78400,-13.4100989
396.78450,-7.306210751
396.78500,0.9340382573
396.78550,-2.728294635
396.78600,-17.98801502
396.78650,-24.09190317
396.78700,-13.1049045
396.78750,-3.338683451
396.78800,-10.05296042
396.78850,-15.24126535
396.78900,3.680787927
396.78950,33.28464547
396.79000,36.64178396
396.79050,8.869092857
396.79100,-16.15684857
396.79150,-14.02048772
396.79200,0.9340382573
396.79250,3.985982334
396.79300,-3.949072266
396.79350,-7.916599566
396.79400,-4.864655489
396.79450,-3.643877858
396.79500,-6.390627528
396.79550,-7.306210751
396.79600,-3.033489043
396.79650,1.84962148
396.79700,5.511954373
396.79750,7.648315227
396.79800,5.511954373
396.79850,-1.507517004
396.79900,-9.442571605
396.79950,-12.18932127
396.80000,-10.35815483
396.80050,-8.526988381
396.80100,-7.306210751
396.80150,-1.812711412
396.80200,9.479481673
396.80250,23.21323002
396.80300,31.45347903
396.80350,31.45347903
396.80400,26.87556291
396.80450,24.43400765
396.80500,25.65478528
396.80550,25.04439647
396.80600,18.6353139
396.80650,11.61584253
396.80700,10.7002593
396.80750,11.92103693
396.80800,6.122343188
396.80850,-3.643877858
396.80900,-7.916599566
396.80950,-4.254266674
396.81000,-2.11790582
396.81050,-4.559461081
396.81100,-5.780238712
396.81150,-7.001016343
396.81200,-17.3776262
396.81250,-34.46851304
396.81300,-38.43604034
396.81350,-21.95554232
396.81400,-3.033489043
396.81450,2.154815888
396.81500,4.901565557
396.81550,19.85609153
396.81600,32.67425666
396.81650,17.10934187
396.81700,-20.42957028
396.81750,-45.45551171
396.81800,-38.43604034
396.81850,-17.68282061
396.81900,-8.221793974
396.81950,-12.18932127
396.82000,-17.3776262
396.82050,-17.3776262
396.82100,-15.85165417
396.82150,-14.32568213
396.82200,-10.66334924
396.82250,-4.559461081
396.82300,1.239232665
396.82350,5.511954373
396.82400,6.427537596
396.82450,4.291176742
396.82500,2.154815888
396.82550,0.01845503415
396.82600,-5.475044304
396.82650,-17.0724318
396.82700,-31.41656896
396.82750,-37.82565152
396.82800,-31.11137455
396.82850,-17.98801502
396.82900,-7.916599566
396.82950,-4.559461081
396.83000,0.9340382573
396.83050,18.02492509
396.83100,43.35606093
396.83150,64.10928065
396.83200,70.51836321
396.83250,63.80408624
396.83300,49.76514349
396.83350,34.2002287
396.83400,23.21323002
396.83450,18.02492509
396.83500,10.08987049
396.83550,-12.18932127
396.83600,-43.62434527
396.83650,-59.49445447
396.83700,-45.45551171
396.83750,-19.51398706
396.83800,-9.137377197
396.83850,-19.20879265
396.83900,-31.72176337
396.83950,-35.07890185
396.84000,-34.77370744
396.84050,-32.33215218
396.84100,-21.65034791
396.84150,-3.033489043
396.84200,10.3950649
396.84250,11.92103693
396.84300,8.869092857
396.84350,13.14181457
396.84400,21.99245239
396.84450,23.82361883
396.84500,14.6677866
396.84550,1.544427073
396.84600,-4.864655489
396.84650,-3.033489043
396.84700,1.84962148
396.84750,3.375593519
396.84800,2.765204703
396.84850,8.258704042
396.84900,19.85609153
396.84950,27.18075732
396.85000,23.21323002
396.85050,17.10934187
396.85100,21.68725798
396.85150,29.92750699
396.85200,21.68725798
396.85250,-4.864655489
396.85300,-29.28020811
396.85350,-31.11137455
396.85400,-14.63087654
396.85450,1.544427073
396.85500,7.648315227
396.85550,6.427537596
396.85600,3.375593519
396.85650,0.9340382573
396.85700,-0.2867393736
396.85750,-0.897128189
396.85800,-1.507517004
396.85850,-1.812711412
396.85900,0.6288438496
396.85950,6.732732004
396.86000,13.44700897
396.86050,16.19375864
396.86100,15.27817542
396.86150,11.61584253
396.86200,7.037926411
396.86250,2.765204703
396.86300,-0.2867393736
396.86350,-2.728294635
396.86400,-5.169849897
396.86450,-6.08543312
396.86500,-3.338683451
396.86550,1.239232665
396.86600,5.206759965
396.86650,8.258704042
396.86700,12.53142575
396.86750,15.88856423
396.86800,14.05739779
396.86850,9.174287265
396.86900,7.648315227
396.86950,8.258704042
396.87000,3.375593519
396.87050,-8.221793974
396.87100,-15.24126535
396.87150,-7.306210751
396.87200,6.732732004
396.87250,11.61584253
396.87300,4.59637115
396.87350,-0.897128189
396.87400,0.9340382573
396.87450,4.901565557
396.87500,3.985982334
396.87550,1.239232665
396.87600,2.460010296
396.87650,3.680787927
396.87700,0.9340382573
396.87750,-0.2867393736
396.87800,5.81714878
396.87850,12.22623134
396.87900,4.901565557
396.87950,-12.18932127
396.88000,-22.87112554
396.88050,-23.78670877
396.88100,-29.89059692
396.88150,-45.45551171
396.88200,-49.11784461
396.88250,-23.17631995
396.88300,13.75220338
396.88350,27.48595173
396.88400,11.31064812
396.88450,-7.001016343
396.88500,-6.390627528
396.88550,6.427537596
396.88600,12.83662016
396.88650,8.56389845
396.88700,1.84962148
396.88750,-2.423100227
396.88800,-5.475044304
396.88850,-5.169849897
396.88900,0.9340382573
396.88950,9.174287265
396.89000,9.784676081
396.89050,0.01845503415
396.89100,-12.18932127
396.89150,-16.15684857
396.89200,-9.747766012
396.89250,-0.2867393736
396.89300,3.070399111
396.89350,0.6288438496
396.89400,-1.507517004
396.89450,0.9340382573
396.89500,5.511954373
396.89550,8.258704042
396.89600,9.174287265
396.89650,12.53142575
396.89700,15.58336983
396.89750,11.61584253
396.89800,2.460010296
396.89850,0.3236494419
396.89900,10.08987049
396.89950,18.94050831
396.90000,11.31064812
396.90050,-9.137377197
396.90100,-24.09190317
396.90150,-21.95554232
396.90200,-12.18932127
396.90250,-8.832182789
396.90300,-11.57893246
396.90350,-11.27373805
396.90400,-6.08543312
396.90450,-2.11790582
396.90500,-0.897128189
396.90550,0.3236494419
396.90600,1.544427073
396.90650,-0.2867393736
396.90700,-3.643877858
396.90750,-2.728294635
396.90800,0.9340382573
396.90850,0.3236494419
396.90900,-7.001016343
396.90950,-15.85165417
396.91000,-21.65034791
396.91050,-25.61787521
396.91100,-27.44904166
396.91150,-23.78670877
396.91200,-15.85165417
396.91250,-7.001016343
396.91300,3.680787927
396.91350,20.77167476
396.91400,36.33658955
396.91450,39.08333922
396.91500,32.67425666
396.91550,32.67425666
396.91600,37.25217277
396.91650,24.73920206
396.91700,-12.18932127
396.91750,-46.37109494
396.91800,-50.03342783
396.91850,-29.58540251
396.91900,-12.79971009
396.91950,-7.306210751
396.92000,-0.2867393736
396.92050,13.44700897
396.92100,24.12881324
396.92150,23.82361883
396.92200,18.3301195
396.92250,14.97298101
396.92300,14.05739779
396.92350,14.3625922
396.92400,13.75220338
396.92450,5.206759965
396.92500,-14.02048772
396.92550,-32.942541
396.92600,-35.68929067
396.92650,-21.0399591
396.92700,-4.864655489
396.92750,1.239232665
396.92800,1.544427073
396.92850,2.154815888
396.92900,3.070399111
396.92950,2.154815888
396.93000,1.239232665
396.93050,2.460010296
396.93100,3.985982334
396.93150,3.375593519
396.93200,1.544427073
396.93250,1.84962148
396.93300,3.985982334
396.93350,5.81714878
396.93400,5.206759965
396.93450,4.291176742
396.93500,6.732732004
396.93550,12.83662016
396.93600,20.46648035
396.93650,24.43400765
396.93700,21.99245239
396.93750,14.05739779
396.93800,3.680787927
396.93850,-4.254266674
396.93900,-9.137377197
396.93950,-14.02048772
396.94000,-21.95554232
396.94050,-30.80618014
396.94100,-33.24773541
396.94150,-26.53345844
396.94200,-16.15684857
396.94250,-10.05296042
396.94300,-7.916599566
396.94350,-4.864655489
396.94400,0.6288438496
396.94450,6.427537596
396.94500,8.869092857
396.94550,8.56389845
396.94600,7.953509634
396.94650,7.037926411
396.94700,5.81714878
396.94750,3.070399111
396.94800,-0.2867393736
396.94850,-2.423100227
396.94900,-1.202322597
396.94950,2.765204703
396.95000,5.511954373
396.95050,3.070399111
396.95100,-2.11790582
396.95150,-6.08543312
396.95200,-5.475044304
396.95250,0.6288438496
396.95300,8.869092857
396.95350,13.75220338
396.95400,12.53142575
396.95450,9.784676081
396.95500,10.7002593
396.95550,11.00545371
396.95600,1.84962148
396.95650,-14.32568213
396.95700,-23.78670877
396.95750,-19.20879265
396.95800,-8.221793974
396.95850,-1.507517004
396.95900,0.01845503415
396.95950,1.239232665
396.96000,3.680787927
396.96050,6.732732004
396.96100,14.3625922
396.96150,24.73920206
396.96200,28.09634054
396.96250,19.55089713
396.96300,8.869092857
396.96350,3.985982334
396.96400,-1.812711412
396.96450,-17.98801502
396.96500,-35.07890185
396.96550,-35.99448507
396.96600,-20.42957028
396.96650,-5.780238712
396.96700,-1.202322597
396.96750,-0.5919337813
396.96800,0.01845503415
396.96850,-2.423100227
396.96900,-9.442571605
396.96950,-13.4100989
396.97000,-11.57893246
396.97050,-10.66334924
396.97100,-15.54645976
396.97150,-18.29320943
396.97200,-13.4100989
396.97250,-3.949072266
396.97300,4.291176742
396.97350,11.31064812
396.97400,17.10934187
396.97450,18.3301195
396.97500,15.27817542
396.97550,14.05739779
396.97600,17.10934187
396.97650,18.3301195
396.97700,14.3625922
396.97750,8.869092857
396.97800,6.427537596
396.97850,4.291176742
396.97900,0.01845503415
396.97950,-2.11790582
396.98000,0.01845503415
396.98050,4.291176742
396.98100,6.122343188
396.98150,6.427537596
396.98200,6.732732004
396.98250,6.427537596
396.98300,4.901565557
396.98350,3.680787927
396.98400,2.765204703
396.98450,0.6288438496
396.98500,-3.033489043
396.98550,-6.08543312
396.98600,-8.832182789
396.98650,-11.88412687
396.98700,-12.18932127
396.98750,-7.306210751
396.98800,-0.5919337813
396.98850,0.9340382573
396.98900,1.544427073
396.98950,8.56389845
396.99000,22.6028412
396.99050,35.72620074
396.99100,43.05086652
396.99150,46.408005
396.99200,46.1028106
396.99250,41.83008889
396.99300,35.72620074
396.99350,26.87556291
396.99400,6.732732004
396.99450,-28.05943047
396.99500,-60.7152321
396.99550,-65.90353703
396.99600,-45.45551171
396.99650,-25.61787521
396.99700,-22.56593114
396.99750,-23.17631995
396.99800,-12.79971009
396.99850,2.154815888
396.99900,7.037926411
396.99950,2.154815888
397.00000,-1.507517004
397.00050,-2.423100227
397.00100,-6.390627528
397.00150,-11.27373805
397.00200,-10.66334924
397.00250,-4.864655489
397.00300,-3.033489043
397.00350,-7.306210751
397.00400,-12.79971009
397.00450,-14.93607094
397.00500,-14.63087654
397.00550,-14.02048772
397.00600,-12.79971009
397.00650,-12.79971009
397.00700,-15.24126535
397.00750,-16.15684857
397.00800,-8.526988381
397.00850,6.427537596
397.00900,19.85609153
397.00950,23.51842443
397.01000,19.85609153
397.01050,16.19375864
397.01100,14.6677866
397.01150,12.53142575
397.01200,10.08987049
397.01250,9.479481673
397.01300,10.3950649
397.01350,9.174287265
397.01400,5.511954373
397.01450,3.070399111
397.01500,3.375593519
397.01550,3.680787927
397.01600,3.680787927
397.01650,4.901565557
397.01700,7.037926411
397.01750,7.037926411
397.01800,4.901565557
397.01850,2.460010296
397.01900,-2.11790582
397.01950,-11.88412687
397.02000,-21.3451535
397.02050,-21.65034791
397.02100,-15.85165417
397.02150,-17.3776262
397.02200,-27.14384725
397.02250,-28.66981929
397.02300,-16.15684857
397.02350,-4.559461081
397.02400,-6.390627528
397.02450,-7.306210751
397.02500,11.61584253
397.02550,41.21970007
397.02600,51.59630994
397.02650,35.11581192
397.02700,13.75220338
397.02750,7.343120819
397.02800,11.00545371
397.02850,11.00545371
397.02900,6.122343188
397.02950,1.84962148
397.03000,-0.897128189
397.03050,-3.949072266
397.03100,-4.864655489
397.03150,-1.812711412
397.03200,0.9340382573
397.03250,0.01845503415
397.03300,-1.507517004
397.03350,-0.2867393736
397.03400,0.9340382573
397.03450,0.01845503415
397.03500,-1.507517004
397.03550,-1.202322597
397.03600,-1.507517004
397.03650,-5.780238712
397.03700,-12.18932127
397.03750,-15.24126535
397.03800,-13.71529331
397.03850,-11.57893246
397.03900,-10.66334924
397.03950,-7.916599566
397.04000,-1.202322597
397.04050,6.427537596
397.04100,9.784676081
397.04150,7.953509634
397.04200,4.291176742
397.04250,4.291176742
397.04300,8.56389845
397.04350,14.05739779
397.04400,15.58336983
397.04450,11.92103693
397.04500,5.81714878
397.04550,0.9340382573
397.04600,-0.2867393736
397.04650,0.01845503415
397.04700,0.01845503415
397.04750,-0.897128189
397.04800,-3.338683451
397.04850,-6.695821935
397.04900,-11.27373805
397.04950,-15.24126535
397.05000,-16.46204298
397.05050,-14.93607094
397.05100,-13.1049045
397.05150,-12.79971009
397.05200,-12.49451568
397.05250,-10.35815483
397.05300,-6.695821935
397.05350,-4.254266674
397.05400,-3.033489043
397.05450,-0.897128189
397.05500,0.6288438496
397.05550,-1.507517004
397.05600,-7.306210751
397.05650,-10.05296042
397.05700,-5.475044304
397.05750,2.154815888
397.05800,9.784676081
397.05850,16.19375864
397.05900,21.68725798
397.05950,24.12881324
397.06000,22.2976468
397.06050,19.85609153
397.06100,17.10934187
397.06150,9.174287265
397.06200,-6.390627528
397.06250,-22.56593114
397.06300,-27.75423607
397.06350,-21.95554232
397.06400,-14.02048772
397.06450,-10.66334924
397.06500,-9.442571605
397.06550,-7.611405158
397.06600,-7.306210751
397.06650,-10.05296042
397.06700,-11.57893246
397.06750,-8.526988381
397.06800,-4.254266674
397.06850,-5.475044304
397.06900,-9.442571605
397.06950,-8.832182789
397.07000,-0.2867393736
397.07050,9.784676081
397.07100,14.3625922
397.07150,12.83662016
397.07200,9.479481673
397.07250,7.343120819
397.07300,7.037926411
397.07350,6.732732004
397.07400,5.206759965
397.07450,2.765204703
397.07500,0.3236494419
397.07550,0.6288438496
397.07600,3.070399111
397.07650,4.59637115
397.07700,6.122343188
397.07750,10.08987049
397.07800,15.58336983
397.07850,18.02492509
397.07900,15.58336983
397.07950,12.83662016
397.08000,12.53142575
397.08050,10.3950649
397.08100,4.291176742
397.08150,-0.5919337813
397.08200,0.01845503415
397.08250,0.9340382573
397.08300,-6.08543312
397.08350,-17.3776262
397.08400,-21.65034791
397.08450,-17.3776262
397.08500,-13.4100989
397.08550,-13.1049045
397.08600,-11.27373805
397.08650,-7.611405158
397.08700,-8.832182789
397.08750,-12.79971009
397.08800,-7.611405158
397.08850,10.08987049
397.08900,26.5703685
397.08950,32.36906225
397.09000,36.64178396
397.09050,47.62878264
397.09100,48.23917145
397.09150,19.55089713
397.09200,-23.17631995
397.09250,-42.70876204
397.09300,-27.44904166
397.09350,-7.001016343
397.09400,-6.695821935
397.09450,-12.79971009
397.09500,-1.507517004
397.09550,17.41453627
397.09600,15.27817542
397.09650,-10.05296042
397.09700,-28.05943047
397.09750,-20.73476469
397.09800,-6.08543312
397.09850,-7.916599566
397.09900,-21.3451535
397.09950,-25.92306962
397.10000,-19.20879265
397.10050,-15.24126535
397.10100,-21.0399591
397.10150,-25.61787521
397.10200,-20.73476469
397.10250,-10.66334924
397.10300,-4.864655489
397.10350,-3.949072266
397.10400,-4.254266674
397.10450,-1.812711412
397.10500,3.680787927
397.10550,9.479481673
397.10600,11.31064812
397.10650,9.784676081
397.10700,9.174287265
397.10750,11.00545371
397.10800,11.61584253
397.10850,7.648315227
397.10900,2.460010296
397.10950,2.460010296
397.11000,7.037926411
397.11050,12.53142575
397.11100,16.80414746
397.11150,20.16128594
397.11200,20.16128594
397.11250,14.97298101
397.11300,8.56389845
397.11350,5.81714878
397.11400,5.511954373
397.11450,3.070399111
397.11500,0.6288438496
397.11550,3.375593519
397.11600,11.31064812
397.11650,17.10934187
397.11700,15.58336983
397.11750,9.479481673
397.11800,5.81714878
397.11850,6.427537596
397.11900,7.953509634
397.11950,7.037926411
397.12000,4.901565557
397.12050,5.81714878
397.12100,10.7002593
397.12150,14.05739779
397.12200,13.44700897
397.12250,11.00545371
397.12300,10.7002593
397.12350,10.08987049
397.12400,6.732732004
397.12450,4.901565557
397.12500,8.258704042
397.12550,10.08987049
397.12600,-2.11790582
397.12650,-26.53345844
397.12700,-43.92953967
397.12750,-37.52045711
397.12800,-14.93607094
397.12850,0.6288438496
397.12900,-3.033489043
397.12950,-18.90359824
397.13000,-26.83865284
397.13050,-21.0399591
397.13100,-14.32568213
397.13150,-19.51398706
397.13200,-28.36462488
397.13250,-21.65034791
397.13300,4.291176742
397.13350,31.45347903
397.13400,40.60931126
397.13450,34.5054231
397.13500,24.73920206
397.13550,17.10934187
397.13600,9.479481673
397.13650,3.375593519
397.13700,0.6288438496
397.13750,-1.812711412
397.13800,-5.169849897
397.13850,-4.254266674
397.13900,2.154815888
397.13950,8.869092857
397.14000,9.784676081
397.14050,9.479481673
397.14100,13.14181457
397.14150,14.6677866
397.14200,8.258704042
397.14250,0.3236494419
397.14300,-1.202322597
397.14350,-1.507517004
397.14400,-8.832182789
397.14450,-20.12437587
397.14500,-25.92306962
397.14550,-24.70229199
397.14600,-23.17631995
397.14650,-20.12437587
397.14700,-9.137377197
397.14750,7.648315227
397.14800,18.6353139
397.14850,19.24570272
397.14900,15.58336983
397.14950,13.44700897
397.15000,10.7002593
397.15050,7.037926411
397.15100,5.511954373
397.15150,7.953509634
397.15200,8.258704042
397.15250,3.985982334
397.15300,-0.2867393736
397.15350,0.01845503415
397.15400,4.291176742
397.15450,7.343120819
397.15500,5.206759965
397.15550,-1.507517004
397.15600,-8.221793974
397.15650,-8.526988381
397.15700,-1.812711412
397.15750,3.680787927
397.15800,-1.812711412
397.15850,-20.12437587
397.15900,-39.04642915
397.15950,-43.62434527
397.16000,-30.19579133
397.16050,-10.66334924
397.16100,-1.507517004
397.16150,-5.475044304
397.16200,-9.747766012
397.16250,-1.812711412
397.16300,11.61584253
397.16350,12.53142575
397.16400,-5.475044304
397.16450,-27.44904166
397.16500,-35.99448507
397.16550,-32.02695777
397.16600,-28.66981929
397.16650,-29.58540251
397.16700,-27.75423607
397.16750,-19.20879265
397.16800,-10.05296042
397.16850,-5.780238712
397.16900,-4.254266674
397.16950,0.01845503415
397.17000,7.648315227
397.17050,16.80414746
397.17100,25.65478528
397.17150,34.2002287
397.17200,39.69372804
397.17250,35.72620074
397.17300,21.07686917
397.17350,4.59637115
397.17400,-1.202322597
397.17450,4.59637115
397.17500,11.92103693
397.17550,11.00545371
397.17600,7.648315227
397.17650,9.784676081
397.17700,11.92103693
397.17750,0.9340382573
397.17800,-19.20879265
397.17850,-29.89059692
397.17900,-22.56593114
397.17950,-9.137377197
397.18000,-3.643877858
397.18050,-4.254266674
397.18100,-1.507517004
397.18150,3.985982334
397.18200,7.037926411
397.18250,7.037926411
397.18300,6.427537596
397.18350,4.291176742
397.18400,0.9340382573
397.18450,1.544427073
397.18500,8.56389845
397.18550,13.14181457
397.18600,7.037926411
397.18650,-3.949072266
397.18700,-6.695821935
397.18750,0.01845503415
397.18800,6.732732004
397.18850,5.511954373
397.18900,0.01845503415
397.18950,-4.254266674
397.19000,-7.611405158
397.19050,-9.137377197
397.19100,-6.08543312
397.19150,1.239232665
397.19200,9.784676081
397.19250,13.75220338
397.19300,11.31064812
397.19350,4.291176742
397.19400,-2.11790582
397.19450,-5.475044304
397.19500,-6.390627528
397.19550,-9.137377197
397.19600,-14.93607094
397.19650,-18.59840384
397.19700,-15.54645976
397.19750,-7.916599566
397.19800,-0.5919337813
397.19850,6.427537596
397.19900,14.6677866
397.19950,18.02492509
397.20000,12.83662016
397.20050,3.985982334
397.20100,0.6288438496
397.20150,2.765204703
397.20200,2.154815888
397.20250,-1.812711412
397.20300,-4.864655489
397.20350,-5.169849897
397.20400,-6.695821935
397.20450,-7.306210751
397.20500,-0.897128189
397.20550,10.08987049
397.20600,14.3625922
397.20650,6.427537596
397.20700,-1.202322597
397.20750,2.154815888
397.20800,13.75220338
397.20850,19.55089713
397.20900,16.80414746
397.20950,12.22623134
397.21000,10.7002593
397.21050,9.174287265
397.21100,5.206759965
397.21150,1.544427073
397.21200,0.6288438496
397.21250,1.544427073
397.21300,1.544427073
397.21350,0.6288438496
397.21400,0.01845503415
397.21450,0.3236494419
397.21500,2.765204703
397.21550,7.953509634
397.21600,14.6677866
397.21650,20.46648035
397.21700,22.6028412
397.21750,20.77167476
397.21800,18.3301195
397.21850,18.02492509
397.21900,13.75220338
397.21950,-3.033489043
397.22000,-30.80618014
397.22050,-49.11784461
397.22100,-41.79317882
397.22150,-17.3776262
397.22200,0.6288438496
397.22250,3.070399111
397.22300,0.01845503415
397.22350,0.6288438496
397.22400,-1.202322597
397.22450,-12.49451568
397.22500,-23.48151436
397.22550,-22.26073673
397.22600,-11.27373805
397.22650,-3.949072266
397.22700,-4.254266674
397.22750,-6.695821935
397.22800,-6.08543312
397.22850,-3.338683451
397.22900,-0.5919337813
397.22950,3.070399111
397.23000,7.648315227
397.23050,10.3950649
397.23100,10.7002593
397.23150,9.784676081
397.23200,8.56389845
397.23250,5.511954373
397.23300,0.3236494419
397.23350,-5.475044304
397.23400,-8.221793974
397.23450,-3.643877858
397.23500,5.206759965
397.23550,9.479481673
397.23600,5.81714878
397.23650,0.01845503415
397.23700,-0.897128189
397.23750,-3.949072266
397.23800,-15.54645976
397.23850,-28.36462488
397.23900,-29.28020811
397.23950,-22.26073673
397.24000,-20.42957028
397.24050,-19.81918147
397.24100,-3.033489043
397.24150,26.2651741
397.24200,42.1352833
397.24250,32.36906225
397.24300,15.88856423
397.24350,11.61584253
397.24400,13.75220338
397.24450,10.08987049
397.24500,7.037926411
397.24550,13.44700897
397.24600,20.77167476
397.24650,22.6028412
397.24700,29.01192377
397.24750,47.93397704
397.24800,62.27811421
397.24850,54.0378652
397.24900,34.5054231
397.24950,20.16128594
397.25000,0.01845503415
397.25050,-40.57240119
397.25100,-81.16325741
397.25150,-82.38403505
397.25200,-46.67628934
397.25250,-17.0724318
397.25300,-17.68282061
397.25350,-27.14384725
397.25400,-21.3451535
397.25450,-7.306210751
397.25500,-3.338683451
397.25550,-7.916599566
397.25600,-9.747766012
397.25650,-7.916599566
397.25700,-7.916599566
397.25750,-8.221793974
397.25800,-5.475044304
397.25850,-3.338683451
397.25900,-4.254266674
397.25950,-4.864655489
397.26000,-2.11790582
397.26050,-0.897128189
397.26100,-2.728294635
397.26150,-3.643877858
397.26200,-2.11790582
397.26250,-3.949072266
397.26300,-10.05296042
397.26350,-12.49451568
397.26400,-6.08543312
397.26450,0.9340382573
397.26500,0.9340382573
397.26550,-3.033489043
397.26600,-3.643877858
397.26650,-0.897128189
397.26700,0.01845503415
397.26750,-0.5919337813
397.26800,0.3236494419
397.26850,4.901565557
397.26900,11.61584253
397.26950,18.02492509
397.27000,21.38206357
397.27050,21.07686917
397.27100,19.85609153
397.27150,21.07686917
397.27200,20.46648035
397.27250,11.31064812
397.27300,-4.559461081
397.27350,-17.0724318
397.27400,-18.90359824
397.27450,-14.32568213
397.27500,-11.27373805
397.27550,-11.57893246
397.27600,-13.4100989
397.27650,-14.32568213
397.27700,-12.49451568
397.27750,-7.916599566
397.27800,-3.643877858
397.27850,-3.338683451
397.27900,-4.559461081
397.27950,-0.897128189
397.28000,6.122343188
397.28050,9.479481673
397.28100,6.427537596
397.28150,5.206759965
397.28200,9.784676081
397.28250,14.3625922
397.28300,11.92103693
397.28350,5.511954373
397.28400,2.765204703
397.28450,2.460010296
397.28500,0.01845503415
397.28550,-4.559461081
397.28600,-7.001016343
397.28650,-6.695821935
397.28700,-5.780238712
397.28750,-4.559461081
397.28800,-1.812711412
397.28850,0.9340382573
397.28900,1.544427073
397.28950,1.84962148
397.29000,6.427537596
397.29050,14.97298101
397.29100,21.07686917
397.29150,19.24570272
397.29200,13.44700897
397.29250,8.869092857
397.29300,7.953509634
397.29350,7.648315227
397.29400,5.206759965
397.29450,2.154815888
397.29500,0.01845503415
397.29550,-1.507517004
397.29600,-2.11790582
397.29650,-0.897128189
397.29700,0.6288438496
397.29750,0.6288438496
397.29800,-0.897128189
397.29850,-1.202322597
397.29900,3.680787927
397.29950,12.83662016
397.30000,20.46648035
397.30050,22.6028412
397.30100,18.3301195
397.30150,9.174287265
397.30200,-0.897128189
397.30250,-5.780238712
397.30300,-3.643877858
397.30350,-1.812711412
397.30400,-7.611405158
397.30450,-15.24126535
397.30500,-11.57893246
397.30550,1.544427073
397.30600,5.511954373
397.30650,-10.66334924
397.30700,-34.77370744
397.30750,-45.45551171
397.30800,-41.18279001
397.30850,-34.46851304
397.30900,-32.942541
397.30950,-30.50098574
397.31000,-24.70229199
397.31050,-19.81918147
397.31100,-19.51398706
397.31150,-20.42957028
397.31200,-17.3776262
397.31250,-9.442571605
397.31300,2.154815888
397.31350,17.41453627
397.31400,32.36906225
397.31450,39.99892244
397.31500,37.86256159
397.31550,31.14828462
397.31600,24.73920206
397.31650,19.24570272
397.31700,13.14181457
397.31750,10.08987049
397.31800,11.92103693
397.31850,15.58336983
397.31900,15.88856423
397.31950,12.83662016
397.32000,9.479481673
397.32050,6.732732004
397.32100,3.070399111
397.32150,0.01845503415
397.32200,-0.897128189
397.32250,-1.202322597
397.32300,-2.11790582
397.32350,-1.812711412
397.32400,0.9340382573
397.32450,2.765204703
397.32500,0.3236494419
397.32550,-0.5919337813
397.32600,2.460010296
397.32650,2.765204703
397.32700,-9.747766012
397.32750,-29.28020811
397.32800,-38.74123474
397.32850,-33.85812422
397.32900,-27.44904166
397.32950,-22.56593114
397.33000,-7.611405158
397.33050,21.07686917
397.33100,45.18722737
397.33150,48.23917145
397.33200,40.60931126
397.33250,40.60931126
397.33300,46.408005
397.33350,42.74567211
397.33400,29.62231258
397.33450,20.77167476
397.33500,17.10934187
397.33550,3.375593519
397.33600,-25.92306962
397.33650,-54.61134394
397.33700,-62.54639854
397.33750,-50.64381664
397.33800,-32.33215218
397.33850,-18.90359824
397.33900,-10.05296042
397.33950,-3.033489043
397.34000,2.765204703
397.34050,5.81714878
397.34100,5.511954373
397.34150,4.291176742
397.34200,4.59637115
397.34250,4.901565557
397.34300,0.9340382573
397.34350,-8.526988381
397.34400,-17.0724318
397.34450,-18.59840384
397.34500,-14.32568213
397.34550,-10.05296042
397.34600,-8.221793974
397.34650,-6.390627528
397.34700,-5.780238712
397.34750,-8.221793974
397.34800,-12.79971009
397.34850,-14.63087654
397.34900,-13.1049045
397.34950,-10.35815483
397.35000,-6.08543312
397.35050,3.375593519
397.35100,15.58336983
397.35150,22.6028412
397.35200,21.99245239
397.35250,21.38206357
397.35300,26.5703685
397.35350,28.40153495
397.35400,14.3625922
397.35450,-11.88412687
397.35500,-30.19579133
397.35550,-25.31268081
397.35600,-6.08543312
397.35650,8.258704042
397.35700,11.61584253
397.35750,10.3950649
397.35800,12.22623134
397.35850,14.97298101
397.35900,14.05739779
397.35950,10.08987049
397.36000,6.122343188
397.36050,4.291176742
397.36100,3.680787927
397.36150,4.291176742
397.36200,4.291176742
397.36250,3.070399111
397.36300,0.9340382573
397.36350,-1.507517004
397.36400,-6.390627528
397.36450,-14.93607094
397.36500,-21.65034791
397.36550,-19.20879265
397.36600,-8.832182789
397.36650,-1.202322597
397.36700,-0.897128189
397.36750,-3.033489043
397.36800,-1.507517004
397.36850,0.3236494419
397.36900,0.01845503415
397.36950,-0.2867393736
397.37000,2.765204703
397.37050,5.511954373
397.37100,3.375593519
397.37150,0.01845503415
397.37200,0.9340382573
397.37250,3.680787927
397.37300,1.544427073
397.37350,-2.11790582
397.37400,-1.202322597
397.37450,0.9340382573
397.37500,-1.812711412
397.37550,-6.08543312
397.37600,-3.338683451
397.37650,4.59637115
397.37700,9.479481673
397.37750,11.61584253
397.37800,15.88856423
397.37850,15.58336983
397.37900,1.544427073
397.37950,-10.96854364
397.38000,4.291176742
397.38050,43.05086652
397.38100,64.71966947
397.38150,49.45994908
397.38200,25.04439647
397.38250,21.99245239
397.38300,26.87556291
397.38350,8.258704042
397.38400,-29.28020811
397.38450,-51.86459428
397.38500,-46.67628934
397.38550,-35.07890185
397.38600,-34.46851304
397.38650,-38.74123474
397.38700,-37.52045711
397.38750,-32.942541
397.38800,-29.28020811
397.38850,-22.87112554
397.38900,-11.88412687
397.38950,-2.423100227
397.39000,0.9340382573
397.39050,1.84962148
397.39100,3.375593519
397.39150,3.985982334
397.39200,2.460010296
397.39250,1.544427073
397.39300,3.375593519
397.39350,5.511954373
397.39400,5.511954373
397.39450,4.291176742
397.39500,4.291176742
397.39550,3.375593519
397.39600,1.544427073
397.39650,0.01845503415
397.39700,-0.897128189
397.39750,-2.423100227
397.39800,-3.338683451
397.39850,-1.202322597
397.39900,2.460010296
397.39950,4.901565557
397.40000,4.59637115
397.40050,4.901565557
397.40100,7.343120819
397.40150,7.648315227
397.40200,3.985982334
397.40250,1.544427073
397.40300,4.901565557
397.40350,10.08987049
397.40400,9.479481673
397.40450,4.901565557
397.40500,4.901565557
397.40550,12.83662016
397.40600,21.68725798
397.40650,23.51842443
397.40700,16.80414746
397.40750,7.953509634
397.40800,3.070399111
397.40850,3.680787927
397.40900,2.460010296
397.40950,-10.05296042
397.41000,-32.02695777
397.41050,-47.28667816
397.41100,-39.35162356
397.41150,-13.4100989
397.41200,10.08987049
397.41250,19.85609153
397.41300,19.85609153
397.41350,16.19375864
397.41400,7.343120819
397.41450,-8.221793974
397.41500,-22.26073673
397.41550,-25.31268081
397.41600,-17.98801502
397.41650,-8.526988381
397.41700,0.3236494419
397.41750,9.784676081
397.41800,16.19375864
397.41850,16.19375864
397.41900,14.6677866
397.41950,18.94050831
397.42000,22.6028412
397.42050,14.3625922
397.42100,-5.475044304
397.42150,-21.3451535
397.42200,-21.65034791
397.42250,-11.27373805
397.42300,-3.338683451
397.42350,-2.728294635
397.42400,-4.254266674
397.42450,-2.11790582
397.42500,4.291176742
397.42550,10.3950649
397.42600,10.3950649
397.42650,5.81714878
397.42700,3.985982334
397.42750,10.3950649
397.42800,17.41453627
397.42850,12.22623134
397.42900,-5.780238712
397.42950,-23.78670877
397.43000,-29.28020811
397.43050,-22.56593114
397.43100,-13.1049045
397.43150,-9.747766012
397.43200,-14.63087654
397.43250,-23.78670877
397.43300,-27.44904166
397.43350,-20.42957028
397.43400,-10.66334924
397.43450,-8.221793974
397.43500,-15.54645976
397.43550,-24.39709758
397.43600,-28.05943047
397.43650,-24.09190317
397.43700,-8.221793974
397.43750,21.38206357
397.43800,53.73267079
397.43850,68.68719677
397.43900,60.75214217
397.43950,43.66125534
397.44000,33.28464547
397.44050,29.01192377
397.44100,24.43400765
397.44150,19.24570272
397.44200,18.02492509
397.44250,18.02492509
397.44300,12.22623134
397.44350,-0.2867393736
397.44400,-13.71529331
397.44450,-21.3451535
397.44500,-23.48151436
397.44550,-22.87112554
397.44600,-20.73476469
397.44650,-14.63087654
397.44700,-4.864655489
397.44750,4.59637115
397.44800,9.174287265
397.44850,9.174287265
397.44900,10.3950649
397.44950,13.75220338
397.45000,12.53142575
397.45050,4.291176742
397.45100,-1.507517004
397.45150,3.680787927
397.45200,16.19375864
397.45250,21.99245239
397.45300,16.19375864
397.45350,7.343120819
397.45400,3.070399111
397.45450,1.84962148
397.45500,-0.2867393736
397.45550,-3.338683451
397.45600,-4.254266674
397.45650,-3.338683451
397.45700,-1.812711412
397.45750,0.9340382573
397.45800,7.343120819
397.45850,16.19375864
397.45900,24.12881324
397.45950,26.5703685
397.46000,19.55089713
397.46050,3.375593519
397.46100,-15.24126535
397.46150,-27.75423607
397.46200,-28.9750137
397.46250,-21.3451535
397.46300,-11.27373805
397.46350,-3.033489043
397.46400,0.3236494419
397.46450,-0.5919337813
397.46500,-4.254266674
397.46550,-7.611405158
397.46600,-9.442571605
397.46650,-9.747766012
397.46700,-8.526988381
397.46750,-6.695821935
397.46800,-6.390627528
397.46850,-11.27373805
397.46900,-19.20879265
397.46950,-25.0074864
397.47000,-24.09190317
397.47050,-18.59840384
397.47100,-13.71529331
397.47150,-11.27373805
397.47200,-9.442571605
397.47250,-6.695821935
397.47300,-3.949072266
397.47350,-3.338683451
397.47400,-5.169849897
397.47450,-7.001016343
397.47500,-5.475044304
397.47550,-1.812711412
397.47600,0.6288438496
397.47650,1.84962148
397.47700,3.070399111
397.47750,4.291176742
397.47800,2.460010296
397.47850,-1.507517004
397.47900,-0.897128189
397.47950,6.122343188
397.48000,11.31064812
397.48050,6.732732004
397.48100,-0.897128189
397.48150,-1.812711412
397.48200,0.3236494419
397.48250,-3.949072266
397.48300,-14.32568213
397.48350,-19.51398706
397.48400,-17.68282061
397.48450,-17.0724318
397.48500,-19.20879265
397.48550,-16.15684857
397.48600,-9.747766012
397.48650,-8.221793974
397.48700,-8.832182789
397.48750,2.154815888
397.48800,23.82361883
397.48850,39.08333922
397.48900,42.4404777
397.48950,45.79761619
397.49000,49.45994908
397.49050,33.58983988
397.49100,-8.832182789
397.49150,-49.72823342
397.49200,-60.7152321
397.49250,-47.28667816
397.49300,-32.63734659
397.49350,-23.48151436
397.49400,-12.79971009
397.49450,-1.812711412
397.49500,2.154815888
397.49550,3.375593519
397.49600,9.479481673
397.49650,17.71973068
397.49700,20.16128594
397.49750,18.94050831
397.49800,22.2976468
397.49850,27.18075732
397.49900,26.87556291
397.49950,21.38206357
397.50000,10.7002593
397.50050,-10.66334924
397.50100,-41.18279001
397.50150,-57.96848243
397.50200,-43.31915086
397.50250,-12.79971009
397.50300,3.070399111
397.50350,-2.11790582
397.50400,-8.832182789
397.50450,-6.08543312
397.50500,-4.254266674
397.50550,-10.66334924
397.50600,-14.02048772
397.50650,-5.169849897
397.50700,3.985982334
397.50750,-0.5919337813
397.50800,-14.02048772
397.50850,-17.3776262
397.50900,-9.442571605
397.50950,-3.949072266
397.51000,-5.169849897
397.51050,1.84962148
397.51100,28.40153495
397.51150,59.53136454
397.51200,70.21316881
397.51250,55.25864283
397.51300,33.28464547
397.51350,18.6353139
397.51400,9.174287265
397.51450,-0.897128189
397.51500,-8.832182789
397.51550,-6.390627528
397.51600,2.765204703
397.51650,11.00545371
397.51700,15.58336983
397.51750,19.24570272
397.51800,21.07686917
397.51850,17.71973068
397.51900,11.00545371
397.51950,7.343120819
397.52000,9.174287265
397.52050,14.3625922
397.52100,20.16128594
397.52150,25.95997969
397.52200,30.5378958
397.52250,32.67425666
397.52300,32.67425666
397.52350,31.14828462
397.52400,24.12881324
397.52450,9.479481673
397.52500,-8.221793974
397.52550,-22.56593114
397.52600,-30.80618014
397.52650,-33.85812422
397.52700,-31.41656896
397.52750,-26.83865284
397.52800,-28.36462488
397.52850,-41.18279001
397.52900,-54.91653835
397.52950,-54.00095513
397.53000,-37.82565152
397.53050,-19.20879265
397.53100,-6.695821935
397.53150,2.154815888
397.53200,9.479481673
397.53250,9.479481673
397.53300,0.3236494419
397.53350,-10.05296042
397.53400,-15.24126535
397.53450,-17.98801502
397.53500,-20.73476469
397.53550,-17.68282061
397.53600,-6.695821935
397.53650,3.070399111
397.53700,6.122343188
397.53750,9.784676081
397.53800,23.21323002
397.53850,37.86256159
397.53900,39.08333922
397.53950,27.48595173
397.54000,18.3301195
397.54050,17.71973068
397.54100,17.41453627
397.54150,10.08987049
397.54200,0.6288438496
397.54250,-3.949072266
397.54300,-6.390627528
397.54350,-10.05296042
397.54400,-11.88412687
397.54450,-8.832182789
397.54500,-2.728294635
397.54550,0.01845503415
397.54600,-0.2867393736
397.54650,0.3236494419
397.54700,3.375593519
397.54750,4.59637115
397.54800,0.9340382573
397.54850,-3.643877858
397.54900,-5.169849897
397.54950,-3.033489043
397.55000,0.01845503415
397.55050,1.84962148
397.55100,3.070399111
397.55150,3.375593519
397.55200,1.544427073
397.55250,-0.5919337813
397.55300,-1.202322597
397.55350,-1.202322597
397.55400,-3.643877858
397.55450,-7.611405158
397.55500,-7.306210751
397.55550,-1.812711412
397.55600,0.3236494419
397.55650,-4.254266674
397.55700,-6.695821935
397.55750,2.154815888
397.55800,13.75220338
397.55850,14.05739779
397.55900,8.258704042
397.55950,12.53142575
397.56000,27.48595173
397.56050,36.94697837
397.56100,38.167756
397.56150,44.27164415
397.56200,54.95344842
397.56250,46.408005
397.56300,5.206759965
397.56350,-44.8451229
397.56400,-72.00742518
397.56450,-69.56586992
397.56500,-55.22173276
397.56550,-41.18279001
397.56600,-31.41656896
397.56650,-29.28020811
397.56700,-33.24773541
397.56750,-32.63734659
397.56800,-17.68282061
397.56850,3.680787927
397.56900,16.80414746
397.56950,18.6353139
397.57000,15.58336983
397.57050,12.53142575
397.57100,13.14181457
397.57150,20.77167476
397.57200,30.2327014
397.57250,28.40153495
397.57300,11.61584253
397.57350,-6.695821935
397.57400,-20.12437587
397.57450,-38.13084593
397.57500,-61.93600973
397.57550,-67.42950907
397.57600,-35.99448507
397.57650,11.61584253
397.57700,36.64178396
397.57750,29.01192377
397.57800,13.44700897
397.57850,12.22623134
397.57900,20.16128594
397.57950,23.51842443
397.58000,18.6353139
397.58050,11.92103693
397.58100,9.479481673
397.58150,11.00545371
397.58200,12.22623134
397.58250,7.953509634
397.58300,-2.728294635
397.58350,-13.4100989
397.58400,-14.32568213
397.58450,-4.559461081
397.58500,8.869092857
397.58550,14.97298101
397.58600,9.174287265
397.58650,0.9340382573
397.58700,4.59637115
397.58750,22.6028412
397.58800,36.64178396
397.58850,28.70672936
397.58900,6.122343188
397.58950,-7.916599566
397.59000,-3.643877858
397.59050,5.511954373
397.59100,5.81714878
397.59150,-5.780238712
397.59200,-25.0074864
397.59250,-44.8451229
397.59300,-53.69576072
397.59350,-41.79317882
397.59400,-16.46204298
397.59450,0.01845503415
397.59500,-1.812711412
397.59550,-10.96854364
397.59600,-11.27373805
397.59650,-3.033489043
397.59700,2.765204703
397.59750,5.206759965
397.59800,8.56389845
397.59850,12.53142575
397.59900,10.7002593
397.59950,2.154815888
397.60000,-6.390627528
397.60050,-8.832182789
397.60100,-4.559461081
397.60150,0.9340382573
397.60200,4.291176742
397.60250,5.206759965
397.60300,6.122343188
397.60350,8.258704042
397.60400,10.3950649
397.60450,9.174287265
397.60500,3.985982334
397.60550,-3.643877858
397.60600,-10.66334924
397.60650,-12.79971009
397.60700,-9.137377197
397.60750,-4.559461081
397.60800,-3.643877858
397.60850,-3.338683451
397.60900,3.985982334
397.60950,18.02492509
397.61000,25.04439647
397.61050,15.58336983
397.61100,0.01845503415
397.61150,-4.559461081
397.61200,3.375593519
397.61250,5.206759965
397.61300,-9.747766012
397.61350,-27.75423607
397.61400,-27.75423607
397.61450,-7.916599566
397.61500,14.6677866
397.61550,26.2651741
397.61600,24.12881324
397.61650,14.6677866
397.61700,3.680787927
397.61750,-1.812711412
397.61800,-0.897128189
397.61850,0.3236494419
397.61900,-1.202322597
397.61950,-1.507517004
397.62000,6.732732004
397.62050,19.55089713
397.62100,26.2651741
397.62150,26.87556291
397.62200,29.01192377
397.62250,29.92750699
397.62300,14.97298101
397.62350,-18.59840384
397.62400,-49.11784461
397.62450,-52.16978868
397.62500,-31.41656896
397.62550,-9.137377197
397.62600,-0.2867393736
397.62650,-0.2867393736
397.62700,-2.11790582
397.62750,-4.864655489
397.62800,-10.05296042
397.62850,-14.02048772
397.62900,-12.49451568
397.62950,-7.916599566
397.63000,-3.949072266
397.63050,0.01845503415
397.63100,5.511954373
397.63150,9.479481673
397.63200,7.037926411
397.63250,0.9340382573
397.63300,-1.202322597
397.63350,0.9340382573
397.63400,0.6288438496
397.63450,-3.643877858
397.63500,-5.475044304
397.63550,-2.423100227
397.63600,-0.5919337813
397.63650,-4.864655489
397.63700,-9.747766012
397.63750,-10.66334924
397.63800,-12.18932127
397.63850,-17.3776262
397.63900,-17.98801502
397.63950,-7.611405158
397.64000,4.59637115
397.64050,6.732732004
397.64100,2.460010296
397.64150,5.511954373
397.64200,17.71973068
397.64250,25.04439647
397.64300,19.24570272
397.64350,7.648315227
397.64400,1.239232665
397.64450,2.460010296
397.64500,8.56389845
397.64550,15.88856423
397.64600,23.51842443
397.64650,29.01192377
397.64700,29.62231258
397.64750,22.2976468
397.64800,9.479481673
397.64850,-1.202322597
397.64900,-6.695821935
397.64950,-13.71529331
397.65000,-28.66981929
397.65050,-41.79317882
397.65100,-36.60487389
397.65150,-16.76723739
397.65200,-3.949072266
397.65250,-6.390627528
397.65300,-8.526988381
397.65350,3.070399111
397.65400,16.49895305
397.65450,14.6677866
397.65500,6.122343188
397.65550,10.7002593
397.65600,29.31711817
397.65650,41.83008889
397.65700,36.64178396
397.65750,22.2976468
397.65800,10.7002593
397.65850,4.901565557
397.65900,2.765204703
397.65950,3.985982334
397.66000,1.84962148
397.66050,-12.18932127
397.66100,-40.26720678
397.66150,-68.03989788
397.66200,-78.41650775
397.66250,-65.59834262
397.66300,-36.9100683
397.66350,-7.916599566
397.66400,8.258704042
397.66450,10.3950649
397.66500,5.511954373
397.66550,3.375593519
397.66600,5.206759965
397.66650,6.732732004
397.66700,6.732732004
397.66750,7.648315227
397.66800,9.479481673
397.66850,10.08987049
397.66900,10.3950649
397.66950,12.83662016
397.67000,14.97298101
397.67050,11.31064812
397.67100,1.239232665
397.67150,-7.916599566
397.67200,-9.747766012
397.67250,-4.864655489
397.67300,0.6288438496
397.67350,3.680787927
397.67400,4.291176742
397.67450,2.765204703
397.67500,0.3236494419
397.67550,-2.423100227
397.67600,-7.306210751
397.67650,-12.18932127
397.67700,-12.18932127
397.67750,-3.033489043
397.67800,11.00545371
397.67850,19.85609153
397.67900,18.6353139
397.67950,12.22623134
397.68000,7.648315227
397.68050,5.511954373
397.68100,3.375593519
397.68150,2.154815888
397.68200,3.070399111
397.68250,2.460010296
397.68300,-1.202322597
397.68350,-2.11790582
397.68400,6.122343188
397.68450,18.6353139
397.68500,22.6028412
397.68550,14.6677866
397.68600,5.511954373
397.68650,3.375593519
397.68700,4.901565557
397.68750,3.985982334
397.68800,0.6288438496
397.68850,-0.897128189
397.68900,-1.812711412
397.68950,-4.254266674
397.69000,-6.08543312
397.69050,-5.169849897
397.69100,-3.949072266
397.69150,-5.475044304
397.69200,-7.611405158
397.69250,-5.780238712
397.69300,0.01845503415
397.69350,4.901565557
397.69400,6.427537596
397.69450,4.59637115
397.69500,0.6288438496
397.69550,-0.897128189
397.69600,5.206759965
397.69650,19.55089713
397.69700,33.28464547
397.69750,38.77814481
397.69800,40.60931126
397.69850,41.83008889
397.69900,33.28464547
397.69950,5.511954373
397.70000,-30.19579133
397.70050,-47.89706697
397.70100,-37.21526271
397.70150,-15.85165417
397.70200,-5.169849897
397.70250,-7.611405158
397.70300,-13.1049045
397.70350,-15.24126535
397.70400,-16.46204298
397.70450,-17.98801502
397.70500,-17.0724318
397.70550,-15.54645976
397.70600,-17.68282061
397.70650,-25.0074864
397.70700,-33.24773541
397.70750,-35.68929067
397.70800,-31.11137455
397.70850,-22.87112554
397.70900,-14.93607094
397.70950,-9.137377197
397.71000,-3.949072266
397.71050,0.01845503415
397.71100,0.9340382573
397.71150,0.01845503415
397.71200,1.239232665
397.71250,5.511954373
397.71300,8.56389845
397.71350,7.343120819
397.71400,5.81714878
397.71450,9.479481673
397.71500,14.97298101
397.71550,14.97298101
397.71600,9.784676081
397.71650,6.427537596
397.71700,8.258704042
397.71750,9.784676081
397.71800,5.511954373
397.71850,-1.202322597
397.71900,-6.695821935
397.71950,-11.57893246
397.72000,-17.3776262
397.72050,-20.12437587
397.72100,-15.24126535
397.72150,-8.221793974
397.72200,-5.169849897
397.72250,-5.169849897
397.72300,0.3236494419
397.72350,12.53142575
397.72400,22.6028412
397.72450,24.43400765
397.72500,20.77167476
397.72550,15.58336983
397.72600,9.174287265
397.72650,2.765204703
397.72700,0.9340382573
397.72750,6.427537596
397.72800,16.19375864
397.72850,25.95997969
397.72900,33.28464547
397.72950,35.11581192
397.73000,28.70672936
397.73050,18.6353139
397.73100,10.7002593
397.73150,0.01845503415
397.73200,-26.53345844
397.73250,-62.24120414
397.73300,-76.5853413
397.73350,-49.42303901
397.73400,-0.2867393736
397.73450,30.5378958
397.73500,30.2327014
397.73550,17.10934187
397.73600,9.784676081
397.73650,5.511954373
397.73700,-1.812711412
397.73750,-7.916599566
397.73800,-6.695821935
397.73850,-3.033489043
397.73900,-4.559461081
397.73950,-9.137377197
397.74000,-10.05296042
397.74050,-7.306210751
397.74100,-6.390627528
397.74150,-7.916599566
397.74200,-8.221793974
397.74250,-5.169849897
397.74300,-2.423100227
397.74350,-2.11790582
397.74400,-2.11790582
397.74450,-0.897128189
397.74500,0.6288438496
397.74550,1.544427073
397.74600,2.765204703
397.74650,6.122343188
397.74700,11.00545371
397.74750,14.97298101
397.74800,18.02492509
397.74850,20.46648035
397.74900,19.85609153
397.74950,11.00545371
397.75000,-4.559461081
397.75050,-19.20879265
397.75100,-23.78670877
397.75150,-17.98801502
397.75200,-9.747766012
397.75250,-4.559461081
397.75300,-1.812711412
397.75350,0.9340382573
397.75400,4.291176742
397.75450,6.732732004
397.75500,8.258704042
397.75550,10.08987049
397.75600,12.83662016
397.75650,14.6677866
397.75700,13.44700897
397.75750,8.258704042
397.75800,1.239232665
397.75850,-5.475044304
397.75900,-12.49451568
397.75950,-21.3451535
397.76000,-28.36462488
397.76050,-28.05943047
397.76100,-19.20879265
397.76150,-7.916599566
397.76200,-0.2867393736
397.76250,3.680787927
397.76300,7.648315227
397.76350,9.784676081
397.76400,8.56389845
397.76450,6.732732004
397.76500,8.56389845
397.76550,10.7002593
397.76600,4.901565557
397.76650,-7.916599566
397.76700,-13.71529331
397.76750,-1.507517004
397.76800,20.46648035
397.76850,30.2327014
397.76900,17.10934187
397.76950,-3.033489043
397.77000,-10.96854364
397.77050,-6.08543312
397.77100,-7.001016343
397.77150,-21.65034791
397.77200,-34.46851304
397.77250,-30.19579133
397.77300,-14.63087654
397.77350,-3.949072266
397.77400,0.01845503415
397.77450,6.732732004
397.77500,16.49895305
397.77550,18.94050831
397.77600,14.3625922
397.77650,14.05739779
397.77700,21.07686917
397.77750,25.34959087
397.77800,21.68725798
397.77850,17.10934187
397.77900,15.58336983
397.77950,11.31064812
397.78000,1.544427073
397.78050,-5.475044304
397.78100,-5.169849897
397.78150,-1.812711412
397.78200,1.239232665
397.78250,6.122343188
397.78300,9.174287265
397.78350,3.070399111
397.78400,-7.001016343
397.78450,-4.559461081
397.78500,14.3625922
397.78550,31.45347903
397.78600,32.67425666
397.78650,29.31711817
397.78700,32.06386784
397.78750,27.48595173
397.78800,-3.033489043
397.78850,-47.89706697
397.78900,-72.31261959
397.78950,-62.54639854
397.79000,-39.35162356
397.79050,-26.53345844
397.79100,-23.78670877
397.79150,-20.42957028
397.79200,-15.24126535
397.79250,-13.71529331
397.79300,-14.32568213
397.79350,-9.137377197
397.79400,2.460010296
397.79450,12.83662016
397.79500,14.6677866
397.79550,10.7002593
397.79600,7.037926411
397.79650,6.122343188
397.79700,5.81714878
397.79750,4.901565557
397.79800,4.291176742
397.79850,5.81714878
397.79900,8.869092857
397.79950,9.784676081
397.80000,8.258704042
397.80050,6.122343188
397.80100,3.680787927
397.80150,0.6288438496
397.80200,-2.423100227
397.80250,-3.643877858
397.80300,-2.728294635
397.80350,-2.11790582
397.80400,-2.728294635
397.80450,-2.11790582
397.80500,0.01845503415
397.80550,2.154815888
397.80600,3.985982334
397.80650,7.037926411
397.80700,11.61584253
397.80750,15.58336983
397.80800,18.94050831
397.80850,24.43400765
397.80900,29.92750699
397.80950,24.73920206
397.81000,3.680787927
397.81050,-21.65034791
397.81100,-32.942541
397.81150,-24.09190317
397.81200,-7.611405158
397.81250,1.84962148
397.81300,2.765204703
397.81350,2.154815888
397.81400,1.84962148
397.81450,-1.202322597
397.81500,-6.08543312
397.81550,-4.864655489
397.81600,2.154815888
397.81650,5.206759965
397.81700,-2.423100227
397.81750,-11.57893246
397.81800,-10.66334924
397.81850,-5.780238712
397.81900,-12.18932127
397.81950,-25.92306962
397.82000,-25.61787521
397.82050,-1.507517004
397.82100,28.09634054
397.82150,39.99892244
397.82200,33.28464547
397.82250,23.51842443
397.82300,18.3301195
397.82350,14.05739779
397.82400,9.784676081
397.82450,8.258704042
397.82500,8.258704042
397.82550,5.511954373
397.82600,-0.2867393736
397.82650,-6.08543312
397.82700,-11.88412687
397.82750,-20.42957028
397.82800,-26.83865284
397.82850,-24.70229199
397.82900,-14.63087654
397.82950,-5.780238712
397.83000,-3.033489043
397.83050,-2.728294635
397.83100,-1.812711412
397.83150,-3.033489043
397.83200,-8.526988381
397.83250,-11.88412687
397.83300,-6.695821935
397.83350,4.901565557
397.83400,15.58336983
397.83450,20.77167476
397.83500,22.6028412
397.83550,22.6028412
397.83600,18.6353139
397.83650,7.648315227
397.83700,-7.001016343
397.83750,-19.81918147
397.83800,-28.36462488
397.83850,-34.16331863
397.83900,-35.68929067
397.83950,-28.9750137
397.84000,-16.46204298
397.84050,-6.695821935
397.84100,-4.864655489
397.84150,-5.169849897
397.84200,-0.897128189
397.84250,3.985982334
397.84300,-0.5919337813
397.84350,-14.32568213
397.84400,-23.48151436
397.84450,-18.59840384
397.84500,-8.221793974
397.84550,-7.001016343
397.84600,-15.54645976
397.84650,-20.12437587
397.84700,-11.88412687
397.84750,1.84962148
397.84800,10.08987049
397.84850,8.869092857
397.84900,5.511954373
397.84950,4.59637115
397.85000,5.206759965
397.85050,6.427537596
397.85100,9.174287265
397.85150,11.92103693
397.85200,11.61584253
397.85250,10.7002593
397.85300,17.41453627
397.85350,29.01192377
397.85400,26.5703685
397.85450,0.9340382573
397.85500,-28.36462488
397.85550,-32.942541
397.85600,-14.02048772
397.85650,0.6288438496
397.85700,-3.949072266
397.85750,-10.35815483
397.85800,1.239232665
397.85850,23.21323002
397.85900,32.67425666
397.85950,25.95997969
397.86000,18.6353139
397.86050,20.46648035
397.86100,25.34959087
397.86150,24.43400765
397.86200,18.3301195
397.86250,11.31064812
397.86300,5.81714878
397.86350,1.84962148
397.86400,-2.423100227
397.86450,-9.442571605
397.86500,-17.68282061
397.86550,-20.12437587
397.86600,-13.1049045
397.86650,0.01845503415
397.86700,14.97298101
397.86750,26.87556291
397.86800,27.18075732
397.86850,7.343120819
397.86900,-26.53345844
397.86950,-53.69576072
397.87000,-56.13731598
397.87050,-39.04642915
397.87100,-18.29320943
397.87150,-1.812711412
397.87200,11.00545371
397.87250,17.41453627
397.87300,14.05739779
397.87350,6.427537596
397.87400,4.291176742
397.87450,6.427537596
397.87500,3.375593519
397.87550,-4.559461081
397.87600,-9.747766012
397.87650,-8.526988381
397.87700,-4.864655489
397.87750,-1.507517004
397.87800,1.84962148
397.87850,4.901565557
397.87900,4.901565557
397.87950,2.765204703
397.88000,1.544427073
397.88050,2.765204703
397.88100,2.765204703
397.88150,0.01845503415
397.88200,-1.812711412
397.88250,-1.812711412
397.88300,0.01845503415
397.88350,2.460010296
397.88400,5.81714878
397.88450,11.61584253
397.88500,19.55089713
397.88550,27.48595173
397.88600,31.45347903
397.88650,31.45347903
397.88700,31.45347903
397.88750,33.58983988
397.88800,30.2327014
397.88850,12.83662016
397.88900,-13.4100989
397.88950,-33.24773541
397.89000,-36.29967948
397.89050,-28.05943047
397.89100,-20.42957028
397.89150,-16.15684857
397.89200,-12.49451568
397.89250,-8.526988381
397.89300,-4.254266674
397.89350,1.239232665
397.89400,9.174287265
397.89450,14.97298101
397.89500,13.14181457
397.89550,5.511954373
397.89600,-0.5919337813
397.89650,-0.5919337813
397.89700,2.154815888
397.89750,0.9340382573
397.89800,-5.780238712
397.89850,-12.18932127
397.89900,-12.49451568
397.89950,-10.96854364
397.90000,-14.02048772
397.90050,-16.46204298
397.90100,-5.780238712
397.90150,18.6353139
397.90200,39.38853363
397.90250,40.60931126
397.90300,25.95997969
397.90350,11.92103693
397.90400,5.206759965
397.90450,2.154815888
397.90500,-0.5919337813
397.90550,-1.202322597
397.90600,1.239232665
397.90650,3.680787927
397.90700,2.765204703
397.90750,-0.2867393736
397.90800,-0.5919337813
397.90850,6.122343188
397.90900,18.94050831
397.90950,27.18075732
397.91000,22.2976468
397.91050,10.3950649
397.91100,4.901565557
397.91150,7.343120819
397.91200,0.6288438496
397.91250,-23.48151436
397.91300,-51.86459428
397.91350,-64.98795381
397.91400,-59.49445447
397.91450,-46.98148375
397.91500,-34.16331863
397.91550,-20.42957028
397.91600,-7.916599566
397.91650,-2.11790582
397.91700,-3.643877858
397.91750,-9.137377197
397.91800,-14.63087654
397.91850,-17.0724318
397.91900,-14.32568213
397.91950,-8.221793974
397.92000,-4.559461081
397.92050,-2.423100227
397.92100,4.291176742
397.92150,17.41453627
397.92200,27.79114613
397.92250,27.79114613
397.92300,23.51842443
397.92350,23.51842443
397.92400,23.82361883
397.92450,18.3301195
397.92500,11.61584253
397.92550,10.3950649
397.92600,9.784676081
397.92650,-1.507517004
397.92700,-20.42957028
397.92750,-31.41656896
397.92800,-27.14384725
397.92850,-17.0724318
397.92900,-11.57893246
397.92950,-7.916599566
397.93000,-2.11790582
397.93050,2.765204703
397.93100,2.765204703
397.93150,0.6288438496
397.93200,0.3236494419
397.93250,1.239232665
397.93300,0.3236494419
397.93350,0.01845503415
397.93400,2.460010296
397.93450,6.122343188
397.93500,6.732732004
397.93550,4.291176742
397.93600,3.070399111
397.93650,3.680787927
397.93700,3.680787927
397.93750,1.544427073
397.93800,0.3236494419
397.93850,0.3236494419
397.93900,-0.5919337813
397.93950,-5.780238712
397.94000,-11.27373805
397.94050,-12.79971009
397.94100,-10.96854364
397.94150,-8.832182789
397.94200,-5.780238712
397.94250,0.6288438496
397.94300,9.479481673
397.94350,14.05739779
397.94400,12.53142575
397.94450,10.3950649
397.94500,12.83662016
397.94550,14.3625922
397.94600,7.037926411
397.94650,-5.475044304
397.94700,-12.79971009
397.94750,-10.05296042
397.94800,-1.812711412
397.94850,6.427537596
397.94900,18.02492509
397.94950,32.06386784
397.95000,39.69372804
397.95050,36.33658955
397.95100,28.70672936
397.95150,25.04439647
397.95200,20.16128594
397.95250,2.154815888
397.95300,-25.61787521
397.95350,-43.31915086
397.95400,-38.74123474
397.95450,-22.87112554
397.95500,-15.24126535
397.95550,-17.3776262
397.95600,-16.46204298
397.95650,-7.001016343
397.95700,-0.2867393736
397.95750,-3.338683451
397.95800,-8.221793974
397.95850,-2.423100227
397.95900,9.479481673
397.95950,15.27817542
397.96000,11.61584253
397.96050,6.732732004
397.96100,2.154815888
397.96150,-10.96854364
397.96200,-33.24773541
397.96250,-47.89706697
397.96300,-38.43604034
397.96350,-11.57893246
397.96400,11.00545371
397.96450,20.46648035
397.96500,22.90803561
397.96550,24.12881324
397.96600,20.77167476
397.96650,10.7002593
397.96700,0.3236494419
397.96750,-2.11790582
397.96800,-0.2867393736
397.96850,0.3236494419
397.96900,-0.5919337813
397.96950,-0.5919337813
397.97000,-0.2867393736
397.97050,-3.949072266
397.97100,-9.747766012
397.97150,-12.18932127
397.97200,-10.35815483
397.97250,-8.832182789
397.97300,-8.832182789
397.97350,-5.780238712
397.97400,-0.2867393736
397.97450,2.154815888
397.97500,1.544427073
397.97550,5.511954373
397.97600,17.41453627
397.97650,27.79114613
397.97700,25.65478528
397.97750,13.75220338
397.97800,6.732732004
397.97850,11.92103693
397.97900,21.99245239
397.97950,25.34959087
397.98000,19.85609153
397.98050,14.05739779
397.98100,15.58336983
397.98150,20.16128594
397.98200,14.05739779
397.98250,-6.08543312
397.98300,-26.53345844
397.98350,-30.19579133
397.98400,-18.29320943
397.98450,-5.780238712
397.98500,-2.423100227
397.98550,-3.338683451
397.98600,-3.338683451
397.98650,-3.949072266
397.98700,-7.611405158
397.98750,-9.442571605
397.98800,-6.390627528
397.98850,-2.11790582
397.98900,-1.507517004
397.98950,-3.033489043
397.99000,-1.812711412
397.99050,1.84962148
397.99100,4.291176742
397.99150,2.765204703
397.99200,0.6288438496
397.99250,1.544427073
397.99300,3.985982334
397.99350,3.070399111
397.99400,-2.423100227
397.99450,-6.695821935
397.99500,-4.254266674
397.99550,-0.897128189
397.99600,-6.08543312
397.99650,-18.29320943
397.99700,-25.0074864
397.99750,-22.87112554
397.99800,-20.73476469
397.99850,-22.26073673
397.99900,-13.4100989
397.99950,13.14181457
398.00000,41.83008889
398.00050,49.15475467
398.00100,37.55736718
398.00150,26.87556291
398.00200,23.82361883
398.00250,15.88856423
398.00300,-2.728294635
398.00350,-19.20879265
398.00400,-19.81918147
398.00450,-8.832182789
398.00500,0.01845503415
398.00550,-0.2867393736
398.00600,-5.475044304
398.00650,-10.35815483
398.00700,-10.96854364
398.00750,-6.695821935
398.00800,-0.5919337813
398.00850,3.680787927
398.00900,6.122343188
398.00950,6.122343188
398.01000,2.765204703
398.01050,-2.423100227
398.01100,-5.169849897
398.01150,-2.423100227
398.01200,0.9340382573
398.01250,0.01845503415
398.01300,-2.11790582
398.01350,0.01845503415
398.01400,3.985982334
398.01450,3.375593519
398.01500,0.01845503415
398.01550,3.375593519
398.01600,12.83662016
398.01650,16.19375864
398.01700,5.511954373
398.01750,-12.49451568
398.01800,-24.09190317
398.01850,-25.31268081
398.01900,-21.0399591
398.01950,-16.46204298
398.02000,-13.4100989
398.02050,-12.79971009
398.02100,-14.93607094
398.02150,-18.59840384
398.02200,-22.26073673
398.02250,-26.22826403
398.02300,-29.89059692
398.02350,-30.80618014
398.02400,-28.36462488
398.02450,-25.61787521
398.02500,-25.61787521
398.02550,-26.53345844
398.02600,-22.26073673
398.02650,-8.832182789
398.02700,11.92103693
398.02750,32.97945107
398.02800,41.21970007
398.02850,29.92750699
398.02900,9.479481673
398.02950,1.84962148
398.03000,17.10934187
398.03050,38.77814481
398.03100,42.4404777
398.03150,24.73920206
398.03200,5.511954373
398.03250,-1.507517004
398.03300,-0.5919337813
398.03350,0.9340382573
398.03400,8.258704042
398.03450,23.51842443
398.03500,37.25217277
398.03550,38.167756
398.03600,29.62231258
398.03650,25.04439647
398.03700,27.79114613
398.03750,26.87556291
398.03800,15.88856423
398.03850,-0.897128189
398.03900,-14.02048772
398.03950,-18.59840384
398.04000,-12.79971009
398.04050,-0.5919337813
398.04100,9.479481673
398.04150,10.3950649
398.04200,3.985982334
398.04250,-2.423100227
398.04300,-6.390627528
398.04350,-10.66334924
398.04400,-15.54645976
398.04450,-17.68282061
398.04500,-15.54645976
398.04550,-12.49451568
398.04600,-8.526988381
398.04650,-2.728294635
398.04700,0.3236494419
398.04750,-3.338683451
398.04800,-11.27373805
398.04850,-14.02048772
398.04900,-11.57893246
398.04950,-13.4100989
398.05000,-21.0399591
398.05050,-24.70229199
398.05100,-19.81918147
398.05150,-15.85165417
398.05200,-16.15684857
398.05250,-7.611405158
398.05300,17.71973068
398.05350,44.88203297
398.05400,50.68072671
398.05450,36.64178396
398.05500,24.43400765
398.05550,24.12881324
398.05600,24.43400765
398.05650,14.3625922
398.05700,-0.897128189
398.05750,-10.05296042
398.05800,-10.35815483
398.05850,-8.221793974
398.05900,-7.001016343
398.05950,-5.169849897
398.06000,-3.949072266
398.06050,-7.916599566
398.06100,-15.85165417
398.06150,-17.68282061
398.06200,-4.559461081
398.06250,17.41453627
398.06300,34.2002287
398.06350,38.77814481
398.06400,36.64178396
398.06450,30.5378958
398.06500,12.22623134
398.06550,-21.3451535
398.06600,-53.08537191
398.06650,-60.10484328
398.06700,-42.09837323
398.06750,-21.0399591
398.06800,-12.18932127
398.06850,-8.526988381
398.06900,-0.5919337813
398.06950,7.953509634
398.07000,7.037926411
398.07050,-0.897128189
398.07100,-6.08543312
398.07150,-1.507517004
398.07200,7.343120819
398.07250,13.75220338
398.07300,13.14181457
398.07350,7.648315227
398.07400,1.239232665
398.07450,-2.728294635
398.07500,-6.695821935
398.07550,-14.02048772
398.07600,-25.31268081
398.07650,-37.82565152
398.07700,-46.06590053
398.07750,-42.40356764
398.07800,-22.26073673
398.07850,7.648315227
398.07900,33.89503429
398.07950,46.1028106
398.08000,47.01839382
398.08050,44.88203297
398.08100,42.1352833
398.08150,39.99892244
398.08200,40.91450567
398.08250,42.1352833
398.08300,29.92750699
398.08350,-2.423100227
398.08400,-39.96201237
398.08450,-55.52692717
398.08500,-43.31915086
398.08550,-21.95554232
398.08600,-10.35815483
398.08650,-7.611405158
398.08700,-5.475044304
398.08750,-4.254266674
398.08800,-10.05296042
398.08850,-21.3451535
398.08900,-28.66981929
398.08950,-29.58540251
398.09000,-28.05943047
398.09050,-27.44904166
398.09100,-27.44904166
398.09150,-26.53345844
398.09200,-24.39709758
398.09250,-18.90359824
398.09300,-5.169849897
398.09350,14.3625922
398.09400,32.06386784
398.09450,36.94697837
398.09500,28.40153495
398.09550,15.27817542
398.09600,7.343120819
398.09650,5.511954373
398.09700,2.460010296
398.09750,-4.254266674
398.09800,-8.832182789
398.09850,-7.001016343
398.09900,-5.780238712
398.09950,-9.137377197
398.10000,-5.475044304
398.10050,17.10934187
398.10100,48.54436586
398.10150,58.92097572
398.10200,37.25217277
398.10250,4.291176742
398.10300,-13.71529331
398.10350,-13.1049045
398.10400,-6.695821935
398.10450,-3.338683451
398.10500,-3.338683451
398.10550,-5.780238712
398.10600,-9.137377197
398.10650,-9.442571605
398.10700,-5.169849897
398.10750,-0.2867393736
398.10800,0.9340382573
398.10850,2.154815888
398.10900,5.81714878
398.10950,9.784676081
398.11000,13.14181457
398.11050,17.71973068
398.11100,22.2976468
398.11150,19.55089713
398.11200,8.56389845
398.11250,-0.5919337813
398.11300,-1.507517004
398.11350,0.01845503415
398.11400,-7.611405158
398.11450,-22.87112554
398.11500,-34.46851304
398.11550,-34.46851304
398.11600,-23.17631995
398.11650,-4.559461081
398.11700,12.83662016
398.11750,22.2976468
398.11800,21.38206357
398.11850,15.88856423
398.11900,10.7002593
398.11950,3.375593519
398.12000,-6.695821935
398.12050,-13.4100989
398.12100,-11.57893246
398.12150,-6.08543312
398.12200,-5.169849897
398.12250,-6.390627528
398.12300,-0.897128189
398.12350,13.14181457
398.12400,28.40153495
398.12450,36.03139514
398.12500,32.97945107
398.12550,21.99245239
398.12600,8.258704042
398.12650,-0.897128189
398.12700,-3.643877858
398.12750,-3.033489043
398.12800,-1.507517004
398.12850,0.6288438496
398.12900,2.765204703
398.12950,1.544427073
398.13000,-2.423100227
398.13050,-4.254266674
398.13100,-0.2867393736
398.13150,4.59637115
398.13200,6.427537596
398.13250,5.511954373
398.13300,3.680787927
398.13350,1.544427073
398.13400,-0.5919337813
398.13450,0.6288438496
398.13500,5.511954373
398.13550,9.174287265
398.13600,10.3950649
398.13650,12.22623134
398.13700,13.14181457
398.13750,4.291176742
398.13800,-16.46204298
398.13850,-35.68929067
398.13900,-38.74123474
398.13950,-28.66981929
398.14000,-21.0399591
398.14050,-21.65034791
398.14100,-22.56593114
398.14150,-18.29320943
398.14200,-14.02048772
398.14250,-14.93607094
398.14300,-15.24126535
398.14350,-8.221793974
398.14400,2.460010296
398.14450,7.037926411
398.14500,1.544427073
398.14550,-5.475044304
398.14600,-6.08543312
398.14650,2.765204703
398.14700,16.49895305
398.14750,27.79114613
398.14800,32.36906225
398.14850,33.28464547
398.14900,36.33658955
398.14950,39.99892244
398.15000,32.06386784
398.15050,3.985982334
398.15100,-33.85812422
398.15150,-57.66328802
398.15200,-56.13731598
398.15250,-40.26720678
398.15300,-25.31268081
398.15350,-11.57893246
398.15400,6.427537596
398.15450,24.43400765
398.15500,31.14828462
398.15550,25.04439647
398.15600,16.49895305
398.15650,12.83662016
398.15700,9.479481673
398.15750,0.9340382573
398.15800,-10.66334924
398.15850,-18.90359824
398.15900,-21.3451535
398.15950,-19.20879265
398.16000,-14.93607094
398.16050,-7.916599566
398.16100,0.01845503415
398.16150,5.206759965
398.16200,6.427537596
398.16250,4.291176742
398.16300,3.070399111
398.16350,4.901565557
398.16400,9.174287265
398.16450,12.22623134
398.16500,11.31064812
398.16550,7.648315227
398.16600,4.59637115
398.16650,5.81714878
398.16700,10.08987049
398.16750,10.3950649
398.16800,-0.5919337813
398.16850,-21.0399591
398.16900,-35.38409626
398.16950,-32.02695777
398.17000,-16.46204298
398.17050,-4.559461081
398.17100,-3.033489043
398.17150,-4.254266674
398.17200,0.9340382573
398.17250,10.7002593
398.17300,15.88856423
398.17350,13.75220338
398.17400,9.784676081
398.17450,7.953509634
398.17500,6.427537596
398.17550,0.6288438496
398.17600,-9.137377197
398.17650,-17.68282061
398.17700,-19.51398706
398.17750,-17.68282061
398.17800,-17.68282061
398.17850,-21.3451535
398.17900,-22.26073673
398.17950,-12.49451568
398.18000,8.56389845
398.18050,32.97945107
398.18100,48.23917145
398.18150,49.45994908
398.18200,42.4404777
398.18250,37.55736718
398.18300,35.42100633
398.18350,25.34959087
398.18400,1.84962148
398.18450,-24.39709758
398.18500,-37.21526271
398.18550,-31.41656896
398.18600,-18.29320943
398.18650,-8.526988381
398.18700,-3.643877858
398.18750,-1.202322597
398.18800,-0.2867393736
398.18850,-0.2867393736
398.18900,0.01845503415
398.18950,2.460010296
398.19000,4.901565557
398.19050,5.511954373
398.19100,4.291176742
398.19150,1.544427073
398.19200,-1.812711412
398.19250,-3.033489043
398.19300,-0.897128189
398.19350,0.6288438496
398.19400,-0.2867393736
398.19450,-1.812711412
398.19500,0.3236494419
398.19550,3.985982334
398.19600,3.375593519
398.19650,-0.2867393736
398.19700,-1.812711412
398.19750,-1.202322597
398.19800,-1.507517004
398.19850,-1.812711412
398.19900,1.84962148
398.19950,9.479481673
398.20000,14.6677866
398.20050,13.75220338
398.20100,10.7002593
398.20150,8.258704042
398.20200,6.122343188
398.20250,3.375593519
398.20300,-1.812711412
398.20350,-13.1049045
398.20400,-27.75423607
398.20450,-36.60487389
398.20500,-35.68929067
398.20550,-32.63734659
398.20600,-32.942541
398.20650,-26.53345844
398.20700,-1.507517004
398.20750,31.45347903
398.20800,48.84956027
398.20850,43.05086652
398.20900,30.5378958
398.20950,24.12881324
398.21000,19.55089713
398.21050,10.3950649
398.21100,2.460010296
398.21150,0.9340382573
398.21200,0.6288438496
398.21250,-4.254266674
398.21300,-8.526988381
398.21350,-5.475044304
398.21400,2.765204703
398.21450,8.56389845
398.21500,10.08987049
398.21550,10.3950649
398.21600,9.784676081
398.21650,7.648315227
398.21700,5.206759965
398.21750,4.291176742
398.21800,4.291176742
398.21850,5.81714878
398.21900,8.869092857
398.21950,9.479481673
398.22000,6.427537596
398.22050,3.070399111
398.22100,3.070399111
398.22150,-1.812711412
398.22200,-20.42957028
398.22250,-43.01395645
398.22300,-50.33862224
398.22350,-38.74123474
398.22400,-24.09190317
398.22450,-18.59840384
398.22500,-17.98801502
398.22550,-13.71529331
398.22600,-8.221793974
398.22650,-6.08543312
398.22700,-5.169849897
398.22750,-1.507517004
398.22800,0.9340382573
398.22850,-0.5919337813
398.22900,-2.728294635
398.22950,1.239232665
398.23000,8.869092857
398.23050,11.61584253
398.23100,7.037926411
398.23150,1.239232665
398.23200,0.01845503415
398.23250,2.460010296
398.23300,3.375593519
398.23350,0.01845503415
398.23400,-5.475044304
398.23450,-10.96854364
398.23500,-15.24126535
398.23550,-17.0724318
398.23600,-11.88412687
398.23650,-0.897128189
398.23700,5.511954373
398.23750,2.154815888
398.23800,-0.2867393736
398.23850,13.44700897
398.23900,36.64178396
398.23950,40.30411685
398.24000,11.61584253
398.24050,-24.09190317
398.24100,-34.77370744
398.24150,-21.3451535
398.24200,-8.832182789
398.24250,-9.747766012
398.24300,-12.18932127
398.24350,-4.559461081
398.24400,5.81714878
398.24450,9.784676081
398.24500,8.258704042
398.24550,6.427537596
398.24600,4.291176742
398.24650,0.01845503415
398.24700,-2.423100227
398.24750,1.84962148
398.24800,9.784676081
398.24850,13.14181457
398.24900,9.479481673
398.24950,5.511954373
398.25000,5.81714878
398.25050,7.037926411
398.25100,4.59637115
398.25150,0.01845503415
398.25200,-0.5919337813
398.25250,1.239232665
398.25300,2.154815888
398.25350,0.3236494419
398.25400,0.6288438496
398.25450,6.122343188
398.25500,14.05739779
398.25550,19.85609153
398.25600,22.6028412
398.25650,22.2976468
398.25700,18.94050831
398.25750,11.31064812
398.25800,3.070399111
398.25850,-3.643877858
398.25900,-11.27373805
398.25950,-21.65034791
398.26000,-30.19579133
398.26050,-29.58540251
398.26100,-21.3451535
398.26150,-15.85165417
398.26200,-17.3776262
398.26250,-18.59840384
398.26300,-7.611405158
398.26350,13.44700897
398.26400,29.62231258
398.26450,31.45347903
398.26500,27.79114613
398.26550,31.75867344
398.26600,37.55736718
398.26650,25.04439647
398.26700,-10.35815483
398.26750,-45.15031731
398.26800,-51.25420546
398.26850,-30.50098574
398.26900,-6.695821935
398.26950,2.460010296
398.27000,2.154815888
398.27050,1.544427073
398.27100,1.239232665
398.27150,-1.507517004
398.27200,-6.08543312
398.27250,-9.442571605
398.27300,-10.66334924
398.27350,-11.27373805
398.27400,-10.96854364
398.27450,-8.832182789
398.27500,-6.390627528
398.27550,-3.949072266
398.27600,-2.11790582
398.27650,-0.5919337813
398.27700,-0.2867393736
398.27750,-0.5919337813
398.27800,-0.2867393736
398.27850,0.01845503415
398.27900,0.01845503415
398.27950,-0.897128189
398.28000,-1.507517004
398.28050,-0.897128189
398.28100,-0.2867393736
398.28150,0.01845503415
398.28200,1.544427073
398.28250,2.460010296
398.28300,1.544427073
398.28350,0.3236494419
398.28400,1.239232665
398.28450,3.070399111
398.28500,2.460010296
398.28550,0.01845503415
398.28600,-0.897128189
398.28650,0.9340382573
398.28700,3.985982334
398.28750,5.206759965
398.28800,5.511954373
398.28850,7.037926411
398.28900,9.479481673
398.28950,10.3950649
398.29000,7.037926411
398.29050,1.239232665
398.29100,-2.423100227
398.29150,-1.812711412
398.29200,1.544427073
398.29250,4.901565557
398.29300,5.511954373
398.29350,4.59637115
398.29400,3.680787927
398.29450,3.375593519
398.29500,3.680787927
398.29550,4.59637115
398.29600,7.037926411
398.29650,9.784676081
398.29700,10.7002593
398.29750,9.479481673
398.29800,7.037926411
398.29850,6.732732004
398.29900,9.174287265
398.29950,9.784676081
398.30000,6.427537596
398.30050,4.291176742
398.30100,9.784676081
398.30150,18.6353139
398.30200,19.55089713
398.30250,9.479481673
398.30300,-0.5919337813
398.30350,-0.897128189
398.30400,3.680787927
398.30450,0.01845503415
398.30500,-15.24126535
398.30550,-29.58540251
398.30600,-32.33215218
398.30650,-26.53345844
398.30700,-21.65034791
398.30750,-21.3451535
398.30800,-20.73476469
398.30850,-15.54645976
398.30900,-8.526988381
398.30950,-4.864655489
398.31000,-4.864655489
398.31050,-3.033489043
398.31100,0.6288438496
398.31150,3.680787927
398.31200,4.291176742
398.31250,5.511954373
398.31300,7.037926411
398.31350,2.460010296
398.31400,-9.137377197
398.31450,-18.29320943
398.31500,-19.81918147
398.31550,-22.87112554
398.31600,-32.942541
398.31650,-35.99448507
398.31700,-14.02048772
398.31750,22.6028412
398.31800,44.27164415
398.31850,37.86256159
398.31900,22.2976468
398.31950,17.71973068
398.32000,20.77167476
398.32050,18.02492509
398.32100,8.56389845
398.32150,1.84962148
398.32200,0.9340382573
398.32250,1.544427073
398.32300,2.154815888
398.32350,3.375593519
398.32400,3.985982334
398.32450,2.154815888
398.32500,0.01845503415
398.32550,0.6288438496
398.32600,1.84962148
398.32650,1.239232665
398.32700,0.01845503415
398.32750,-0.2867393736
398.32800,0.01845503415
398.32850,-0.2867393736
398.32900,-0.897128189
398.32950,0.3236494419
398.33000,2.765204703
398.33050,3.680787927
398.33100,1.544427073
398.33150,-1.202322597
398.33200,-3.338683451
398.33250,-3.033489043
398.33300,-1.812711412
398.33350,-2.423100227
398.33400,-6.08543312
398.33450,-9.747766012
398.33500,-10.66334924
398.33550,-7.611405158
398.33600,-2.423100227
398.33650,2.765204703
398.33700,5.511954373
398.33750,3.375593519
398.33800,-3.338683451
398.33850,-8.832182789
398.33900,-8.526988381
398.33950,-3.643877858
398.34000,0.9340382573
398.34050,3.680787927
398.34100,6.122343188
398.34150,7.953509634
398.34200,7.648315227
398.34250,6.427537596
398.34300,7.953509634
398.34350,11.00545371
398.34400,11.00545371
398.34450,7.037926411
398.34500,4.901565557
398.34550,8.56389845
398.34600,15.27817542
398.34650,20.77167476
398.34700,26.2651741
398.34750,33.28464547
398.34800,36.33658955
398.34850,28.09634054
398.34900,13.75220338
398.34950,5.511954373
398.35000,3.680787927
398.35050,-1.507517004
398.35100,-12.49451568
398.35150,-18.59840384
398.35200,-14.32568213
398.35250,-9.137377197
398.35300,-10.35815483
398.35350,-9.137377197
398.35400,1.239232665
398.35450,13.44700897
398.35500,16.19375864
398.35550,14.05739779
398.35600,15.88856423
398.35650,16.19375864
398.35700,4.901565557
398.35750,-10.96854364
398.35800,-17.3776262
398.35850,-14.93607094
398.35900,-17.68282061
398.35950,-28.66981929
398.36000,-37.82565152
398.36050,-39.35162356
398.36100,-37.82565152
398.36150,-35.38409626
398.36200,-29.28020811
398.36250,-20.12437587
398.36300,-15.24126535
398.36350,-14.02048772
398.36400,-10.35815483
398.36450,-4.559461081
398.36500,-2.423100227
398.36550,-1.812711412
398.36600,2.460010296
398.36650,7.343120819
398.36700,1.544427073
398.36750,-13.1049045
398.36800,-23.48151436
398.36850,-21.65034791
398.36900,-12.79971009
398.36950,-3.643877858
398.37000,3.375593519
398.37050,6.732732004
398.37100,5.81714878
398.37150,5.511954373
398.37200,10.3950649
398.37250,13.75220338
398.37300,9.479481673
398.37350,4.291176742
398.37400,7.037926411
398.37450,13.14181457
398.37500,14.6677866
398.37550,16.49895305
398.37600,25.95997969
398.37650,34.5054231
398.37700,30.2327014
398.37750,21.07686917
398.37800,19.85609153
398.37850,12.83662016
398.37900,-21.65034791
398.37950,-72.617814
398.38000,-95.20220017
398.38050,-69.56586992
398.38100,-23.17631995
398.38150,7.648315227
398.38200,19.55089713
398.38250,24.73920206
398.38300,24.73920206
398.38350,15.58336983
398.38400,3.070399111
398.38450,-2.728294635
398.38500,-1.812711412
398.38550,1.239232665
398.38600,5.81714878
398.38650,9.479481673
398.38700,6.732732004
398.38750,-1.812711412
398.38800,-4.864655489
398.38850,3.070399111
398.38900,13.75220338
398.38950,17.41453627
398.39000,15.58336983
398.39050,13.14181457
398.39100,8.56389845
398.39150,2.460010296
398.39200,2.460010296
398.39250,11.31064812
398.39300,18.94050831
398.39350,16.19375864
398.39400,7.953509634
398.39450,3.680787927
398.39500,1.84962148
398.39550,-1.202322597
398.39600,-1.507517004
398.39650,6.427537596
398.39700,17.41453627
398.39750,20.16128594
398.39800,14.6677866
398.39850,9.174287265
398.39900,7.648315227
398.39950,6.122343188
398.40000,2.765204703
398.40050,-0.2867393736
398.40100,-5.780238712
398.40150,-14.93607094
398.40200,-21.65034791
398.40250,-19.20879265
398.40300,-10.96854364
398.40350,-6.390627528
398.40400,-4.864655489
398.40450,-0.2867393736
398.40500,4.291176742
398.40550,-0.5919337813
398.40600,-14.93607094
398.40650,-24.09190317
398.40700,-22.87112554
398.40750,-21.95554232
398.40800,-27.44904166
398.40850,-25.92306962
398.40900,-6.08543312
398.40950,19.24570272
398.41000,29.92750699
398.41050,24.73920206
398.41100,19.24570272
398.41150,20.77167476
398.41200,20.16128594
398.41250,12.83662016
398.41300,6.427537596
398.41350,9.784676081
398.41400,18.02492509
398.41450,21.38206357
398.41500,18.02492509
398.41550,14.6677866
398.41600,13.75220338
398.41650,11.61584253
398.41700,1.544427073
398.41750,-15.54645976
398.41800,-32.33215218
398.41850,-38.13084593
398.41900,-31.41656896
398.41950,-20.42957028
398.42000,-13.1049045
398.42050,-9.137377197
398.42100,-5.169849897
398.42150,-2.728294635
398.42200,-3.643877858
398.42250,-4.864655489
398.42300,-2.11790582
398.42350,2.460010296
398.42400,2.765204703
398.42450,-2.728294635
398.42500,-9.137377197
398.42550,-12.18932127
398.42600,-12.79971009
398.42650,-13.1049045
398.42700,-13.1049045
398.42750,-12.18932127
398.42800,-10.96854364
398.42850,-8.526988381
398.42900,-3.338683451
398.42950,1.239232665
398.43000,1.544427073
398.43050,0.01845503415
398.43100,2.460010296
398.43150,9.784676081
398.43200,15.27817542
398.43250,13.75220338
398.43300,7.343120819
398.43350,0.6288438496
398.43400,-4.864655489
398.43450,-7.611405158
398.43500,-2.728294635
398.43550,8.869092857
398.43600,17.71973068
398.43650,15.58336983
398.43700,5.81714878
398.43750,-0.2867393736
398.43800,-0.5919337813
398.43850,0.6288438496
398.43900,0.6288438496
398.43950,1.239232665
398.44000,3.985982334
398.44050,5.511954373
398.44100,3.985982334
398.44150,2.154815888
398.44200,3.375593519
398.44250,5.81714878
398.44300,6.732732004
398.44350,5.511954373
398.44400,3.985982334
398.44450,2.460010296
398.44500,0.01845503415
398.44550,-2.423100227
398.44600,-3.338683451
398.44650,-1.812711412
398.44700,-0.2867393736
398.44750,-0.897128189
398.44800,-2.423100227
398.44850,-3.033489043
398.44900,-2.728294635
398.44950,-2.423100227
398.45000,-1.812711412
398.45050,0.01845503415
398.45100,3.680787927
398.45150,6.122343188
398.45200,5.206759965
398.45250,1.84962148
398.45300,-1.202322597
398.45350,-2.423100227
398.45400,-2.728294635
398.45450,-2.728294635
398.45500,-3.338683451
398.45550,-3.643877858
398.45600,-3.643877858
398.45650,-2.423100227
398.45700,-0.2867393736
398.45750,2.460010296
398.45800,6.427537596
398.45850,11.00545371
398.45900,12.53142575
398.45950,9.479481673
398.46000,5.81714878
398.46050,6.122343188
398.46100,7.953509634
398.46150,0.3236494419
398.46200,-18.59840384
398.46250,-34.77370744
398.46300,-29.89059692
398.46350,-3.949072266
398.46400,22.6028412
398.46450,32.97945107
398.46500,27.48595173
398.46550,18.6353139
398.46600,11.92103693
398.46650,3.375593519
398.46700,-11.57893246
398.46750,-28.66981929
398.46800,-35.38409626
398.46850,-24.39709758
398.46900,-3.033489043
398.46950,9.174287265
398.47000,1.544427073
398.47050,-18.29320943
398.47100,-33.55292981
398.47150,-36.60487389
398.47200,-35.38409626
398.47250,-34.77370744
398.47300,-31.72176337
398.47350,-26.22826403
398.47400,-24.39709758
398.47450,-27.44904166
398.47500,-25.61787521
398.47550,-13.71529331
398.47600,0.01845503415
398.47650,9.784676081
398.47700,21.99245239
398.47750,39.69372804
398.47800,50.0703379
398.47850,43.66125534
398.47900,34.2002287
398.47950,39.38853363
398.48000,48.23917145
398.48050,33.89503429
398.48100,-3.338683451
398.48150,-34.77370744
398.48200,-39.04642915
398.48250,-24.39709758
398.48300,-5.780238712
398.48350,13.44700897
398.48400,27.79114613
398.48450,23.51842443
398.48500,0.01845503415
398.48550,-19.51398706
398.48600,-16.76723739
398.48650,-0.897128189
398.48700,7.953509634
398.48750,6.732732004
398.48800,6.122343188
398.48850,8.56389845
398.48900,7.343120819
398.48950,2.154815888
398.49000,1.239232665
398.49050,4.901565557
398.49100,4.59637115
398.49150,-1.812711412
398.49200,-5.169849897
398.49250,-0.2867393736
398.49300,7.037926411
398.49350,10.08987049
398.49400,11.31064812
398.49450,15.88856423
398.49500,18.6353139
398.49550,11.92103693
398.49600,0.3236494419
398.49650,-5.169849897
398.49700,-6.08543312
398.49750,-13.71529331
398.49800,-25.31268081
398.49850,-22.26073673
398.49900,0.6288438496
398.49950,21.38206357
398.50000,18.3301195
398.50050,1.544427073
398.50100,-3.643877858
398.50150,3.375593519
398.50200,6.732732004
398.50250,2.460010296
398.50300,3.375593519
398.50350,12.53142575
398.50400,14.97298101
398.50450,7.037926411
398.50500,4.59637115
398.50550,15.27817542
398.50600,22.90803561
398.50650,11.61584253
398.50700,-9.747766012
398.50750,-21.0399591
398.50800,-19.20879265
398.50850,-14.63087654
398.50900,-10.96854364
398.50950,-4.254266674
398.51000,2.460010296
398.51050,1.84962148
398.51100,-4.254266674
398.51150,-5.475044304
398.51200,1.544427073
398.51250,5.81714878
398.51300,-1.202322597
398.51350,-12.18932127
398.51400,-12.49451568
398.51450,-0.5919337813
398.51500,10.7002593
398.51550,12.83662016
398.51600,8.869092857
398.51650,7.953509634
398.51700,11.31064812
398.51750,12.83662016
398.51800,8.869092857
398.51850,2.154815888
398.51900,-2.11790582
398.51950,-3.949072266
398.52000,-5.169849897
398.52050,-6.390627528
398.52100,-6.08543312
398.52150,-4.254266674
398.52200,-0.897128189
398.52250,3.985982334
398.52300,10.08987049
398.52350,13.44700897
398.52400,9.479481673
398.52450,-0.2867393736
398.52500,-9.137377197
398.52550,-12.79971009
398.52600,-14.63087654
398.52650,-21.65034791
398.52700,-31.72176337
398.52750,-32.942541
398.52800,-19.81918147
398.52850,0.01845503415
398.52900,13.44700897
398.52950,17.41453627
398.53000,16.49895305
398.53050,14.05739779
398.53100,9.174287265
398.53150,2.154815888
398.53200,-3.338683451
398.53250,-3.643877858
398.53300,-0.2867393736
398.53350,3.985982334
398.53400,7.953509634
398.53450,9.479481673
398.53500,8.869092857
398.53550,8.56389845
398.53600,8.56389845
398.53650,3.985982334
398.53700,-7.611405158
398.53750,-21.65034791
398.53800,-29.58540251
398.53850,-30.50098574
398.53900,-30.80618014
398.53950,-30.80618014
398.54000,-24.70229199
398.54050,-9.442571605
398.54100,6.427537596
398.54150,13.14181457
398.54200,9.784676081
398.54250,4.291176742
398.54300,3.680787927
398.54350,7.648315227
398.54400,11.61584253
398.54450,13.75220338
398.54500,15.27817542
398.54550,16.19375864
398.54600,12.83662016
398.54650,5.81714878
398.54700,1.84962148
398.54750,4.901565557
398.54800,9.174287265
398.54850,5.81714878
398.54900,-1.812711412
398.54950,-3.949072266
398.55000,1.544427073
398.55050,8.56389845
398.55100,14.6677866
398.55150,22.90803561
398.55200,31.45347903
398.55250,32.97945107
398.55300,27.48595173
398.55350,19.85609153
398.55400,7.953509634
398.55450,-14.32568213
398.55500,-39.65681797
398.55550,-48.8126502
398.55600,-36.9100683
398.55650,-20.42957028
398.55700,-12.79971009
398.55750,-9.442571605
398.55800,-4.254266674
398.55850,-0.897128189
398.55900,-0.2867393736
398.55950,5.206759965
398.56000,18.6353139
398.56050,26.2651741
398.56100,18.94050831
398.56150,5.81714878
398.56200,-3.643877858
398.56250,-16.46204298
398.56300,-36.9100683
398.56350,-52.16978868
398.56400,-46.67628934
398.56450,-27.44904166
398.56500,-13.4100989
398.56550,-10.05296042
398.56600,-9.442571605
398.56650,-4.254266674
398.56700,3.375593519
398.56750,10.7002593
398.56800,16.19375864
398.56850,18.6353139
398.56900,19.85609153
398.56950,21.07686917
398.57000,15.58336983
398.57050,-3.643877858
398.57100,-29.89059692
398.57150,-42.09837323
398.57200,-31.41656896
398.57250,-12.49451568
398.57300,-3.033489043
398.57350,-4.864655489
398.57400,-9.137377197
398.57450,-10.35815483
398.57500,-8.526988381
398.57550,-3.949072266
398.57600,-0.897128189
398.57650,-2.728294635
398.57700,-5.169849897
398.57750,0.6288438496
398.57800,11.92103693
398.57850,15.58336983
398.57900,7.953509634
398.57950,0.01845503415
398.58000,-0.2867393736
398.58050,3.375593519
398.58100,9.174287265
398.58150,15.27817542
398.58200,13.44700897
398.58250,-2.11790582
398.58300,-21.3451535
398.58350,-23.78670877
398.58400,-9.442571605
398.58450,2.460010296
398.58500,4.901565557
398.58550,9.479481673
398.58600,21.38206357
398.58650,28.40153495
398.58700,24.12881324
398.58750,18.6353139
398.58800,16.49895305
398.58850,10.3950649
398.58900,1.544427073
398.58950,1.84962148
398.59000,10.3950649
398.59050,9.479481673
398.59100,0.6288438496
398.59150,10.08987049
398.59200,44.57683856
398.59250,69.29758558
398.59300,52.51189316
398.59350,9.784676081
398.59400,-19.20879265
398.59450,-22.87112554
398.59500,-17.98801502
398.59550,-16.15684857
398.59600,-14.32568213
398.59650,-10.96854364
398.59700,-9.747766012
398.59750,-9.442571605
398.59800,-4.254266674
398.59850,2.765204703
398.59900,5.206759965
398.59950,3.985982334
398.60000,4.901565557
398.60050,8.258704042
398.60100,8.869092857
398.60150,3.985982334
398.60200,-6.08543312
398.60250,-17.68282061
398.60300,-22.87112554
398.60350,-12.79971009
398.60400,7.953509634
398.60450,26.2651741
398.60500,35.42100633
398.60550,41.52489448
398.60600,44.57683856
398.60650,34.5054231
398.60700,9.174287265
398.60750,-14.93607094
398.60800,-24.70229199
398.60850,-27.44904166
398.60900,-34.16331863
398.60950,-37.21526271
398.61000,-21.95554232
398.61050,6.427537596
398.61100,25.65478528
398.61150,23.21323002
398.61200,10.08987049
398.61250,3.985982334
398.61300,7.648315227
398.61350,12.83662016
398.61400,13.75220338
398.61450,10.3950649
398.61500,5.511954373
398.61550,0.01845503415
398.61600,-3.643877858
398.61650,-4.864655489
398.61700,-4.254266674
398.61750,-3.949072266
398.61800,-5.169849897
398.61850,-7.306210751
398.61900,-9.442571605
398.61950,-10.66334924
398.62000,-11.27373805
398.62050,-10.35815483
398.62100,-6.390627528
398.62150,0.01845503415
398.62200,4.291176742
398.62250,3.375593519
398.62300,-0.897128189
398.62350,-3.949072266
398.62400,-3.033489043
398.62450,-2.423100227
398.62500,-5.169849897
398.62550,-10.35815483
398.62600,-14.93607094
398.62650,-18.29320943
398.62700,-20.73476469
398.62750,-21.3451535
398.62800,-19.20879265
398.62850,-16.46204298
398.62900,-15.24126535
398.62950,-12.49451568
398.63000,-3.338683451
398.63050,11.92103693
398.63100,25.95997969
398.63150,30.5378958
398.63200,26.5703685
398.63250,20.46648035
398.63300,15.27817542
398.63350,7.037926411
398.63400,-7.306210751
398.63450,-21.65034791
398.63500,-25.31268081
398.63550,-16.76723739
398.63600,-7.306210751
398.63650,-6.08543312
398.63700,-9.442571605
398.63750,-8.221793974
398.63800,-1.202322597
398.63850,5.206759965
398.63900,7.648315227
398.63950,8.258704042
398.64000,8.56389845
398.64050,6.427537596
398.64100,1.239232665
398.64150,-3.338683451
398.64200,-7.306210751
398.64250,-14.32568213
398.64300,-25.0074864
398.64350,-31.11137455
398.64400,-25.31268081
398.64450,-11.27373805
398.64500,0.01845503415
398.64550,1.239232665
398.64600,-1.812711412
398.64650,-3.338683451
398.64700,0.01845503415
398.64750,4.291176742
398.64800,4.901565557
398.64850,1.84962148
398.64900,0.3236494419
398.64950,3.375593519
