"type","name","time_units","begin_time","frequency","count","units"
"signal","Ultium EMG-FLEX.CAPR.U RT","s",0.00000,2000,21960,"uV"

"time","value"
0.00000,4.924291178
0.00050,5.839874401
0.00100,6.450263216
0.00150,6.755457624
0.00200,5.534679993
0.00250,3.398319139
0.00300,0.04118065471
0.00350,-3.010763422
0.00400,-3.926346645
0.00450,-2.095180199
0.00500,0.3463750624
0.00550,1.261958286
0.00600,0.6515694701
0.00650,-0.8744025684
0.00700,-2.400374607
0.00750,-3.621152238
0.00800,-3.010763422
0.00850,-0.5692081607
0.00900,0.9567638778
0.00950,0.04118065471
0.01000,-3.010763422
0.01050,-4.841929869
0.01100,-3.926346645
0.01150,-0.8744025684
0.01200,1.567152693
0.01250,2.787930324
0.01300,2.787930324
0.01350,2.482735916
0.01400,2.787930324
0.01450,3.703513547
0.01500,3.703513547
0.01550,2.177541509
0.01600,0.3463750624
0.01650,-0.5692081607
0.01700,-0.8744025684
0.01750,-0.8744025684
0.01800,-1.179596976
0.01850,-1.179596976
0.01900,-0.8744025684
0.01950,-0.264013753
0.02000,0.9567638778
0.02050,2.482735916
0.02100,2.482735916
0.02150,1.567152693
0.02200,1.261958286
0.02250,1.567152693
0.02300,1.261958286
0.02350,0.6515694701
0.02400,1.261958286
0.02450,3.093124732
0.02500,3.703513547
0.02550,2.482735916
0.02600,0.04118065471
0.02650,-1.484791384
0.02700,-2.400374607
0.02750,-2.400374607
0.02800,-1.789985791
0.02850,-1.179596976
0.02900,-1.484791384
0.02950,-1.789985791
0.03000,-2.095180199
0.03050,-2.095180199
0.03100,-2.705569015
0.03150,-2.095180199
0.03200,0.04118065471
0.03250,1.872347101
0.03300,2.787930324
0.03350,2.787930324
0.03400,2.177541509
0.03450,1.261958286
0.03500,0.04118065471
0.03550,0.04118065471
0.03600,1.261958286
0.03650,3.703513547
0.03700,4.61909677
0.03750,3.703513547
0.03800,0.9567638778
0.03850,-2.705569015
0.03900,-5.147124276
0.03950,-4.536735461
0.04000,-0.8744025684
0.04050,2.482735916
0.04100,3.398319139
0.04150,3.093124732
0.04200,3.398319139
0.04250,4.313902363
0.04300,4.61909677
0.04350,2.482735916
0.04400,-1.484791384
0.04450,-5.147124276
0.04500,-3.926346645
0.04550,0.04118065471
0.04600,1.261958286
0.04650,-1.484791384
0.04700,-3.621152238
0.04750,-0.8744025684
0.04800,0.9567638778
0.04850,-3.621152238
0.04900,-13.08217888
0.04950,-20.10165025
0.05000,-22.23801111
0.05050,-21.9328167
0.05100,-18.57567822
0.05150,-10.33542921
0.05200,-2.095180199
0.05250,0.04118065471
0.05300,-0.264013753
0.05350,0.3463750624
0.05400,0.04118065471
0.05450,-7.28348513
0.05500,-17.66009499
0.05550,-17.66009499
0.05600,-6.367901907
0.05650,3.093124732
0.05700,3.703513547
0.05750,0.9567638778
0.05800,2.787930324
0.05850,6.450263216
0.05900,5.839874401
0.05950,3.703513547
0.06000,3.703513547
0.06050,3.703513547
0.06100,-0.5692081607
0.06150,-6.978290722
0.06200,-8.504262761
0.06250,-4.841929869
0.06300,-0.8744025684
0.06350,0.9567638778
0.06400,3.398319139
0.06450,6.145068809
0.06500,8.281429663
0.06550,10.11259611
0.06600,11.94376256
0.06650,11.33337374
0.06700,7.36584644
0.06750,4.313902363
0.06800,5.839874401
0.06850,6.755457624
0.06900,0.6515694701
0.06950,-9.114651576
0.07000,-13.38737328
0.07050,-6.367901907
0.07100,3.703513547
0.07150,7.976235255
0.07200,5.839874401
0.07250,3.398319139
0.07300,3.398319139
0.07350,3.398319139
0.07400,1.872347101
0.07450,-0.8744025684
0.07500,-3.621152238
0.07550,-5.452318684
0.07600,-5.757513092
0.07650,-2.400374607
0.07700,2.177541509
0.07750,4.61909677
0.07800,3.703513547
0.07850,1.872347101
0.07900,1.872347101
0.07950,2.787930324
0.08000,2.482735916
0.08050,0.3463750624
0.08100,-0.5692081607
0.08150,-0.264013753
0.08200,0.3463750624
0.08250,1.872347101
0.08300,4.008707955
0.08350,7.36584644
0.08400,9.807401701
0.08450,10.11259611
0.08500,8.891818478
0.08550,8.281429663
0.08600,8.281429663
0.08650,7.976235255
0.08700,6.450263216
0.08750,5.534679993
0.08800,4.924291178
0.08850,2.787930324
0.08900,-2.400374607
0.08950,-9.114651576
0.09000,-12.77698447
0.09050,-10.33542921
0.09100,-5.147124276
0.09150,-1.484791384
0.09200,-0.8744025684
0.09250,-1.179596976
0.09300,-0.5692081607
0.09350,0.04118065471
0.09400,0.9567638778
0.09450,1.567152693
0.09500,2.177541509
0.09550,1.261958286
0.09600,-0.8744025684
0.09650,-3.31595783
0.09700,-3.621152238
0.09750,-2.400374607
0.09800,-0.5692081607
0.09850,0.6515694701
0.09900,1.567152693
0.09950,1.567152693
0.10000,0.3463750624
0.10050,-0.5692081607
0.10100,-0.5692081607
0.10150,0.04118065471
0.10200,0.04118065471
0.10250,0.04118065471
0.10300,0.04118065471
0.10350,-0.264013753
0.10400,-0.8744025684
0.10450,-0.5692081607
0.10500,1.261958286
0.10550,3.093124732
0.10600,3.398319139
0.10650,3.093124732
0.10700,2.787930324
0.10750,2.787930324
0.10800,3.093124732
0.10850,3.703513547
0.10900,5.229485586
0.10950,4.924291178
0.11000,2.482735916
0.11050,0.9567638778
0.11100,3.093124732
0.11150,8.281429663
0.11200,12.85934578
0.11250,13.16454019
0.11300,7.976235255
0.11350,-1.179596976
0.11400,-10.64062361
0.11450,-14.91334532
0.11500,-12.47179006
0.11550,-8.504262761
0.11600,-8.199068353
0.11650,-10.64062361
0.11700,-10.94581802
0.11750,-8.504262761
0.11800,-6.062707499
0.11850,-6.062707499
0.11900,-6.367901907
0.11950,-5.147124276
0.12000,-2.400374607
0.12050,-0.264013753
0.12100,1.261958286
0.12150,2.177541509
0.12200,1.261958286
0.12250,0.04118065471
0.12300,0.04118065471
0.12350,1.261958286
0.12400,3.398319139
0.12450,4.61909677
0.12500,4.924291178
0.12550,4.924291178
0.12600,4.924291178
0.12650,4.008707955
0.12700,3.703513547
0.12750,3.703513547
0.12800,4.924291178
0.12850,5.534679993
0.12900,4.313902363
0.12950,0.6515694701
0.13000,-3.31595783
0.13050,-5.757513092
0.13100,-6.062707499
0.13150,-6.062707499
0.13200,-6.062707499
0.13250,-4.841929869
0.13300,-2.705569015
0.13350,-1.484791384
0.13400,-1.789985791
0.13450,-2.400374607
0.13500,-1.179596976
0.13550,0.04118065471
0.13600,0.3463750624
0.13650,0.04118065471
0.13700,0.04118065471
0.13750,0.3463750624
0.13800,0.9567638778
0.13850,0.9567638778
0.13900,1.567152693
0.13950,3.703513547
0.14000,4.313902363
0.14050,0.9567638778
0.14100,-3.31595783
0.14150,-3.926346645
0.14200,0.9567638778
0.14250,6.145068809
0.14300,5.534679993
0.14350,-0.264013753
0.14400,-7.28348513
0.14450,-10.94581802
0.14500,-10.33542921
0.14550,-7.28348513
0.14600,-1.484791384
0.14650,6.755457624
0.14700,14.69051222
0.14750,17.43726189
0.14800,11.94376256
0.14850,0.04118065471
0.14900,-9.419845984
0.14950,-10.94581802
0.15000,-5.452318684
0.15050,-0.264013753
0.15100,-0.5692081607
0.15150,-4.231541053
0.15200,-6.978290722
0.15250,-8.504262761
0.15300,-9.725040392
0.15350,-9.725040392
0.15400,-7.893873946
0.15450,-4.841929869
0.15500,-0.8744025684
0.15550,2.482735916
0.15600,4.313902363
0.15650,2.482735916
0.15700,-1.179596976
0.15750,-2.400374607
0.15800,1.872347101
0.15850,8.891818478
0.15900,13.16454019
0.15950,14.08012341
0.16000,11.94376256
0.16050,6.145068809
0.16100,-1.484791384
0.16150,-6.673096315
0.16200,-6.062707499
0.16250,-3.010763422
0.16300,-2.095180199
0.16350,-3.926346645
0.16400,-4.841929869
0.16450,-1.484791384
0.16500,3.703513547
0.16550,7.976235255
0.16600,8.58662407
0.16650,7.976235255
0.16700,7.671040847
0.16750,7.060652032
0.16800,3.093124732
0.16850,-3.31595783
0.16900,-7.28348513
0.16950,-3.31595783
0.17000,4.313902363
0.17050,8.58662407
0.17100,6.450263216
0.17150,3.093124732
0.17200,2.177541509
0.17250,0.6515694701
0.17300,-2.705569015
0.17350,-4.231541053
0.17400,0.04118065471
0.17450,6.145068809
0.17500,7.060652032
0.17550,1.261958286
0.17600,-6.673096315
0.17650,-12.77698447
0.17700,-16.13412295
0.17750,-16.74451177
0.17800,-13.38737328
0.17850,-6.978290722
0.17900,-3.010763422
0.17950,-5.147124276
0.18000,-10.64062361
0.18050,-12.47179006
0.18100,-7.588679538
0.18150,-0.5692081607
0.18200,1.567152693
0.18250,-1.179596976
0.18300,-5.147124276
0.18350,-4.841929869
0.18400,-1.789985791
0.18450,0.3463750624
0.18500,0.6515694701
0.18550,0.04118065471
0.18600,-0.264013753
0.18650,0.04118065471
0.18700,0.04118065471
0.18750,0.04118065471
0.18800,0.6515694701
0.18850,3.093124732
0.18900,6.450263216
0.18950,7.976235255
0.19000,5.534679993
0.19050,0.3463750624
0.19100,-3.31595783
0.19150,-3.010763422
0.19200,0.04118065471
0.19250,2.787930324
0.19300,4.924291178
0.19350,6.145068809
0.19400,5.839874401
0.19450,4.008707955
0.19500,2.177541509
0.19550,2.482735916
0.19600,4.008707955
0.19650,5.839874401
0.19700,6.755457624
0.19750,5.229485586
0.19800,-0.264013753
0.19850,-8.809457169
0.19900,-14.60815091
0.19950,-14.30295651
0.20000,-8.504262761
0.20050,-2.705569015
0.20100,-0.264013753
0.20150,0.04118065471
0.20200,0.3463750624
0.20250,2.482735916
0.20300,4.61909677
0.20350,4.924291178
0.20400,4.008707955
0.20450,3.398319139
0.20500,4.008707955
0.20550,4.008707955
0.20600,3.398319139
0.20650,3.398319139
0.20700,4.313902363
0.20750,5.839874401
0.20800,7.36584644
0.20850,7.671040847
0.20900,6.450263216
0.20950,2.787930324
0.21000,-1.484791384
0.21050,-4.536735461
0.21100,-3.31595783
0.21150,-0.8744025684
0.21200,0.3463750624
0.21250,0.3463750624
0.21300,0.6515694701
0.21350,0.3463750624
0.21400,-1.789985791
0.21450,-4.536735461
0.21500,-4.536735461
0.21550,-0.8744025684
0.21600,2.787930324
0.21650,4.313902363
0.21700,4.008707955
0.21750,3.398319139
0.21800,3.093124732
0.21850,2.177541509
0.21900,0.9567638778
0.21950,0.04118065471
0.22000,-0.264013753
0.22050,-0.5692081607
0.22100,-0.8744025684
0.22150,-0.264013753
0.22200,0.9567638778
0.22250,3.093124732
0.22300,4.924291178
0.22350,4.924291178
0.22400,3.703513547
0.22450,2.482735916
0.22500,2.177541509
0.22550,2.787930324
0.22600,3.093124732
0.22650,3.093124732
0.22700,3.093124732
0.22750,3.703513547
0.22800,3.093124732
0.22850,1.567152693
0.22900,0.04118065471
0.22950,0.04118065471
0.23000,1.567152693
0.23050,2.482735916
0.23100,1.872347101
0.23150,0.6515694701
0.23200,0.3463750624
0.23250,0.6515694701
0.23300,1.872347101
0.23350,2.482735916
0.23400,1.872347101
0.23450,-0.5692081607
0.23500,-3.621152238
0.23550,-5.147124276
0.23600,-4.841929869
0.23650,-3.926346645
0.23700,-3.010763422
0.23750,-1.789985791
0.23800,0.04118065471
0.23850,0.6515694701
0.23900,1.261958286
0.23950,1.872347101
0.24000,1.872347101
0.24050,0.6515694701
0.24100,0.04118065471
0.24150,1.567152693
0.24200,5.229485586
0.24250,6.450263216
0.24300,3.093124732
0.24350,-2.400374607
0.24400,-7.28348513
0.24450,-9.725040392
0.24500,-8.809457169
0.24550,-5.757513092
0.24600,-2.400374607
0.24650,-0.8744025684
0.24700,-0.264013753
0.24750,-0.264013753
0.24800,-2.095180199
0.24850,-6.062707499
0.24900,-8.504262761
0.24950,-7.28348513
0.25000,-5.147124276
0.25050,-3.926346645
0.25100,-2.705569015
0.25150,0.9567638778
0.25200,4.313902363
0.25250,3.093124732
0.25300,-0.8744025684
0.25350,-3.010763422
0.25400,-2.400374607
0.25450,-2.705569015
0.25500,-3.926346645
0.25550,-3.621152238
0.25600,-1.789985791
0.25650,-0.8744025684
0.25700,0.04118065471
0.25750,3.398319139
0.25800,7.36584644
0.25850,5.839874401
0.25900,-0.5692081607
0.25950,-4.841929869
0.26000,-4.231541053
0.26050,-3.621152238
0.26100,-6.367901907
0.26150,-8.809457169
0.26200,-6.062707499
0.26250,-1.484791384
0.26300,0.04118065471
0.26350,-0.5692081607
0.26400,0.3463750624
0.26450,4.313902363
0.26500,7.671040847
0.26550,9.197012886
0.26600,9.502207293
0.26650,7.060652032
0.26700,1.872347101
0.26750,-4.231541053
0.26800,-6.978290722
0.26850,-5.757513092
0.26900,-3.31595783
0.26950,-1.789985791
0.27000,-1.179596976
0.27050,-0.8744025684
0.27100,-1.179596976
0.27150,-1.484791384
0.27200,0.04118065471
0.27250,3.703513547
0.27300,7.36584644
0.27350,8.58662407
0.27400,8.58662407
0.27450,10.11259611
0.27500,11.33337374
0.27550,9.197012886
0.27600,5.229485586
0.27650,4.313902363
0.27700,5.839874401
0.27750,4.313902363
0.27800,-2.095180199
0.27850,-9.419845984
0.27900,-12.16659565
0.27950,-10.64062361
0.28000,-7.588679538
0.28050,-3.926346645
0.28100,0.3463750624
0.28150,4.924291178
0.28200,6.755457624
0.28250,7.060652032
0.28300,7.060652032
0.28350,5.534679993
0.28400,1.872347101
0.28450,-1.789985791
0.28500,-3.010763422
0.28550,-2.705569015
0.28600,-3.621152238
0.28650,-6.062707499
0.28700,-8.199068353
0.28750,-9.419845984
0.28800,-11.55620684
0.28850,-13.69256769
0.28900,-12.16659565
0.28950,-6.673096315
0.29000,-1.179596976
0.29050,0.04118065471
0.29100,-0.8744025684
0.29150,-0.8744025684
0.29200,0.04118065471
0.29250,1.261958286
0.29300,0.9567638778
0.29350,0.9567638778
0.29400,1.872347101
0.29450,2.482735916
0.29500,1.261958286
0.29550,0.04118065471
0.29600,-0.8744025684
0.29650,0.04118065471
0.29700,1.567152693
0.29750,3.398319139
0.29800,4.61909677
0.29850,3.703513547
0.29900,1.872347101
0.29950,0.3463750624
0.30000,0.6515694701
0.30050,1.567152693
0.30100,1.872347101
0.30150,0.9567638778
0.30200,-0.8744025684
0.30250,-2.705569015
0.30300,-2.400374607
0.30350,0.6515694701
0.30400,4.61909677
0.30450,4.924291178
0.30500,1.872347101
0.30550,-0.5692081607
0.30600,-0.264013753
0.30650,0.6515694701
0.30700,0.9567638778
0.30750,1.872347101
0.30800,5.229485586
0.30850,7.976235255
0.30900,7.060652032
0.30950,4.008707955
0.31000,2.482735916
0.31050,2.177541509
0.31100,0.9567638778
0.31150,-0.264013753
0.31200,0.04118065471
0.31250,2.482735916
0.31300,3.703513547
0.31350,3.703513547
0.31400,5.534679993
0.31450,9.807401701
0.31500,11.33337374
0.31550,6.755457624
0.31600,-1.484791384
0.31650,-8.809457169
0.31700,-12.77698447
0.31750,-13.08217888
0.31800,-9.419845984
0.31850,-4.536735461
0.31900,0.04118065471
0.31950,2.787930324
0.32000,3.398319139
0.32050,1.261958286
0.32100,-3.621152238
0.32150,-7.893873946
0.32200,-6.673096315
0.32250,-0.5692081607
0.32300,4.924291178
0.32350,7.671040847
0.32400,7.976235255
0.32450,8.58662407
0.32500,7.976235255
0.32550,4.924291178
0.32600,0.9567638778
0.32650,-0.5692081607
0.32700,0.3463750624
0.32750,2.177541509
0.32800,1.872347101
0.32850,-0.8744025684
0.32900,-5.757513092
0.32950,-10.33542921
0.33000,-12.16659565
0.33050,-10.94581802
0.33100,-8.504262761
0.33150,-5.757513092
0.33200,-2.095180199
0.33250,2.177541509
0.33300,6.145068809
0.33350,7.36584644
0.33400,6.450263216
0.33450,4.61909677
0.33500,3.398319139
0.33550,2.787930324
0.33600,2.787930324
0.33650,3.093124732
0.33700,2.177541509
0.33750,-1.484791384
0.33800,-7.28348513
0.33850,-10.94581802
0.33900,-9.725040392
0.33950,-6.062707499
0.34000,-2.095180199
0.34050,0.04118065471
0.34100,1.872347101
0.34150,2.177541509
0.34200,0.9567638778
0.34250,0.3463750624
0.34300,2.177541509
0.34350,4.924291178
0.34400,6.145068809
0.34450,4.924291178
0.34500,3.093124732
0.34550,1.567152693
0.34600,-0.264013753
0.34650,-2.400374607
0.34700,-3.010763422
0.34750,-1.484791384
0.34800,0.3463750624
0.34850,0.9567638778
0.34900,0.04118065471
0.34950,0.04118065471
0.35000,2.482735916
0.35050,6.145068809
0.35100,8.891818478
0.35150,9.197012886
0.35200,8.891818478
0.35250,9.197012886
0.35300,10.11259611
0.35350,7.976235255
0.35400,2.787930324
0.35450,-1.484791384
0.35500,-3.010763422
0.35550,-4.536735461
0.35600,-9.419845984
0.35650,-14.91334532
0.35700,-15.21853973
0.35750,-9.725040392
0.35800,-3.010763422
0.35850,0.04118065471
0.35900,0.04118065471
0.35950,-0.8744025684
0.36000,-0.5692081607
0.36050,0.04118065471
0.36100,0.6515694701
0.36150,1.567152693
0.36200,2.787930324
0.36250,4.008707955
0.36300,2.482735916
0.36350,-1.789985791
0.36400,-5.757513092
0.36450,-4.841929869
0.36500,0.04118065471
0.36550,2.787930324
0.36600,1.872347101
0.36650,0.9567638778
0.36700,2.482735916
0.36750,2.482735916
0.36800,-3.010763422
0.36850,-12.47179006
0.36900,-18.57567822
0.36950,-17.9652894
0.37000,-12.77698447
0.37050,-6.367901907
0.37100,-0.8744025684
0.37150,2.177541509
0.37200,2.787930324
0.37250,1.567152693
0.37300,0.9567638778
0.37350,1.567152693
0.37400,1.872347101
0.37450,1.872347101
0.37500,2.177541509
0.37550,1.872347101
0.37600,0.04118065471
0.37650,-2.400374607
0.37700,-2.705569015
0.37750,-0.5692081607
0.37800,1.567152693
0.37850,2.177541509
0.37900,1.567152693
0.37950,2.177541509
0.38000,3.703513547
0.38050,3.703513547
0.38100,3.398319139
0.38150,4.008707955
0.38200,6.145068809
0.38250,6.450263216
0.38300,3.703513547
0.38350,-0.5692081607
0.38400,-3.621152238
0.38450,-3.31595783
0.38500,-0.8744025684
0.38550,1.261958286
0.38600,1.567152693
0.38650,-0.264013753
0.38700,-3.31595783
0.38750,-4.231541053
0.38800,-2.095180199
0.38850,1.261958286
0.38900,4.61909677
0.38950,7.060652032
0.39000,7.060652032
0.39050,4.61909677
0.39100,0.3463750624
0.39150,-2.705569015
0.39200,-3.621152238
0.39250,-3.31595783
0.39300,-3.621152238
0.39350,-4.231541053
0.39400,-3.926346645
0.39450,-2.705569015
0.39500,-2.095180199
0.39550,-2.705569015
0.39600,-1.789985791
0.39650,0.6515694701
0.39700,2.787930324
0.39750,0.9567638778
0.39800,-2.705569015
0.39850,-4.841929869
0.39900,-2.705569015
0.39950,1.872347101
0.40000,5.839874401
0.40050,6.450263216
0.40100,2.177541509
0.40150,-5.452318684
0.40200,-12.16659565
0.40250,-12.77698447
0.40300,-6.978290722
0.40350,0.04118065471
0.40400,4.008707955
0.40450,4.313902363
0.40500,4.313902363
0.40550,5.534679993
0.40600,5.839874401
0.40650,4.008707955
0.40700,1.567152693
0.40750,1.261958286
0.40800,3.398319139
0.40850,4.61909677
0.40900,4.008707955
0.40950,3.398319139
0.41000,3.703513547
0.41050,2.787930324
0.41100,-1.179596976
0.41150,-6.367901907
0.41200,-8.809457169
0.41250,-8.504262761
0.41300,-7.28348513
0.41350,-5.757513092
0.41400,-2.705569015
0.41450,0.3463750624
0.41500,0.04118065471
0.41550,-4.841929869
0.41600,-8.504262761
0.41650,-6.978290722
0.41700,-3.010763422
0.41750,-0.8744025684
0.41800,-0.5692081607
0.41850,0.04118065471
0.41900,1.261958286
0.41950,1.872347101
0.42000,3.093124732
0.42050,4.924291178
0.42100,6.450263216
0.42150,7.36584644
0.42200,10.11259611
0.42250,14.69051222
0.42300,16.82687308
0.42350,13.46973459
0.42400,8.58662407
0.42450,7.36584644
0.42500,9.197012886
0.42550,9.502207293
0.42600,7.060652032
0.42650,5.839874401
0.42700,4.61909677
0.42750,-0.264013753
0.42800,-10.33542921
0.42850,-17.35490058
0.42900,-15.82892855
0.42950,-10.0302348
0.43000,-7.588679538
0.43050,-9.725040392
0.43100,-10.33542921
0.43150,-5.452318684
0.43200,1.261958286
0.43250,4.924291178
0.43300,4.313902363
0.43350,2.177541509
0.43400,0.04118065471
0.43450,-1.484791384
0.43500,-3.31595783
0.43550,-3.926346645
0.43600,-3.621152238
0.43650,-2.705569015
0.43700,-1.789985791
0.43750,-1.179596976
0.43800,-2.095180199
0.43850,-4.841929869
0.43900,-7.588679538
0.43950,-6.062707499
0.44000,0.04118065471
0.44050,7.671040847
0.44100,11.33337374
0.44150,10.11259611
0.44200,7.671040847
0.44250,5.839874401
0.44300,3.093124732
0.44350,-2.400374607
0.44400,-9.114651576
0.44450,-11.86140125
0.44500,-7.893873946
0.44550,-0.264013753
0.44600,5.839874401
0.44650,7.976235255
0.44700,6.145068809
0.44750,3.093124732
0.44800,0.9567638778
0.44850,0.04118065471
0.44900,-1.789985791
0.44950,-4.231541053
0.45000,-3.31595783
0.45050,0.3463750624
0.45100,3.703513547
0.45150,1.567152693
0.45200,-3.010763422
0.45250,-5.147124276
0.45300,-3.621152238
0.45350,-3.010763422
0.45400,-4.536735461
0.45450,-3.926346645
0.45500,0.3463750624
0.45550,5.229485586
0.45600,6.450263216
0.45650,5.534679993
0.45700,5.534679993
0.45750,6.450263216
0.45800,6.755457624
0.45850,7.060652032
0.45900,8.58662407
0.45950,9.807401701
0.46000,7.671040847
0.46050,3.703513547
0.46100,2.787930324
0.46150,4.924291178
0.46200,5.534679993
0.46250,3.093124732
0.46300,0.04118065471
0.46350,-2.095180199
0.46400,-4.536735461
0.46450,-7.588679538
0.46500,-9.725040392
0.46550,-8.809457169
0.46600,-7.893873946
0.46650,-9.114651576
0.46700,-11.25101243
0.46750,-9.725040392
0.46800,-4.841929869
0.46850,-0.5692081607
0.46900,-0.264013753
0.46950,-2.095180199
0.47000,-1.789985791
0.47050,0.04118065471
0.47100,2.482735916
0.47150,3.703513547
0.47200,3.093124732
0.47250,0.9567638778
0.47300,-0.5692081607
0.47350,0.9567638778
0.47400,7.060652032
0.47450,12.24895696
0.47500,12.24895696
0.47550,9.502207293
0.47600,9.197012886
0.47650,10.41779052
0.47700,7.060652032
0.47750,-1.789985791
0.47800,-10.64062361
0.47850,-14.60815091
0.47900,-16.13412295
0.47950,-18.57567822
0.48000,-19.18606703
0.48050,-13.9977621
0.48100,-4.841929869
0.48150,1.872347101
0.48200,3.398319139
0.48250,2.177541509
0.48300,0.6515694701
0.48350,0.04118065471
0.48400,-0.264013753
0.48450,0.3463750624
0.48500,2.177541509
0.48550,3.093124732
0.48600,3.093124732
0.48650,3.093124732
0.48700,3.398319139
0.48750,2.787930324
0.48800,2.482735916
0.48850,3.398319139
0.48900,4.313902363
0.48950,3.093124732
0.49000,0.04118065471
0.49050,-2.705569015
0.49100,-2.095180199
0.49150,0.3463750624
0.49200,4.008707955
0.49250,7.671040847
0.49300,10.41779052
0.49350,9.502207293
0.49400,4.008707955
0.49450,-3.010763422
0.49500,-6.062707499
0.49550,-3.926346645
0.49600,-1.484791384
0.49650,-1.484791384
0.49700,-3.010763422
0.49750,-2.705569015
0.49800,-1.789985791
0.49850,-3.621152238
0.49900,-6.673096315
0.49950,-7.588679538
0.50000,-4.231541053
0.50050,0.04118065471
0.50100,1.567152693
0.50150,3.093124732
0.50200,6.450263216
0.50250,9.197012886
0.50300,8.58662407
0.50350,4.313902363
0.50400,1.567152693
0.50450,2.787930324
0.50500,5.229485586
0.50550,6.145068809
0.50600,5.839874401
0.50650,5.839874401
0.50700,4.924291178
0.50750,1.872347101
0.50800,0.04118065471
0.50850,1.261958286
0.50900,5.229485586
0.50950,7.060652032
0.51000,4.924291178
0.51050,1.261958286
0.51100,-0.5692081607
0.51150,-2.705569015
0.51200,-6.673096315
0.51250,-11.55620684
0.51300,-13.08217888
0.51350,-9.114651576
0.51400,-2.705569015
0.51450,1.567152693
0.51500,2.482735916
0.51550,0.6515694701
0.51600,-2.095180199
0.51650,-3.621152238
0.51700,-2.400374607
0.51750,0.6515694701
0.51800,3.703513547
0.51850,4.313902363
0.51900,2.177541509
0.51950,-0.8744025684
0.52000,-3.010763422
0.52050,-2.400374607
0.52100,-0.5692081607
0.52150,0.3463750624
0.52200,0.6515694701
0.52250,0.6515694701
0.52300,-0.8744025684
0.52350,-5.147124276
0.52400,-7.893873946
0.52450,-5.147124276
0.52500,1.261958286
0.52550,4.924291178
0.52600,3.093124732
0.52650,0.3463750624
0.52700,0.04118065471
0.52750,-0.5692081607
0.52800,-4.536735461
0.52850,-8.809457169
0.52900,-7.893873946
0.52950,-3.31595783
0.53000,-0.5692081607
0.53050,-0.264013753
0.53100,0.04118065471
0.53150,1.261958286
0.53200,1.872347101
0.53250,1.261958286
0.53300,1.261958286
0.53350,2.177541509
0.53400,1.872347101
0.53450,0.6515694701
0.53500,1.567152693
0.53550,4.313902363
0.53600,5.839874401
0.53650,5.839874401
0.53700,6.145068809
0.53750,7.060652032
0.53800,5.839874401
0.53850,1.567152693
0.53900,-0.8744025684
0.53950,-0.5692081607
0.54000,-0.8744025684
0.54050,-4.536735461
0.54100,-9.725040392
0.54150,-9.419845984
0.54200,-3.926346645
0.54250,2.177541509
0.54300,4.924291178
0.54350,3.703513547
0.54400,1.567152693
0.54450,-0.264013753
0.54500,-1.484791384
0.54550,-3.31595783
0.54600,-6.062707499
0.54650,-7.588679538
0.54700,-4.231541053
0.54750,2.177541509
0.54800,6.755457624
0.54850,5.839874401
0.54900,1.261958286
0.54950,-2.400374607
0.55000,-4.536735461
0.55050,-4.536735461
0.55100,-1.179596976
0.55150,5.839874401
0.55200,13.16454019
0.55250,15.91128986
0.55300,14.69051222
0.55350,12.24895696
0.55400,8.281429663
0.55450,2.482735916
0.55500,-3.010763422
0.55550,-4.841929869
0.55600,-3.926346645
0.55650,-3.621152238
0.55700,-6.062707499
0.55750,-10.64062361
0.55800,-15.82892855
0.55850,-20.71203907
0.55900,-21.9328167
0.55950,-18.27048381
0.56000,-12.77698447
0.56050,-9.725040392
0.56100,-8.809457169
0.56150,-6.673096315
0.56200,-3.010763422
0.56250,0.04118065471
0.56300,1.261958286
0.56350,1.872347101
0.56400,1.872347101
0.56450,0.9567638778
0.56500,0.9567638778
0.56550,3.398319139
0.56600,6.450263216
0.56650,6.755457624
0.56700,5.229485586
0.56750,4.61909677
0.56800,5.229485586
0.56850,3.703513547
0.56900,-0.264013753
0.56950,-3.621152238
0.57000,-3.010763422
0.57050,-0.264013753
0.57100,1.872347101
0.57150,3.093124732
0.57200,4.008707955
0.57250,4.61909677
0.57300,3.703513547
0.57350,1.567152693
0.57400,-0.8744025684
0.57450,-2.705569015
0.57500,-2.400374607
0.57550,-0.264013753
0.57600,0.9567638778
0.57650,0.6515694701
0.57700,0.04118065471
0.57750,0.04118065471
0.57800,0.04118065471
0.57850,0.6515694701
0.57900,2.787930324
0.57950,5.229485586
0.58000,5.839874401
0.58050,2.787930324
0.58100,-1.179596976
0.58150,-3.010763422
0.58200,-0.264013753
0.58250,3.703513547
0.58300,6.755457624
0.58350,7.36584644
0.58400,6.755457624
0.58450,5.229485586
0.58500,3.398319139
0.58550,3.398319139
0.58600,4.61909677
0.58650,4.61909677
0.58700,2.177541509
0.58750,-0.8744025684
0.58800,-2.095180199
0.58850,-0.5692081607
0.58900,1.567152693
0.58950,4.008707955
0.59000,7.671040847
0.59050,11.94376256
0.59100,12.55415137
0.59150,7.060652032
0.59200,-1.179596976
0.59250,-8.199068353
0.59300,-12.47179006
0.59350,-13.69256769
0.59400,-11.86140125
0.59450,-6.978290722
0.59500,-3.010763422
0.59550,-3.621152238
0.59600,-8.199068353
0.59650,-11.86140125
0.59700,-11.86140125
0.59750,-9.725040392
0.59800,-7.588679538
0.59850,-6.367901907
0.59900,-4.231541053
0.59950,-0.8744025684
0.60000,2.177541509
0.60050,4.008707955
0.60100,4.008707955
0.60150,4.61909677
0.60200,7.060652032
0.60250,9.807401701
0.60300,10.11259611
0.60350,8.58662407
0.60400,7.36584644
0.60450,5.839874401
0.60500,3.398319139
0.60550,0.9567638778
0.60600,0.3463750624
0.60650,-1.484791384
0.60700,-7.893873946
0.60750,-13.69256769
0.60800,-10.33542921
0.60850,1.261958286
0.60900,9.807401701
0.60950,7.671040847
0.61000,0.6515694701
0.61050,-0.8744025684
0.61100,2.787930324
0.61150,5.229485586
0.61200,3.398319139
0.61250,-0.264013753
0.61300,-3.010763422
0.61350,-4.231541053
0.61400,-4.231541053
0.61450,-1.484791384
0.61500,2.177541509
0.61550,4.924291178
0.61600,5.229485586
0.61650,4.61909677
0.61700,4.61909677
0.61750,6.450263216
0.61800,8.281429663
0.61850,7.976235255
0.61900,5.839874401
0.61950,4.924291178
0.62000,5.229485586
0.62050,1.261958286
0.62100,-10.33542921
0.62150,-21.9328167
0.62200,-23.76398315
0.62250,-14.60815091
0.62300,-5.452318684
0.62350,-2.705569015
0.62400,-3.31595783
0.62450,-2.400374607
0.62500,-0.5692081607
0.62550,-0.5692081607
0.62600,0.04118065471
0.62650,3.703513547
0.62700,7.36584644
0.62750,6.450263216
0.62800,0.9567638778
0.62850,-3.621152238
0.62900,-4.231541053
0.62950,-2.095180199
0.63000,0.6515694701
0.63050,3.398319139
0.63100,4.008707955
0.63150,1.261958286
0.63200,-2.400374607
0.63250,-3.31595783
0.63300,-1.484791384
0.63350,1.261958286
0.63400,3.703513547
0.63450,5.839874401
0.63500,7.671040847
0.63550,6.755457624
0.63600,4.313902363
0.63650,2.482735916
0.63700,2.482735916
0.63750,2.482735916
0.63800,1.261958286
0.63850,0.3463750624
0.63900,0.9567638778
0.63950,0.6515694701
0.64000,-1.179596976
0.64050,-3.926346645
0.64100,-5.147124276
0.64150,-3.926346645
0.64200,-1.484791384
0.64250,1.261958286
0.64300,3.703513547
0.64350,4.924291178
0.64400,5.534679993
0.64450,6.450263216
0.64500,7.36584644
0.64550,7.976235255
0.64600,8.58662407
0.64650,10.41779052
0.64700,11.63856815
0.64750,9.502207293
0.64800,4.313902363
0.64850,-0.8744025684
0.64900,-2.705569015
0.64950,-1.179596976
0.65000,1.261958286
0.65050,2.787930324
0.65100,1.261958286
0.65150,-3.31595783
0.65200,-9.419845984
0.65250,-13.38737328
0.65300,-13.9977621
0.65350,-12.77698447
0.65400,-10.64062361
0.65450,-6.673096315
0.65500,-2.705569015
0.65550,-0.5692081607
0.65600,-0.8744025684
0.65650,-1.789985791
0.65700,-2.705569015
0.65750,-4.841929869
0.65800,-6.062707499
0.65850,-4.231541053
0.65900,-1.789985791
0.65950,-3.926346645
0.66000,-10.0302348
0.66050,-13.38737328
0.66100,-10.33542921
0.66150,-4.536735461
0.66200,-0.8744025684
0.66250,0.9567638778
0.66300,3.703513547
0.66350,6.145068809
0.66400,4.61909677
0.66450,-0.264013753
0.66500,-4.841929869
0.66550,-6.367901907
0.66600,-4.231541053
0.66650,-0.264013753
0.66700,3.703513547
0.66750,6.145068809
0.66800,5.229485586
0.66850,0.6515694701
0.66900,-4.536735461
0.66950,-7.893873946
0.67000,-6.978290722
0.67050,-3.010763422
0.67100,0.9567638778
0.67150,2.787930324
0.67200,3.093124732
0.67250,4.008707955
0.67300,5.229485586
0.67350,5.534679993
0.67400,4.008707955
0.67450,0.9567638778
0.67500,-1.789985791
0.67550,-4.536735461
0.67600,-5.147124276
0.67650,-3.621152238
0.67700,-2.400374607
0.67750,-2.400374607
0.67800,-2.095180199
0.67850,0.04118065471
0.67900,2.787930324
0.67950,4.008707955
0.68000,3.398319139
0.68050,2.787930324
0.68100,2.482735916
0.68150,0.6515694701
0.68200,-1.179596976
0.68250,-1.179596976
0.68300,0.9567638778
0.68350,4.61909677
0.68400,8.58662407
0.68450,11.94376256
0.68500,12.85934578
0.68550,10.72298492
0.68600,8.281429663
0.68650,8.281429663
0.68700,9.197012886
0.68750,7.976235255
0.68800,6.450263216
0.68850,6.755457624
0.68900,7.36584644
0.68950,4.313902363
0.69000,-0.8744025684
0.69050,-2.095180199
0.69100,0.9567638778
0.69150,2.177541509
0.69200,-3.010763422
0.69250,-11.55620684
0.69300,-15.21853973
0.69350,-12.77698447
0.69400,-8.199068353
0.69450,-5.147124276
0.69500,-3.926346645
0.69550,-4.536735461
0.69600,-6.673096315
0.69650,-8.199068353
0.69700,-6.062707499
0.69750,0.04118065471
0.69800,4.924291178
0.69850,5.229485586
0.69900,1.261958286
0.69950,-2.705569015
0.70000,-3.621152238
0.70050,-2.095180199
0.70100,-0.5692081607
0.70150,-0.5692081607
0.70200,-1.179596976
0.70250,-0.264013753
0.70300,1.872347101
0.70350,3.703513547
0.70400,4.008707955
0.70450,3.703513547
0.70500,3.093124732
0.70550,2.787930324
0.70600,2.177541509
0.70650,1.261958286
0.70700,1.261958286
0.70750,1.872347101
0.70800,2.482735916
0.70850,2.177541509
0.70900,1.872347101
0.70950,3.093124732
0.71000,5.839874401
0.71050,7.36584644
0.71100,6.755457624
0.71150,4.61909677
0.71200,2.177541509
0.71250,0.6515694701
0.71300,0.6515694701
0.71350,1.872347101
0.71400,2.787930324
0.71450,2.177541509
0.71500,0.04118065471
0.71550,-1.179596976
0.71600,-1.789985791
0.71650,-2.095180199
0.71700,-2.400374607
0.71750,-1.789985791
0.71800,-0.264013753
0.71850,0.3463750624
0.71900,-0.5692081607
0.71950,-2.400374607
0.72000,-2.095180199
0.72050,-1.179596976
0.72100,-1.484791384
0.72150,-2.705569015
0.72200,-2.095180199
0.72250,0.6515694701
0.72300,2.787930324
0.72350,2.177541509
0.72400,0.9567638778
0.72450,0.9567638778
0.72500,0.9567638778
0.72550,0.04118065471
0.72600,-0.264013753
0.72650,0.04118065471
0.72700,0.3463750624
0.72750,-1.179596976
0.72800,-3.621152238
0.72850,-3.010763422
0.72900,0.3463750624
0.72950,3.703513547
0.73000,3.093124732
0.73050,0.04118065471
0.73100,-1.789985791
0.73150,-1.484791384
0.73200,0.6515694701
0.73250,3.093124732
0.73300,4.008707955
0.73350,1.567152693
0.73400,-2.400374607
0.73450,-5.452318684
0.73500,-5.757513092
0.73550,-5.757513092
0.73600,-7.588679538
0.73650,-8.504262761
0.73700,-6.978290722
0.73750,-4.231541053
0.73800,-3.621152238
0.73850,-5.452318684
0.73900,-4.841929869
0.73950,0.04118065471
0.74000,4.008707955
0.74050,3.398319139
0.74100,-0.5692081607
0.74150,-2.400374607
0.74200,0.04118065471
0.74250,3.703513547
0.74300,3.093124732
0.74350,0.04118065471
0.74400,-1.789985791
0.74450,-0.5692081607
0.74500,-0.264013753
0.74550,-2.095180199
0.74600,-4.231541053
0.74650,-3.926346645
0.74700,-1.179596976
0.74750,0.6515694701
0.74800,1.567152693
0.74850,2.177541509
0.74900,2.787930324
0.74950,3.093124732
0.75000,3.093124732
0.75050,2.482735916
0.75100,1.567152693
0.75150,0.04118065471
0.75200,-1.484791384
0.75250,-1.179596976
0.75300,0.3463750624
0.75350,2.177541509
0.75400,1.261958286
0.75450,-1.484791384
0.75500,-4.536735461
0.75550,-5.452318684
0.75600,-4.231541053
0.75650,-1.789985791
0.75700,-0.264013753
0.75750,-0.5692081607
0.75800,-3.010763422
0.75850,-5.452318684
0.75900,-6.673096315
0.75950,-5.757513092
0.76000,-3.010763422
0.76050,-0.264013753
0.76100,0.3463750624
0.76150,-1.179596976
0.76200,-3.621152238
0.76250,-3.926346645
0.76300,-1.179596976
0.76350,1.567152693
0.76400,2.177541509
0.76450,1.567152693
0.76500,1.567152693
0.76550,2.482735916
0.76600,2.177541509
0.76650,-1.179596976
0.76700,-5.147124276
0.76750,-5.452318684
0.76800,-2.095180199
0.76850,0.6515694701
0.76900,1.872347101
0.76950,1.567152693
0.77000,2.177541509
0.77050,2.482735916
0.77100,0.9567638778
0.77150,-0.5692081607
0.77200,-0.5692081607
0.77250,1.261958286
0.77300,3.398319139
0.77350,5.229485586
0.77400,7.060652032
0.77450,8.891818478
0.77500,9.807401701
0.77550,9.197012886
0.77600,7.671040847
0.77650,6.755457624
0.77700,8.891818478
0.77750,13.46973459
0.77800,16.52167867
0.77850,12.55415137
0.77900,1.261958286
0.77950,-11.25101243
0.78000,-19.18606703
0.78050,-21.01723348
0.78100,-19.18606703
0.78150,-14.60815091
0.78200,-7.28348513
0.78250,-0.264013753
0.78300,2.787930324
0.78350,2.177541509
0.78400,0.9567638778
0.78450,0.6515694701
0.78500,0.6515694701
0.78550,-0.264013753
0.78600,-1.789985791
0.78650,-2.400374607
0.78700,-1.179596976
0.78750,0.6515694701
0.78800,1.872347101
0.78850,1.567152693
0.78900,0.04118065471
0.78950,-3.010763422
0.79000,-5.757513092
0.79050,-7.28348513
0.79100,-6.673096315
0.79150,-3.926346645
0.79200,0.3463750624
0.79250,5.229485586
0.79300,7.976235255
0.79350,7.976235255
0.79400,5.839874401
0.79450,3.703513547
0.79500,2.482735916
0.79550,1.872347101
0.79600,0.9567638778
0.79650,0.04118065471
0.79700,0.04118065471
0.79750,1.567152693
0.79800,3.093124732
0.79850,3.093124732
0.79900,2.482735916
0.79950,3.398319139
0.80000,5.229485586
0.80050,5.229485586
0.80100,2.177541509
0.80150,-0.8744025684
0.80200,-2.095180199
0.80250,-1.179596976
0.80300,-0.8744025684
0.80350,-0.264013753
0.80400,1.261958286
0.80450,4.313902363
0.80500,6.755457624
0.80550,7.36584644
0.80600,6.755457624
0.80650,6.450263216
0.80700,6.145068809
0.80750,5.534679993
0.80800,4.924291178
0.80850,4.313902363
0.80900,3.398319139
0.80950,1.872347101
0.81000,0.3463750624
0.81050,-0.264013753
0.81100,0.04118065471
0.81150,0.9567638778
0.81200,0.6515694701
0.81250,-0.264013753
0.81300,-1.484791384
0.81350,-2.400374607
0.81400,-4.841929869
0.81450,-7.893873946
0.81500,-8.199068353
0.81550,-4.841929869
0.81600,-2.095180199
0.81650,-2.095180199
0.81700,-2.705569015
0.81750,0.04118065471
0.81800,3.703513547
0.81850,4.008707955
0.81900,2.482735916
0.81950,3.093124732
0.82000,4.924291178
0.82050,2.787930324
0.82100,-3.010763422
0.82150,-6.673096315
0.82200,-3.31595783
0.82250,1.261958286
0.82300,3.093124732
0.82350,3.093124732
0.82400,4.61909677
0.82450,6.450263216
0.82500,5.229485586
0.82550,0.6515694701
0.82600,-3.926346645
0.82650,-7.28348513
0.82700,-8.809457169
0.82750,-7.588679538
0.82800,-4.231541053
0.82850,-2.095180199
0.82900,-3.621152238
0.82950,-7.893873946
0.83000,-11.25101243
0.83050,-11.55620684
0.83100,-8.809457169
0.83150,-4.536735461
0.83200,-0.8744025684
0.83250,0.9567638778
0.83300,0.9567638778
0.83350,-0.5692081607
0.83400,-2.705569015
0.83450,-3.621152238
0.83500,-2.400374607
0.83550,0.9567638778
0.83600,4.008707955
0.83650,4.61909677
0.83700,3.093124732
0.83750,2.177541509
0.83800,2.482735916
0.83850,2.177541509
0.83900,1.261958286
0.83950,0.6515694701
0.84000,1.261958286
0.84050,1.872347101
0.84100,1.872347101
0.84150,1.567152693
0.84200,2.177541509
0.84250,3.398319139
0.84300,4.008707955
0.84350,3.703513547
0.84400,3.703513547
0.84450,4.313902363
0.84500,5.839874401
0.84550,6.755457624
0.84600,7.060652032
0.84650,7.060652032
0.84700,6.450263216
0.84750,4.313902363
0.84800,0.6515694701
0.84850,-2.705569015
0.84900,-4.841929869
0.84950,-5.147124276
0.85000,-4.841929869
0.85050,-3.926346645
0.85100,-2.400374607
0.85150,-1.179596976
0.85200,-0.5692081607
0.85250,-0.264013753
0.85300,0.04118065471
0.85350,0.9567638778
0.85400,1.261958286
0.85450,0.6515694701
0.85500,-0.264013753
0.85550,-1.789985791
0.85600,-2.705569015
0.85650,-1.789985791
0.85700,-0.264013753
0.85750,0.04118065471
0.85800,-1.179596976
0.85850,-2.400374607
0.85900,-1.484791384
0.85950,1.261958286
0.86000,2.787930324
0.86050,1.872347101
0.86100,0.04118065471
0.86150,-0.5692081607
0.86200,0.3463750624
0.86250,0.6515694701
0.86300,-0.5692081607
0.86350,-2.095180199
0.86400,-1.484791384
0.86450,0.6515694701
0.86500,2.787930324
0.86550,2.177541509
0.86600,-0.264013753
0.86650,-3.621152238
0.86700,-5.452318684
0.86750,-4.536735461
0.86800,-2.095180199
0.86850,-0.5692081607
0.86900,-0.5692081607
0.86950,0.3463750624
0.87000,3.093124732
0.87050,5.839874401
0.87100,6.755457624
0.87150,6.450263216
0.87200,6.755457624
0.87250,7.060652032
0.87300,7.36584644
0.87350,9.197012886
0.87400,12.55415137
0.87450,13.16454019
0.87500,5.839874401
0.87550,-6.367901907
0.87600,-16.43931736
0.87650,-20.10165025
0.87700,-19.79645585
0.87750,-17.9652894
0.87800,-14.30295651
0.87850,-8.199068353
0.87900,-4.841929869
0.87950,-6.978290722
0.88000,-10.94581802
0.88050,-11.25101243
0.88100,-7.28348513
0.88150,-3.926346645
0.88200,-3.31595783
0.88250,-4.536735461
0.88300,-4.536735461
0.88350,-2.705569015
0.88400,0.04118065471
0.88450,1.567152693
0.88500,1.872347101
0.88550,1.872347101
0.88600,2.177541509
0.88650,2.482735916
0.88700,1.567152693
0.88750,0.9567638778
0.88800,3.398319139
0.88850,7.060652032
0.88900,8.281429663
0.88950,6.450263216
0.89000,4.313902363
0.89050,4.61909677
0.89100,5.839874401
0.89150,6.145068809
0.89200,6.145068809
0.89250,6.145068809
0.89300,4.61909677
0.89350,0.04118065471
0.89400,-5.452318684
0.89450,-6.978290722
0.89500,-5.147124276
0.89550,-4.536735461
0.89600,-6.978290722
0.89650,-9.114651576
0.89700,-8.199068353
0.89750,-4.536735461
0.89800,-2.705569015
0.89850,-3.621152238
0.89900,-4.536735461
0.89950,-3.926346645
0.90000,-3.31595783
0.90050,-3.926346645
0.90100,-4.536735461
0.90150,-2.705569015
0.90200,1.261958286
0.90250,4.924291178
0.90300,6.145068809
0.90350,5.534679993
0.90400,5.229485586
0.90450,5.229485586
0.90500,4.61909677
0.90550,3.093124732
0.90600,2.482735916
0.90650,4.008707955
0.90700,6.755457624
0.90750,8.281429663
0.90800,8.281429663
0.90850,7.060652032
0.90900,4.924291178
0.90950,3.398319139
0.91000,3.093124732
0.91050,4.008707955
0.91100,5.229485586
0.91150,5.534679993
0.91200,4.008707955
0.91250,1.567152693
0.91300,-0.5692081607
0.91350,-1.484791384
0.91400,-0.5692081607
0.91450,0.9567638778
0.91500,2.787930324
0.91550,3.703513547
0.91600,3.093124732
0.91650,1.872347101
0.91700,1.261958286
0.91750,0.9567638778
0.91800,-0.264013753
0.91850,-3.31595783
0.91900,-6.673096315
0.91950,-7.28348513
0.92000,-5.452318684
0.92050,-3.621152238
0.92100,-3.621152238
0.92150,-3.621152238
0.92200,-0.5692081607
0.92250,4.313902363
0.92300,7.976235255
0.92350,8.58662407
0.92400,7.976235255
0.92450,7.36584644
0.92500,6.145068809
0.92550,3.398319139
0.92600,0.04118065471
0.92650,-2.705569015
0.92700,-5.452318684
0.92750,-6.367901907
0.92800,-4.231541053
0.92850,0.3463750624
0.92900,3.093124732
0.92950,0.04118065471
0.93000,-6.978290722
0.93050,-12.47179006
0.93100,-13.69256769
0.93150,-11.55620684
0.93200,-7.893873946
0.93250,-3.010763422
0.93300,1.261958286
0.93350,3.398319139
0.93400,1.261958286
0.93450,-1.789985791
0.93500,-4.231541053
0.93550,-5.452318684
0.93600,-5.452318684
0.93650,-3.621152238
0.93700,0.04118065471
0.93750,2.177541509
0.93800,1.261958286
0.93850,-0.264013753
0.93900,-0.264013753
0.93950,0.04118065471
0.94000,-1.179596976
0.94050,-2.705569015
0.94100,-2.400374607
0.94150,-0.8744025684
0.94200,-0.8744025684
0.94250,-3.31595783
0.94300,-5.452318684
0.94350,-5.757513092
0.94400,-3.926346645
0.94450,-1.484791384
0.94500,0.04118065471
0.94550,-0.264013753
0.94600,-0.8744025684
0.94650,1.261958286
0.94700,7.36584644
0.94750,12.24895696
0.94800,11.33337374
0.94850,7.060652032
0.94900,3.703513547
0.94950,3.093124732
0.95000,3.398319139
0.95050,4.008707955
0.95100,5.839874401
0.95150,7.976235255
0.95200,7.976235255
0.95250,4.924291178
0.95300,1.567152693
0.95350,0.04118065471
0.95400,-0.264013753
0.95450,-0.5692081607
0.95500,0.3463750624
0.95550,2.482735916
0.95600,4.313902363
0.95650,4.008707955
0.95700,2.482735916
0.95750,1.872347101
0.95800,2.787930324
0.95850,3.398319139
0.95900,2.787930324
0.95950,1.567152693
0.96000,0.3463750624
0.96050,-0.8744025684
0.96100,-2.705569015
0.96150,-4.841929869
0.96200,-5.757513092
0.96250,-4.536735461
0.96300,-2.095180199
0.96350,-0.5692081607
0.96400,-1.179596976
0.96450,-2.705569015
0.96500,-3.621152238
0.96550,-3.926346645
0.96600,-4.231541053
0.96650,-4.841929869
0.96700,-3.010763422
0.96750,1.261958286
0.96800,5.534679993
0.96850,5.229485586
0.96900,0.9567638778
0.96950,-2.705569015
0.97000,-2.095180199
0.97050,0.04118065471
0.97100,0.04118065471
0.97150,-2.400374607
0.97200,-3.010763422
0.97250,0.04118065471
0.97300,2.177541509
0.97350,2.482735916
0.97400,2.787930324
0.97450,5.229485586
0.97500,6.450263216
0.97550,2.787930324
0.97600,-3.621152238
0.97650,-7.588679538
0.97700,-8.504262761
0.97750,-8.199068353
0.97800,-8.199068353
0.97850,-6.673096315
0.97900,-4.231541053
0.97950,-2.705569015
0.98000,-2.095180199
0.98050,-0.5692081607
0.98100,1.872347101
0.98150,3.093124732
0.98200,2.177541509
0.98250,0.6515694701
0.98300,-0.264013753
0.98350,-0.5692081607
0.98400,-0.5692081607
0.98450,0.3463750624
0.98500,2.482735916
0.98550,4.008707955
0.98600,4.61909677
0.98650,5.229485586
0.98700,5.229485586
0.98750,4.313902363
0.98800,3.093124732
0.98850,2.482735916
0.98900,2.482735916
0.98950,2.787930324
0.99000,3.398319139
0.99050,4.313902363
0.99100,4.924291178
0.99150,4.61909677
0.99200,3.398319139
0.99250,2.177541509
0.99300,0.6515694701
0.99350,-0.5692081607
0.99400,-0.5692081607
0.99450,1.261958286
0.99500,2.787930324
0.99550,1.261958286
0.99600,-0.8744025684
0.99650,-1.484791384
0.99700,0.04118065471
0.99750,0.6515694701
0.99800,0.04118065471
0.99850,-1.179596976
0.99900,-0.8744025684
0.99950,0.3463750624
1.00000,2.177541509
1.00050,4.313902363
1.00100,5.839874401
1.00150,5.229485586
1.00200,1.261958286
1.00250,-3.926346645
1.00300,-8.199068353
1.00350,-9.419845984
1.00400,-7.588679538
1.00450,-3.621152238
1.00500,0.9567638778
1.00550,4.313902363
1.00600,4.008707955
1.00650,0.04118065471
1.00700,-5.452318684
1.00750,-8.199068353
1.00800,-6.673096315
1.00850,-4.231541053
1.00900,-5.147124276
1.00950,-6.978290722
1.01000,-5.757513092
1.01050,-0.264013753
1.01100,4.61909677
1.01150,6.450263216
1.01200,4.61909677
1.01250,1.872347101
1.01300,0.04118065471
1.01350,-1.179596976
1.01400,-1.179596976
1.01450,0.04118065471
1.01500,1.567152693
1.01550,1.567152693
1.01600,0.3463750624
1.01650,0.04118065471
1.01700,1.261958286
1.01750,3.398319139
1.01800,5.229485586
1.01850,5.534679993
1.01900,2.787930324
1.01950,-3.010763422
1.02000,-8.199068353
1.02050,-8.809457169
1.02100,-5.452318684
1.02150,-3.621152238
1.02200,-5.757513092
1.02250,-7.28348513
1.02300,-2.400374607
1.02350,4.924291178
1.02400,7.36584644
1.02450,3.093124732
1.02500,-2.400374607
1.02550,-4.536735461
1.02600,-3.926346645
1.02650,-3.31595783
1.02700,-1.484791384
1.02750,2.482735916
1.02800,5.534679993
1.02850,3.398319139
1.02900,-1.789985791
1.02950,-4.536735461
1.03000,-3.621152238
1.03050,-2.705569015
1.03100,-4.231541053
1.03150,-5.147124276
1.03200,-3.621152238
1.03250,-0.5692081607
1.03300,0.6515694701
1.03350,0.6515694701
1.03400,0.9567638778
1.03450,2.482735916
1.03500,3.703513547
1.03550,2.787930324
1.03600,0.04118065471
1.03650,-3.010763422
1.03700,-4.536735461
1.03750,-2.095180199
1.03800,3.093124732
1.03850,8.891818478
1.03900,11.02817933
1.03950,7.36584644
1.04000,0.04118065471
1.04050,-5.757513092
1.04100,-6.673096315
1.04150,-3.621152238
1.04200,-0.5692081607
1.04250,0.3463750624
1.04300,1.261958286
1.04350,2.482735916
1.04400,3.398319139
1.04450,3.703513547
1.04500,5.229485586
1.04550,8.281429663
1.04600,10.11259611
1.04650,8.58662407
1.04700,3.703513547
1.04750,-0.5692081607
1.04800,-3.010763422
1.04850,-2.705569015
1.04900,0.04118065471
1.04950,4.61909677
1.05000,7.36584644
1.05050,6.755457624
1.05100,2.787930324
1.05150,-0.8744025684
1.05200,-3.31595783
1.05250,-4.536735461
1.05300,-4.231541053
1.05350,-2.705569015
1.05400,-0.5692081607
1.05450,0.6515694701
1.05500,0.3463750624
1.05550,0.04118065471
1.05600,0.04118065471
1.05650,0.3463750624
1.05700,0.04118065471
1.05750,0.04118065471
1.05800,-0.264013753
1.05850,-1.484791384
1.05900,-4.536735461
1.05950,-6.367901907
1.06000,-3.31595783
1.06050,2.787930324
1.06100,6.145068809
1.06150,3.703513547
1.06200,-0.264013753
1.06250,-0.8744025684
1.06300,1.872347101
1.06350,3.093124732
1.06400,0.04118065471
1.06450,-5.757513092
1.06500,-12.16659565
1.06550,-17.9652894
1.06600,-20.71203907
1.06650,-17.66009499
1.06700,-11.25101243
1.06750,-5.757513092
1.06800,-3.621152238
1.06850,-2.095180199
1.06900,-0.264013753
1.06950,0.6515694701
1.07000,0.04118065471
1.07050,-0.264013753
1.07100,0.9567638778
1.07150,3.398319139
1.07200,4.313902363
1.07250,5.534679993
1.07300,8.281429663
1.07350,10.72298492
1.07400,10.72298492
1.07450,7.976235255
1.07500,5.534679993
1.07550,4.313902363
1.07600,3.398319139
1.07650,1.567152693
1.07700,0.04118065471
1.07750,0.3463750624
1.07800,0.6515694701
1.07850,-0.8744025684
1.07900,-4.231541053
1.07950,-6.062707499
1.08000,-4.231541053
1.08050,-2.095180199
1.08100,-2.095180199
1.08150,-3.926346645
1.08200,-4.231541053
1.08250,-2.400374607
1.08300,-0.264013753
1.08350,0.04118065471
1.08400,0.04118065471
1.08450,0.6515694701
1.08500,2.177541509
1.08550,4.313902363
1.08600,4.61909677
1.08650,4.008707955
1.08700,3.703513547
1.08750,4.924291178
1.08800,5.839874401
1.08850,4.924291178
1.08900,2.482735916
1.08950,0.6515694701
1.09000,0.9567638778
1.09050,1.261958286
1.09100,0.04118065471
1.09150,-1.789985791
1.09200,-1.789985791
1.09250,-1.179596976
1.09300,-1.789985791
1.09350,-3.31595783
1.09400,-4.231541053
1.09450,-2.705569015
1.09500,0.04118065471
1.09550,2.787930324
1.09600,4.61909677
1.09650,5.229485586
1.09700,5.229485586
1.09750,4.924291178
1.09800,4.924291178
1.09850,5.534679993
1.09900,6.755457624
1.09950,8.58662407
1.10000,10.11259611
1.10050,10.11259611
1.10100,8.281429663
1.10150,4.924291178
1.10200,1.567152693
1.10250,-2.095180199
1.10300,-5.147124276
1.10350,-5.147124276
1.10400,-2.705569015
1.10450,-1.179596976
1.10500,-3.621152238
1.10550,-7.588679538
1.10600,-7.893873946
1.10650,-2.705569015
1.10700,3.093124732
1.10750,4.924291178
1.10800,3.093124732
1.10850,0.6515694701
1.10900,0.04118065471
1.10950,0.6515694701
1.11000,0.9567638778
1.11050,1.567152693
1.11100,2.177541509
1.11150,1.567152693
1.11200,-0.8744025684
1.11250,-3.926346645
1.11300,-4.536735461
1.11350,-2.705569015
1.11400,-0.8744025684
1.11450,-1.179596976
1.11500,-2.705569015
1.11550,-2.705569015
1.11600,-1.789985791
1.11650,-0.5692081607
1.11700,0.04118065471
1.11750,0.3463750624
1.11800,0.04118065471
1.11850,-1.789985791
1.11900,-5.147124276
1.11950,-6.978290722
1.12000,-5.757513092
1.12050,-3.926346645
1.12100,-3.31595783
1.12150,-4.231541053
1.12200,-4.841929869
1.12250,-4.841929869
1.12300,-3.621152238
1.12350,-1.789985791
1.12400,-0.5692081607
1.12450,-0.5692081607
1.12500,-1.179596976
1.12550,-0.8744025684
1.12600,0.04118065471
1.12650,0.04118065471
1.12700,-1.789985791
1.12750,-2.400374607
1.12800,-0.8744025684
1.12850,1.567152693
1.12900,2.787930324
1.12950,2.177541509
1.13000,0.6515694701
1.13050,-0.5692081607
1.13100,-0.5692081607
1.13150,0.6515694701
1.13200,3.093124732
1.13250,4.313902363
1.13300,3.093124732
1.13350,1.261958286
1.13400,0.6515694701
1.13450,1.567152693
1.13500,2.482735916
1.13550,1.567152693
1.13600,-0.264013753
1.13650,-1.789985791
1.13700,-2.705569015
1.13750,-2.400374607
1.13800,-1.789985791
1.13850,-0.5692081607
1.13900,0.6515694701
1.13950,2.177541509
1.14000,3.093124732
1.14050,2.787930324
1.14100,2.787930324
1.14150,3.398319139
1.14200,4.008707955
1.14250,4.924291178
1.14300,6.145068809
1.14350,7.671040847
1.14400,7.976235255
1.14450,5.229485586
1.14500,0.3463750624
1.14550,-3.010763422
1.14600,-3.31595783
1.14650,-2.095180199
1.14700,-1.179596976
1.14750,-1.179596976
1.14800,-0.264013753
1.14850,0.04118065471
1.14900,-2.095180199
1.14950,-7.893873946
1.15000,-12.47179006
1.15050,-10.64062361
1.15100,-3.926346645
1.15150,1.567152693
1.15200,2.482735916
1.15250,1.261958286
1.15300,2.177541509
1.15350,4.313902363
1.15400,4.61909677
1.15450,3.703513547
1.15500,3.093124732
1.15550,3.398319139
1.15600,1.567152693
1.15650,-2.400374607
1.15700,-7.588679538
1.15750,-10.64062361
1.15800,-12.47179006
1.15850,-13.38737328
1.15900,-12.16659565
1.15950,-8.504262761
1.16000,-3.31595783
1.16050,0.6515694701
1.16100,2.482735916
1.16150,3.093124732
1.16200,2.482735916
1.16250,0.6515694701
1.16300,-0.8744025684
1.16350,-1.179596976
1.16400,1.261958286
1.16450,5.839874401
1.16500,9.197012886
1.16550,11.33337374
1.16600,11.63856815
1.16650,9.197012886
1.16700,1.872347101
1.16750,-8.199068353
1.16800,-15.21853973
1.16850,-13.69256769
1.16900,-6.978290722
1.16950,-2.095180199
1.17000,-1.484791384
1.17050,-1.484791384
1.17100,-0.5692081607
1.17150,-0.5692081607
1.17200,-2.095180199
1.17250,-2.095180199
1.17300,0.9567638778
1.17350,3.703513547
1.17400,1.872347101
1.17450,-2.095180199
1.17500,-4.231541053
1.17550,-2.705569015
1.17600,-0.5692081607
1.17650,0.3463750624
1.17700,1.567152693
1.17750,2.787930324
1.17800,3.703513547
1.17850,4.008707955
1.17900,3.703513547
1.17950,3.093124732
1.18000,2.787930324
1.18050,2.787930324
1.18100,3.398319139
1.18150,3.398319139
1.18200,3.398319139
1.18250,3.703513547
1.18300,4.008707955
1.18350,3.703513547
1.18400,2.787930324
1.18450,1.567152693
1.18500,0.9567638778
1.18550,0.3463750624
1.18600,0.3463750624
1.18650,1.872347101
1.18700,4.008707955
1.18750,4.008707955
1.18800,2.177541509
1.18850,0.6515694701
1.18900,0.9567638778
1.18950,2.177541509
1.19000,2.787930324
1.19050,2.177541509
1.19100,1.567152693
1.19150,1.872347101
1.19200,2.177541509
1.19250,1.872347101
1.19300,0.3463750624
1.19350,-1.179596976
1.19400,-1.179596976
1.19450,-0.5692081607
1.19500,-0.5692081607
1.19550,-0.8744025684
1.19600,0.04118065471
1.19650,1.567152693
1.19700,2.482735916
1.19750,1.872347101
1.19800,2.482735916
1.19850,5.534679993
1.19900,5.839874401
1.19950,0.6515694701
1.20000,-6.062707499
1.20050,-9.114651576
1.20100,-9.114651576
1.20150,-10.64062361
1.20200,-13.38737328
1.20250,-12.16659565
1.20300,-5.147124276
1.20350,2.177541509
1.20400,5.229485586
1.20450,4.924291178
1.20500,4.313902363
1.20550,2.787930324
1.20600,0.6515694701
1.20650,0.3463750624
1.20700,3.093124732
1.20750,6.755457624
1.20800,6.450263216
1.20850,3.093124732
1.20900,0.6515694701
1.20950,2.787930324
1.21000,7.976235255
1.21050,12.85934578
1.21100,14.38531782
1.21150,12.55415137
1.21200,7.671040847
1.21250,1.872347101
1.21300,-3.010763422
1.21350,-5.452318684
1.21400,-5.147124276
1.21450,-4.231541053
1.21500,-4.536735461
1.21550,-6.367901907
1.21600,-8.199068353
1.21650,-8.504262761
1.21700,-7.588679538
1.21750,-5.452318684
1.21800,-3.31595783
1.21850,-1.789985791
1.21900,-3.010763422
1.21950,-6.367901907
1.22000,-10.0302348
1.22050,-11.25101243
1.22100,-8.809457169
1.22150,-4.536735461
1.22200,-0.5692081607
1.22250,1.872347101
1.22300,3.703513547
1.22350,4.313902363
1.22400,3.093124732
1.22450,0.3463750624
1.22500,-1.484791384
1.22550,-1.789985791
1.22600,-1.789985791
1.22650,-2.400374607
1.22700,-2.705569015
1.22750,-1.484791384
1.22800,0.6515694701
1.22850,1.567152693
1.22900,1.261958286
1.22950,1.261958286
1.23000,1.567152693
1.23050,0.3463750624
1.23100,-1.789985791
1.23150,-1.789985791
1.23200,0.9567638778
1.23250,3.398319139
1.23300,2.787930324
1.23350,0.6515694701
1.23400,0.04118065471
1.23450,0.6515694701
1.23500,0.6515694701
1.23550,0.04118065471
1.23600,0.04118065471
1.23650,0.6515694701
1.23700,0.6515694701
1.23750,0.04118065471
1.23800,0.04118065471
1.23850,0.6515694701
1.23900,1.261958286
1.23950,1.872347101
1.24000,2.787930324
1.24050,4.008707955
1.24100,4.313902363
1.24150,3.398319139
1.24200,3.398319139
1.24250,4.313902363
1.24300,3.703513547
1.24350,1.261958286
1.24400,-0.264013753
1.24450,-1.179596976
1.24500,-2.400374607
1.24550,-4.536735461
1.24600,-5.757513092
1.24650,-4.536735461
1.24700,-1.789985791
1.24750,0.3463750624
1.24800,1.872347101
1.24850,3.398319139
1.24900,4.924291178
1.24950,5.534679993
1.25000,4.61909677
1.25050,2.177541509
1.25100,-1.179596976
1.25150,-3.926346645
1.25200,-4.536735461
1.25250,-3.010763422
1.25300,-2.705569015
1.25350,-3.926346645
1.25400,-5.452318684
1.25450,-5.452318684
1.25500,-5.147124276
1.25550,-5.147124276
1.25600,-3.621152238
1.25650,0.6515694701
1.25700,5.229485586
1.25750,6.450263216
1.25800,3.398319139
1.25850,0.04118065471
1.25900,-0.8744025684
1.25950,-1.179596976
1.26000,-1.484791384
1.26050,-2.095180199
1.26100,-2.705569015
1.26150,-3.621152238
1.26200,-5.452318684
1.26250,-6.978290722
1.26300,-6.673096315
1.26350,-4.536735461
1.26400,-1.484791384
1.26450,0.04118065471
1.26500,0.9567638778
1.26550,1.261958286
1.26600,2.177541509
1.26650,3.093124732
1.26700,3.703513547
1.26750,3.398319139
1.26800,2.787930324
1.26850,2.482735916
1.26900,2.482735916
1.26950,2.482735916
1.27000,3.093124732
1.27050,3.703513547
1.27100,4.008707955
1.27150,3.093124732
1.27200,1.872347101
1.27250,1.872347101
1.27300,3.093124732
1.27350,4.924291178
1.27400,5.839874401
1.27450,5.229485586
1.27500,4.61909677
1.27550,4.924291178
1.27600,5.534679993
1.27650,4.008707955
1.27700,-1.179596976
1.27750,-7.893873946
1.27800,-10.64062361
1.27850,-8.199068353
1.27900,-4.231541053
1.27950,-1.484791384
1.28000,0.04118065471
1.28050,1.567152693
1.28100,0.3463750624
1.28150,-2.400374607
1.28200,-2.705569015
1.28250,1.261958286
1.28300,5.534679993
1.28350,3.703513547
1.28400,-2.095180199
1.28450,-6.673096315
1.28500,-7.893873946
1.28550,-9.419845984
1.28600,-11.55620684
1.28650,-10.33542921
1.28700,-5.147124276
1.28750,-0.264013753
1.28800,1.567152693
1.28850,2.482735916
1.28900,3.703513547
1.28950,4.313902363
1.29000,2.482735916
1.29050,0.9567638778
1.29100,2.177541509
1.29150,4.313902363
1.29200,3.703513547
1.29250,1.261958286
1.29300,0.3463750624
1.29350,1.872347101
1.29400,2.482735916
1.29450,0.04118065471
1.29500,-2.705569015
1.29550,-3.621152238
1.29600,-1.179596976
1.29650,1.872347101
1.29700,4.924291178
1.29750,7.060652032
1.29800,7.060652032
1.29850,4.924291178
1.29900,3.093124732
1.29950,3.703513547
1.30000,4.313902363
1.30050,2.482735916
1.30100,-1.789985791
1.30150,-4.231541053
1.30200,-2.400374607
1.30250,0.3463750624
1.30300,1.261958286
1.30350,0.3463750624
1.30400,1.261958286
1.30450,4.313902363
1.30500,6.145068809
1.30550,5.229485586
1.30600,2.787930324
1.30650,0.3463750624
1.30700,-1.179596976
1.30750,-3.010763422
1.30800,-3.31595783
1.30850,-1.789985791
1.30900,0.3463750624
1.30950,2.177541509
1.31000,3.093124732
1.31050,3.703513547
1.31100,4.61909677
1.31150,4.924291178
1.31200,4.008707955
1.31250,1.567152693
1.31300,-1.179596976
1.31350,-4.231541053
1.31400,-6.062707499
1.31450,-6.673096315
1.31500,-4.841929869
1.31550,-0.264013753
1.31600,4.008707955
1.31650,5.229485586
1.31700,2.787930324
1.31750,-0.264013753
1.31800,-1.484791384
1.31850,-0.5692081607
1.31900,0.6515694701
1.31950,1.872347101
1.32000,3.093124732
1.32050,4.008707955
1.32100,3.703513547
1.32150,1.567152693
1.32200,-1.484791384
1.32250,-5.147124276
1.32300,-7.893873946
1.32350,-8.504262761
1.32400,-5.757513092
1.32450,-1.484791384
1.32500,0.9567638778
1.32550,1.872347101
1.32600,1.872347101
1.32650,0.9567638778
1.32700,-1.179596976
1.32750,-4.231541053
1.32800,-5.452318684
1.32850,-3.010763422
1.32900,0.3463750624
1.32950,1.567152693
1.33000,0.3463750624
1.33050,-0.264013753
1.33100,0.6515694701
1.33150,1.567152693
1.33200,0.9567638778
1.33250,0.04118065471
1.33300,0.3463750624
1.33350,0.9567638778
1.33400,0.3463750624
1.33450,-0.5692081607
1.33500,-0.8744025684
1.33550,-0.264013753
1.33600,-0.8744025684
1.33650,-2.705569015
1.33700,-3.621152238
1.33750,-1.789985791
1.33800,0.3463750624
1.33850,0.04118065471
1.33900,-2.400374607
1.33950,-4.536735461
1.34000,-3.621152238
1.34050,-0.8744025684
1.34100,0.9567638778
1.34150,1.567152693
1.34200,2.177541509
1.34250,1.567152693
1.34300,-0.5692081607
1.34350,-4.841929869
1.34400,-8.504262761
1.34450,-9.419845984
1.34500,-8.809457169
1.34550,-7.588679538
1.34600,-4.841929869
1.34650,-1.179596976
1.34700,1.261958286
1.34750,2.177541509
1.34800,2.482735916
1.34850,2.787930324
1.34900,2.482735916
1.34950,1.261958286
1.35000,1.261958286
1.35050,4.008707955
1.35100,7.060652032
1.35150,7.36584644
1.35200,6.755457624
1.35250,7.976235255
1.35300,9.807401701
1.35350,7.36584644
1.35400,0.9567638778
1.35450,-4.231541053
1.35500,-5.452318684
1.35550,-3.926346645
1.35600,-3.31595783
1.35650,-3.926346645
1.35700,-3.926346645
1.35750,-3.31595783
1.35800,-3.926346645
1.35850,-4.536735461
1.35900,-3.010763422
1.35950,0.3463750624
1.36000,4.313902363
1.36050,6.145068809
1.36100,4.61909677
1.36150,1.567152693
1.36200,-1.179596976
1.36250,-2.400374607
1.36300,-2.400374607
1.36350,-2.095180199
1.36400,-1.179596976
1.36450,0.3463750624
1.36500,0.9567638778
1.36550,0.04118065471
1.36600,-0.8744025684
1.36650,0.9567638778
1.36700,4.924291178
1.36750,6.450263216
1.36800,4.61909677
1.36850,2.482735916
1.36900,4.008707955
1.36950,8.281429663
1.37000,11.02817933
1.37050,10.72298492
1.37100,7.976235255
1.37150,4.924291178
1.37200,4.313902363
1.37250,7.060652032
1.37300,9.807401701
1.37350,7.976235255
1.37400,0.6515694701
1.37450,-6.978290722
1.37500,-11.86140125
1.37550,-14.60815091
1.37600,-16.43931736
1.37650,-15.52373414
1.37700,-10.64062361
1.37750,-4.536735461
1.37800,-0.8744025684
1.37850,0.3463750624
1.37900,1.567152693
1.37950,2.787930324
1.38000,1.567152693
1.38050,-0.5692081607
1.38100,-1.789985791
1.38150,-1.179596976
1.38200,-1.179596976
1.38250,-1.789985791
1.38300,-1.789985791
1.38350,-1.484791384
1.38400,-2.705569015
1.38450,-4.841929869
1.38500,-5.452318684
1.38550,-3.926346645
1.38600,-2.095180199
1.38650,-1.484791384
1.38700,-0.8744025684
1.38750,0.6515694701
1.38800,2.482735916
1.38850,4.008707955
1.38900,6.450263216
1.38950,9.197012886
1.39000,11.02817933
1.39050,11.33337374
1.39100,11.94376256
1.39150,11.33337374
1.39200,7.671040847
1.39250,2.787930324
1.39300,0.6515694701
1.39350,2.787930324
1.39400,4.924291178
1.39450,2.787930324
1.39500,-1.484791384
1.39550,-5.147124276
1.39600,-8.809457169
1.39650,-13.69256769
1.39700,-18.27048381
1.39750,-18.88087262
1.39800,-17.04970618
1.39850,-16.74451177
1.39900,-16.74451177
1.39950,-13.08217888
1.40000,-6.673096315
1.40050,-2.705569015
1.40100,-3.926346645
1.40150,-6.673096315
1.40200,-7.588679538
1.40250,-6.062707499
1.40300,-3.926346645
1.40350,-0.8744025684
1.40400,2.177541509
1.40450,4.008707955
1.40500,2.482735916
1.40550,0.04118065471
1.40600,0.04118065471
1.40650,1.261958286
1.40700,2.177541509
1.40750,2.177541509
1.40800,1.567152693
1.40850,1.567152693
1.40900,2.482735916
1.40950,3.093124732
1.41000,3.398319139
1.41050,3.398319139
1.41100,3.703513547
1.41150,4.008707955
1.41200,4.008707955
1.41250,4.008707955
1.41300,4.61909677
1.41350,5.839874401
1.41400,7.060652032
1.41450,7.976235255
1.41500,8.281429663
1.41550,7.36584644
1.41600,4.924291178
1.41650,1.872347101
1.41700,0.04118065471
1.41750,0.3463750624
1.41800,1.261958286
1.41850,1.261958286
1.41900,0.9567638778
1.41950,1.872347101
1.42000,3.703513547
1.42050,4.61909677
1.42100,3.398319139
1.42150,1.872347101
1.42200,1.261958286
1.42250,2.482735916
1.42300,4.008707955
1.42350,4.61909677
1.42400,4.008707955
1.42450,2.177541509
1.42500,0.3463750624
1.42550,-0.8744025684
1.42600,-2.400374607
1.42650,-3.010763422
1.42700,-2.095180199
1.42750,-0.5692081607
1.42800,0.04118065471
1.42850,0.04118065471
1.42900,0.3463750624
1.42950,0.6515694701
1.43000,0.6515694701
1.43050,0.6515694701
1.43100,2.177541509
1.43150,4.61909677
1.43200,5.839874401
1.43250,4.924291178
1.43300,3.093124732
1.43350,2.482735916
1.43400,3.703513547
1.43450,5.229485586
1.43500,7.36584644
1.43550,8.891818478
1.43600,7.976235255
1.43650,4.313902363
1.43700,0.3463750624
1.43750,-0.5692081607
1.43800,0.3463750624
1.43850,2.177541509
1.43900,3.093124732
1.43950,2.482735916
1.44000,0.04118065471
1.44050,-3.621152238
1.44100,-5.147124276
1.44150,-4.231541053
1.44200,-2.705569015
1.44250,-3.010763422
1.44300,-4.841929869
1.44350,-6.978290722
1.44400,-8.504262761
1.44450,-11.25101243
1.44500,-15.52373414
1.44550,-18.57567822
1.44600,-17.66009499
1.44650,-12.16659565
1.44700,-4.536735461
1.44750,0.6515694701
1.44800,1.872347101
1.44850,0.04118065471
1.44900,-0.8744025684
1.44950,-0.264013753
1.45000,0.04118065471
1.45050,-0.5692081607
1.45100,-2.705569015
1.45150,-4.231541053
1.45200,-4.536735461
1.45250,-2.705569015
1.45300,0.04118065471
1.45350,3.398319139
1.45400,5.534679993
1.45450,5.839874401
1.45500,5.229485586
1.45550,4.61909677
1.45600,4.008707955
1.45650,3.703513547
1.45700,4.924291178
1.45750,6.450263216
1.45800,5.839874401
1.45850,2.177541509
1.45900,-2.705569015
1.45950,-6.367901907
1.46000,-8.504262761
1.46050,-10.0302348
1.46100,-11.55620684
1.46150,-12.16659565
1.46200,-11.86140125
1.46250,-10.64062361
1.46300,-8.809457169
1.46350,-5.147124276
1.46400,-0.5692081607
1.46450,2.787930324
1.46500,3.703513547
1.46550,1.261958286
1.46600,-1.484791384
1.46650,-1.484791384
1.46700,2.482735916
1.46750,7.060652032
1.46800,7.976235255
1.46850,4.924291178
1.46900,2.482735916
1.46950,2.482735916
1.47000,2.482735916
1.47050,0.3463750624
1.47100,-1.179596976
1.47150,1.261958286
1.47200,6.755457624
1.47250,9.807401701
1.47300,8.281429663
1.47350,5.534679993
1.47400,4.61909677
1.47450,4.313902363
1.47500,1.872347101
1.47550,-2.705569015
1.47600,-5.757513092
1.47650,-5.147124276
1.47700,-3.010763422
1.47750,-1.484791384
1.47800,-1.789985791
1.47850,-2.705569015
1.47900,-2.705569015
1.47950,-1.484791384
1.48000,-0.5692081607
1.48050,0.04118065471
1.48100,0.6515694701
1.48150,2.482735916
1.48200,4.924291178
1.48250,5.534679993
1.48300,3.398319139
1.48350,0.04118065471
1.48400,-1.179596976
1.48450,-0.264013753
1.48500,2.482735916
1.48550,4.924291178
1.48600,5.839874401
1.48650,5.229485586
1.48700,4.61909677
1.48750,4.313902363
1.48800,2.787930324
1.48850,-1.179596976
1.48900,-5.147124276
1.48950,-3.926346645
1.49000,1.261958286
1.49050,5.534679993
1.49100,5.534679993
1.49150,3.398319139
1.49200,2.482735916
1.49250,2.177541509
1.49300,-0.5692081607
1.49350,-5.757513092
1.49400,-7.588679538
1.49450,-3.621152238
1.49500,2.787930324
1.49550,7.671040847
1.49600,8.58662407
1.49650,5.839874401
1.49700,1.567152693
1.49750,-2.095180199
1.49800,-3.926346645
1.49850,-3.926346645
1.49900,-3.31595783
1.49950,-3.010763422
1.50000,-3.010763422
1.50050,-2.400374607
1.50100,-0.8744025684
1.50150,0.04118065471
1.50200,0.04118065471
1.50250,0.04118065471
1.50300,-0.264013753
1.50350,-0.264013753
1.50400,0.04118065471
1.50450,0.6515694701
1.50500,1.567152693
1.50550,2.787930324
1.50600,4.313902363
1.50650,6.145068809
1.50700,7.060652032
1.50750,6.450263216
1.50800,4.61909677
1.50850,3.093124732
1.50900,5.229485586
1.50950,10.41779052
1.51000,13.774929
1.51050,11.33337374
1.51100,3.703513547
1.51150,-3.926346645
1.51200,-7.893873946
1.51250,-9.114651576
1.51300,-10.0302348
1.51350,-10.0302348
1.51400,-8.199068353
1.51450,-4.231541053
1.51500,-1.179596976
1.51550,-0.8744025684
1.51600,-2.705569015
1.51650,-3.926346645
1.51700,-4.231541053
1.51750,-3.621152238
1.51800,-2.095180199
1.51850,0.3463750624
1.51900,2.177541509
1.51950,0.6515694701
1.52000,-3.010763422
1.52050,-6.978290722
1.52100,-7.893873946
1.52150,-6.367901907
1.52200,-3.31595783
1.52250,0.6515694701
1.52300,4.313902363
1.52350,5.534679993
1.52400,3.398319139
1.52450,1.567152693
1.52500,1.567152693
1.52550,3.093124732
1.52600,3.398319139
1.52650,1.872347101
1.52700,0.04118065471
1.52750,-2.705569015
1.52800,-5.757513092
1.52850,-7.28348513
1.52900,-4.841929869
1.52950,-1.789985791
1.53000,-1.789985791
1.53050,-4.536735461
1.53100,-5.147124276
1.53150,-1.484791384
1.53200,3.093124732
1.53250,5.839874401
1.53300,5.534679993
1.53350,4.008707955
1.53400,1.567152693
1.53450,-1.179596976
1.53500,-2.095180199
1.53550,0.3463750624
1.53600,4.61909677
1.53650,6.145068809
1.53700,3.093124732
1.53750,-2.705569015
1.53800,-8.199068353
1.53850,-10.64062361
1.53900,-9.725040392
1.53950,-6.978290722
1.54000,-4.536735461
1.54050,-2.705569015
1.54100,-0.8744025684
1.54150,0.3463750624
1.54200,0.3463750624
1.54250,-0.264013753
1.54300,0.9567638778
1.54350,6.755457624
1.54400,11.94376256
1.54450,11.94376256
1.54500,8.281429663
1.54550,6.450263216
1.54600,6.755457624
1.54650,4.008707955
1.54700,-4.231541053
1.54750,-12.47179006
1.54800,-14.60815091
1.54850,-11.55620684
1.54900,-8.809457169
1.54950,-7.588679538
1.55000,-4.536735461
1.55050,1.872347101
1.55100,8.58662407
1.55150,11.63856815
1.55200,10.11259611
1.55250,4.924291178
1.55300,-2.095180199
1.55350,-7.893873946
1.55400,-8.809457169
1.55450,-5.147124276
1.55500,-1.179596976
1.55550,-0.264013753
1.55600,-1.179596976
1.55650,-1.179596976
1.55700,-0.8744025684
1.55750,-1.179596976
1.55800,-1.789985791
1.55850,-1.179596976
1.55900,0.9567638778
1.55950,2.482735916
1.56000,1.567152693
1.56050,0.04118065471
1.56100,-0.8744025684
1.56150,0.3463750624
1.56200,2.482735916
1.56250,3.703513547
1.56300,3.703513547
1.56350,3.703513547
1.56400,4.924291178
1.56450,6.145068809
1.56500,5.839874401
1.56550,3.398319139
1.56600,0.6515694701
1.56650,0.04118065471
1.56700,1.872347101
1.56750,4.313902363
1.56800,5.229485586
1.56850,3.398319139
1.56900,0.04118065471
1.56950,-2.095180199
1.57000,-1.789985791
1.57050,1.261958286
1.57100,4.924291178
1.57150,6.450263216
1.57200,4.61909677
1.57250,1.567152693
1.57300,-0.264013753
1.57350,0.04118065471
1.57400,0.9567638778
1.57450,0.04118065471
1.57500,-2.095180199
1.57550,-4.841929869
1.57600,-6.062707499
1.57650,-5.757513092
1.57700,-4.841929869
1.57750,-3.926346645
1.57800,-3.926346645
1.57850,-4.536735461
1.57900,-4.536735461
1.57950,-2.400374607
1.58000,0.04118065471
1.58050,0.9567638778
1.58100,0.6515694701
1.58150,0.9567638778
1.58200,2.177541509
1.58250,2.787930324
1.58300,1.567152693
1.58350,0.04118065471
1.58400,0.04118065471
1.58450,0.9567638778
1.58500,0.3463750624
1.58550,-0.5692081607
1.58600,-0.264013753
1.58650,1.567152693
1.58700,3.093124732
1.58750,2.482735916
1.58800,1.567152693
1.58850,1.567152693
1.58900,1.567152693
1.58950,0.3463750624
1.59000,-0.5692081607
1.59050,0.04118065471
1.59100,1.261958286
1.59150,1.567152693
1.59200,1.261958286
1.59250,2.482735916
1.59300,3.398319139
1.59350,1.567152693
1.59400,-2.400374607
1.59450,-4.841929869
1.59500,-2.705569015
1.59550,0.04118065471
1.59600,0.3463750624
1.59650,0.04118065471
1.59700,0.6515694701
1.59750,1.872347101
1.59800,0.04118065471
1.59850,-3.010763422
1.59900,-4.231541053
1.59950,-2.400374607
1.60000,-0.264013753
1.60050,1.567152693
1.60100,4.61909677
1.60150,6.450263216
1.60200,4.61909677
1.60250,1.261958286
1.60300,0.6515694701
1.60350,2.482735916
1.60400,3.703513547
1.60450,4.313902363
1.60500,6.145068809
1.60550,6.755457624
1.60600,3.398319139
1.60650,-2.705569015
1.60700,-7.588679538
1.60750,-9.419845984
1.60800,-10.0302348
1.60850,-9.114651576
1.60900,-4.536735461
1.60950,1.261958286
1.61000,3.398319139
1.61050,1.567152693
1.61100,2.482735916
1.61150,7.060652032
1.61200,9.807401701
1.61250,7.671040847
1.61300,5.839874401
1.61350,7.36584644
1.61400,6.145068809
1.61450,-2.095180199
1.61500,-11.55620684
1.61550,-13.69256769
1.61600,-10.0302348
1.61650,-8.199068353
1.61700,-10.0302348
1.61750,-10.64062361
1.61800,-7.893873946
1.61850,-6.367901907
1.61900,-8.504262761
1.61950,-11.55620684
1.62000,-10.94581802
1.62050,-7.588679538
1.62100,-4.536735461
1.62150,-3.31595783
1.62200,-3.31595783
1.62250,-4.536735461
1.62300,-6.062707499
1.62350,-6.367901907
1.62400,-4.536735461
1.62450,-1.484791384
1.62500,0.9567638778
1.62550,2.482735916
1.62600,4.008707955
1.62650,6.450263216
1.62700,8.891818478
1.62750,7.976235255
1.62800,4.313902363
1.62850,2.787930324
1.62900,5.229485586
1.62950,8.891818478
1.63000,10.11259611
1.63050,9.502207293
1.63100,9.502207293
1.63150,8.58662407
1.63200,3.703513547
1.63250,-1.484791384
1.63300,-1.179596976
1.63350,3.093124732
1.63400,5.229485586
1.63450,3.398319139
1.63500,3.093124732
1.63550,7.060652032
1.63600,8.281429663
1.63650,1.872347101
1.63700,-7.893873946
1.63750,-13.69256769
1.63800,-13.69256769
1.63850,-11.25101243
1.63900,-7.893873946
1.63950,-3.31595783
1.64000,-0.264013753
1.64050,-0.264013753
1.64100,-1.789985791
1.64150,-1.789985791
1.64200,-0.264013753
1.64250,0.9567638778
1.64300,1.872347101
1.64350,3.398319139
1.64400,4.008707955
1.64450,1.872347101
1.64500,-2.095180199
1.64550,-5.452318684
1.64600,-5.452318684
1.64650,-3.010763422
1.64700,0.04118065471
1.64750,3.703513547
1.64800,6.145068809
1.64850,7.36584644
1.64900,6.755457624
1.64950,5.534679993
1.65000,4.924291178
1.65050,5.229485586
1.65100,4.61909677
1.65150,2.177541509
1.65200,-0.264013753
1.65250,-0.264013753
1.65300,1.567152693
1.65350,1.872347101
1.65400,0.04118065471
1.65450,-0.5692081607
1.65500,0.9567638778
1.65550,2.482735916
1.65600,0.3463750624
1.65650,-1.789985791
1.65700,0.04118065471
1.65750,5.534679993
1.65800,8.58662407
1.65850,7.976235255
1.65900,6.145068809
1.65950,6.450263216
1.66000,6.755457624
1.66050,4.61909677
1.66100,-0.264013753
1.66150,-4.841929869
1.66200,-5.757513092
1.66250,-1.789985791
1.66300,3.093124732
1.66350,5.534679993
1.66400,4.008707955
1.66450,1.261958286
1.66500,0.04118065471
1.66550,-2.095180199
1.66600,-5.147124276
1.66650,-6.978290722
1.66700,-6.367901907
1.66750,-4.841929869
1.66800,-6.062707499
1.66850,-8.809457169
1.66900,-10.33542921
1.66950,-8.809457169
1.67000,-6.367901907
1.67050,-3.621152238
1.67100,-0.5692081607
1.67150,2.482735916
1.67200,3.703513547
1.67250,2.177541509
1.67300,0.04118065471
1.67350,0.04118065471
1.67400,1.261958286
1.67450,2.177541509
1.67500,0.9567638778
1.67550,-0.8744025684
1.67600,-2.400374607
1.67650,-1.484791384
1.67700,0.04118065471
1.67750,1.872347101
1.67800,2.177541509
1.67850,1.567152693
1.67900,0.9567638778
1.67950,0.9567638778
1.68000,1.261958286
1.68050,1.261958286
1.68100,0.9567638778
1.68150,0.9567638778
1.68200,1.567152693
1.68250,1.872347101
1.68300,1.261958286
1.68350,1.261958286
1.68400,3.093124732
1.68450,5.229485586
1.68500,4.924291178
1.68550,2.177541509
1.68600,0.6515694701
1.68650,1.872347101
1.68700,2.177541509
1.68750,-1.179596976
1.68800,-5.757513092
1.68850,-6.673096315
1.68900,-4.841929869
1.68950,-3.926346645
1.69000,-3.31595783
1.69050,0.6515694701
1.69100,8.281429663
1.69150,14.08012341
1.69200,14.08012341
1.69250,10.41779052
1.69300,7.060652032
1.69350,4.61909677
1.69400,2.787930324
1.69450,2.177541509
1.69500,2.482735916
1.69550,2.787930324
1.69600,0.6515694701
1.69650,-2.400374607
1.69700,-4.231541053
1.69750,-3.31595783
1.69800,0.04118065471
1.69850,3.093124732
1.69900,2.177541509
1.69950,-3.31595783
1.70000,-10.64062361
1.70050,-14.60815091
1.70100,-14.30295651
1.70150,-11.55620684
1.70200,-9.419845984
1.70250,-8.809457169
1.70300,-9.725040392
1.70350,-10.64062361
1.70400,-10.64062361
1.70450,-9.419845984
1.70500,-6.673096315
1.70550,-2.705569015
1.70600,0.9567638778
1.70650,3.398319139
1.70700,4.008707955
1.70750,3.093124732
1.70800,2.787930324
1.70850,2.787930324
1.70900,2.482735916
1.70950,1.261958286
1.71000,0.9567638778
1.71050,2.177541509
1.71100,3.093124732
1.71150,3.398319139
1.71200,4.008707955
1.71250,4.61909677
1.71300,4.008707955
1.71350,1.261958286
1.71400,-1.179596976
1.71450,-2.095180199
1.71500,-2.705569015
1.71550,-3.926346645
1.71600,-3.926346645
1.71650,-2.095180199
1.71700,0.04118065471
1.71750,0.9567638778
1.71800,0.9567638778
1.71850,1.872347101
1.71900,3.703513547
1.71950,4.008707955
1.72000,2.482735916
1.72050,0.9567638778
1.72100,0.04118065471
1.72150,-0.264013753
1.72200,-0.264013753
1.72250,0.04118065471
1.72300,0.3463750624
1.72350,-0.8744025684
1.72400,-3.621152238
1.72450,-3.621152238
1.72500,-0.8744025684
1.72550,1.872347101
1.72600,2.787930324
1.72650,1.872347101
1.72700,1.261958286
1.72750,1.261958286
1.72800,0.9567638778
1.72850,0.9567638778
1.72900,0.9567638778
1.72950,0.9567638778
1.73000,1.872347101
1.73050,3.703513547
1.73100,5.229485586
1.73150,4.924291178
1.73200,3.093124732
1.73250,0.6515694701
1.73300,-0.8744025684
1.73350,-2.095180199
1.73400,-1.484791384
1.73450,0.9567638778
1.73500,4.313902363
1.73550,4.008707955
1.73600,0.04118065471
1.73650,-2.705569015
1.73700,-1.789985791
1.73750,1.567152693
1.73800,3.703513547
1.73850,4.313902363
1.73900,4.313902363
1.73950,3.398319139
1.74000,-0.8744025684
1.74050,-7.28348513
1.74100,-11.86140125
1.74150,-11.55620684
1.74200,-8.199068353
1.74250,-5.147124276
1.74300,-3.010763422
1.74350,-1.484791384
1.74400,-0.5692081607
1.74450,0.04118065471
1.74500,1.567152693
1.74550,3.398319139
1.74600,2.787930324
1.74650,-0.5692081607
1.74700,-3.31595783
1.74750,-2.400374607
1.74800,0.04118065471
1.74850,0.04118065471
1.74900,-2.095180199
1.74950,-4.536735461
1.75000,-5.147124276
1.75050,-6.062707499
1.75100,-6.367901907
1.75150,-4.841929869
1.75200,-1.789985791
1.75250,-0.5692081607
1.75300,-2.400374607
1.75350,-4.231541053
1.75400,-2.400374607
1.75450,1.872347101
1.75500,4.61909677
1.75550,4.313902363
1.75600,1.872347101
1.75650,-2.095180199
1.75700,-7.28348513
1.75750,-11.25101243
1.75800,-11.25101243
1.75850,-7.28348513
1.75900,-3.621152238
1.75950,-3.010763422
1.76000,-4.231541053
1.76050,-4.841929869
1.76100,-3.621152238
1.76150,-2.095180199
1.76200,0.04118065471
1.76250,2.177541509
1.76300,4.313902363
1.76350,5.229485586
1.76400,4.61909677
1.76450,2.787930324
1.76500,1.261958286
1.76550,1.567152693
1.76600,4.313902363
1.76650,6.450263216
1.76700,5.534679993
1.76750,2.482735916
1.76800,0.6515694701
1.76850,1.872347101
1.76900,4.008707955
1.76950,3.703513547
1.77000,1.261958286
1.77050,-0.5692081607
1.77100,-1.484791384
1.77150,-2.095180199
1.77200,-2.705569015
1.77250,-3.31595783
1.77300,-2.705569015
1.77350,-0.264013753
1.77400,2.482735916
1.77450,4.008707955
1.77500,3.398319139
1.77550,2.482735916
1.77600,3.093124732
1.77650,4.313902363
1.77700,4.313902363
1.77750,4.313902363
1.77800,4.924291178
1.77850,5.534679993
1.77900,4.61909677
1.77950,3.398319139
1.78000,4.008707955
1.78050,5.534679993
1.78100,6.450263216
1.78150,7.36584644
1.78200,8.281429663
1.78250,5.229485586
1.78300,-4.536735461
1.78350,-13.9977621
1.78400,-11.25101243
1.78450,3.093124732
1.78500,17.13206749
1.78550,20.48920597
1.78600,16.21648426
1.78650,12.24895696
1.78700,11.63856815
1.78750,12.85934578
1.78800,12.85934578
1.78850,10.11259611
1.78900,3.703513547
1.78950,-4.536735461
1.79000,-10.0302348
1.79050,-10.94581802
1.79100,-9.725040392
1.79150,-8.504262761
1.79200,-5.757513092
1.79250,-1.179596976
1.79300,1.261958286
1.79350,-0.264013753
1.79400,-3.621152238
1.79450,-4.231541053
1.79500,-2.400374607
1.79550,-0.5692081607
1.79600,0.6515694701
1.79650,3.703513547
1.79700,6.755457624
1.79750,6.450263216
1.79800,0.04118065471
1.79850,-9.114651576
1.79900,-15.82892855
1.79950,-16.13412295
1.80000,-11.25101243
1.80050,-5.757513092
1.80100,-3.31595783
1.80150,-3.010763422
1.80200,-3.010763422
1.80250,-1.789985791
1.80300,0.04118065471
1.80350,0.3463750624
1.80400,0.3463750624
1.80450,-0.264013753
1.80500,-0.8744025684
1.80550,-1.179596976
1.80600,-0.8744025684
1.80650,-0.8744025684
1.80700,-1.484791384
1.80750,-1.179596976
1.80800,0.6515694701
1.80850,3.093124732
1.80900,3.703513547
1.80950,2.482735916
1.81000,2.177541509
1.81050,3.093124732
1.81100,2.787930324
1.81150,2.177541509
1.81200,2.177541509
1.81250,3.703513547
1.81300,4.924291178
1.81350,4.008707955
1.81400,2.177541509
1.81450,1.261958286
1.81500,1.261958286
1.81550,1.872347101
1.81600,2.482735916
1.81650,3.093124732
1.81700,2.787930324
1.81750,1.261958286
1.81800,-0.264013753
1.81850,-1.179596976
1.81900,-2.400374607
1.81950,-4.231541053
1.82000,-6.062707499
1.82050,-6.062707499
1.82100,-3.31595783
1.82150,0.9567638778
1.82200,5.534679993
1.82250,8.891818478
1.82300,10.11259611
1.82350,9.197012886
1.82400,5.839874401
1.82450,2.787930324
1.82500,1.567152693
1.82550,2.482735916
1.82600,4.008707955
1.82650,4.313902363
1.82700,1.567152693
1.82750,-2.095180199
1.82800,-5.757513092
1.82850,-7.28348513
1.82900,-7.893873946
1.82950,-9.114651576
1.83000,-10.64062361
1.83050,-9.419845984
1.83100,-5.452318684
1.83150,-0.8744025684
1.83200,0.6515694701
1.83250,0.04118065471
1.83300,-1.179596976
1.83350,-1.179596976
1.83400,-0.5692081607
1.83450,0.04118065471
1.83500,0.6515694701
1.83550,0.9567638778
1.83600,-0.5692081607
1.83650,-3.31595783
1.83700,-3.621152238
1.83750,-1.484791384
1.83800,1.261958286
1.83850,2.177541509
1.83900,1.261958286
1.83950,0.6515694701
1.84000,0.6515694701
1.84050,0.6515694701
1.84100,0.9567638778
1.84150,0.6515694701
1.84200,-0.8744025684
1.84250,-3.31595783
1.84300,-5.147124276
1.84350,-4.231541053
1.84400,-2.400374607
1.84450,-1.789985791
1.84500,-2.095180199
1.84550,-1.179596976
1.84600,1.567152693
1.84650,4.61909677
1.84700,6.145068809
1.84750,5.839874401
1.84800,5.229485586
1.84850,4.61909677
1.84900,2.787930324
1.84950,0.04118065471
1.85000,-3.010763422
1.85050,-4.536735461
1.85100,-3.926346645
1.85150,-2.400374607
1.85200,-0.8744025684
1.85250,-0.5692081607
1.85300,-2.705569015
1.85350,-6.367901907
1.85400,-8.809457169
1.85450,-7.28348513
1.85500,-3.621152238
1.85550,-1.179596976
1.85600,-1.789985791
1.85650,-3.010763422
1.85700,-3.31595783
1.85750,-3.31595783
1.85800,-3.621152238
1.85850,-2.705569015
1.85900,0.04118065471
1.85950,2.482735916
1.86000,1.872347101
1.86050,0.04118065471
1.86100,0.3463750624
1.86150,1.567152693
1.86200,0.6515694701
1.86250,-2.095180199
1.86300,-4.231541053
1.86350,-3.010763422
1.86400,0.04118065471
1.86450,0.9567638778
1.86500,0.9567638778
1.86550,2.177541509
1.86600,4.924291178
1.86650,7.060652032
1.86700,6.755457624
1.86750,5.229485586
1.86800,3.703513547
1.86850,2.177541509
1.86900,0.04118065471
1.86950,-3.010763422
1.87000,-6.062707499
1.87050,-8.199068353
1.87100,-9.114651576
1.87150,-7.588679538
1.87200,-3.010763422
1.87250,3.093124732
1.87300,7.060652032
1.87350,5.839874401
1.87400,2.787930324
1.87450,1.567152693
1.87500,3.093124732
1.87550,5.534679993
1.87600,6.755457624
1.87650,6.755457624
1.87700,5.534679993
1.87750,4.008707955
1.87800,2.177541509
1.87850,0.3463750624
1.87900,-0.5692081607
1.87950,-0.5692081607
1.88000,0.6515694701
1.88050,0.9567638778
1.88100,-2.095180199
1.88150,-7.893873946
1.88200,-11.55620684
1.88250,-10.33542921
1.88300,-6.978290722
1.88350,-3.926346645
1.88400,-2.400374607
1.88450,-0.8744025684
1.88500,0.3463750624
1.88550,1.261958286
1.88600,1.872347101
1.88650,1.567152693
1.88700,0.9567638778
1.88750,0.04118065471
1.88800,0.04118065471
1.88850,1.567152693
1.88900,2.482735916
1.88950,2.177541509
1.89000,0.9567638778
1.89050,0.6515694701
1.89100,1.567152693
1.89150,2.482735916
1.89200,2.787930324
1.89250,1.567152693
1.89300,0.04118065471
1.89350,-0.264013753
1.89400,0.6515694701
1.89450,1.872347101
1.89500,2.177541509
1.89550,1.872347101
1.89600,2.177541509
1.89650,2.482735916
1.89700,2.482735916
1.89750,2.177541509
1.89800,1.872347101
1.89850,1.872347101
1.89900,0.6515694701
1.89950,0.04118065471
1.90000,0.04118065471
1.90050,1.261958286
1.90100,2.177541509
1.90150,2.177541509
1.90200,2.787930324
1.90250,3.093124732
1.90300,2.482735916
1.90350,1.872347101
1.90400,1.567152693
1.90450,0.6515694701
1.90500,-1.179596976
1.90550,-3.010763422
1.90600,-1.179596976
1.90650,2.177541509
1.90700,4.008707955
1.90750,2.177541509
1.90800,0.04118065471
1.90850,0.04118065471
1.90900,2.482735916
1.90950,4.61909677
1.91000,4.924291178
1.91050,4.61909677
1.91100,3.398319139
1.91150,0.6515694701
1.91200,-2.705569015
1.91250,-4.536735461
1.91300,-2.400374607
1.91350,2.177541509
1.91400,6.145068809
1.91450,7.671040847
1.91500,7.060652032
1.91550,5.839874401
1.91600,4.008707955
1.91650,1.261958286
1.91700,-1.179596976
1.91750,-3.010763422
1.91800,-4.231541053
1.91850,-5.452318684
1.91900,-6.978290722
1.91950,-6.367901907
1.92000,-1.179596976
1.92050,6.145068809
1.92100,9.502207293
1.92150,3.093124732
1.92200,-8.809457169
1.92250,-15.21853973
1.92300,-9.114651576
1.92350,1.567152693
1.92400,3.398319139
1.92450,-7.28348513
1.92500,-19.79645585
1.92550,-23.15359433
1.92600,-18.88087262
1.92650,-14.91334532
1.92700,-12.47179006
1.92750,-8.199068353
1.92800,-1.179596976
1.92850,3.093124732
1.92900,2.787930324
1.92950,-0.264013753
1.93000,-1.789985791
1.93050,-0.264013753
1.93100,1.872347101
1.93150,3.398319139
1.93200,4.008707955
1.93250,4.924291178
1.93300,5.839874401
1.93350,5.839874401
1.93400,2.787930324
1.93450,-0.8744025684
1.93500,-1.484791384
1.93550,2.482735916
1.93600,7.671040847
1.93650,8.281429663
1.93700,4.924291178
1.93750,1.872347101
1.93800,1.872347101
1.93850,3.093124732
1.93900,1.872347101
1.93950,-0.8744025684
1.94000,-2.095180199
1.94050,0.3463750624
1.94100,5.839874401
1.94150,9.197012886
1.94200,7.976235255
1.94250,3.093124732
1.94300,-0.5692081607
1.94350,-1.789985791
1.94400,-1.789985791
1.94450,-2.400374607
1.94500,-3.010763422
1.94550,-2.705569015
1.94600,-1.484791384
1.94650,-0.264013753
1.94700,-1.179596976
1.94750,-3.31595783
1.94800,-2.705569015
1.94850,1.872347101
1.94900,7.976235255
1.94950,9.502207293
1.95000,6.450263216
1.95050,2.482735916
1.95100,1.567152693
1.95150,2.482735916
1.95200,4.008707955
1.95250,5.229485586
1.95300,4.924291178
1.95350,1.261958286
1.95400,-4.536735461
1.95450,-7.893873946
1.95500,-6.367901907
1.95550,-2.705569015
1.95600,-0.264013753
1.95650,1.261958286
1.95700,4.008707955
1.95750,5.534679993
1.95800,4.008707955
1.95850,1.261958286
1.95900,0.9567638778
1.95950,2.482735916
1.96000,3.398319139
1.96050,3.703513547
1.96100,4.924291178
1.96150,5.229485586
1.96200,2.177541509
1.96250,-0.5692081607
1.96300,1.261958286
1.96350,7.976235255
1.96400,10.41779052
1.96450,4.924291178
1.96500,-3.926346645
1.96550,-9.419845984
1.96600,-10.94581802
1.96650,-10.64062361
1.96700,-9.419845984
1.96750,-7.588679538
1.96800,-5.757513092
1.96850,-4.536735461
1.96900,-3.621152238
1.96950,-1.484791384
1.97000,0.3463750624
1.97050,0.9567638778
1.97100,0.3463750624
1.97150,-0.8744025684
1.97200,-2.705569015
1.97250,-4.231541053
1.97300,-4.231541053
1.97350,-1.789985791
1.97400,0.3463750624
1.97450,0.6515694701
1.97500,0.04118065471
1.97550,-0.264013753
1.97600,0.04118065471
1.97650,-0.264013753
1.97700,-1.789985791
1.97750,-1.789985791
1.97800,0.04118065471
1.97850,2.177541509
1.97900,2.177541509
1.97950,1.261958286
1.98000,0.9567638778
1.98050,0.3463750624
1.98100,-0.5692081607
1.98150,-1.484791384
1.98200,-2.095180199
1.98250,-3.010763422
1.98300,-4.536735461
1.98350,-4.536735461
1.98400,-2.095180199
1.98450,0.04118065471
1.98500,0.9567638778
1.98550,0.9567638778
1.98600,2.177541509
1.98650,3.398319139
1.98700,1.261958286
1.98750,-3.31595783
1.98800,-6.367901907
1.98850,-4.231541053
1.98900,0.6515694701
1.98950,4.313902363
1.99000,4.313902363
1.99050,2.482735916
1.99100,0.3463750624
1.99150,-0.8744025684
1.99200,-2.400374607
1.99250,-3.010763422
1.99300,-2.095180199
1.99350,0.04118065471
1.99400,2.482735916
1.99450,5.534679993
1.99500,7.976235255
1.99550,8.891818478
1.99600,6.450263216
1.99650,1.872347101
1.99700,-0.8744025684
1.99750,-0.5692081607
1.99800,1.261958286
1.99850,2.482735916
1.99900,3.703513547
1.99950,6.755457624
2.00000,9.807401701
2.00050,9.807401701
2.00100,5.229485586
2.00150,-1.484791384
2.00200,-8.809457169
2.00250,-13.08217888
2.00300,-12.77698447
2.00350,-6.978290722
2.00400,0.04118065471
2.00450,2.177541509
2.00500,-0.5692081607
2.00550,-3.926346645
2.00600,-1.789985791
2.00650,4.924291178
2.00700,10.11259611
2.00750,10.41779052
2.00800,9.807401701
2.00850,11.33337374
2.00900,12.85934578
2.00950,8.58662407
2.01000,-0.8744025684
2.01050,-9.114651576
2.01100,-10.94581802
2.01150,-9.114651576
2.01200,-7.588679538
2.01250,-5.757513092
2.01300,-1.179596976
2.01350,3.093124732
2.01400,1.261958286
2.01450,-6.673096315
2.01500,-15.52373414
2.01550,-18.57567822
2.01600,-16.43931736
2.01650,-11.55620684
2.01700,-7.28348513
2.01750,-5.147124276
2.01800,-5.757513092
2.01850,-8.809457169
2.01900,-10.94581802
2.01950,-10.94581802
2.02000,-9.419845984
2.02050,-6.978290722
2.02100,-3.621152238
2.02150,0.6515694701
2.02200,4.313902363
2.02250,4.924291178
2.02300,2.787930324
2.02350,-0.264013753
2.02400,-1.179596976
2.02450,0.3463750624
2.02500,3.703513547
2.02550,6.145068809
2.02600,7.36584644
2.02650,8.58662407
2.02700,9.502207293
2.02750,9.807401701
2.02800,10.11259611
2.02850,12.24895696
2.02900,14.38531782
2.02950,13.16454019
2.03000,8.891818478
2.03050,6.145068809
2.03100,5.839874401
2.03150,5.229485586
2.03200,0.9567638778
2.03250,-4.231541053
2.03300,-5.757513092
2.03350,-3.31595783
2.03400,-1.484791384
2.03450,-3.926346645
2.03500,-10.0302348
2.03550,-14.91334532
2.03600,-15.52373414
2.03650,-11.86140125
2.03700,-6.978290722
2.03750,-4.536735461
2.03800,-4.231541053
2.03850,-3.31595783
2.03900,-0.5692081607
2.03950,1.567152693
2.04000,2.482735916
2.04050,2.787930324
2.04100,3.398319139
2.04150,4.924291178
2.04200,6.450263216
2.04250,8.58662407
2.04300,11.63856815
2.04350,13.46973459
2.04400,11.94376256
2.04450,6.145068809
2.04500,-0.264013753
2.04550,-4.841929869
2.04600,-5.147124276
2.04650,-1.789985791
2.04700,3.093124732
2.04750,7.36584644
2.04800,7.060652032
2.04850,1.872347101
2.04900,-4.841929869
2.04950,-8.504262761
2.05000,-7.588679538
2.05050,-3.621152238
2.05100,-0.264013753
2.05150,1.567152693
2.05200,3.093124732
2.05250,4.313902363
2.05300,4.924291178
2.05350,5.229485586
2.05400,5.229485586
2.05450,4.924291178
2.05500,5.534679993
2.05550,6.755457624
2.05600,6.755457624
2.05650,3.703513547
2.05700,-0.5692081607
2.05750,-3.010763422
2.05800,-3.010763422
2.05850,-2.400374607
2.05900,-2.400374607
2.05950,-3.31595783
2.06000,-3.31595783
2.06050,-2.400374607
2.06100,-1.179596976
2.06150,0.6515694701
2.06200,2.787930324
2.06250,2.787930324
2.06300,1.261958286
2.06350,0.3463750624
2.06400,0.3463750624
2.06450,0.04118065471
2.06500,-1.484791384
2.06550,-1.789985791
2.06600,0.04118065471
2.06650,2.787930324
2.06700,3.703513547
2.06750,3.398319139
2.06800,3.398319139
2.06850,3.093124732
2.06900,2.482735916
2.06950,2.482735916
2.07000,2.787930324
2.07050,1.567152693
2.07100,-1.179596976
2.07150,-3.621152238
2.07200,-3.010763422
2.07250,-1.179596976
2.07300,-0.5692081607
2.07350,-0.8744025684
2.07400,-0.8744025684
2.07450,-0.5692081607
2.07500,-0.5692081607
2.07550,-1.179596976
2.07600,-0.5692081607
2.07650,0.04118065471
2.07700,-0.8744025684
2.07750,-2.400374607
2.07800,-2.705569015
2.07850,-1.179596976
2.07900,-1.179596976
2.07950,-3.010763422
2.08000,-4.536735461
2.08050,-4.536735461
2.08100,-3.31595783
2.08150,-1.484791384
2.08200,0.9567638778
2.08250,4.313902363
2.08300,5.534679993
2.08350,4.008707955
2.08400,2.787930324
2.08450,3.398319139
2.08500,4.008707955
2.08550,2.177541509
2.08600,-1.484791384
2.08650,-4.841929869
2.08700,-5.757513092
2.08750,-3.31595783
2.08800,3.703513547
2.08850,12.24895696
2.08900,15.60609545
2.08950,10.41779052
2.09000,2.482735916
2.09050,-0.5692081607
2.09100,0.9567638778
2.09150,1.567152693
2.09200,-2.705569015
2.09250,-9.725040392
2.09300,-14.91334532
2.09350,-17.04970618
2.09400,-15.52373414
2.09450,-10.94581802
2.09500,-4.841929869
2.09550,-0.5692081607
2.09600,0.04118065471
2.09650,-0.8744025684
2.09700,-2.400374607
2.09750,-4.536735461
2.09800,-6.062707499
2.09850,-5.757513092
2.09900,-2.705569015
2.09950,0.04118065471
2.10000,0.6515694701
2.10050,0.04118065471
2.10100,0.04118065471
2.10150,0.3463750624
2.10200,0.9567638778
2.10250,-0.264013753
2.10300,-2.400374607
2.10350,-3.31595783
2.10400,-1.484791384
2.10450,1.872347101
2.10500,4.008707955
2.10550,3.703513547
2.10600,2.787930324
2.10650,3.398319139
2.10700,4.008707955
2.10750,3.398319139
2.10800,1.261958286
2.10850,-0.5692081607
2.10900,-2.095180199
2.10950,-4.536735461
2.11000,-6.673096315
2.11050,-6.673096315
2.11100,-4.841929869
2.11150,-2.400374607
2.11200,-0.8744025684
2.11250,-0.264013753
2.11300,0.04118065471
2.11350,0.04118065471
2.11400,-0.5692081607
2.11450,-1.789985791
2.11500,-2.400374607
2.11550,-2.705569015
2.11600,-3.010763422
2.11650,-3.010763422
2.11700,-1.789985791
2.11750,0.3463750624
2.11800,3.398319139
2.11850,5.534679993
2.11900,4.924291178
2.11950,1.872347101
2.12000,-1.179596976
2.12050,-2.400374607
2.12100,-1.179596976
2.12150,1.872347101
2.12200,4.924291178
2.12250,6.450263216
2.12300,5.839874401
2.12350,3.703513547
2.12400,0.9567638778
2.12450,-0.8744025684
2.12500,-1.484791384
2.12550,-0.8744025684
2.12600,0.6515694701
2.12650,2.482735916
2.12700,3.398319139
2.12750,4.61909677
2.12800,5.534679993
2.12850,6.145068809
2.12900,6.145068809
2.12950,6.755457624
2.13000,7.671040847
2.13050,6.450263216
2.13100,2.177541509
2.13150,-2.095180199
2.13200,-3.31595783
2.13250,-1.179596976
2.13300,1.872347101
2.13350,4.61909677
2.13400,5.839874401
2.13450,5.229485586
2.13500,4.313902363
2.13550,4.313902363
2.13600,4.924291178
2.13650,4.008707955
2.13700,0.6515694701
2.13750,-2.095180199
2.13800,-3.31595783
2.13850,-5.452318684
2.13900,-7.893873946
2.13950,-7.588679538
2.14000,-3.010763422
2.14050,1.567152693
2.14100,2.482735916
2.14150,0.3463750624
2.14200,-2.095180199
2.14250,-4.841929869
2.14300,-8.504262761
2.14350,-9.725040392
2.14400,-6.062707499
2.14450,-1.179596976
2.14500,0.04118065471
2.14550,-0.5692081607
2.14600,1.261958286
2.14650,5.839874401
2.14700,7.671040847
2.14750,5.534679993
2.14800,2.482735916
2.14850,2.177541509
2.14900,3.398319139
2.14950,4.008707955
2.15000,3.703513547
2.15050,4.008707955
2.15100,4.008707955
2.15150,3.093124732
2.15200,2.482735916
2.15250,4.313902363
2.15300,6.145068809
2.15350,4.313902363
2.15400,-1.484791384
2.15450,-7.588679538
2.15500,-11.25101243
2.15550,-12.77698447
2.15600,-13.69256769
2.15650,-13.69256769
2.15700,-11.25101243
2.15750,-6.978290722
2.15800,-3.31595783
2.15850,-1.789985791
2.15900,-1.179596976
2.15950,-0.264013753
2.16000,1.567152693
2.16050,3.093124732
2.16100,3.703513547
2.16150,3.703513547
2.16200,4.008707955
2.16250,4.924291178
2.16300,5.534679993
2.16350,5.534679993
2.16400,5.229485586
2.16450,5.839874401
2.16500,6.755457624
2.16550,4.924291178
2.16600,-1.179596976
2.16650,-10.0302348
2.16700,-14.91334532
2.16750,-13.38737328
2.16800,-7.893873946
2.16850,-3.926346645
2.16900,-3.010763422
2.16950,-3.31595783
2.17000,-2.705569015
2.17050,-1.789985791
2.17100,-1.179596976
2.17150,-0.5692081607
2.17200,0.6515694701
2.17250,3.093124732
2.17300,5.229485586
2.17350,6.450263216
2.17400,6.145068809
2.17450,4.313902363
2.17500,1.872347101
2.17550,0.3463750624
2.17600,0.04118065471
2.17650,-0.264013753
2.17700,-0.264013753
2.17750,0.3463750624
2.17800,1.872347101
2.17850,3.398319139
2.17900,4.008707955
2.17950,4.313902363
2.18000,3.703513547
2.18050,0.9567638778
2.18100,-3.010763422
2.18150,-5.757513092
2.18200,-4.231541053
2.18250,-0.5692081607
2.18300,1.261958286
2.18350,1.567152693
2.18400,2.787930324
2.18450,5.839874401
2.18500,8.58662407
2.18550,8.58662407
2.18600,7.060652032
2.18650,5.534679993
2.18700,3.093124732
2.18750,0.04118065471
2.18800,-2.095180199
2.18850,-2.400374607
2.18900,-0.264013753
2.18950,0.9567638778
2.19000,0.9567638778
2.19050,0.3463750624
2.19100,0.6515694701
2.19150,1.872347101
2.19200,4.008707955
2.19250,5.229485586
2.19300,6.145068809
2.19350,6.755457624
2.19400,6.450263216
2.19450,2.787930324
2.19500,-3.31595783
2.19550,-8.504262761
2.19600,-9.725040392
2.19650,-8.809457169
2.19700,-8.199068353
2.19750,-7.28348513
2.19800,-4.231541053
2.19850,-0.264013753
2.19900,1.567152693
2.19950,0.6515694701
2.20000,-0.264013753
2.20050,0.04118065471
2.20100,0.3463750624
2.20150,-0.264013753
2.20200,-2.095180199
2.20250,-2.400374607
2.20300,-2.400374607
2.20350,-3.31595783
2.20400,-6.062707499
2.20450,-8.504262761
2.20500,-8.199068353
2.20550,-4.841929869
2.20600,-0.5692081607
2.20650,1.261958286
2.20700,0.9567638778
2.20750,-0.5692081607
2.20800,-1.179596976
2.20850,-1.179596976
2.20900,-1.789985791
2.20950,-2.400374607
2.21000,-1.789985791
2.21050,0.04118065471
2.21100,0.9567638778
2.21150,0.9567638778
2.21200,1.261958286
2.21250,3.093124732
2.21300,4.008707955
2.21350,2.482735916
2.21400,-0.264013753
2.21450,-2.095180199
2.21500,-1.789985791
2.21550,-1.484791384
2.21600,-1.484791384
2.21650,-0.5692081607
2.21700,0.6515694701
2.21750,1.261958286
2.21800,1.872347101
2.21850,3.703513547
2.21900,5.839874401
2.21950,5.534679993
2.22000,4.008707955
2.22050,3.703513547
2.22100,5.839874401
2.22150,6.755457624
2.22200,4.61909677
2.22250,0.9567638778
2.22300,-0.264013753
2.22350,0.04118065471
2.22400,0.9567638778
2.22450,1.567152693
2.22500,1.261958286
2.22550,0.3463750624
2.22600,-1.179596976
2.22650,-2.705569015
2.22700,-3.926346645
2.22750,-5.147124276
2.22800,-6.062707499
2.22850,-6.062707499
2.22900,-4.841929869
2.22950,-2.400374607
2.23000,1.261958286
2.23050,5.839874401
2.23100,9.502207293
2.23150,10.11259611
2.23200,8.281429663
2.23250,5.839874401
2.23300,4.313902363
2.23350,4.008707955
2.23400,4.313902363
2.23450,4.61909677
2.23500,4.61909677
2.23550,3.703513547
2.23600,1.872347101
2.23650,0.3463750624
2.23700,0.9567638778
2.23750,2.482735916
2.23800,3.093124732
2.23850,1.872347101
2.23900,0.3463750624
2.23950,-0.264013753
2.24000,0.3463750624
2.24050,0.6515694701
2.24100,-1.484791384
2.24150,-6.062707499
2.24200,-10.33542921
2.24250,-12.47179006
2.24300,-13.08217888
2.24350,-13.9977621
2.24400,-14.91334532
2.24450,-14.60815091
2.24500,-12.77698447
2.24550,-10.0302348
2.24600,-7.28348513
2.24650,-4.536735461
2.24700,-2.705569015
2.24750,-3.31595783
2.24800,-5.147124276
2.24850,-6.062707499
2.24900,-3.621152238
2.24950,1.567152693
2.25000,5.839874401
2.25050,5.534679993
2.25100,2.482735916
2.25150,0.3463750624
2.25200,1.567152693
2.25250,3.398319139
2.25300,2.482735916
2.25350,0.04118065471
2.25400,-0.5692081607
2.25450,0.9567638778
2.25500,2.482735916
2.25550,1.567152693
2.25600,-0.264013753
2.25650,-1.789985791
2.25700,-2.095180199
2.25750,-1.484791384
2.25800,-0.264013753
2.25850,1.261958286
2.25900,2.177541509
2.25950,1.261958286
2.26000,0.3463750624
2.26050,2.787930324
2.26100,7.671040847
2.26150,11.02817933
2.26200,10.72298492
2.26250,8.891818478
2.26300,8.281429663
2.26350,8.891818478
2.26400,10.11259611
2.26450,11.33337374
2.26500,10.41779052
2.26550,4.924291178
2.26600,-4.536735461
2.26650,-12.16659565
2.26700,-12.47179006
2.26750,-6.978290722
2.26800,-1.484791384
2.26850,0.04118065471
2.26900,-0.5692081607
2.26950,-1.179596976
2.27000,-2.095180199
2.27050,-3.010763422
2.27100,-2.400374607
2.27150,-0.264013753
2.27200,0.6515694701
2.27250,-0.264013753
2.27300,-1.179596976
2.27350,0.3463750624
2.27400,3.398319139
2.27450,4.313902363
2.27500,1.261958286
2.27550,-3.31595783
2.27600,-8.504262761
2.27650,-11.86140125
2.27700,-11.86140125
2.27750,-8.199068353
2.27800,-3.31595783
2.27850,-0.5692081607
2.27900,0.04118065471
2.27950,0.9567638778
2.28000,2.177541509
2.28050,2.482735916
2.28100,1.872347101
2.28150,0.9567638778
2.28200,0.6515694701
2.28250,-0.264013753
2.28300,-1.789985791
2.28350,-2.705569015
2.28400,-2.400374607
2.28450,-1.789985791
2.28500,0.04118065471
2.28550,2.177541509
2.28600,3.398319139
2.28650,1.261958286
2.28700,-2.400374607
2.28750,-4.536735461
2.28800,-1.789985791
2.28850,2.787930324
2.28900,6.755457624
2.28950,7.976235255
2.29000,8.58662407
2.29050,9.197012886
2.29100,8.58662407
2.29150,6.755457624
2.29200,5.839874401
2.29250,6.145068809
2.29300,6.450263216
2.29350,3.398319139
2.29400,-2.705569015
2.29450,-8.809457169
2.29500,-12.47179006
2.29550,-14.30295651
2.29600,-16.13412295
2.29650,-17.35490058
2.29700,-16.43931736
2.29750,-12.16659565
2.29800,-5.147124276
2.29850,0.9567638778
2.29900,3.398319139
2.29950,2.787930324
2.30000,2.482735916
2.30050,4.61909677
2.30100,6.755457624
2.30150,6.145068809
2.30200,3.703513547
2.30250,3.093124732
2.30300,2.787930324
2.30350,-0.264013753
2.30400,-4.536735461
2.30450,-5.147124276
2.30500,-0.5692081607
2.30550,4.313902363
2.30600,6.145068809
2.30650,5.839874401
2.30700,6.450263216
2.30750,6.755457624
2.30800,5.839874401
2.30850,4.313902363
2.30900,4.924291178
2.30950,6.145068809
2.31000,4.313902363
2.31050,0.3463750624
2.31100,-2.095180199
2.31150,-1.484791384
2.31200,0.6515694701
2.31250,1.567152693
2.31300,0.6515694701
2.31350,-0.5692081607
2.31400,-2.095180199
2.31450,-2.400374607
2.31500,-2.400374607
2.31550,-1.179596976
2.31600,0.6515694701
2.31650,2.787930324
2.31700,4.008707955
2.31750,4.008707955
2.31800,4.008707955
2.31850,4.313902363
2.31900,4.313902363
2.31950,2.177541509
2.32000,-2.095180199
2.32050,-6.367901907
2.32100,-6.978290722
2.32150,-4.231541053
2.32200,-0.5692081607
2.32250,0.3463750624
2.32300,0.6515694701
2.32350,1.261958286
2.32400,2.177541509
2.32450,1.872347101
2.32500,-0.264013753
2.32550,-2.705569015
2.32600,-2.705569015
2.32650,-0.264013753
2.32700,1.567152693
2.32750,2.177541509
2.32800,0.9567638778
2.32850,-0.264013753
2.32900,-0.8744025684
2.32950,0.04118065471
2.33000,2.482735916
2.33050,4.61909677
2.33100,5.839874401
2.33150,5.839874401
2.33200,5.839874401
2.33250,5.534679993
2.33300,4.313902363
2.33350,2.177541509
2.33400,0.6515694701
2.33450,0.9567638778
2.33500,2.177541509
2.33550,2.787930324
2.33600,2.177541509
2.33650,0.6515694701
2.33700,-0.264013753
2.33750,-0.5692081607
2.33800,-0.8744025684
2.33850,-0.8744025684
2.33900,-0.8744025684
2.33950,-0.5692081607
2.34000,0.04118065471
2.34050,0.9567638778
2.34100,1.567152693
2.34150,0.9567638778
2.34200,0.6515694701
2.34250,0.9567638778
2.34300,1.872347101
2.34350,3.398319139
2.34400,5.534679993
2.34450,6.145068809
2.34500,2.787930324
2.34550,-3.010763422
2.34600,-8.809457169
2.34650,-10.33542921
2.34700,-7.588679538
2.34750,-2.705569015
2.34800,2.177541509
2.34850,4.924291178
2.34900,2.482735916
2.34950,-3.926346645
2.35000,-9.419845984
2.35050,-10.0302348
2.35100,-7.28348513
2.35150,-6.978290722
2.35200,-9.419845984
2.35250,-10.0302348
2.35300,-6.673096315
2.35350,-3.010763422
2.35400,-2.400374607
2.35450,-3.621152238
2.35500,-3.010763422
2.35550,-0.8744025684
2.35600,-0.5692081607
2.35650,-2.400374607
2.35700,-3.621152238
2.35750,-2.400374607
2.35800,-0.5692081607
2.35850,-0.8744025684
2.35900,-1.789985791
2.35950,-0.8744025684
2.36000,0.9567638778
2.36050,1.567152693
2.36100,0.9567638778
2.36150,1.261958286
2.36200,2.482735916
2.36250,2.787930324
2.36300,1.567152693
2.36350,0.3463750624
2.36400,0.3463750624
2.36450,0.3463750624
2.36500,0.04118065471
2.36550,0.04118065471
2.36600,1.261958286
2.36650,2.177541509
2.36700,1.567152693
2.36750,0.6515694701
2.36800,0.6515694701
2.36850,1.261958286
2.36900,0.9567638778
2.36950,0.3463750624
2.37000,0.3463750624
2.37050,0.9567638778
2.37100,0.6515694701
2.37150,-0.5692081607
2.37200,-2.705569015
2.37250,-4.841929869
2.37300,-5.452318684
2.37350,-4.841929869
2.37400,-3.621152238
2.37450,-3.621152238
2.37500,-4.841929869
2.37550,-5.452318684
2.37600,-4.841929869
2.37650,-3.31595783
2.37700,-1.789985791
2.37750,-0.264013753
2.37800,0.6515694701
2.37850,0.04118065471
2.37900,-0.5692081607
2.37950,-0.5692081607
2.38000,0.6515694701
2.38050,1.872347101
2.38100,1.261958286
2.38150,0.04118065471
2.38200,0.3463750624
2.38250,1.872347101
2.38300,2.482735916
2.38350,2.482735916
2.38400,2.482735916
2.38450,3.703513547
2.38500,4.924291178
2.38550,5.534679993
2.38600,5.839874401
2.38650,6.450263216
2.38700,7.671040847
2.38750,8.281429663
2.38800,7.976235255
2.38850,7.976235255
2.38900,8.58662407
2.38950,9.197012886
2.39000,8.891818478
2.39050,7.36584644
2.39100,5.534679993
2.39150,3.398319139
2.39200,0.6515694701
2.39250,-1.484791384
2.39300,-2.400374607
2.39350,-2.705569015
2.39400,-4.231541053
2.39450,-7.893873946
2.39500,-10.94581802
2.39550,-10.64062361
2.39600,-7.28348513
2.39650,-3.621152238
2.39700,-2.705569015
2.39750,-4.536735461
2.39800,-5.757513092
2.39850,-5.147124276
2.39900,-3.926346645
2.39950,-4.231541053
2.40000,-5.147124276
2.40050,-4.536735461
2.40100,-1.179596976
2.40150,2.482735916
2.40200,4.008707955
2.40250,3.703513547
2.40300,3.703513547
2.40350,4.008707955
2.40400,4.313902363
2.40450,3.398319139
2.40500,2.482735916
2.40550,2.177541509
2.40600,2.787930324
2.40650,3.703513547
2.40700,3.703513547
2.40750,2.177541509
2.40800,0.3463750624
2.40850,0.9567638778
2.40900,4.313902363
2.40950,6.755457624
2.41000,5.534679993
2.41050,2.177541509
2.41100,0.04118065471
2.41150,0.04118065471
2.41200,0.9567638778
2.41250,2.177541509
2.41300,3.093124732
2.41350,2.787930324
2.41400,0.04118065471
2.41450,-4.231541053
2.41500,-5.757513092
2.41550,-3.621152238
2.41600,-1.179596976
2.41650,0.04118065471
2.41700,1.567152693
2.41750,4.313902363
2.41800,4.313902363
2.41850,0.04118065471
2.41900,-4.536735461
2.41950,-4.841929869
2.42000,-1.789985791
2.42050,0.04118065471
2.42100,0.3463750624
2.42150,1.261958286
2.42200,3.093124732
2.42250,3.398319139
2.42300,1.872347101
2.42350,1.261958286
2.42400,1.567152693
2.42450,1.567152693
2.42500,0.6515694701
2.42550,1.261958286
2.42600,3.398319139
2.42650,3.703513547
2.42700,0.9567638778
2.42750,-1.789985791
2.42800,-3.31595783
2.42850,-4.231541053
2.42900,-4.841929869
2.42950,-3.926346645
2.43000,-1.789985791
2.43050,-0.5692081607
2.43100,-1.179596976
2.43150,-2.095180199
2.43200,-0.264013753
2.43250,2.482735916
2.43300,4.008707955
2.43350,4.008707955
2.43400,3.093124732
2.43450,1.872347101
2.43500,0.9567638778
2.43550,3.093124732
2.43600,7.060652032
2.43650,10.11259611
2.43700,9.502207293
2.43750,6.145068809
2.43800,1.872347101
2.43850,-3.010763422
2.43900,-9.114651576
2.43950,-13.08217888
2.44000,-13.9977621
2.44050,-13.69256769
2.44100,-14.60815091
2.44150,-14.60815091
2.44200,-10.94581802
2.44250,-4.841929869
2.44300,-1.179596976
2.44350,-1.484791384
2.44400,-3.010763422
2.44450,-3.010763422
2.44500,-2.400374607
2.44550,-2.095180199
2.44600,-2.095180199
2.44650,-1.789985791
2.44700,-0.264013753
2.44750,1.261958286
2.44800,2.787930324
2.44850,3.398319139
2.44900,2.787930324
2.44950,2.177541509
2.45000,3.093124732
2.45050,4.924291178
2.45100,5.839874401
2.45150,4.924291178
2.45200,3.398319139
2.45250,2.177541509
2.45300,0.6515694701
2.45350,-0.5692081607
2.45400,-1.484791384
2.45450,-1.179596976
2.45500,0.04118065471
2.45550,0.04118065471
2.45600,0.3463750624
2.45650,1.567152693
2.45700,4.008707955
2.45750,6.450263216
2.45800,8.891818478
2.45850,10.11259611
2.45900,10.41779052
2.45950,9.502207293
2.46000,8.281429663
2.46050,5.839874401
2.46100,1.261958286
2.46150,-5.147124276
2.46200,-11.55620684
2.46250,-13.9977621
2.46300,-12.77698447
2.46350,-10.0302348
2.46400,-8.199068353
2.46450,-8.504262761
2.46500,-9.419845984
2.46550,-8.504262761
2.46600,-4.536735461
2.46650,-0.264013753
2.46700,0.04118065471
2.46750,-2.400374607
2.46800,-3.926346645
2.46850,-1.789985791
2.46900,1.567152693
2.46950,3.093124732
2.47000,2.177541509
2.47050,1.567152693
2.47100,1.567152693
2.47150,0.3463750624
2.47200,-1.179596976
2.47250,-2.095180199
2.47300,-1.484791384
2.47350,-0.264013753
2.47400,0.3463750624
2.47450,0.6515694701
2.47500,0.04118065471
2.47550,-0.264013753
2.47600,-0.264013753
2.47650,0.04118065471
2.47700,0.04118065471
2.47750,-0.8744025684
2.47800,-1.179596976
2.47850,0.04118065471
2.47900,0.6515694701
2.47950,-0.264013753
2.48000,-0.5692081607
2.48050,2.177541509
2.48100,5.839874401
2.48150,5.839874401
2.48200,3.398319139
2.48250,1.872347101
2.48300,2.177541509
2.48350,1.567152693
2.48400,0.3463750624
2.48450,1.872347101
2.48500,6.145068809
2.48550,8.58662407
2.48600,6.450263216
2.48650,1.872347101
2.48700,-1.484791384
2.48750,-3.621152238
2.48800,-4.231541053
2.48850,-2.705569015
2.48900,1.261958286
2.48950,5.534679993
2.49000,6.755457624
2.49050,5.229485586
2.49100,3.703513547
2.49150,4.008707955
2.49200,3.398319139
2.49250,0.04118065471
2.49300,-5.452318684
2.49350,-8.809457169
2.49400,-8.199068353
2.49450,-6.367901907
2.49500,-6.673096315
2.49550,-7.893873946
2.49600,-6.978290722
2.49650,-3.621152238
2.49700,-0.264013753
2.49750,1.261958286
2.49800,2.482735916
2.49850,2.787930324
2.49900,0.9567638778
2.49950,-3.621152238
2.50000,-7.893873946
2.50050,-8.504262761
2.50100,-5.757513092
2.50150,-1.789985791
2.50200,0.6515694701
2.50250,2.482735916
2.50300,3.398319139
2.50350,4.61909677
2.50400,7.36584644
2.50450,9.807401701
2.50500,10.11259611
2.50550,6.450263216
2.50600,0.3463750624
2.50650,-3.926346645
2.50700,-5.452318684
2.50750,-4.536735461
2.50800,-2.400374607
2.50850,-0.5692081607
2.50900,-0.264013753
2.50950,-1.484791384
2.51000,-3.010763422
2.51050,-2.705569015
2.51100,0.04118065471
2.51150,4.313902363
2.51200,7.36584644
2.51250,7.060652032
2.51300,6.145068809
2.51350,7.976235255
2.51400,12.24895696
2.51450,13.46973459
2.51500,9.197012886
2.51550,1.872347101
2.51600,-3.31595783
2.51650,-3.926346645
2.51700,-0.5692081607
2.51750,3.093124732
2.51800,4.313902363
2.51850,2.787930324
2.51900,0.04118065471
2.51950,-2.095180199
2.52000,-3.926346645
2.52050,-6.062707499
2.52100,-7.28348513
2.52150,-6.062707499
2.52200,-4.231541053
2.52250,-5.757513092
2.52300,-10.94581802
2.52350,-15.82892855
2.52400,-18.27048381
2.52450,-18.88087262
2.52500,-16.13412295
2.52550,-7.588679538
2.52600,6.145068809
2.52650,17.13206749
2.52700,18.04765071
2.52750,11.63856815
2.52800,5.229485586
2.52850,3.703513547
2.52900,4.008707955
2.52950,3.703513547
2.53000,2.177541509
2.53050,0.9567638778
2.53100,1.261958286
2.53150,2.482735916
2.53200,3.703513547
2.53250,4.008707955
2.53300,3.398319139
2.53350,2.787930324
2.53400,1.872347101
2.53450,0.9567638778
2.53500,0.04118065471
2.53550,0.04118065471
2.53600,0.6515694701
2.53650,1.567152693
2.53700,1.567152693
2.53750,0.3463750624
2.53800,-0.8744025684
2.53850,-1.484791384
2.53900,-1.789985791
2.53950,-1.179596976
2.54000,0.04118065471
2.54050,0.6515694701
2.54100,0.9567638778
2.54150,0.04118065471
2.54200,-1.179596976
2.54250,-1.789985791
2.54300,-0.5692081607
2.54350,2.177541509
2.54400,5.229485586
2.54450,7.060652032
2.54500,7.060652032
2.54550,5.229485586
2.54600,3.093124732
2.54650,2.177541509
2.54700,2.787930324
2.54750,5.229485586
2.54800,7.976235255
2.54850,7.976235255
2.54900,3.703513547
2.54950,-3.926346645
2.55000,-10.94581802
2.55050,-13.9977621
2.55100,-12.77698447
2.55150,-10.0302348
2.55200,-6.673096315
2.55250,-3.621152238
2.55300,-0.5692081607
2.55350,0.9567638778
2.55400,0.9567638778
2.55450,0.04118065471
2.55500,0.04118065471
2.55550,0.9567638778
2.55600,1.872347101
2.55650,2.482735916
2.55700,3.093124732
2.55750,3.398319139
2.55800,2.177541509
2.55850,-0.264013753
2.55900,-1.789985791
2.55950,-1.179596976
2.56000,0.6515694701
2.56050,2.177541509
2.56100,1.261958286
2.56150,0.04118065471
2.56200,0.04118065471
2.56250,1.872347101
2.56300,3.703513547
2.56350,3.398319139
2.56400,2.177541509
2.56450,1.261958286
2.56500,0.6515694701
2.56550,0.04118065471
2.56600,-1.179596976
2.56650,-2.095180199
2.56700,-2.705569015
2.56750,-4.231541053
2.56800,-6.367901907
2.56850,-6.062707499
2.56900,-3.621152238
2.56950,-0.5692081607
2.57000,0.04118065471
2.57050,-0.264013753
2.57100,-1.484791384
2.57150,-1.789985791
2.57200,-1.484791384
2.57250,-0.264013753
2.57300,0.3463750624
2.57350,0.04118065471
2.57400,-1.484791384
2.57450,-2.095180199
2.57500,-0.8744025684
2.57550,0.04118065471
2.57600,-0.8744025684
2.57650,-2.705569015
2.57700,-2.705569015
2.57750,-1.179596976
2.57800,0.04118065471
2.57850,0.04118065471
2.57900,-0.8744025684
2.57950,-1.789985791
2.58000,-1.789985791
2.58050,-1.484791384
2.58100,-0.5692081607
2.58150,-0.5692081607
2.58200,-1.179596976
2.58250,-1.789985791
2.58300,-1.789985791
2.58350,-1.789985791
2.58400,-2.095180199
2.58450,-1.789985791
2.58500,0.04118065471
2.58550,1.872347101
2.58600,2.482735916
2.58650,1.872347101
2.58700,0.9567638778
2.58750,0.6515694701
2.58800,1.261958286
2.58850,0.9567638778
2.58900,0.3463750624
2.58950,0.6515694701
2.59000,2.482735916
2.59050,4.313902363
2.59100,4.008707955
2.59150,1.567152693
2.59200,0.04118065471
2.59250,0.04118065471
2.59300,0.9567638778
2.59350,0.6515694701
2.59400,0.9567638778
2.59450,3.703513547
2.59500,7.976235255
2.59550,9.807401701
2.59600,7.976235255
2.59650,4.313902363
2.59700,1.567152693
2.59750,0.6515694701
2.59800,0.04118065471
2.59850,-1.484791384
2.59900,-3.926346645
2.59950,-7.28348513
2.60000,-10.33542921
2.60050,-10.94581802
2.60100,-7.893873946
2.60150,-1.789985791
2.60200,4.61909677
2.60250,8.58662407
2.60300,6.755457624
2.60350,0.3463750624
2.60400,-6.062707499
2.60450,-10.33542921
2.60500,-11.55620684
2.60550,-10.94581802
2.60600,-8.199068353
2.60650,-3.31595783
2.60700,-1.179596976
2.60750,-4.231541053
2.60800,-6.673096315
2.60850,-1.789985791
2.60900,6.145068809
2.60950,7.36584644
2.61000,-0.8744025684
2.61050,-8.199068353
2.61100,-4.536735461
2.61150,4.924291178
2.61200,10.11259611
2.61250,8.58662407
2.61300,6.755457624
2.61350,7.060652032
2.61400,5.534679993
2.61450,1.567152693
2.61500,-0.5692081607
2.61550,-0.5692081607
2.61600,-1.789985791
2.61650,-6.367901907
2.61700,-10.94581802
2.61750,-11.25101243
2.61800,-7.28348513
2.61850,-1.179596976
2.61900,6.145068809
2.61950,11.33337374
2.62000,10.72298492
2.62050,4.924291178
2.62100,0.9567638778
2.62150,3.093124732
2.62200,7.060652032
2.62250,4.924291178
2.62300,-2.705569015
2.62350,-11.25101243
2.62400,-17.04970618
2.62450,-18.88087262
2.62500,-16.43931736
2.62550,-9.725040392
2.62600,-2.095180199
2.62650,0.6515694701
2.62700,0.04118065471
2.62750,-0.5692081607
2.62800,1.261958286
2.62850,3.703513547
2.62900,4.61909677
2.62950,5.229485586
2.63000,6.755457624
2.63050,7.976235255
2.63100,6.450263216
2.63150,3.703513547
2.63200,2.177541509
2.63250,2.482735916
2.63300,2.787930324
2.63350,2.787930324
2.63400,2.177541509
2.63450,1.872347101
2.63500,2.177541509
2.63550,3.093124732
2.63600,3.703513547
2.63650,3.093124732
2.63700,1.872347101
2.63750,1.567152693
2.63800,3.703513547
2.63850,6.145068809
2.63900,7.060652032
2.63950,5.839874401
2.64000,4.008707955
2.64050,3.093124732
2.64100,3.398319139
2.64150,4.008707955
2.64200,3.703513547
2.64250,1.567152693
2.64300,-0.8744025684
2.64350,-2.705569015
2.64400,-2.705569015
2.64450,-1.179596976
2.64500,0.04118065471
2.64550,1.261958286
2.64600,2.177541509
2.64650,2.787930324
2.64700,2.787930324
2.64750,2.177541509
2.64800,1.261958286
2.64850,0.6515694701
2.64900,1.261958286
2.64950,2.177541509
2.65000,2.482735916
2.65050,2.177541509
2.65100,2.482735916
2.65150,2.787930324
2.65200,1.872347101
2.65250,0.3463750624
2.65300,-0.5692081607
2.65350,-1.179596976
2.65400,-2.095180199
2.65450,-3.010763422
2.65500,-2.705569015
2.65550,-1.179596976
2.65600,0.04118065471
2.65650,0.3463750624
2.65700,0.04118065471
2.65750,-0.5692081607
2.65800,-2.400374607
2.65850,-4.536735461
2.65900,-4.536735461
2.65950,-2.705569015
2.66000,-1.789985791
2.66050,-2.095180199
2.66100,-1.789985791
2.66150,0.3463750624
2.66200,4.008707955
2.66250,5.839874401
2.66300,5.229485586
2.66350,3.093124732
2.66400,0.04118065471
2.66450,-3.31595783
2.66500,-4.536735461
2.66550,-3.010763422
2.66600,-0.5692081607
2.66650,0.3463750624
2.66700,0.6515694701
2.66750,0.9567638778
2.66800,0.9567638778
2.66850,0.6515694701
2.66900,0.04118065471
2.66950,0.04118065471
2.67000,0.04118065471
2.67050,-0.5692081607
2.67100,-0.5692081607
2.67150,0.9567638778
2.67200,4.008707955
2.67250,5.534679993
2.67300,4.008707955
2.67350,0.9567638778
2.67400,-0.8744025684
2.67450,-1.179596976
2.67500,-0.5692081607
2.67550,0.04118065471
2.67600,0.04118065471
2.67650,-0.264013753
2.67700,-1.484791384
2.67750,-3.31595783
2.67800,-4.841929869
2.67850,-4.841929869
2.67900,-3.621152238
2.67950,-3.010763422
2.68000,-3.31595783
2.68050,-3.010763422
2.68100,-1.484791384
2.68150,0.3463750624
2.68200,0.9567638778
2.68250,0.3463750624
2.68300,0.04118065471
2.68350,-0.264013753
2.68400,-1.179596976
2.68450,-3.010763422
2.68500,-3.621152238
2.68550,-1.484791384
2.68600,2.482735916
2.68650,4.924291178
2.68700,4.924291178
2.68750,4.313902363
2.68800,6.145068809
2.68850,9.197012886
2.68900,10.11259611
2.68950,7.976235255
2.69000,5.839874401
2.69050,6.145068809
2.69100,6.145068809
2.69150,2.482735916
2.69200,-3.926346645
2.69250,-7.893873946
2.69300,-6.978290722
2.69350,-5.757513092
2.69400,-7.893873946
2.69450,-13.38737328
2.69500,-17.9652894
2.69550,-18.88087262
2.69600,-15.52373414
2.69650,-9.114651576
2.69700,-2.400374607
2.69750,0.04118065471
2.69800,-1.789985791
2.69850,-5.147124276
2.69900,-5.452318684
2.69950,-2.705569015
2.70000,-1.484791384
2.70050,-3.621152238
2.70100,-6.062707499
2.70150,-5.452318684
2.70200,-2.705569015
2.70250,-0.8744025684
2.70300,0.04118065471
2.70350,1.567152693
2.70400,3.703513547
2.70450,4.008707955
2.70500,3.398319139
2.70550,2.787930324
2.70600,2.787930324
2.70650,2.177541509
2.70700,1.872347101
2.70750,2.177541509
2.70800,2.482735916
2.70850,0.9567638778
2.70900,-0.8744025684
2.70950,-1.179596976
2.71000,0.04118065471
2.71050,0.04118065471
2.71100,-1.484791384
2.71150,-2.095180199
2.71200,0.04118065471
2.71250,1.567152693
2.71300,-0.5692081607
2.71350,-3.621152238
2.71400,-2.705569015
2.71450,0.6515694701
2.71500,1.261958286
2.71550,-0.8744025684
2.71600,-0.5692081607
2.71650,4.313902363
2.71700,8.891818478
2.71750,8.281429663
2.71800,4.313902363
2.71850,1.872347101
2.71900,0.6515694701
2.71950,-0.5692081607
2.72000,-1.484791384
2.72050,0.6515694701
2.72100,5.534679993
2.72150,9.197012886
2.72200,9.807401701
2.72250,7.976235255
2.72300,5.229485586
2.72350,1.567152693
2.72400,-1.789985791
2.72450,-4.231541053
2.72500,-4.536735461
2.72550,-3.31595783
2.72600,-0.264013753
2.72650,3.703513547
2.72700,7.976235255
2.72750,7.36584644
2.72800,0.9567638778
2.72850,-7.893873946
2.72900,-14.30295651
2.72950,-14.60815091
2.73000,-10.94581802
2.73050,-6.978290722
2.73100,-4.231541053
2.73150,-1.484791384
2.73200,0.04118065471
2.73250,0.6515694701
2.73300,0.04118065471
2.73350,0.04118065471
2.73400,1.567152693
2.73450,3.093124732
2.73500,3.398319139
2.73550,3.398319139
2.73600,4.313902363
2.73650,5.534679993
2.73700,5.534679993
2.73750,5.229485586
2.73800,5.839874401
2.73850,5.839874401
2.73900,3.398319139
2.73950,0.6515694701
2.74000,0.9567638778
2.74050,3.093124732
2.74100,2.482735916
2.74150,-2.095180199
2.74200,-6.367901907
2.74250,-6.062707499
2.74300,-2.705569015
2.74350,0.04118065471
2.74400,0.04118065471
2.74450,-1.484791384
2.74500,-2.095180199
2.74550,-1.484791384
2.74600,0.04118065471
2.74650,1.567152693
2.74700,3.398319139
2.74750,5.534679993
2.74800,6.755457624
2.74850,6.450263216
2.74900,4.008707955
2.74950,2.177541509
2.75000,1.872347101
2.75050,1.872347101
2.75100,1.261958286
2.75150,0.6515694701
2.75200,1.567152693
2.75250,2.177541509
2.75300,1.261958286
2.75350,0.04118065471
2.75400,0.3463750624
2.75450,2.787930324
2.75500,4.313902363
2.75550,3.703513547
2.75600,0.9567638778
2.75650,-1.179596976
2.75700,-2.095180199
2.75750,-1.484791384
2.75800,-0.8744025684
2.75850,-2.095180199
2.75900,-3.621152238
2.75950,-3.621152238
2.76000,-2.400374607
2.76050,-1.484791384
2.76100,-1.179596976
2.76150,0.9567638778
2.76200,4.61909677
2.76250,6.450263216
2.76300,5.229485586
2.76350,2.787930324
2.76400,2.482735916
2.76450,3.093124732
2.76500,3.093124732
2.76550,2.482735916
2.76600,2.177541509
2.76650,1.567152693
2.76700,-0.5692081607
2.76750,-2.705569015
2.76800,-3.31595783
2.76850,-2.705569015
2.76900,-2.095180199
2.76950,-2.095180199
2.77000,-1.484791384
2.77050,0.04118065471
2.77100,1.567152693
2.77150,2.177541509
2.77200,2.177541509
2.77250,2.482735916
2.77300,3.093124732
2.77350,3.398319139
2.77400,1.567152693
2.77450,-1.179596976
2.77500,-2.400374607
2.77550,-0.264013753
2.77600,1.872347101
2.77650,1.872347101
2.77700,-0.5692081607
2.77750,-1.789985791
2.77800,-1.179596976
2.77850,-1.484791384
2.77900,-3.31595783
2.77950,-4.536735461
2.78000,-4.536735461
2.78050,-4.536735461
2.78100,-5.757513092
2.78150,-7.28348513
2.78200,-7.893873946
2.78250,-8.504262761
2.78300,-8.199068353
2.78350,-5.757513092
2.78400,-1.179596976
2.78450,2.177541509
2.78500,3.703513547
2.78550,4.61909677
2.78600,5.839874401
2.78650,5.839874401
2.78700,3.398319139
2.78750,0.04118065471
2.78800,-3.010763422
2.78850,-5.452318684
2.78900,-6.367901907
2.78950,-4.841929869
2.79000,-2.095180199
2.79050,-1.789985791
2.79100,-2.705569015
2.79150,-2.400374607
2.79200,-0.264013753
2.79250,-0.264013753
2.79300,-2.705569015
2.79350,-3.926346645
2.79400,-1.789985791
2.79450,0.04118065471
2.79500,-0.8744025684
2.79550,-3.010763422
2.79600,-2.095180199
2.79650,1.261958286
2.79700,4.313902363
2.79750,5.229485586
2.79800,3.093124732
2.79850,-1.179596976
2.79900,-6.673096315
2.79950,-10.33542921
2.80000,-9.725040392
2.80050,-6.673096315
2.80100,-3.31595783
2.80150,-0.8744025684
2.80200,0.04118065471
2.80250,0.04118065471
2.80300,-0.264013753
2.80350,0.04118065471
2.80400,0.3463750624
2.80450,-1.179596976
2.80500,-3.621152238
2.80550,-3.010763422
2.80600,1.567152693
2.80650,4.313902363
2.80700,1.567152693
2.80750,-3.621152238
2.80800,-4.536735461
2.80850,-0.5692081607
2.80900,3.703513547
2.80950,5.534679993
2.81000,5.534679993
2.81050,4.313902363
2.81100,1.567152693
2.81150,-0.8744025684
2.81200,-1.789985791
2.81250,-1.179596976
2.81300,-0.264013753
2.81350,0.04118065471
2.81400,1.567152693
2.81450,3.703513547
2.81500,4.008707955
2.81550,2.177541509
2.81600,0.6515694701
2.81650,0.6515694701
2.81700,1.567152693
2.81750,1.567152693
2.81800,2.177541509
2.81850,4.313902363
2.81900,6.450263216
2.81950,7.36584644
2.82000,6.755457624
2.82050,5.839874401
2.82100,5.534679993
2.82150,4.924291178
2.82200,4.008707955
2.82250,2.482735916
2.82300,0.04118065471
2.82350,-3.010763422
2.82400,-4.536735461
2.82450,-3.926346645
2.82500,-3.31595783
2.82550,-4.231541053
2.82600,-4.536735461
2.82650,-1.789985791
2.82700,2.177541509
2.82750,4.313902363
2.82800,2.787930324
2.82850,1.261958286
2.82900,1.567152693
2.82950,1.872347101
2.83000,0.9567638778
2.83050,-0.5692081607
2.83100,-1.179596976
2.83150,-0.5692081607
2.83200,0.3463750624
2.83250,2.177541509
2.83300,3.703513547
2.83350,3.398319139
2.83400,2.177541509
2.83450,0.9567638778
2.83500,0.6515694701
2.83550,0.3463750624
2.83600,0.04118065471
2.83650,0.3463750624
2.83700,2.177541509
2.83750,2.482735916
2.83800,-0.264013753
2.83850,-5.147124276
2.83900,-7.893873946
2.83950,-7.588679538
2.84000,-5.452318684
2.84050,-3.926346645
2.84100,-2.705569015
2.84150,-1.789985791
2.84200,-0.8744025684
2.84250,-0.5692081607
2.84300,-0.264013753
2.84350,1.567152693
2.84400,4.924291178
2.84450,6.145068809
2.84500,4.008707955
2.84550,0.3463750624
2.84600,0.04118065471
2.84650,1.261958286
2.84700,2.177541509
2.84750,2.177541509
2.84800,3.703513547
2.84850,7.671040847
2.84900,10.11259611
2.84950,7.36584644
2.85000,0.04118065471
2.85050,-7.28348513
2.85100,-12.16659565
2.85150,-12.77698447
2.85200,-8.809457169
2.85250,-2.705569015
2.85300,1.567152693
2.85350,2.177541509
2.85400,1.261958286
2.85450,1.567152693
2.85500,2.787930324
2.85550,2.177541509
2.85600,0.9567638778
2.85650,0.6515694701
2.85700,1.872347101
2.85750,2.482735916
2.85800,2.177541509
2.85850,1.872347101
2.85900,2.787930324
2.85950,2.787930324
2.86000,1.261958286
2.86050,-1.179596976
2.86100,-4.231541053
2.86150,-5.452318684
2.86200,-3.31595783
2.86250,1.872347101
2.86300,7.060652032
2.86350,9.807401701
2.86400,10.72298492
2.86450,11.02817933
2.86500,9.197012886
2.86550,4.61909677
2.86600,0.3463750624
2.86650,0.04118065471
2.86700,1.872347101
2.86750,0.6515694701
2.86800,-6.367901907
2.86850,-15.82892855
2.86900,-20.71203907
2.86950,-18.27048381
2.87000,-12.16659565
2.87050,-6.673096315
2.87100,-3.010763422
2.87150,-1.179596976
2.87200,-1.179596976
2.87250,-2.095180199
2.87300,-2.705569015
2.87350,-1.484791384
2.87400,0.9567638778
2.87450,3.703513547
2.87500,4.924291178
2.87550,4.313902363
2.87600,2.482735916
2.87650,0.04118065471
2.87700,-2.705569015
2.87750,-4.536735461
2.87800,-4.536735461
2.87850,-1.789985791
2.87900,1.567152693
2.87950,4.008707955
2.88000,3.703513547
2.88050,3.093124732
2.88100,3.703513547
2.88150,4.61909677
2.88200,3.398319139
2.88250,0.04118065471
2.88300,-2.095180199
2.88350,-2.095180199
2.88400,-3.621152238
2.88450,-8.504262761
2.88500,-12.77698447
2.88550,-10.33542921
2.88600,-3.621152238
2.88650,0.04118065471
2.88700,-1.484791384
2.88750,-3.621152238
2.88800,-2.705569015
2.88850,-0.8744025684
2.88900,-0.264013753
2.88950,0.9567638778
2.89000,4.008707955
2.89050,3.703513547
2.89100,-1.179596976
2.89150,-5.147124276
2.89200,-1.179596976
2.89250,7.671040847
2.89300,13.16454019
2.89350,11.02817933
2.89400,4.61909677
2.89450,0.04118065471
2.89500,-1.484791384
2.89550,0.04118065471
2.89600,4.313902363
2.89650,8.281429663
2.89700,7.671040847
2.89750,3.093124732
2.89800,-1.789985791
2.89850,-3.621152238
2.89900,-2.400374607
2.89950,-0.5692081607
2.90000,0.6515694701
2.90050,1.567152693
2.90100,1.872347101
2.90150,1.872347101
2.90200,1.261958286
2.90250,1.261958286
2.90300,2.177541509
2.90350,3.703513547
2.90400,4.008707955
2.90450,3.093124732
2.90500,2.787930324
2.90550,2.787930324
2.90600,2.482735916
