"type","name","time_units","begin_time","frequency","count","units"
"signal","Ultium EMG-EXT.CARP.ULN. RT","s",461.96000,2000,22000,"uV"

"time","value"
461.96000,-7.251913295
461.96050,-2.673997179
461.96100,-3.284385995
461.96150,-6.031135664
461.96200,-7.86230211
461.96250,-7.557107703
461.96300,-4.199969218
461.96350,1.293530121
461.96400,6.481835052
461.96450,5.566251829
461.96500,-0.8428307331
461.96550,-7.557107703
461.96600,-9.083079741
461.96650,-6.946718887
461.96700,-4.199969218
461.96750,-2.063608364
461.96800,0.07275248999
461.96850,2.514307752
461.96900,3.429890975
461.96950,2.819502159
461.97000,0.9883357131
461.97050,-0.2324419177
461.97100,-1.453219549
461.97150,-2.063608364
461.97200,-3.284385995
461.97250,-4.505163626
461.97300,-5.115552441
461.97350,-4.505163626
461.97400,-3.284385995
461.97450,-2.979191587
461.97500,-2.673997179
461.97550,-2.368802772
461.97600,-3.284385995
461.97650,-7.251913295
461.97700,-12.74541263
461.97750,-16.40774553
461.97800,-15.1869679
461.97850,-9.693468556
461.97900,-1.758413956
461.97950,4.04027979
461.98000,5.566251829
461.98050,2.819502159
461.98100,0.9883357131
461.98150,3.124696567
461.98200,7.397418275
461.98250,10.14416794
461.98300,10.44936235
461.98350,9.838973536
461.98400,8.618195906
461.98450,5.261057421
461.98500,0.3779468977
461.98550,-2.673997179
461.98600,-5.115552441
461.98650,-7.251913295
461.98700,-8.167496518
461.98750,-6.641524479
461.98800,-4.505163626
461.98850,-3.89477481
461.98900,-2.368802772
461.98950,4.04027979
461.99000,13.19611202
461.99050,19.60519458
461.99100,22.04674984
461.99150,23.87791629
461.99200,24.48830511
461.99250,21.74155544
461.99300,18.07922254
461.99350,19.30000018
461.99400,20.2155834
461.99450,9.228584721
461.99500,-16.10255112
461.99550,-41.12849255
461.99600,-49.06354715
461.99650,-38.9921317
461.99700,-21.90124486
461.99750,-6.946718887
461.99800,1.293530121
461.99850,4.04027979
461.99900,4.04027979
461.99950,4.955863013
462.00000,7.397418275
462.00050,8.313001498
462.00100,7.092223867
462.00150,7.702612683
462.00200,10.44936235
462.00250,12.2805288
462.00300,9.838973536
462.00350,2.209113344
462.00400,-11.21944059
462.00450,-28.92071624
462.00500,-41.73888137
462.00550,-42.959659
462.00600,-40.82329814
462.00650,-49.36874156
462.00700,-65.84923957
462.00750,-69.51157247
462.00800,-45.70640867
462.00850,-4.505163626
462.00900,31.81297089
462.00950,53.48177384
462.01000,63.55318929
462.01050,64.46877252
462.01100,55.9233291
462.01150,39.74802549
462.01200,23.26752748
462.01250,12.2805288
462.01300,9.228584721
462.01350,11.97533439
462.01400,16.55325051
462.01450,17.16363932
462.01500,9.533779129
462.01550,-7.251913295
462.01600,-27.3947442
462.01650,-38.38174288
462.01700,-30.75188269
462.01750,-9.998662964
462.01800,6.481835052
462.01850,9.228584721
462.01900,4.04027979
462.01950,1.903918936
462.02000,4.650668606
462.02050,6.787029459
462.02100,6.481835052
462.02150,6.787029459
462.02200,8.313001498
462.02250,8.618195906
462.02300,8.00780709
462.02350,10.14416794
462.02400,14.11169524
462.02450,16.85844491
462.02500,18.38441695
462.02550,21.13116662
462.02600,25.70908274
462.02650,28.76102681
462.02700,29.06622122
462.02750,26.62466596
462.02800,21.43636103
462.02850,14.41688965
462.02900,4.955863013
462.02950,-9.998662964
462.03000,-32.27785473
462.03050,-53.64146327
462.03100,-59.44015701
462.03150,-45.40121426
462.03200,-23.4272169
462.03250,-6.946718887
462.03300,-1.453219549
462.03350,-3.89477481
462.03400,-10.91424619
462.03450,-15.4921623
462.03500,-6.031135664
462.03550,16.2480561
462.03600,36.39088701
462.03650,38.52724786
462.03700,26.62466596
462.03750,15.94286169
462.03800,12.89091761
462.03850,12.2805288
462.03900,9.838973536
462.03950,8.00780709
462.04000,7.397418275
462.04050,5.566251829
462.04100,2.819502159
462.04150,2.209113344
462.04200,4.04027979
462.04250,4.650668606
462.04300,3.429890975
462.04350,2.819502159
462.04400,4.04027979
462.04450,4.955863013
462.04500,4.955863013
462.04550,5.261057421
462.04600,6.481835052
462.04650,6.481835052
462.04700,4.955863013
462.04750,4.04027979
462.04800,4.04027979
462.04850,4.04027979
462.04900,3.429890975
462.04950,3.124696567
462.05000,3.429890975
462.05050,3.429890975
462.05100,2.514307752
462.05150,1.903918936
462.05200,2.514307752
462.05250,3.124696567
462.05300,2.514307752
462.05350,1.293530121
462.05400,0.3779468977
462.05450,-0.2324419177
462.05500,-1.453219549
462.05550,-2.979191587
462.05600,-4.199969218
462.05650,-6.031135664
462.05700,-7.86230211
462.05750,-9.388274149
462.05800,-8.777885333
462.05850,-6.031135664
462.05900,-2.368802772
462.05950,-0.5376363254
462.06000,-1.148025141
462.06050,-2.673997179
462.06100,-2.979191587
462.06150,-2.673997179
462.06200,-2.673997179
462.06250,-4.505163626
462.06300,-6.641524479
462.06350,-7.86230211
462.06400,-6.946718887
462.06450,-4.199969218
462.06500,-1.453219549
462.06550,-0.2324419177
462.06600,0.07275248999
462.06650,-0.2324419177
462.06700,-0.2324419177
462.06750,-0.2324419177
462.06800,0.07275248999
462.06850,0.3779468977
462.06900,0.6831413054
462.06950,0.07275248999
462.07000,-1.453219549
462.07050,-4.505163626
462.07100,-7.557107703
462.07150,-8.777885333
462.07200,-7.251913295
462.07250,-2.368802772
462.07300,1.598724528
462.07350,3.124696567
462.07400,2.209113344
462.07450,1.598724528
462.07500,1.903918936
462.07550,0.3779468977
462.07600,-3.89477481
462.07650,-9.388274149
462.07700,-12.74541263
462.07750,-13.96619026
462.07800,-13.96619026
462.07850,-13.35580145
462.07900,-10.60905178
462.07950,-7.86230211
462.08000,-6.946718887
462.08050,-7.86230211
462.08100,-8.167496518
462.08150,-6.946718887
462.08200,-5.420746849
462.08250,-4.810358033
462.08300,-5.115552441
462.08350,-5.115552441
462.08400,-4.505163626
462.08450,-3.589580402
462.08500,-2.063608364
462.08550,-0.5376363254
462.08600,0.07275248999
462.08650,0.3779468977
462.08700,-0.2324419177
462.08750,-1.148025141
462.08800,-1.453219549
462.08850,-1.453219549
462.08900,-1.148025141
462.08950,-0.2324419177
462.09000,0.6831413054
462.09050,1.903918936
462.09100,2.819502159
462.09150,2.514307752
462.09200,1.598724528
462.09250,1.293530121
462.09300,0.9883357131
462.09350,-0.2324419177
462.09400,-2.063608364
462.09450,-3.89477481
462.09500,-4.199969218
462.09550,-2.979191587
462.09600,-0.8428307331
462.09650,1.903918936
462.09700,5.566251829
462.09750,7.702612683
462.09800,7.092223867
462.09850,4.955863013
462.09900,3.735085382
462.09950,4.04027979
462.10000,4.650668606
462.10050,4.345474198
462.10100,3.735085382
462.10150,3.429890975
462.10200,1.598724528
462.10250,-1.148025141
462.10300,-3.284385995
462.10350,-2.368802772
462.10400,0.07275248999
462.10450,1.598724528
462.10500,1.293530121
462.10550,0.6831413054
462.10600,0.3779468977
462.10650,-0.8428307331
462.10700,-3.589580402
462.10750,-4.810358033
462.10800,-3.89477481
462.10850,-2.063608364
462.10900,-1.453219549
462.10950,-2.673997179
462.11000,-4.199969218
462.11050,-5.420746849
462.11100,-6.031135664
462.11150,-5.725941256
462.11200,-4.199969218
462.11250,-2.979191587
462.11300,-2.063608364
462.11350,-0.5376363254
462.11400,0.3779468977
462.11450,-0.5376363254
462.11500,-4.505163626
462.11550,-8.167496518
462.11600,-7.557107703
462.11650,-4.199969218
462.11700,-1.758413956
462.11750,-1.453219549
462.11800,-1.758413956
462.11850,-2.063608364
462.11900,-3.89477481
462.11950,-6.031135664
462.12000,-5.420746849
462.12050,-1.453219549
462.12100,1.903918936
462.12150,2.819502159
462.12200,2.819502159
462.12250,2.819502159
462.12300,0.6831413054
462.12350,-2.979191587
462.12400,-4.810358033
462.12450,-2.368802772
462.12500,-0.5376363254
462.12550,-2.368802772
462.12600,-3.284385995
462.12650,1.598724528
462.12700,9.838973536
462.12750,14.11169524
462.12800,15.02727847
462.12850,17.16363932
462.12900,19.60519458
462.12950,18.07922254
462.13000,15.02727847
462.13050,16.55325051
462.13100,16.55325051
462.13150,2.209113344
462.13200,-25.56357776
462.13250,-47.53757511
462.13300,-48.14796393
462.13350,-32.27785473
462.13400,-15.79735671
462.13450,-6.946718887
462.13500,-6.336330072
462.13550,-11.21944059
462.13600,-17.62852316
462.13650,-19.76488401
462.13700,-17.32332875
462.13750,-14.27138467
462.13800,-9.693468556
462.13850,0.3779468977
462.13900,12.89091761
462.13950,18.38441695
462.14000,17.77402814
462.14050,22.35194425
462.14100,30.89738767
462.14150,24.79349951
462.14200,-2.979191587
462.14250,-29.22591065
462.14300,-26.78435539
462.14350,-0.8428307331
462.14400,19.91038899
462.14450,20.52077781
462.14500,9.228584721
462.14550,-3.284385995
462.14600,-15.4921623
462.14650,-26.17396657
462.14700,-28.31032743
462.14750,-18.54410638
462.14800,-3.589580402
462.14850,8.313001498
462.14900,17.16363932
462.14950,25.09869392
462.15000,30.59219326
462.15050,32.1181653
462.15100,31.20258208
462.15150,31.20258208
462.15200,29.98180444
462.15250,19.91038899
462.15300,-3.284385995
462.15350,-32.27785473
462.15400,-49.36874156
462.15450,-41.73888137
462.15500,-17.01813434
462.15550,0.9883357131
462.15600,-0.5376363254
462.15650,-12.44021823
462.15700,-14.88177349
462.15750,-3.89477481
462.15800,3.735085382
462.15850,-5.115552441
462.15900,-23.4272169
462.15950,-31.97266032
462.16000,-24.34280013
462.16050,-10.91424619
462.16100,-2.368802772
462.16150,-0.5376363254
462.16200,-2.368802772
462.16250,-8.167496518
462.16300,-16.10255112
462.16350,-19.4596896
462.16400,-15.1869679
462.16450,-12.44021823
462.16500,-24.95318894
462.16550,-49.67393597
462.16600,-64.93365635
462.16650,-52.72588004
462.16700,-18.84930079
462.16750,14.11169524
462.16800,32.72855411
462.16850,42.79996957
462.16900,55.9233291
462.16950,73.31941034
462.17000,86.13757546
462.17050,86.74796428
462.17100,77.28693764
462.17150,62.94280048
462.17200,47.68308009
462.17250,33.64413734
462.17300,23.26752748
462.17350,17.77402814
462.17400,14.72208406
462.17450,11.36494557
462.17500,8.00780709
462.17550,6.176640644
462.17600,5.261057421
462.17650,3.735085382
462.17700,1.903918936
462.17750,1.598724528
462.17800,1.903918936
462.17850,0.9883357131
462.17900,-0.8428307331
462.17950,-2.063608364
462.18000,-1.758413956
462.18050,-1.453219549
462.18100,-1.453219549
462.18150,-1.758413956
462.18200,-2.368802772
462.18250,-3.89477481
462.18300,-4.505163626
462.18350,-2.673997179
462.18400,1.293530121
462.18450,4.345474198
462.18500,4.650668606
462.18550,4.345474198
462.18600,4.650668606
462.18650,4.345474198
462.18700,2.209113344
462.18750,-0.5376363254
462.18800,-1.758413956
462.18850,-1.148025141
462.18900,-0.2324419177
462.18950,0.3779468977
462.19000,1.293530121
462.19050,2.514307752
462.19100,2.819502159
462.19150,1.598724528
462.19200,-0.2324419177
462.19250,-1.148025141
462.19300,-1.758413956
462.19350,-2.063608364
462.19400,-1.758413956
462.19450,-1.453219549
462.19500,-1.758413956
462.19550,-2.673997179
462.19600,-2.979191587
462.19650,-2.368802772
462.19700,-2.673997179
462.19750,-4.810358033
462.19800,-6.641524479
462.19850,-6.946718887
462.19900,-5.725941256
462.19950,-6.031135664
462.20000,-7.557107703
462.20050,-9.083079741
462.20100,-9.693468556
462.20150,-9.998662964
462.20200,-10.60905178
462.20250,-10.30385737
462.20300,-8.777885333
462.20350,-6.946718887
462.20400,-5.725941256
462.20450,-4.199969218
462.20500,-2.063608364
462.20550,-0.8428307331
462.20600,-1.453219549
462.20650,-3.589580402
462.20700,-6.031135664
462.20750,-8.167496518
462.20800,-9.083079741
462.20850,-7.557107703
462.20900,-4.810358033
462.20950,-3.284385995
462.21000,-3.89477481
462.21050,-5.115552441
462.21100,-5.725941256
462.21150,-5.420746849
462.21200,-5.115552441
462.21250,-3.589580402
462.21300,-1.758413956
462.21350,-1.453219549
462.21400,-2.368802772
462.21450,-1.453219549
462.21500,1.598724528
462.21550,4.04027979
462.21600,3.124696567
462.21650,0.6831413054
462.21700,-1.453219549
462.21750,-3.89477481
462.21800,-7.86230211
462.21850,-11.82982941
462.21900,-13.05060704
462.21950,-12.74541263
462.22000,-12.74541263
462.22050,-11.82982941
462.22100,-9.083079741
462.22150,-5.725941256
462.22200,-3.89477481
462.22250,-3.89477481
462.22300,-3.589580402
462.22350,-1.148025141
462.22400,1.598724528
462.22450,4.04027979
462.22500,4.345474198
462.22550,2.819502159
462.22600,0.6831413054
462.22650,0.07275248999
462.22700,0.07275248999
462.22750,-0.2324419177
462.22800,-0.5376363254
462.22850,0.9883357131
462.22900,2.819502159
462.22950,0.07275248999
462.23000,-6.336330072
462.23050,-11.82982941
462.23100,-11.524635
462.23150,-6.946718887
462.23200,-2.368802772
462.23250,0.6831413054
462.23300,3.124696567
462.23350,4.345474198
462.23400,4.04027979
462.23450,3.429890975
462.23500,3.124696567
462.23550,1.293530121
462.23600,-1.758413956
462.23650,-3.589580402
462.23700,-2.368802772
462.23750,0.07275248999
462.23800,1.598724528
462.23850,2.209113344
462.23900,3.735085382
462.23950,4.955863013
462.24000,4.345474198
462.24050,1.903918936
462.24100,-0.5376363254
462.24150,-2.368802772
462.24200,-3.284385995
462.24250,-2.063608364
462.24300,0.07275248999
462.24350,2.209113344
462.24400,2.209113344
462.24450,0.9883357131
462.24500,-0.2324419177
462.24550,-2.368802772
462.24600,-5.115552441
462.24650,-7.251913295
462.24700,-7.557107703
462.24750,-6.641524479
462.24800,-4.810358033
462.24850,-2.979191587
462.24900,-1.148025141
462.24950,-0.8428307331
462.25000,-0.5376363254
462.25050,1.598724528
462.25100,6.481835052
462.25150,10.44936235
462.25200,10.44936235
462.25250,8.618195906
462.25300,7.397418275
462.25350,6.787029459
462.25400,5.261057421
462.25450,2.209113344
462.25500,-0.8428307331
462.25550,-2.673997179
462.25600,-2.979191587
462.25650,-1.758413956
462.25700,-0.5376363254
462.25750,-0.2324419177
462.25800,-0.2324419177
462.25850,-0.5376363254
462.25900,-2.368802772
462.25950,-5.115552441
462.26000,-8.167496518
462.26050,-9.693468556
462.26100,-7.557107703
462.26150,-2.368802772
462.26200,2.514307752
462.26250,2.209113344
462.26300,-4.810358033
462.26350,-12.44021823
462.26400,-13.05060704
462.26450,-4.199969218
462.26500,7.092223867
462.26550,17.16363932
462.26600,24.79349951
462.26650,29.67661004
462.26700,28.45583241
462.26750,22.65713866
462.26800,20.52077781
462.26850,25.70908274
462.26900,25.70908274
462.26950,8.00780709
462.27000,-20.68046723
462.27050,-38.68693729
462.27100,-33.80382676
462.27150,-15.79735671
462.27200,-0.2324419177
462.27250,7.702612683
462.27300,12.2805288
462.27350,12.58572321
462.27400,7.092223867
462.27450,0.07275248999
462.27500,-2.673997179
462.27550,-2.063608364
462.27600,-3.284385995
462.27650,-8.167496518
462.27700,-13.35580145
462.27750,-17.62852316
462.27800,-23.1220225
462.27850,-28.61552183
462.27900,-29.83629946
462.27950,-26.78435539
462.28000,-25.86877216
462.28050,-30.14149387
462.28100,-32.88824354
462.28150,-25.25838335
462.28200,-9.998662964
462.28250,2.819502159
462.28300,9.228584721
462.28350,13.80650084
462.28400,20.82597221
462.28450,27.23505478
462.28500,27.23505478
462.28550,19.91038899
462.28600,12.89091761
462.28650,14.72208406
462.28700,24.79349951
462.28750,32.72855411
462.28800,29.67661004
462.28850,21.13116662
462.28900,19.91038899
462.28950,28.150638
462.29000,33.33894293
462.29050,28.45583241
462.29100,21.74155544
462.29150,18.99480577
462.29200,13.19611202
462.29250,0.3779468977
462.29300,-6.946718887
462.29350,0.9883357131
462.29400,10.44936235
462.29450,0.07275248999
462.29500,-21.29085605
462.29550,-26.17396657
462.29600,-9.083079741
462.29650,4.345474198
462.29700,-1.148025141
462.29750,-13.66099586
462.29800,-18.23891197
462.29850,-17.93371756
462.29900,-19.4596896
462.29950,-17.62852316
462.30000,-11.524635
462.30050,-13.35580145
462.30100,-27.0895498
462.30150,-34.41421558
462.30200,-20.98566164
462.30250,-2.368802772
462.30300,0.3779468977
462.30350,-3.589580402
462.30400,4.04027979
462.30450,18.99480577
462.30500,17.16363932
462.30550,-3.284385995
462.30600,-18.84930079
462.30650,-16.40774553
462.30700,-6.946718887
462.30750,-0.8428307331
462.30800,6.481835052
462.30850,15.33247288
462.30900,11.05975117
462.30950,-10.60905178
462.31000,-28.92071624
462.31050,-23.1220225
462.31100,-0.2324419177
462.31150,16.2480561
462.31200,16.85844491
462.31250,11.67013998
462.31300,9.228584721
462.31350,8.618195906
462.31400,7.092223867
462.31450,6.481835052
462.31500,8.00780709
462.31550,9.228584721
462.31600,8.618195906
462.31650,7.397418275
462.31700,5.871446236
462.31750,4.04027979
462.31800,2.819502159
462.31850,3.429890975
462.31900,4.955863013
462.31950,5.261057421
462.32000,4.345474198
462.32050,4.04027979
462.32100,4.04027979
462.32150,3.124696567
462.32200,1.598724528
462.32250,0.6831413054
462.32300,0.07275248999
462.32350,-1.453219549
462.32400,-4.810358033
462.32450,-8.167496518
462.32500,-10.60905178
462.32550,-10.60905178
462.32600,-9.388274149
462.32650,-8.472690926
462.32700,-9.693468556
462.32750,-10.91424619
462.32800,-8.777885333
462.32850,-3.284385995
462.32900,2.209113344
462.32950,4.650668606
462.33000,4.955863013
462.33050,4.345474198
462.33100,4.650668606
462.33150,7.092223867
462.33200,12.2805288
462.33250,19.30000018
462.33300,22.96233307
462.33350,20.82597221
462.33400,14.72208406
462.33450,8.618195906
462.33500,3.429890975
462.33550,-1.453219549
462.33600,-5.115552441
462.33650,-5.725941256
462.33700,-3.589580402
462.33750,-1.758413956
462.33800,-1.148025141
462.33850,-1.758413956
462.33900,-2.673997179
462.33950,-4.199969218
462.34000,-5.725941256
462.34050,-5.115552441
462.34100,-3.89477481
462.34150,-5.420746849
462.34200,-9.083079741
462.34250,-11.524635
462.34300,-10.91424619
462.34350,-9.083079741
462.34400,-7.557107703
462.34450,-6.031135664
462.34500,-3.89477481
462.34550,-2.673997179
462.34600,-3.89477481
462.34650,-4.505163626
462.34700,-2.673997179
462.34750,-0.5376363254
462.34800,-1.453219549
462.34850,-5.420746849
462.34900,-8.472690926
462.34950,-8.472690926
462.35000,-6.336330072
462.35050,-4.810358033
462.35100,-5.725941256
462.35150,-7.86230211
462.35200,-8.167496518
462.35250,-4.505163626
462.35300,1.598724528
462.35350,5.871446236
462.35400,5.566251829
462.35450,4.345474198
462.35500,4.955863013
462.35550,5.566251829
462.35600,4.345474198
462.35650,3.124696567
462.35700,4.650668606
462.35750,6.176640644
462.35800,2.514307752
462.35850,-5.420746849
462.35900,-10.91424619
462.35950,-9.388274149
462.36000,-4.199969218
462.36050,-0.5376363254
462.36100,0.3779468977
462.36150,-0.2324419177
462.36200,-1.758413956
462.36250,-5.420746849
462.36300,-8.777885333
462.36350,-10.91424619
462.36400,-13.35580145
462.36450,-15.79735671
462.36500,-15.79735671
462.36550,-12.44021823
462.36600,-8.777885333
462.36650,-7.557107703
462.36700,-6.946718887
462.36750,-4.199969218
462.36800,-0.8428307331
462.36850,1.903918936
462.36900,5.871446236
462.36950,13.19611202
462.37000,21.74155544
462.37050,27.54024918
462.37100,28.45583241
462.37150,25.40388833
462.37200,20.82597221
462.37250,16.2480561
462.37300,13.19611202
462.37350,9.838973536
462.37400,4.955863013
462.37450,-0.5376363254
462.37500,-2.979191587
462.37550,-1.758413956
462.37600,-0.8428307331
462.37650,-3.589580402
462.37700,-6.946718887
462.37750,-7.557107703
462.37800,-6.336330072
462.37850,-5.420746849
462.37900,-5.420746849
462.37950,-6.336330072
462.38000,-8.167496518
462.38050,-11.21944059
462.38100,-12.74541263
462.38150,-11.524635
462.38200,-7.557107703
462.38250,-3.284385995
462.38300,-0.2324419177
462.38350,0.9883357131
462.38400,-0.2324419177
462.38450,-1.453219549
462.38500,-0.8428307331
462.38550,2.209113344
462.38600,4.650668606
462.38650,3.429890975
462.38700,-1.453219549
462.38750,-8.472690926
462.38800,-16.71293993
462.38850,-22.81682809
462.38900,-23.1220225
462.38950,-18.84930079
462.39000,-13.96619026
462.39050,-11.82982941
462.39100,-10.91424619
462.39150,-9.083079741
462.39200,-6.336330072
462.39250,-3.284385995
462.39300,3.124696567
462.39350,13.19611202
462.39400,21.13116662
462.39450,21.13116662
462.39500,15.33247288
462.39550,9.533779129
462.39600,6.176640644
462.39650,3.735085382
462.39700,1.293530121
462.39750,0.9883357131
462.39800,2.514307752
462.39850,3.735085382
462.39900,4.04027979
462.39950,6.176640644
462.40000,10.14416794
462.40050,12.89091761
462.40100,13.80650084
462.40150,16.2480561
462.40200,22.04674984
462.40250,27.23505478
462.40300,28.76102681
462.40350,28.150638
462.40400,26.01427714
462.40450,22.35194425
462.40500,18.38441695
462.40550,17.46883373
462.40600,15.33247288
462.40650,1.598724528
462.40700,-26.17396657
462.40750,-54.25185208
462.40800,-65.54404517
462.40850,-60.05054583
462.40900,-48.45315833
462.40950,-37.16096525
462.41000,-24.03760572
462.41050,-11.524635
462.41100,-5.725941256
462.41150,-5.725941256
462.41200,-3.284385995
462.41250,4.345474198
462.41300,10.44936235
462.41350,10.44936235
462.41400,8.618195906
462.41450,9.533779129
462.41500,7.397418275
462.41550,-3.284385995
462.41600,-17.32332875
462.41650,-22.20643927
462.41700,-14.88177349
462.41750,-4.505163626
462.41800,1.293530121
462.41850,6.481835052
462.41900,18.68961136
462.41950,37.00127582
462.42000,52.87138502
462.42050,62.33241166
462.42100,66.29993896
462.42150,63.24799488
462.42200,49.20905213
462.42250,29.06622122
462.42300,19.91038899
462.42350,26.01427714
462.42400,24.1831107
462.42450,-9.388274149
462.42500,-61.88171227
462.42550,-91.79076423
462.42600,-79.27779351
462.42650,-49.36874156
462.42700,-36.55057643
462.42750,-44.79082544
462.42800,-52.11549123
462.42850,-43.57004781
462.42900,-24.03760572
462.42950,-6.031135664
462.43000,0.3779468977
462.43050,-8.472690926
462.43100,-27.3947442
462.43150,-39.90771492
462.43200,-34.10902117
462.43250,-15.79735671
462.43300,0.6831413054
462.43350,8.923390313
462.43400,12.2805288
462.43450,13.50130643
462.43500,11.36494557
462.43550,7.397418275
462.43600,5.261057421
462.43650,6.787029459
462.43700,8.313001498
462.43750,8.618195906
462.43800,9.228584721
462.43850,11.05975117
462.43900,12.2805288
462.43950,12.58572321
462.44000,12.2805288
462.44050,11.67013998
462.44100,10.75455676
462.44150,10.75455676
462.44200,11.97533439
462.44250,13.19611202
462.44300,14.41688965
462.44350,15.33247288
462.44400,15.94286169
462.44450,14.72208406
462.44500,11.97533439
462.44550,10.14416794
462.44600,10.44936235
462.44650,11.67013998
462.44700,12.2805288
462.44750,11.67013998
462.44800,11.05975117
462.44850,10.75455676
462.44900,10.44936235
462.44950,10.14416794
462.45000,8.618195906
462.45050,5.871446236
462.45100,1.598724528
462.45150,-2.673997179
462.45200,-8.167496518
462.45250,-12.44021823
462.45300,-11.524635
462.45350,-3.589580402
462.45400,4.650668606
462.45450,4.955863013
462.45500,-2.368802772
462.45550,-8.167496518
462.45600,-5.115552441
462.45650,2.209113344
462.45700,5.261057421
462.45750,2.819502159
462.45800,1.598724528
462.45850,3.124696567
462.45900,3.429890975
462.45950,-0.5376363254
462.46000,-6.336330072
462.46050,-9.083079741
462.46100,-9.083079741
462.46150,-9.083079741
462.46200,-8.777885333
462.46250,-6.031135664
462.46300,-0.8428307331
462.46350,2.819502159
462.46400,4.955863013
462.46450,6.787029459
462.46500,8.923390313
462.46550,8.618195906
462.46600,5.261057421
462.46650,2.209113344
462.46700,3.735085382
462.46750,8.00780709
462.46800,10.44936235
462.46850,9.533779129
462.46900,7.702612683
462.46950,7.702612683
462.47000,8.618195906
462.47050,10.75455676
462.47100,11.97533439
462.47150,10.75455676
462.47200,5.871446236
462.47250,0.9883357131
462.47300,0.07275248999
462.47350,3.124696567
462.47400,5.261057421
462.47450,4.345474198
462.47500,1.598724528
462.47550,-0.5376363254
462.47600,-2.063608364
462.47650,-2.063608364
462.47700,0.6831413054
462.47750,4.955863013
462.47800,7.092223867
462.47850,5.871446236
462.47900,3.735085382
462.47950,1.293530121
462.48000,-0.8428307331
462.48050,-2.368802772
462.48100,-1.148025141
462.48150,-0.2324419177
462.48200,-2.368802772
462.48250,-6.641524479
462.48300,-6.641524479
462.48350,-1.148025141
462.48400,4.04027979
462.48450,4.04027979
462.48500,0.3779468977
462.48550,-1.453219549
462.48600,-0.8428307331
462.48650,-0.2324419177
462.48700,-0.8428307331
462.48750,-1.453219549
462.48800,-1.758413956
462.48850,-3.589580402
462.48900,-6.336330072
462.48950,-8.472690926
462.49000,-7.86230211
462.49050,-6.336330072
462.49100,-7.251913295
462.49150,-11.21944059
462.49200,-13.66099586
462.49250,-11.21944059
462.49300,-5.725941256
462.49350,-1.758413956
462.49400,-2.979191587
462.49450,-6.946718887
462.49500,-9.083079741
462.49550,-8.167496518
462.49600,-4.810358033
462.49650,-1.453219549
462.49700,-0.5376363254
462.49750,-3.284385995
462.49800,-8.472690926
462.49850,-12.44021823
462.49900,-13.35580145
462.49950,-12.13502382
462.50000,-11.82982941
462.50050,-13.35580145
462.50100,-14.27138467
462.50150,-12.44021823
462.50200,-9.083079741
462.50250,-6.031135664
462.50300,-3.89477481
462.50350,-3.284385995
462.50400,-1.453219549
462.50450,2.819502159
462.50500,10.14416794
462.50550,15.94286169
462.50600,17.16363932
462.50650,14.41688965
462.50700,11.05975117
462.50750,7.702612683
462.50800,4.345474198
462.50850,1.293530121
462.50900,0.3779468977
462.50950,0.9883357131
462.51000,1.293530121
462.51050,-0.2324419177
462.51100,-1.453219549
462.51150,-1.758413956
462.51200,-1.453219549
462.51250,-3.284385995
462.51300,-5.725941256
462.51350,-5.420746849
462.51400,-2.368802772
462.51450,0.07275248999
462.51500,0.3779468977
462.51550,-0.8428307331
462.51600,-1.758413956
462.51650,-0.8428307331
462.51700,-0.2324419177
462.51750,-1.758413956
462.51800,-4.810358033
462.51850,-6.946718887
462.51900,-6.946718887
462.51950,-6.031135664
462.52000,-6.031135664
462.52050,-6.946718887
462.52100,-6.641524479
462.52150,-4.199969218
462.52200,-3.284385995
462.52250,-6.946718887
462.52300,-12.44021823
462.52350,-14.88177349
462.52400,-11.524635
462.52450,-5.420746849
462.52500,-1.453219549
462.52550,-1.758413956
462.52600,-3.284385995
462.52650,-3.589580402
462.52700,-1.453219549
462.52750,1.293530121
462.52800,2.514307752
462.52850,1.598724528
462.52900,-1.453219549
462.52950,-5.420746849
462.53000,-7.86230211
462.53050,-8.167496518
462.53100,-5.725941256
462.53150,-2.673997179
462.53200,-0.5376363254
462.53250,-0.2324419177
462.53300,-1.148025141
462.53350,-2.673997179
462.53400,-2.368802772
462.53450,-0.2324419177
462.53500,3.429890975
462.53550,5.261057421
462.53600,4.955863013
462.53650,4.650668606
462.53700,5.566251829
462.53750,6.176640644
462.53800,4.345474198
462.53850,1.903918936
462.53900,0.3779468977
462.53950,0.3779468977
462.54000,0.9883357131
462.54050,2.209113344
462.54100,3.124696567
462.54150,0.3779468977
462.54200,-7.557107703
462.54250,-16.40774553
462.54300,-18.84930079
462.54350,-13.96619026
462.54400,-7.86230211
462.54450,-4.505163626
462.54500,-2.673997179
462.54550,-0.2324419177
462.54600,1.903918936
462.54650,1.903918936
462.54700,0.6831413054
462.54750,0.3779468977
462.54800,0.07275248999
462.54850,-0.5376363254
462.54900,-0.5376363254
462.54950,0.6831413054
462.55000,1.293530121
462.55050,-0.2324419177
462.55100,-2.979191587
462.55150,-2.063608364
462.55200,1.903918936
462.55250,4.955863013
462.55300,4.650668606
462.55350,3.735085382
462.55400,4.650668606
462.55450,5.871446236
462.55500,5.871446236
462.55550,5.871446236
462.55600,7.702612683
462.55650,10.44936235
462.55700,12.89091761
462.55750,15.94286169
462.55800,20.82597221
462.55850,25.40388833
462.55900,26.92986037
462.55950,26.01427714
462.56000,25.09869392
462.56050,25.09869392
462.56100,26.62466596
462.56150,27.84544359
462.56200,21.74155544
462.56250,0.07275248999
462.56300,-34.71940999
462.56350,-64.62846194
462.56400,-71.64793332
462.56450,-57.60899057
462.56500,-39.2973261
462.56550,-26.78435539
462.56600,-18.84930079
462.56650,-11.524635
462.56700,-6.031135664
462.56750,-3.589580402
462.56800,-0.5376363254
462.56850,3.735085382
462.56900,5.871446236
462.56950,3.429890975
462.57000,-0.2324419177
462.57050,-0.2324419177
462.57100,0.6831413054
462.57150,-0.2324419177
462.57200,-3.284385995
462.57250,-7.251913295
462.57300,-11.21944059
462.57350,-14.27138467
462.57400,-11.82982941
462.57450,-2.979191587
462.57500,6.176640644
462.57550,9.533779129
462.57600,8.313001498
462.57650,8.313001498
462.57700,11.36494557
462.57750,13.19611202
462.57800,11.05975117
462.57850,6.787029459
462.57900,4.650668606
462.57950,6.481835052
462.58000,13.19611202
462.58050,22.96233307
462.58100,30.59219326
462.58150,31.81297089
462.58200,28.150638
462.58250,24.79349951
462.58300,22.96233307
462.58350,19.91038899
462.58400,15.02727847
462.58450,10.14416794
462.58500,4.04027979
462.58550,-9.693468556
462.58600,-33.19343795
462.58650,-53.64146327
462.58700,-55.77782412
462.58750,-39.90771492
462.58800,-20.07007842
462.58850,-7.86230211
462.58900,-3.284385995
462.58950,-0.5376363254
462.59000,1.903918936
462.59050,3.124696567
462.59100,2.209113344
462.59150,1.598724528
462.59200,2.209113344
462.59250,3.124696567
462.59300,4.955863013
462.59350,7.702612683
462.59400,11.05975117
462.59450,14.11169524
462.59500,16.85844491
462.59550,18.68961136
462.59600,18.38441695
462.59650,15.63766728
462.59700,12.58572321
462.59750,11.05975117
462.59800,10.14416794
462.59850,8.313001498
462.59900,2.819502159
462.59950,-8.167496518
462.60000,-22.51163368
462.60050,-33.49863236
462.60100,-33.80382676
462.60150,-25.25838335
462.60200,-15.4921623
462.60250,-9.693468556
462.60300,-4.810358033
462.60350,0.6831413054
462.60400,5.261057421
462.60450,6.176640644
462.60500,5.261057421
462.60550,5.871446236
462.60600,8.923390313
462.60650,12.2805288
462.60700,15.63766728
462.60750,18.99480577
462.60800,19.91038899
462.60850,18.07922254
462.60900,15.02727847
462.60950,12.58572321
462.61000,10.75455676
462.61050,8.618195906
462.61100,6.176640644
462.61150,4.345474198
462.61200,2.514307752
462.61250,0.6831413054
462.61300,0.07275248999
462.61350,0.9883357131
462.61400,1.598724528
462.61450,0.9883357131
462.61500,0.07275248999
462.61550,0.3779468977
462.61600,1.903918936
462.61650,3.429890975
462.61700,4.955863013
462.61750,5.871446236
462.61800,6.176640644
462.61850,5.261057421
462.61900,3.124696567
462.61950,0.6831413054
462.62000,-2.368802772
462.62050,-6.031135664
462.62100,-8.472690926
462.62150,-9.693468556
462.62200,-10.30385737
462.62250,-10.91424619
462.62300,-11.21944059
462.62350,-10.30385737
462.62400,-7.86230211
462.62450,-2.673997179
462.62500,4.345474198
462.62550,10.44936235
462.62600,11.97533439
462.62650,8.313001498
462.62700,3.429890975
462.62750,0.07275248999
462.62800,-0.2324419177
462.62850,1.293530121
462.62900,2.209113344
462.62950,1.293530121
462.63000,-0.8428307331
462.63050,-1.758413956
462.63100,-1.148025141
462.63150,-2.673997179
462.63200,-6.336330072
462.63250,-7.86230211
462.63300,-4.199969218
462.63350,-0.2324419177
462.63400,-1.148025141
462.63450,-3.589580402
462.63500,-1.453219549
462.63550,2.819502159
462.63600,3.124696567
462.63650,-1.148025141
462.63700,-0.2324419177
462.63750,8.618195906
462.63800,17.46883373
462.63850,16.55325051
462.63900,8.618195906
462.63950,0.3779468977
462.64000,-4.199969218
462.64050,-7.251913295
462.64100,-7.557107703
462.64150,-5.115552441
462.64200,-2.368802772
462.64250,-2.673997179
462.64300,-4.199969218
462.64350,-3.284385995
462.64400,-1.758413956
462.64450,-2.979191587
462.64500,-6.031135664
462.64550,-6.031135664
462.64600,-2.673997179
462.64650,-0.2324419177
462.64700,-1.453219549
462.64750,-2.979191587
462.64800,-2.673997179
462.64850,-2.368802772
462.64900,-4.505163626
462.64950,-8.167496518
462.65000,-9.998662964
462.65050,-8.777885333
462.65100,-6.031135664
462.65150,-3.89477481
462.65200,-3.284385995
462.65250,-3.284385995
462.65300,-2.673997179
462.65350,-0.5376363254
462.65400,0.07275248999
462.65450,-0.8428307331
462.65500,-2.063608364
462.65550,-1.453219549
462.65600,-0.8428307331
462.65650,-2.979191587
462.65700,-6.946718887
462.65750,-7.86230211
462.65800,-7.557107703
462.65850,-11.524635
462.65900,-20.37527283
462.65950,-25.86877216
462.66000,-20.68046723
462.66050,-9.083079741
462.66100,-0.5376363254
462.66150,2.209113344
462.66200,4.04027979
462.66250,8.00780709
462.66300,11.97533439
462.66350,13.80650084
462.66400,13.80650084
462.66450,11.97533439
462.66500,7.397418275
462.66550,2.209113344
462.66600,-1.453219549
462.66650,-4.505163626
462.66700,-10.60905178
462.66750,-18.84930079
462.66800,-22.51163368
462.66850,-18.54410638
462.66900,-11.82982941
462.66950,-8.472690926
462.67000,-8.167496518
462.67050,-7.557107703
462.67100,-5.115552441
462.67150,-3.284385995
462.67200,-3.284385995
462.67250,-4.810358033
462.67300,-5.725941256
462.67350,-3.589580402
462.67400,4.955863013
462.67450,18.07922254
462.67500,28.150638
462.67550,32.1181653
462.67600,35.17010938
462.67650,41.57919194
462.67700,48.29346891
462.67750,54.09216265
462.67800,59.8908564
462.67850,60.80643962
462.67900,40.66360871
462.67950,-3.284385995
462.68000,-44.48563103
462.68050,-50.28432478
462.68100,-28.00513302
462.68150,-19.1544952
462.68200,-47.53757511
462.68250,-87.21284811
462.68300,-96.97906916
462.68350,-70.7323501
462.68400,-36.55057643
462.68450,-17.32332875
462.68500,-11.82982941
462.68550,-9.693468556
462.68600,-7.557107703
462.68650,-6.641524479
462.68700,-6.031135664
462.68750,-2.979191587
462.68800,-0.2324419177
462.68850,0.3779468977
462.68900,-0.2324419177
462.68950,-0.2324419177
462.69000,-0.2324419177
462.69050,-0.8428307331
462.69100,-1.758413956
462.69150,-2.673997179
462.69200,-2.368802772
462.69250,0.6831413054
462.69300,7.092223867
462.69350,13.50130643
462.69400,15.94286169
462.69450,13.80650084
462.69500,9.838973536
462.69550,7.702612683
462.69600,7.092223867
462.69650,8.00780709
462.69700,10.44936235
462.69750,13.80650084
462.69800,16.2480561
462.69850,17.77402814
462.69900,18.38441695
462.69950,18.38441695
462.70000,16.2480561
462.70050,12.89091761
462.70100,10.14416794
462.70150,7.702612683
462.70200,4.650668606
462.70250,1.598724528
462.70300,-0.2324419177
462.70350,0.3779468977
462.70400,0.07275248999
462.70450,-2.368802772
462.70500,-5.725941256
462.70550,-5.725941256
462.70600,-2.063608364
462.70650,1.293530121
462.70700,2.209113344
462.70750,0.3779468977
462.70800,-1.148025141
462.70850,-1.148025141
462.70900,0.9883357131
462.70950,5.261057421
462.71000,10.44936235
462.71050,15.63766728
462.71100,19.91038899
462.71150,21.13116662
462.71200,18.99480577
462.71250,14.41688965
462.71300,9.228584721
462.71350,6.176640644
462.71400,5.871446236
462.71450,8.00780709
462.71500,9.533779129
462.71550,7.397418275
462.71600,0.07275248999
462.71650,-9.693468556
462.71700,-17.62852316
462.71750,-19.4596896
462.71800,-14.27138467
462.71850,-5.725941256
462.71900,0.3779468977
462.71950,2.819502159
462.72000,1.903918936
462.72050,1.293530121
462.72100,4.04027979
462.72150,11.36494557
462.72200,21.43636103
462.72250,29.67661004
462.72300,30.59219326
462.72350,23.57272188
462.72400,15.33247288
462.72450,10.75455676
462.72500,8.923390313
462.72550,3.735085382
462.72600,-3.89477481
462.72650,-10.30385737
462.72700,-13.66099586
462.72750,-19.76488401
462.72800,-29.83629946
462.72850,-36.24538203
462.72900,-32.88824354
462.72950,-23.73241131
462.73000,-17.32332875
462.73050,-15.4921623
462.73100,-12.74541263
462.73150,-5.420746849
462.73200,2.209113344
462.73250,5.871446236
462.73300,5.566251829
462.73350,4.345474198
462.73400,3.429890975
462.73450,2.514307752
462.73500,1.903918936
462.73550,3.124696567
462.73600,8.313001498
462.73650,16.85844491
462.73700,24.1831107
462.73750,25.70908274
462.73800,21.43636103
462.73850,15.94286169
462.73900,11.97533439
462.73950,7.092223867
462.74000,-2.063608364
462.74050,-13.96619026
462.74100,-24.34280013
462.74150,-32.58304913
462.74200,-40.51810373
462.74250,-45.40121426
462.74300,-42.959659
462.74350,-33.19343795
462.74400,-19.76488401
462.74450,-6.031135664
462.74500,8.00780709
462.74550,19.60519458
462.74600,23.26752748
462.74650,17.46883373
462.74700,8.618195906
462.74750,3.429890975
462.74800,4.345474198
462.74850,9.228584721
462.74900,16.2480561
462.74950,24.79349951
462.75000,31.50777648
462.75050,33.64413734
462.75100,30.89738767
462.75150,25.70908274
462.75200,18.68961136
462.75250,11.67013998
462.75300,5.566251829
462.75350,1.598724528
462.75400,-1.453219549
462.75450,-6.031135664
462.75500,-11.21944059
462.75550,-14.57657908
462.75600,-15.1869679
462.75650,-15.79735671
462.75700,-20.07007842
462.75750,-25.86877216
462.75800,-28.31032743
462.75850,-23.1220225
462.75900,-12.74541263
462.75950,-5.115552441
462.76000,-2.979191587
462.76050,-3.589580402
462.76100,-1.758413956
462.76150,1.903918936
462.76200,4.04027979
462.76250,3.429890975
462.76300,2.209113344
462.76350,0.6831413054
462.76400,-2.368802772
462.76450,-7.86230211
462.76500,-12.74541263
462.76550,-14.27138467
462.76600,-13.66099586
462.76650,-13.35580145
462.76700,-14.27138467
462.76750,-13.66099586
462.76800,-9.998662964
462.76850,-5.115552441
462.76900,-1.148025141
462.76950,0.6831413054
462.77000,1.293530121
462.77050,0.3779468977
462.77100,-1.758413956
462.77150,-2.979191587
462.77200,-1.453219549
462.77250,0.9883357131
462.77300,0.9883357131
462.77350,-2.673997179
462.77400,-6.641524479
462.77450,-6.031135664
462.77500,-0.8428307331
462.77550,5.871446236
462.77600,12.58572321
462.77650,17.46883373
462.77700,18.07922254
462.77750,14.41688965
462.77800,10.75455676
462.77850,11.05975117
462.77900,14.41688965
462.77950,16.85844491
462.78000,15.63766728
462.78050,12.58572321
462.78100,7.092223867
462.78150,-2.063608364
462.78200,-14.57657908
462.78250,-26.78435539
462.78300,-34.71940999
462.78350,-38.07654847
462.78400,-36.55057643
462.78450,-31.0570771
462.78500,-23.4272169
462.78550,-18.23891197
462.78600,-18.54410638
462.78650,-23.73241131
462.78700,-28.31032743
462.78750,-27.69993861
462.78800,-20.98566164
462.78850,-12.13502382
462.78900,-5.420746849
462.78950,-2.063608364
462.79000,-0.2324419177
462.79050,0.6831413054
462.79100,0.9883357131
462.79150,1.293530121
462.79200,4.04027979
462.79250,9.838973536
462.79300,14.72208406
462.79350,14.72208406
462.79400,11.36494557
462.79450,8.618195906
462.79500,7.397418275
462.79550,6.481835052
462.79600,5.871446236
462.79650,7.092223867
462.79700,10.14416794
462.79750,11.05975117
462.79800,9.228584721
462.79850,6.787029459
462.79900,6.176640644
462.79950,5.871446236
462.80000,3.429890975
462.80050,0.3779468977
462.80100,-0.2324419177
462.80150,2.819502159
462.80200,5.871446236
462.80250,6.787029459
462.80300,5.261057421
462.80350,4.04027979
462.80400,3.429890975
462.80450,4.650668606
462.80500,7.092223867
462.80550,9.838973536
462.80600,9.228584721
462.80650,4.04027979
462.80700,-2.368802772
462.80750,-5.725941256
462.80800,-5.420746849
462.80850,-2.979191587
462.80900,0.9883357131
462.80950,7.397418275
462.81000,14.41688965
462.81050,18.99480577
462.81100,22.35194425
462.81150,27.54024918
462.81200,34.25452615
462.81250,37.61166464
462.81300,34.55972056
462.81350,29.37141563
462.81400,26.01427714
462.81450,22.96233307
462.81500,18.07922254
462.81550,11.97533439
462.81600,6.176640644
462.81650,-1.758413956
462.81700,-16.71293993
462.81750,-33.80382676
462.81800,-41.43368696
462.81850,-31.97266032
462.81900,-11.82982941
462.81950,3.735085382
462.82000,5.261057421
462.82050,-2.063608364
462.82100,-4.199969218
462.82150,5.566251829
462.82200,18.07922254
462.82250,20.52077781
462.82300,13.50130643
462.82350,7.702612683
462.82400,8.618195906
462.82450,14.11169524
462.82500,18.99480577
462.82550,17.46883373
462.82600,2.209113344
462.82650,-23.1220225
462.82700,-40.51810373
462.82750,-34.41421558
462.82800,-18.84930079
462.82850,-22.51163368
462.82900,-49.97913037
462.82950,-76.22584944
462.83000,-81.71934877
462.83050,-75.61546062
462.83100,-71.95312773
462.83150,-64.62846194
462.83200,-45.70640867
462.83250,-27.3947442
462.83300,-27.69993861
462.83350,-41.43368696
462.83400,-46.31679748
462.83450,-31.0570771
462.83500,-5.420746849
462.83550,18.68961136
462.83600,40.0532199
462.83650,57.14410673
462.83700,67.52071659
462.83750,73.01421593
462.83800,83.39082579
462.83850,103.5336567
462.83900,124.8972652
462.83950,134.3582919
462.84000,125.8128485
462.84050,109.6375449
462.84100,101.0921014
462.84150,100.1765182
462.84200,84.61160342
462.84250,33.33894293
462.84300,-40.21290933
462.84350,-93.62193067
462.84400,-98.19984679
462.84450,-71.0375445
462.84500,-47.2323807
462.84550,-40.21290933
462.84600,-38.07654847
462.84650,-31.66746591
462.84700,-27.0895498
462.84750,-28.61552183
462.84800,-27.3947442
462.84850,-11.524635
462.84900,18.99480577
462.84950,49.81944095
462.85000,61.41682844
462.85050,44.93633042
462.85100,10.14416794
462.85150,-19.4596896
462.85200,-25.86877216
462.85250,-10.60905178
462.85300,5.871446236
462.85350,5.871446236
462.85400,-14.88177349
462.85450,-43.57004781
462.85500,-56.08301853
462.85550,-38.38174288
462.85600,-3.89477481
462.85650,15.63766728
462.85700,8.618195906
462.85750,-7.251913295
462.85800,-12.44021823
462.85850,-8.777885333
462.85900,-8.167496518
462.85950,-10.30385737
462.86000,-10.60905178
462.86050,-14.57657908
462.86100,-29.22591065
462.86150,-48.14796393
462.86200,-59.74535142
462.86250,-62.18690668
462.86300,-53.03107445
462.86350,-24.64799453
462.86400,17.77402814
462.86450,48.29346891
462.86500,48.90385772
462.86550,37.91685904
462.86600,37.61166464
462.86650,40.66360871
462.86700,29.98180444
462.86750,16.85844491
462.86800,17.77402814
462.86850,8.923390313
462.86900,-49.67393597
462.86950,-144.2842024
462.87000,-202.5763342
462.87050,-174.8036431
462.87100,-85.07648726
462.87150,4.04027979
462.87200,46.46230246
462.87250,30.28699885
462.87300,-25.25838335
462.87350,-76.83623825
462.87400,-79.88818233
462.87450,-35.63499321
462.87500,11.36494557
462.87550,29.06622122
462.87600,25.70908274
462.87650,23.26752748
462.87700,22.35194425
462.87750,15.02727847
462.87800,8.00780709
462.87850,11.05975117
462.87900,17.46883373
462.87950,14.72208406
462.88000,6.176640644
462.88050,5.566251829
462.88100,14.72208406
462.88150,23.57272188
462.88200,26.01427714
462.88250,27.54024918
462.88300,31.20258208
462.88350,33.33894293
462.88400,29.37141563
462.88450,19.91038899
462.88500,8.923390313
462.88550,-0.2324419177
462.88600,-3.589580402
462.88650,-1.148025141
462.88700,4.04027979
462.88750,8.618195906
462.88800,9.533779129
462.88850,8.923390313
462.88900,10.75455676
462.88950,16.2480561
462.89000,22.04674984
462.89050,23.57272188
462.89100,21.43636103
462.89150,19.30000018
462.89200,20.2155834
462.89250,23.57272188
462.89300,26.62466596
462.89350,28.45583241
462.89400,28.150638
462.89450,26.92986037
462.89500,27.23505478
462.89550,30.89738767
462.89600,35.78049819
462.89650,37.61166464
462.89700,36.0856926
462.89750,32.1181653
462.89800,26.92986037
462.89850,18.99480577
462.89900,9.838973536
462.89950,1.598724528
462.90000,-4.505163626
462.90050,-9.998662964
462.90100,-13.35580145
462.90150,-11.82982941
462.90200,-7.86230211
462.90250,-3.589580402
462.90300,1.293530121
462.90350,9.533779129
462.90400,18.68961136
462.90450,23.57272188
462.90500,23.87791629
462.90550,24.1831107
462.90600,24.48830511
462.90650,20.82597221
462.90700,12.89091761
462.90750,5.566251829
462.90800,0.6831413054
462.90850,-6.946718887
462.90900,-22.20643927
462.90950,-42.04407577
462.91000,-59.1349626
462.91050,-67.0700172
462.91100,-62.49210109
462.91150,-46.9271863
462.91200,-28.61552183
462.91250,-19.4596896
462.91300,-20.98566164
462.91350,-23.73241131
462.91400,-18.54410638
462.91450,-10.60905178
462.91500,-7.557107703
462.91550,-8.777885333
462.91600,-6.641524479
462.91650,-0.2324419177
462.91700,5.261057421
462.91750,6.176640644
462.91800,4.955863013
462.91850,5.566251829
462.91900,7.702612683
462.91950,11.05975117
462.92000,17.16363932
462.92050,24.79349951
462.92100,28.76102681
462.92150,22.96233307
462.92200,7.702612683
462.92250,-6.946718887
462.92300,-10.60905178
462.92350,-1.453219549
462.92400,11.05975117
462.92450,16.2480561
462.92500,11.05975117
462.92550,0.3779468977
462.92600,-11.21944059
462.92650,-21.59605046
462.92700,-28.61552183
462.92750,-30.44668828
462.92800,-27.3947442
462.92850,-23.1220225
462.92900,-17.62852316
462.92950,-8.472690926
462.93000,1.903918936
462.93050,4.955863013
462.93100,-4.199969218
462.93150,-19.4596896
462.93200,-25.86877216
462.93250,-13.35580145
462.93300,15.02727847
462.93350,51.34541298
462.93400,84.91679783
462.93450,105.6700176
462.93500,105.975212
462.93550,85.52718665
462.93600,55.31294028
462.93650,29.98180444
462.93700,18.68961136
462.93750,17.77402814
462.93800,18.68961136
462.93850,15.33247288
462.93900,6.787029459
462.93950,-5.115552441
462.94000,-21.29085605
462.94050,-38.38174288
462.94100,-48.45315833
462.94150,-46.31679748
462.94200,-35.63499321
462.94250,-26.47916098
462.94300,-23.4272169
462.94350,-20.68046723
462.94400,-13.05060704
462.94450,-2.673997179
462.94500,2.209113344
462.94550,-1.758413956
462.94600,-10.30385737
462.94650,-16.10255112
462.94700,-15.4921623
462.94750,-9.693468556
462.94800,-2.368802772
462.94850,2.209113344
462.94900,0.9883357131
462.94950,-5.725941256
462.95000,-14.88177349
462.95050,-20.37527283
462.95100,-21.29085605
462.95150,-19.76488401
462.95200,-18.23891197
462.95250,-18.23891197
462.95300,-21.29085605
462.95350,-26.78435539
462.95400,-27.3947442
462.95450,-16.71293993
462.95500,0.6831413054
462.95550,13.19611202
462.95600,13.50130643
462.95650,8.00780709
462.95700,3.124696567
462.95750,-2.063608364
462.95800,-10.30385737
462.95850,-16.71293993
462.95900,-16.71293993
462.95950,-16.10255112
462.96000,-22.51163368
462.96050,-30.75188269
462.96100,-30.14149387
462.96150,-19.76488401
462.96200,-10.30385737
462.96250,-8.167496518
462.96300,-10.60905178
462.96350,-13.66099586
462.96400,-17.32332875
462.96450,-20.37527283
462.96500,-18.84930079
462.96550,-12.74541263
462.96600,-8.777885333
462.96650,-12.44021823
462.96700,-19.4596896
462.96750,-23.4272169
462.96800,-20.37527283
462.96850,-11.21944059
462.96900,1.598724528
462.96950,11.97533439
462.97000,13.19611202
462.97050,6.481835052
462.97100,0.07275248999
462.97150,-0.5376363254
462.97200,1.598724528
462.97250,4.955863013
462.97300,10.14416794
462.97350,13.80650084
462.97400,9.838973536
462.97450,0.9883357131
462.97500,0.6831413054
462.97550,11.97533439
462.97600,21.43636103
462.97650,19.30000018
462.97700,14.41688965
462.97750,15.63766728
462.97800,12.2805288
462.97850,-7.86230211
462.97900,-33.19343795
462.97950,-38.07654847
462.98000,-23.1220225
462.98050,-15.4921623
462.98100,-31.66746591
462.98150,-59.74535142
462.98200,-78.36221029
462.98250,-80.19337674
462.98300,-66.7648228
462.98350,-42.34927018
462.98400,-15.1869679
462.98450,6.481835052
462.98500,23.57272188
462.98550,41.57919194
462.98600,60.50124521
462.98650,72.70902152
462.98700,75.45577119
462.98750,73.31941034
462.98800,67.52071659
462.98850,58.05968995
462.98900,46.46230246
462.98950,30.59219326
462.99000,0.07275248999
462.99050,-45.40121426
462.99100,-81.41415437
462.99150,-78.9725991
462.99200,-43.2648534
462.99250,-6.336330072
462.99300,13.19611202
462.99350,17.46883373
462.99400,4.650668606
462.99450,-29.53110506
462.99500,-68.29079484
462.99550,-75.92065503
462.99600,-43.87524222
462.99650,-3.589580402
462.99700,15.94286169
462.99750,20.52077781
462.99800,26.31947155
462.99850,36.39088701
462.99900,47.9882745
462.99950,68.13110541
463.00000,99.26093499
463.00050,125.2024596
463.00100,128.5595981
463.00150,112.0791001
463.00200,91.6310748
463.00250,76.98174323
463.00300,68.74149422
463.00350,65.99474455
463.00400,65.99474455
463.00450,67.52071659
463.00500,73.62460475
463.00550,83.39082579
463.00600,80.94927053
463.00650,52.26099621
463.00700,11.05975117
463.00750,-15.79735671
463.00800,-25.25838335
463.00850,-35.63499321
463.00900,-50.28432478
463.00950,-55.77782412
463.01000,-61.88171227
463.01050,-101.8621797
463.01100,-173.5828655
463.01150,-222.4139707
463.01200,-204.4075007
463.01250,-144.8945912
463.01300,-100.0310132
463.01350,-84.77129285
463.01400,-74.08948858
463.01450,-52.42068563
463.01500,-27.3947442
463.01550,-4.505163626
463.01600,16.85844491
463.01650,27.54024918
463.01700,12.89091761
463.01750,-18.54410638
463.01800,-41.12849255
463.01850,-38.9921317
463.01900,-20.68046723
463.01950,-3.589580402
463.02000,-0.5376363254
463.02050,-15.4921623
463.02100,-38.68693729
463.02150,-48.45315833
463.02200,-34.71940999
463.02250,-11.524635
463.02300,0.07275248999
463.02350,2.514307752
463.02400,7.702612683
463.02450,13.80650084
463.02500,10.14416794
463.02550,0.6831413054
463.02600,1.293530121
463.02650,14.11169524
463.02700,24.1831107
463.02750,24.48830511
463.02800,23.57272188
463.02850,28.76102681
463.02900,33.33894293
463.02950,30.89738767
463.03000,28.76102681
463.03050,33.64413734
463.03100,42.18958075
463.03150,46.46230246
463.03200,46.76749687
463.03250,46.46230246
463.03300,44.0207472
463.03350,37.00127582
463.03400,29.67661004
463.03450,27.84544359
463.03500,30.59219326
463.03550,31.81297089
463.03600,29.06622122
463.03650,26.92986037
463.03700,26.92986037
463.03750,25.40388833
463.03800,18.07922254
463.03850,5.566251829
463.03900,-6.946718887
463.03950,-14.57657908
463.04000,-12.44021823
463.04050,-2.063608364
463.04100,8.313001498
463.04150,13.80650084
463.04200,14.41688965
463.04250,14.11169524
463.04300,14.11169524
463.04350,13.19611202
463.04400,11.97533439
463.04450,13.19611202
463.04500,17.16363932
463.04550,22.65713866
463.04600,29.98180444
463.04650,37.91685904
463.04700,41.57919194
463.04750,36.0856926
463.04800,26.01427714
463.04850,17.77402814
463.04900,11.97533439
463.04950,4.04027979
463.05000,-4.810358033
463.05050,-9.693468556
463.05100,-8.777885333
463.05150,-7.251913295
463.05200,-7.86230211
463.05250,-6.946718887
463.05300,-3.89477481
463.05350,-0.8428307331
463.05400,0.9883357131
463.05450,3.124696567
463.05500,3.735085382
463.05550,0.9883357131
463.05600,-2.063608364
463.05650,-1.453219549
463.05700,0.3779468977
463.05750,-0.2324419177
463.05800,-0.5376363254
463.05850,4.04027979
463.05900,13.50130643
463.05950,18.38441695
463.06000,15.33247288
463.06050,8.00780709
463.06100,0.3779468977
463.06150,-4.505163626
463.06200,-2.063608364
463.06250,8.313001498
463.06300,19.30000018
463.06350,19.60519458
463.06400,11.05975117
463.06450,4.04027979
463.06500,2.819502159
463.06550,1.598724528
463.06600,-0.2324419177
463.06650,2.209113344
463.06700,9.228584721
463.06750,10.44936235
463.06800,1.903918936
463.06850,-6.641524479
463.06900,-6.946718887
463.06950,-2.063608364
463.07000,-0.8428307331
463.07050,-3.589580402
463.07100,-5.115552441
463.07150,-4.199969218
463.07200,-3.284385995
463.07250,-1.148025141
463.07300,2.209113344
463.07350,4.04027979
463.07400,0.07275248999
463.07450,-8.167496518
463.07500,-17.01813434
463.07550,-22.51163368
463.07600,-23.73241131
463.07650,-21.59605046
463.07700,-18.23891197
463.07750,-17.01813434
463.07800,-15.79735671
463.07850,-10.30385737
463.07900,-1.453219549
463.07950,3.124696567
463.08000,0.3779468977
463.08050,-6.336330072
463.08100,-10.91424619
463.08150,-12.13502382
463.08200,-11.82982941
463.08250,-10.91424619
463.08300,-8.777885333
463.08350,-6.641524479
463.08400,-7.251913295
463.08450,-8.167496518
463.08500,-6.641524479
463.08550,-3.589580402
463.08600,-1.453219549
463.08650,-1.148025141
463.08700,-0.5376363254
463.08750,-0.2324419177
463.08800,-1.758413956
463.08850,-6.946718887
463.08900,-11.82982941
463.08950,-14.27138467
463.09000,-14.88177349
463.09050,-17.32332875
463.09100,-21.59605046
463.09150,-24.34280013
463.09200,-23.1220225
463.09250,-18.84930079
463.09300,-15.1869679
463.09350,-13.96619026
463.09400,-13.96619026
463.09450,-12.44021823
463.09500,-9.083079741
463.09550,-6.031135664
463.09600,-4.810358033
463.09650,-7.86230211
463.09700,-14.27138467
463.09750,-20.07007842
463.09800,-20.68046723
463.09850,-13.96619026
463.09900,-4.199969218
463.09950,1.598724528
463.10000,1.293530121
463.10050,-1.758413956
463.10100,-4.810358033
463.10150,-6.031135664
463.10200,-6.031135664
463.10250,-3.89477481
463.10300,-0.2324419177
463.10350,2.514307752
463.10400,2.819502159
463.10450,0.3779468977
463.10500,-2.368802772
463.10550,-3.89477481
463.10600,-3.589580402
463.10650,-2.063608364
463.10700,-1.453219549
463.10750,-4.199969218
463.10800,-9.083079741
463.10850,-11.82982941
463.10900,-11.21944059
463.10950,-11.82982941
463.11000,-17.93371756
463.11050,-27.0895498
463.11100,-29.53110506
463.11150,-19.1544952
463.11200,0.3779468977
463.11250,18.38441695
463.11300,28.150638
463.11350,31.50777648
463.11400,31.81297089
463.11450,27.84544359
463.11500,16.55325051
463.11550,1.598724528
463.11600,-8.167496518
463.11650,-11.524635
463.11700,-12.13502382
463.11750,-11.524635
463.11800,-7.86230211
463.11850,-1.148025141
463.11900,1.903918936
463.11950,2.819502159
463.12000,10.44936235
463.12050,25.40388833
463.12100,35.47530378
463.12150,31.20258208
463.12200,20.52077781
463.12250,14.41688965
463.12300,7.092223867
463.12350,-13.96619026
463.12400,-46.01160307
463.12450,-68.90118365
463.12500,-68.29079484
463.12550,-47.84276952
463.12600,-17.93371756
463.12650,9.533779129
463.12700,23.26752748
463.12750,15.94286169
463.12800,-5.420746849
463.12850,-24.64799453
463.12900,-31.66746591
463.12950,-29.83629946
463.13000,-23.1220225
463.13050,-7.251913295
463.13100,22.65713866
463.13150,58.97527318
463.13200,80.94927053
463.13250,75.45577119
463.13300,51.04021858
463.13350,28.150638
463.13400,13.50130643
463.13450,-6.641524479
463.13500,-40.21290933
463.13550,-67.0700172
463.13600,-67.98560043
463.13650,-58.52457379
463.13700,-71.64793332
463.13750,-108.5764567
463.13800,-132.6868149
463.13850,-120.784233
463.13900,-90.5699866
463.13950,-67.37521161
463.14000,-47.53757511
463.14050,-17.93371756
463.14100,11.97533439
463.14150,26.01427714
463.14200,27.84544359
463.14250,32.1181653
463.14300,36.69608141
463.14350,33.03374852
463.14400,29.98180444
463.14450,44.32594161
463.14500,68.43629982
463.14550,78.81290968
463.14600,71.18304948
463.14650,66.91032778
463.14700,75.45577119
463.14750,81.25446494
463.14800,71.7934383
463.14850,56.22852351
463.14900,47.07269128
463.14950,40.66360871
463.15000,30.28699885
463.15050,19.60519458
463.15100,14.11169524
463.15150,9.228584721
463.15200,-2.673997179
463.15250,-19.1544952
463.15300,-29.83629946
463.15350,-29.83629946
463.15400,-20.98566164
463.15450,-9.998662964
463.15500,-6.641524479
463.15550,-13.96619026
463.15600,-20.37527283
463.15650,-9.388274149
463.15700,14.72208406
463.15750,29.06622122
463.15800,19.91038899
463.15850,1.293530121
463.15900,-7.557107703
463.15950,-8.777885333
463.16000,-15.4921623
463.16050,-26.17396657
463.16100,-28.31032743
463.16150,-17.93371756
463.16200,-6.641524479
463.16250,-3.284385995
463.16300,-1.148025141
463.16350,10.75455676
463.16400,35.78049819
463.16450,66.29993896
463.16500,92.24146362
463.16550,106.2804064
463.16600,105.3648231
463.16650,90.41029717
463.16700,62.94280048
463.16750,29.06622122
463.16800,-0.2324419177
463.16850,-13.66099586
463.16900,-9.998662964
463.16950,-2.673997179
463.17000,-6.336330072
463.17050,-24.03760572
463.17100,-47.53757511
463.17150,-65.54404517
463.17200,-73.17390536
463.17250,-68.29079484
463.17300,-52.11549123
463.17350,-30.44668828
463.17400,-11.82982941
463.17450,-0.8428307331
463.17500,3.429890975
463.17550,4.345474198
463.17600,3.429890975
463.17650,0.6831413054
463.17700,-2.979191587
463.17750,-6.031135664
463.17800,-7.251913295
463.17850,-7.557107703
463.17900,-9.998662964
463.17950,-14.27138467
463.18000,-18.23891197
463.18050,-18.54410638
463.18100,-17.01813434
463.18150,-15.1869679
463.18200,-11.524635
463.18250,-5.420746849
463.18300,0.3779468977
463.18350,1.598724528
463.18400,-1.148025141
463.18450,-5.115552441
463.18500,-8.167496518
463.18550,-11.21944059
463.18600,-13.05060704
463.18650,-12.44021823
463.18700,-9.388274149
463.18750,-7.86230211
463.18800,-10.30385737
463.18850,-14.57657908
463.18900,-17.62852316
463.18950,-15.1869679
463.19000,-5.420746849
463.19050,7.702612683
463.19100,16.85844491
463.19150,18.07922254
463.19200,16.2480561
463.19250,18.07922254
463.19300,23.26752748
463.19350,24.79349951
463.19400,22.65713866
463.19450,21.43636103
463.19500,22.35194425
463.19550,21.74155544
463.19600,18.07922254
463.19650,16.2480561
463.19700,17.77402814
463.19750,18.99480577
463.19800,16.2480561
463.19850,11.67013998
463.19900,8.313001498
463.19950,5.871446236
463.20000,3.429890975
463.20050,2.209113344
463.20100,3.429890975
463.20150,4.650668606
463.20200,3.735085382
463.20250,0.9883357131
463.20300,-1.453219549
463.20350,-4.199969218
463.20400,-6.336330072
463.20450,-7.557107703
463.20500,-8.472690926
463.20550,-10.91424619
463.20600,-13.66099586
463.20650,-13.05060704
463.20700,-8.777885333
463.20750,-4.199969218
463.20800,-1.453219549
463.20850,0.07275248999
463.20900,1.293530121
463.20950,0.3779468977
463.21000,-2.673997179
463.21050,-5.115552441
463.21100,-3.89477481
463.21150,-1.758413956
463.21200,-1.453219549
463.21250,-2.368802772
463.21300,-2.063608364
463.21350,-0.8428307331
463.21400,-0.2324419177
463.21450,-0.8428307331
463.21500,-1.148025141
463.21550,-0.8428307331
463.21600,0.07275248999
463.21650,1.293530121
463.21700,1.903918936
463.21750,1.293530121
463.21800,0.9883357131
463.21850,1.903918936
463.21900,3.735085382
463.21950,3.124696567
463.22000,0.3779468977
463.22050,-1.148025141
463.22100,-0.2324419177
463.22150,0.6831413054
463.22200,0.07275248999
463.22250,-0.8428307331
463.22300,-0.8428307331
463.22350,-0.5376363254
463.22400,-2.368802772
463.22450,-6.336330072
463.22500,-9.083079741
463.22550,-9.083079741
463.22600,-7.557107703
463.22650,-7.557107703
463.22700,-9.998662964
463.22750,-13.66099586
463.22800,-14.57657908
463.22850,-11.82982941
463.22900,-6.946718887
463.22950,-4.199969218
463.23000,-4.505163626
463.23050,-4.199969218
463.23100,-2.368802772
463.23150,0.3779468977
463.23200,2.819502159
463.23250,4.650668606
463.23300,6.176640644
463.23350,5.871446236
463.23400,4.04027979
463.23450,1.598724528
463.23500,0.07275248999
463.23550,-0.8428307331
463.23600,-2.673997179
463.23650,-4.199969218
463.23700,-4.505163626
463.23750,-3.89477481
463.23800,-2.368802772
463.23850,-0.2324419177
463.23900,1.293530121
463.23950,1.293530121
463.24000,0.07275248999
463.24050,-0.5376363254
463.24100,-0.8428307331
463.24150,-0.8428307331
463.24200,-0.8428307331
463.24250,-0.5376363254
463.24300,-2.673997179
463.24350,-6.336330072
463.24400,-8.167496518
463.24450,-3.89477481
463.24500,3.429890975
463.24550,7.092223867
463.24600,4.04027979
463.24650,-1.148025141
463.24700,-1.758413956
463.24750,4.650668606
463.24800,14.41688965
463.24850,20.2155834
463.24900,18.68961136
463.24950,13.80650084
463.25000,10.75455676
463.25050,10.14416794
463.25100,8.923390313
463.25150,7.397418275
463.25200,7.702612683
463.25250,5.261057421
463.25300,-7.557107703
463.25350,-28.00513302
463.25400,-39.2973261
463.25450,-31.3622715
463.25500,-12.74541263
463.25550,0.9883357131
463.25600,6.481835052
463.25650,7.702612683
463.25700,2.209113344
463.25750,-13.66099586
463.25800,-32.88824354
463.25850,-38.68693729
463.25900,-27.0895498
463.25950,-10.30385737
463.26000,-1.758413956
463.26050,-0.2324419177
463.26100,0.6831413054
463.26150,3.429890975
463.26200,3.124696567
463.26250,-1.758413956
463.26300,-10.91424619
463.26350,-19.76488401
463.26400,-22.51163368
463.26450,-15.1869679
463.26500,-0.2324419177
463.26550,12.89091761
463.26600,19.60519458
463.26650,22.65713866
463.26700,25.40388833
463.26750,28.45583241
463.26800,31.81297089
463.26850,37.00127582
463.26900,37.30647023
463.26950,18.38441695
463.27000,-22.20643927
463.27050,-62.18690668
463.27100,-74.39468299
463.27150,-57.60899057
463.27200,-37.16096525
463.27250,-29.83629946
463.27300,-29.22591065
463.27350,-22.51163368
463.27400,-9.083079741
463.27450,1.598724528
463.27500,7.092223867
463.27550,8.923390313
463.27600,7.092223867
463.27650,1.598724528
463.27700,-4.505163626
463.27750,-10.30385737
463.27800,-19.4596896
463.27850,-31.0570771
463.27900,-35.0246044
463.27950,-20.68046723
463.28000,6.787029459
463.28050,31.81297089
463.28100,41.57919194
463.28150,36.39088701
463.28200,23.26752748
463.28250,9.533779129
463.28300,-2.979191587
463.28350,-14.88177349
463.28400,-24.95318894
463.28450,-27.69993861
463.28500,-20.07007842
463.28550,-7.251913295
463.28600,2.209113344
463.28650,9.838973536
463.28700,22.96233307
463.28750,38.52724786
463.28800,41.27399753
463.28850,26.92986037
463.28900,11.36494557
463.28950,11.97533439
463.29000,25.70908274
463.29050,37.91685904
463.29100,43.41035838
463.29150,48.90385772
463.29200,58.05968995
463.29250,64.77396692
463.29300,65.38435574
463.29350,65.07916133
463.29400,67.52071659
463.29450,64.16357811
463.29500,41.88438635
463.29550,-2.979191587
463.29600,-57.30379616
463.29650,-97.28426357
463.29700,-104.9141238
463.29750,-79.58298792
463.29800,-39.2973261
463.29850,-6.641524479
463.29900,5.871446236
463.29950,-0.2324419177
463.30000,-13.96619026
463.30050,-20.68046723
463.30100,-13.35580145
463.30150,3.124696567
463.30200,16.85844491
463.30250,19.60519458
463.30300,15.33247288
463.30350,12.89091761
463.30400,16.55325051
463.30450,25.70908274
463.30500,37.00127582
463.30550,46.46230246
463.30600,48.90385772
463.30650,38.83244227
463.30700,14.72208406
463.30750,-18.23891197
463.30800,-48.14796393
463.30850,-60.66093464
463.30900,-51.199908
463.30950,-30.44668828
463.31000,-13.96619026
463.31050,-6.946718887
463.31100,-2.979191587
463.31150,2.819502159
463.31200,8.618195906
463.31250,10.75455676
463.31300,9.838973536
463.31350,9.533779129
463.31400,11.97533439
463.31450,19.60519458
463.31500,33.64413734
463.31550,48.90385772
463.31600,56.22852351
463.31650,54.09216265
463.31700,47.37788568
463.31750,38.22205345
463.31800,22.96233307
463.31850,2.209113344
463.31900,-14.27138467
463.31950,-23.1220225
463.32000,-35.63499321
463.32050,-62.49210109
463.32100,-95.45309712
463.32150,-111.3232063
463.32200,-99.11543001
463.32250,-70.12196128
463.32300,-42.959659
463.32350,-26.17396657
463.32400,-18.23891197
463.32450,-17.32332875
463.32500,-21.59605046
463.32550,-28.31032743
463.32600,-32.27785473
463.32650,-31.97266032
463.32700,-29.22591065
463.32750,-26.47916098
463.32800,-23.1220225
463.32850,-15.79735671
463.32900,-3.589580402
463.32950,10.75455676
463.33000,21.13116662
463.33050,21.74155544
463.33100,15.33247288
463.33150,9.228584721
463.33200,9.533779129
463.33250,14.11169524
463.33300,17.46883373
463.33350,17.77402814
463.33400,17.77402814
463.33450,18.38441695
463.33500,17.16363932
463.33550,12.58572321
463.33600,7.092223867
463.33650,4.345474198
463.33700,4.04027979
463.33750,2.514307752
463.33800,-0.2324419177
463.33850,-2.063608364
463.33900,-0.5376363254
463.33950,2.514307752
463.34000,5.261057421
463.34050,7.092223867
463.34100,7.702612683
463.34150,7.702612683
463.34200,6.176640644
463.34250,4.345474198
463.34300,4.04027979
463.34350,5.261057421
463.34400,5.566251829
463.34450,3.124696567
463.34500,-0.2324419177
463.34550,-0.5376363254
463.34600,2.514307752
463.34650,6.481835052
463.34700,6.176640644
463.34750,3.735085382
463.34800,4.04027979
463.34850,8.618195906
463.34900,11.67013998
463.34950,11.05975117
463.35000,11.36494557
463.35050,15.63766728
463.35100,20.2155834
463.35150,18.68961136
463.35200,13.19611202
463.35250,10.75455676
463.35300,11.67013998
463.35350,10.44936235
463.35400,5.566251829
463.35450,2.514307752
463.35500,4.04027979
463.35550,6.176640644
463.35600,4.04027979
463.35650,-0.2324419177
463.35700,-1.148025141
463.35750,0.9883357131
463.35800,3.429890975
463.35850,2.819502159
463.35900,-0.2324419177
463.35950,-3.89477481
463.36000,-8.167496518
463.36050,-10.91424619
463.36100,-12.74541263
463.36150,-14.57657908
463.36200,-15.4921623
463.36250,-13.35580145
463.36300,-7.557107703
463.36350,-1.453219549
463.36400,1.293530121
463.36450,0.9883357131
463.36500,-0.5376363254
463.36550,-1.758413956
463.36600,-2.063608364
463.36650,-1.453219549
463.36700,-2.673997179
463.36750,-6.336330072
463.36800,-9.998662964
463.36850,-9.693468556
463.36900,-4.810358033
463.36950,-0.2324419177
463.37000,1.293530121
463.37050,1.903918936
463.37100,2.819502159
463.37150,3.735085382
463.37200,3.124696567
463.37250,2.209113344
463.37300,2.514307752
463.37350,4.04027979
463.37400,3.735085382
463.37450,2.209113344
463.37500,0.9883357131
463.37550,1.598724528
463.37600,2.514307752
463.37650,1.903918936
463.37700,-0.2324419177
463.37750,-2.368802772
463.37800,-2.979191587
463.37850,-3.589580402
463.37900,-6.031135664
463.37950,-9.388274149
463.38000,-9.998662964
463.38050,-5.420746849
463.38100,1.598724528
463.38150,6.176640644
463.38200,7.092223867
463.38250,7.092223867
463.38300,9.838973536
463.38350,12.89091761
463.38400,11.97533439
463.38450,8.00780709
463.38500,7.702612683
463.38550,11.36494557
463.38600,11.67013998
463.38650,3.429890975
463.38700,-7.557107703
463.38750,-13.66099586
463.38800,-13.05060704
463.38850,-11.82982941
463.38900,-12.44021823
463.38950,-14.27138467
463.39000,-20.37527283
463.39050,-33.19343795
463.39100,-44.79082544
463.39150,-43.87524222
463.39200,-30.44668828
463.39250,-16.10255112
463.39300,-6.336330072
463.39350,1.903918936
463.39400,10.14416794
463.39450,15.94286169
463.39500,23.87791629
463.39550,40.35841431
463.39600,54.70255147
463.39650,43.41035838
463.39700,5.871446236
463.39750,-27.0895498
463.39800,-28.61552183
463.39850,-6.336330072
463.39900,13.19611202
463.39950,19.60519458
463.40000,18.68961136
463.40050,15.02727847
463.40100,6.787029459
463.40150,-4.810358033
463.40200,-15.1869679
463.40250,-25.25838335
463.40300,-36.55057643
463.40350,-42.65446459
463.40400,-33.49863236
463.40450,-10.30385737
463.40500,15.02727847
463.40550,32.1181653
463.40600,38.52724786
463.40650,39.44283108
463.40700,39.13763668
463.40750,38.52724786
463.40800,29.37141563
463.40850,7.397418275
463.40900,-16.40774553
463.40950,-24.34280013
463.41000,-12.13502382
463.41050,2.819502159
463.41100,5.871446236
463.41150,-1.148025141
463.41200,-10.30385737
463.41250,-20.37527283
463.41300,-31.66746591
463.41350,-36.85577084
463.41400,-29.83629946
463.41450,-18.54410638
463.41500,-14.57657908
463.41550,-17.32332875
463.41600,-17.93371756
463.41650,-14.88177349
463.41700,-15.4921623
463.41750,-20.07007842
463.41800,-18.84930079
463.41850,-9.693468556
463.41900,0.07275248999
463.41950,4.04027979
463.42000,5.871446236
463.42050,9.533779129
463.42100,14.11169524
463.42150,18.68961136
463.42200,26.01427714
463.42250,33.64413734
463.42300,31.50777648
463.42350,11.36494557
463.42400,-18.23891197
463.42450,-38.07654847
463.42500,-35.0246044
463.42550,-13.66099586
463.42600,11.05975117
463.42650,26.62466596
463.42700,28.150638
463.42750,20.82597221
463.42800,15.94286169
463.42850,17.46883373
463.42900,20.2155834
463.42950,18.07922254
463.43000,11.97533439
463.43050,3.124696567
463.43100,-10.91424619
463.43150,-30.75188269
463.43200,-42.65446459
463.43250,-31.97266032
463.43300,-2.368802772
463.43350,25.70908274
463.43400,39.44283108
463.43450,43.10516398
463.43500,46.46230246
463.43550,49.51424654
463.43600,44.63113601
463.43650,25.09869392
463.43700,-9.693468556
463.43750,-47.53757511
463.43800,-64.62846194
463.43850,-48.14796393
463.43900,-15.4921623
463.43950,1.903918936
463.44000,-2.368802772
463.44050,-8.472690926
463.44100,1.598724528
463.44150,19.91038899
463.44200,28.45583241
463.44250,23.87791629
463.44300,15.94286169
463.44350,10.14416794
463.44400,7.702612683
463.44450,8.618195906
463.44500,7.702612683
463.44550,-5.420746849
463.44600,-31.97266032
463.44650,-55.47262971
463.44700,-59.74535142
463.44750,-46.01160307
463.44800,-28.61552183
463.44850,-17.62852316
463.44900,-13.35580145
463.44950,-11.82982941
463.45000,-9.388274149
463.45050,-3.284385995
463.45100,0.3779468977
463.45150,-7.251913295
463.45200,-23.73241131
463.45250,-31.0570771
463.45300,-20.98566164
463.45350,-7.557107703
463.45400,-6.946718887
463.45450,-14.88177349
463.45500,-13.96619026
463.45550,-1.453219549
463.45600,9.228584721
463.45650,10.44936235
463.45700,8.00780709
463.45750,8.00780709
463.45800,9.228584721
463.45850,8.618195906
463.45900,8.923390313
463.45950,11.05975117
463.46000,11.97533439
463.46050,9.533779129
463.46100,7.092223867
463.46150,7.397418275
463.46200,9.838973536
463.46250,11.36494557
463.46300,11.67013998
463.46350,11.97533439
463.46400,11.05975117
463.46450,8.618195906
463.46500,5.261057421
463.46550,3.124696567
463.46600,1.293530121
463.46650,-0.5376363254
463.46700,-1.453219549
463.46750,0.07275248999
463.46800,5.261057421
463.46850,11.36494557
463.46900,14.72208406
463.46950,12.89091761
463.47000,8.923390313
463.47050,6.481835052
463.47100,7.702612683
463.47150,9.533779129
463.47200,9.228584721
463.47250,7.702612683
463.47300,6.481835052
463.47350,6.176640644
463.47400,4.04027979
463.47450,-0.8428307331
463.47500,-6.336330072
463.47550,-11.21944059
463.47600,-17.93371756
463.47650,-26.47916098
463.47700,-30.75188269
463.47750,-24.64799453
463.47800,-10.60905178
463.47850,1.903918936
463.47900,9.838973536
463.47950,16.2480561
463.48000,22.65713866
463.48050,25.40388833
463.48100,23.26752748
463.48150,22.35194425
463.48200,26.62466596
463.48250,30.28699885
463.48300,29.37141563
463.48350,27.84544359
463.48400,30.59219326
463.48450,32.42335971
463.48500,27.23505478
463.48550,18.38441695
463.48600,9.533779129
463.48650,-6.946718887
463.48700,-38.68693729
463.48750,-70.12196128
463.48800,-75.61546062
463.48850,-52.11549123
463.48900,-24.03760572
463.48950,-11.82982941
463.49000,-11.21944059
463.49050,-7.557107703
463.49100,1.598724528
463.49150,11.97533439
463.49200,19.91038899
463.49250,24.48830511
463.49300,21.13116662
463.49350,11.67013998
463.49400,4.04027979
463.49450,4.04027979
463.49500,5.871446236
463.49550,4.650668606
463.49600,2.514307752
463.49650,4.650668606
463.49700,7.702612683
463.49750,6.481835052
463.49800,2.514307752
463.49850,0.9883357131
463.49900,2.514307752
463.49950,2.819502159
463.50000,1.903918936
463.50050,2.209113344
463.50100,4.650668606
463.50150,7.092223867
463.50200,8.618195906
463.50250,9.228584721
463.50300,8.923390313
463.50350,8.00780709
463.50400,6.787029459
463.50450,5.566251829
463.50500,4.955863013
463.50550,4.650668606
463.50600,4.650668606
463.50650,3.429890975
463.50700,0.3779468977
463.50750,-2.063608364
463.50800,-2.979191587
463.50850,-3.89477481
463.50900,-5.725941256
463.50950,-7.557107703
463.51000,-6.641524479
463.51050,-3.284385995
463.51100,0.6831413054
463.51150,4.955863013
463.51200,8.313001498
463.51250,7.092223867
463.51300,-0.2324419177
463.51350,-9.998662964
463.51400,-18.54410638
463.51450,-28.00513302
463.51500,-37.16096525
463.51550,-37.77135406
463.51600,-23.4272169
463.51650,-3.89477481
463.51700,6.176640644
463.51750,7.702612683
463.51800,11.67013998
463.51850,19.30000018
463.51900,17.77402814
463.51950,1.293530121
463.52000,-19.1544952
463.52050,-32.88824354
463.52100,-41.12849255
463.52150,-48.14796393
463.52200,-49.97913037
463.52250,-42.65446459
463.52300,-29.53110506
463.52350,-17.32332875
463.52400,-6.031135664
463.52450,6.176640644
463.52500,15.94286169
463.52550,18.99480577
463.52600,16.85844491
463.52650,14.72208406
463.52700,15.02727847
463.52750,18.07922254
463.52800,23.26752748
463.52850,23.87791629
463.52900,10.75455676
463.52950,-16.40774553
463.53000,-43.57004781
463.53050,-53.64146327
463.53100,-45.70640867
463.53150,-31.0570771
463.53200,-19.76488401
463.53250,-12.44021823
463.53300,-6.641524479
463.53350,-2.673997179
463.53400,-0.2324419177
463.53450,0.6831413054
463.53500,2.819502159
463.53550,7.702612683
463.53600,15.33247288
463.53650,20.82597221
463.53700,22.04674984
463.53750,21.13116662
463.53800,21.74155544
463.53850,21.74155544
463.53900,15.33247288
463.53950,4.345474198
463.54000,-2.063608364
463.54050,-0.2324419177
463.54100,6.787029459
463.54150,12.89091761
463.54200,17.16363932
463.54250,19.91038899
463.54300,19.60519458
463.54350,15.63766728
463.54400,11.05975117
463.54450,6.787029459
463.54500,1.903918936
463.54550,-5.115552441
463.54600,-16.40774553
463.54650,-33.49863236
463.54700,-53.33626886
463.54750,-65.54404517
463.54800,-60.66093464
463.54850,-43.2648534
463.54900,-27.3947442
463.54950,-20.07007842
463.55000,-13.66099586
463.55050,0.6831413054
463.55100,23.87791629
463.55150,49.51424654
463.55200,71.18304948
463.55250,80.94927053
463.55300,72.09863271
463.55350,49.51424654
463.55400,27.54024918
463.55450,17.16363932
463.55500,16.55325051
463.55550,18.38441695
463.55600,19.60519458
463.55650,22.04674984
463.55700,26.01427714
463.55750,33.64413734
463.55800,44.0207472
463.55850,52.56619061
463.55900,51.04021858
463.55950,40.0532199
463.56000,25.70908274
463.56050,8.00780709
463.56100,-19.76488401
463.56150,-57.60899057
463.56200,-90.87518101
463.56250,-107.9660678
463.56300,-111.3232063
463.56350,-106.4400958
463.56400,-90.26479219
463.56450,-61.57651787
463.56500,-31.97266032
463.56550,-14.27138467
463.56600,-5.420746849
463.56650,7.397418275
463.56700,25.70908274
463.56750,37.91685904
463.56800,37.61166464
463.56850,30.28699885
463.56900,21.13116662
463.56950,8.313001498
463.57000,-9.083079741
463.57050,-23.4272169
463.57100,-23.73241131
463.57150,-8.472690926
463.57200,12.2805288
463.57250,25.40388833
463.57300,24.79349951
463.57350,15.33247288
463.57400,5.566251829
463.57450,-0.8428307331
463.57500,-6.031135664
463.57550,-11.21944059
463.57600,-14.88177349
463.57650,-17.62852316
463.57700,-18.84930079
463.57750,-13.35580145
463.57800,4.345474198
463.57850,29.37141563
463.57900,45.85191365
463.57950,46.46230246
463.58000,38.83244227
463.58050,33.03374852
463.58100,32.42335971
463.58150,36.39088701
463.58200,40.66360871
463.58250,34.86491497
463.58300,9.838973536
463.58350,-24.95318894
463.58400,-43.2648534
463.58450,-31.0570771
463.58500,-5.725941256
463.58550,5.261057421
463.58600,-1.148025141
463.58650,-9.998662964
463.58700,-11.524635
463.58750,-10.60905178
463.58800,-11.524635
463.58850,-11.21944059
463.58900,-6.946718887
463.58950,-2.979191587
463.59000,-0.5376363254
463.59050,1.903918936
463.59100,5.566251829
463.59150,7.397418275
463.59200,6.787029459
463.59250,5.261057421
463.59300,4.04027979
463.59350,1.598724528
463.59400,-0.2324419177
463.59450,-0.2324419177
463.59500,1.293530121
463.59550,0.6831413054
463.59600,-0.5376363254
463.59650,-0.8428307331
463.59700,-1.148025141
463.59750,-3.284385995
463.59800,-5.725941256
463.59850,-5.725941256
463.59900,-2.368802772
463.59950,0.07275248999
463.60000,-0.2324419177
463.60050,-3.589580402
463.60100,-6.946718887
463.60150,-8.472690926
463.60200,-6.031135664
463.60250,-1.453219549
463.60300,0.9883357131
463.60350,0.9883357131
463.60400,1.903918936
463.60450,5.261057421
463.60500,8.618195906
463.60550,10.75455676
463.60600,12.89091761
463.60650,15.02727847
463.60700,15.02727847
463.60750,13.19611202
463.60800,13.19611202
463.60850,13.80650084
463.60900,6.176640644
463.60950,-11.82982941
463.61000,-30.14149387
463.61050,-33.80382676
463.61100,-23.4272169
463.61150,-10.91424619
463.61200,-4.199969218
463.61250,-1.758413956
463.61300,-1.148025141
463.61350,-2.673997179
463.61400,-6.031135664
463.61450,-9.388274149
463.61500,-10.91424619
463.61550,-11.21944059
463.61600,-11.82982941
463.61650,-15.1869679
463.61700,-24.95318894
463.61750,-38.68693729
463.61800,-45.40121426
463.61850,-37.77135406
463.61900,-21.59605046
463.61950,-10.60905178
463.62000,-8.167496518
463.62050,-7.86230211
463.62100,-4.810358033
463.62150,-2.063608364
463.62200,-2.368802772
463.62250,-2.063608364
463.62300,1.293530121
463.62350,4.955863013
463.62400,5.566251829
463.62450,4.04027979
463.62500,3.429890975
463.62550,1.598724528
463.62600,-2.673997179
463.62650,-6.641524479
463.62700,-5.725941256
463.62750,-0.8428307331
463.62800,2.209113344
463.62850,3.124696567
463.62900,3.735085382
463.62950,4.345474198
463.63000,3.124696567
463.63050,1.903918936
463.63100,2.209113344
463.63150,4.04027979
463.63200,4.955863013
463.63250,6.787029459
463.63300,11.36494557
463.63350,15.63766728
463.63400,15.33247288
463.63450,11.36494557
463.63500,8.618195906
463.63550,8.618195906
463.63600,7.702612683
463.63650,4.650668606
463.63700,2.514307752
463.63750,2.514307752
463.63800,1.598724528
463.63850,-0.2324419177
463.63900,-0.5376363254
463.63950,0.6831413054
463.64000,2.209113344
463.64050,4.345474198
463.64100,11.05975117
463.64150,20.52077781
463.64200,26.31947155
463.64250,25.70908274
463.64300,23.57272188
463.64350,24.1831107
463.64400,26.01427714
463.64450,26.01427714
463.64500,25.40388833
463.64550,21.43636103
463.64600,5.871446236
463.64650,-22.51163368
463.64700,-49.67393597
463.64750,-58.52457379
463.64800,-50.28432478
463.64850,-37.46615966
463.64900,-28.31032743
463.64950,-20.68046723
463.65000,-11.21944059
463.65050,-2.673997179
463.65100,2.819502159
463.65150,7.397418275
463.65200,11.67013998
463.65250,15.02727847
463.65300,19.30000018
463.65350,25.40388833
463.65400,31.50777648
463.65450,31.81297089
463.65500,28.150638
463.65550,28.150638
463.65600,33.64413734
463.65650,36.69608141
463.65700,32.42335971
463.65750,27.23505478
463.65800,27.23505478
463.65850,21.74155544
463.65900,-1.148025141
463.65950,-34.71940999
463.66000,-54.55704649
463.66050,-53.03107445
463.66100,-49.97913037
463.66150,-64.32326754
463.66200,-84.16090404
463.66250,-83.85570963
463.66300,-60.35574023
463.66350,-39.2973261
463.66400,-36.85577084
463.66450,-40.82329814
463.66500,-31.66746591
463.66550,-11.82982941
463.66600,4.345474198
463.66650,18.07922254
463.66700,41.57919194
463.66750,73.31941034
463.66800,89.49471395
463.66850,72.70902152
463.66900,38.52724786
463.66950,20.52077781
463.67000,32.42335971
463.67050,51.65060739
463.67100,47.68308009
463.67150,18.68961136
463.67200,-8.167496518
463.67250,-10.91424619
463.67300,5.261057421
463.67350,17.16363932
463.67400,11.67013998
463.67450,-6.031135664
463.67500,-25.86877216
463.67550,-43.2648534
463.67600,-54.8622409
463.67650,-54.8622409
463.67700,-39.2973261
463.67750,-17.32332875
463.67800,-3.89477481
463.67850,-3.89477481
463.67900,-9.083079741
463.67950,-8.777885333
463.68000,-3.284385995
463.68050,3.429890975
463.68100,12.58572321
463.68150,25.40388833
463.68200,34.25452615
463.68250,27.84544359
463.68300,11.67013998
463.68350,6.176640644
463.68400,20.2155834
463.68450,37.91685904
463.68500,38.83244227
463.68550,26.31947155
463.68600,20.2155834
463.68650,22.65713866
463.68700,11.67013998
463.68750,-23.73241131
463.68800,-65.54404517
463.68850,-83.85570963
463.68900,-72.25832214
463.68950,-49.06354715
463.69000,-30.75188269
463.69050,-20.37527283
463.69100,-13.96619026
463.69150,-7.557107703
463.69200,4.345474198
463.69250,27.23505478
463.69300,52.87138502
463.69350,64.16357811
463.69400,53.78696825
463.69450,37.30647023
463.69500,31.20258208
463.69550,34.25452615
463.69600,33.03374852
463.69650,25.40388833
463.69700,18.99480577
463.69750,14.41688965
463.69800,2.209113344
463.69850,-14.57657908
463.69900,-18.54410638
463.69950,-6.031135664
463.70000,-4.199969218
463.70050,-38.9921317
463.70100,-90.5699866
463.70150,-108.2712622
463.70200,-70.12196128
463.70250,-6.031135664
463.70300,37.30647023
463.70350,45.24152483
463.70400,33.33894293
463.70450,20.82597221
463.70500,12.58572321
463.70550,7.702612683
463.70600,4.955863013
463.70650,2.514307752
463.70700,-2.979191587
463.70750,-9.083079741
463.70800,-7.86230211
463.70850,4.955863013
463.70900,24.1831107
463.70950,36.0856926
463.71000,32.72855411
463.71050,19.60519458
463.71100,10.14416794
463.71150,10.14416794
463.71200,11.67013998
463.71250,6.481835052
463.71300,-2.368802772
463.71350,-6.946718887
463.71400,-7.251913295
463.71450,-7.251913295
463.71500,-6.031135664
463.71550,0.6831413054
463.71600,10.14416794
463.71650,14.11169524
463.71700,12.2805288
463.71750,8.618195906
463.71800,-0.5376363254
463.71850,-24.64799453
463.71900,-57.30379616
463.71950,-77.14143266
463.72000,-71.95312773
463.72050,-52.11549123
463.72100,-33.80382676
463.72150,-22.20643927
463.72200,-12.13502382
463.72250,-1.453219549
463.72300,8.313001498
463.72350,15.63766728
463.72400,18.99480577
463.72450,17.46883373
463.72500,14.11169524
463.72550,13.50130643
463.72600,14.72208406
463.72650,14.11169524
463.72700,14.72208406
463.72750,20.52077781
463.72800,23.57272188
463.72850,11.05975117
463.72900,-13.35580145
463.72950,-27.69993861
463.73000,-18.84930079
463.73050,-1.453219549
463.73100,4.04027979
463.73150,-0.5376363254
463.73200,-1.453219549
463.73250,5.871446236
463.73300,11.97533439
463.73350,10.14416794
463.73400,5.261057421
463.73450,3.429890975
463.73500,4.345474198
463.73550,5.261057421
463.73600,4.04027979
463.73650,1.598724528
463.73700,0.6831413054
463.73750,5.261057421
463.73800,14.11169524
463.73850,20.52077781
463.73900,18.68961136
463.73950,11.05975117
463.74000,4.04027979
463.74050,0.07275248999
463.74100,-0.8428307331
463.74150,-0.5376363254
463.74200,0.07275248999
463.74250,-0.8428307331
463.74300,-5.420746849
463.74350,-7.86230211
463.74400,-6.031135664
463.74450,-5.420746849
463.74500,-13.66099586
463.74550,-28.61552183
463.74600,-38.38174288
463.74650,-34.10902117
463.74700,-17.93371756
463.74750,0.9883357131
463.74800,16.85844491
463.74850,24.79349951
463.74900,21.43636103
463.74950,9.228584721
463.75000,-0.8428307331
463.75050,1.293530121
463.75100,16.2480561
463.75150,29.37141563
463.75200,27.54024918
463.75250,11.05975117
463.75300,-8.472690926
463.75350,-22.20643927
463.75400,-29.22591065
463.75450,-29.53110506
463.75500,-24.34280013
463.75550,-20.98566164
463.75600,-29.83629946
463.75650,-51.199908
463.75700,-68.90118365
463.75750,-65.84923957
463.75800,-43.2648534
463.75850,-18.23891197
463.75900,-2.979191587
463.75950,1.293530121
463.76000,0.9883357131
463.76050,-0.2324419177
463.76100,0.07275248999
463.76150,5.261057421
463.76200,13.50130643
463.76250,18.68961136
463.76300,18.38441695
463.76350,15.63766728
463.76400,13.80650084
463.76450,12.58572321
463.76500,9.533779129
463.76550,5.871446236
463.76600,4.04027979
463.76650,5.261057421
463.76700,6.787029459
463.76750,7.092223867
463.76800,6.481835052
463.76850,5.871446236
463.76900,5.566251829
463.76950,5.871446236
463.77000,6.176640644
463.77050,6.481835052
463.77100,5.566251829
463.77150,4.650668606
463.77200,4.955863013
463.77250,7.092223867
463.77300,10.14416794
463.77350,11.97533439
463.77400,11.67013998
463.77450,9.228584721
463.77500,6.176640644
463.77550,2.514307752
463.77600,0.07275248999
463.77650,0.07275248999
463.77700,2.514307752
463.77750,5.261057421
463.77800,6.481835052
463.77850,5.261057421
463.77900,4.650668606
463.77950,6.481835052
463.78000,10.75455676
463.78050,14.41688965
463.78100,14.72208406
463.78150,11.67013998
463.78200,8.923390313
463.78250,10.44936235
463.78300,14.72208406
463.78350,18.68961136
463.78400,20.82597221
463.78450,21.74155544
463.78500,19.91038899
463.78550,13.50130643
463.78600,4.650668606
463.78650,0.07275248999
463.78700,1.598724528
463.78750,2.514307752
463.78800,-0.8428307331
463.78850,-3.89477481
463.78900,0.6831413054
463.78950,10.44936235
463.79000,18.07922254
463.79050,22.04674984
463.79100,26.62466596
463.79150,28.150638
463.79200,16.2480561
463.79250,-8.777885333
463.79300,-30.75188269
463.79350,-35.3297988
463.79400,-27.69993861
463.79450,-23.73241131
463.79500,-28.31032743
463.79550,-31.97266032
463.79600,-27.3947442
463.79650,-18.84930079
463.79700,-15.1869679
463.79750,-16.71293993
463.79800,-18.23891197
463.79850,-17.32332875
463.79900,-17.01813434
463.79950,-19.1544952
463.80000,-20.37527283
463.80050,-16.71293993
463.80100,-9.693468556
463.80150,-4.810358033
463.80200,-3.89477481
463.80250,-4.505163626
463.80300,-3.89477481
463.80350,-2.673997179
463.80400,-0.8428307331
463.80450,4.650668606
463.80500,17.16363932
463.80550,30.89738767
463.80600,38.52724786
463.80650,39.74802549
463.80700,38.83244227
463.80750,39.74802549
463.80800,44.32594161
463.80850,55.31294028
463.80900,66.29993896
463.80950,58.97527318
463.81000,19.60519458
463.81050,-36.55057643
463.81100,-74.6998774
463.81150,-77.44662707
463.81200,-61.88171227
463.81250,-49.36874156
463.81300,-39.60252051
463.81350,-20.98566164
463.81400,1.598724528
463.81450,15.63766728
463.81500,21.13116662
463.81550,31.50777648
463.81600,47.68308009
463.81650,52.26099621
463.81700,35.78049819
463.81750,13.50130643
463.81800,5.871446236
463.81850,14.11169524
463.81900,22.96233307
463.81950,20.82597221
463.82000,8.00780709
463.82050,-9.693468556
463.82100,-28.00513302
463.82150,-39.90771492
463.82200,-38.38174288
463.82250,-22.81682809
463.82300,-3.284385995
463.82350,5.566251829
463.82400,-0.2324419177
463.82450,-13.66099586
463.82500,-26.78435539
463.82550,-36.85577084
463.82600,-46.31679748
463.82650,-52.42068563
463.82700,-48.14796393
463.82750,-33.49863236
463.82800,-17.32332875
463.82850,-9.998662964
463.82900,-13.66099586
463.82950,-24.95318894
463.83000,-38.9921317
463.83050,-51.50510241
463.83100,-57.91418497
463.83150,-56.99860175
463.83200,-53.03107445
463.83250,-50.28432478
463.83300,-46.31679748
463.83350,-37.16096525
463.83400,-24.95318894
463.83450,-13.35580145
463.83500,-1.758413956
463.83550,14.72208406
463.83600,37.00127582
463.83650,56.83891232
463.83700,65.68955015
463.83750,62.63760607
463.83800,54.09216265
463.83850,49.20905213
463.83900,51.34541298
463.83950,54.09216265
463.84000,46.15710805
463.84050,26.92986037
463.84100,9.838973536
463.84150,7.397418275
463.84200,15.33247288
463.84250,15.63766728
463.84300,-0.5376363254
463.84350,-24.03760572
463.84400,-38.07654847
463.84450,-38.38174288
463.84500,-32.27785473
463.84550,-27.3947442
463.84600,-25.56357776
463.84650,-26.47916098
463.84700,-28.92071624
463.84750,-29.22591065
463.84800,-21.90124486
463.84850,-7.251913295
463.84900,6.787029459
463.84950,12.89091761
463.85000,12.58572321
463.85050,10.75455676
463.85100,10.75455676
463.85150,11.36494557
463.85200,12.89091761
463.85250,17.46883373
463.85300,22.96233307
463.85350,24.1831107
463.85400,20.52077781
463.85450,15.33247288
463.85500,11.05975117
463.85550,5.566251829
463.85600,-1.758413956
463.85650,-5.420746849
463.85700,0.9883357131
463.85750,17.77402814
463.85800,33.94933174
463.85850,39.13763668
463.85900,30.28699885
463.85950,14.72208406
463.86000,0.9883357131
463.86050,-7.251913295
463.86100,-11.82982941
463.86150,-12.13502382
463.86200,-5.420746849
463.86250,4.650668606
463.86300,11.36494557
463.86350,11.36494557
463.86400,8.618195906
463.86450,6.481835052
463.86500,-1.148025141
463.86550,-18.84930079
463.86600,-35.94018762
463.86650,-37.77135406
463.86700,-23.4272169
463.86750,-7.557107703
463.86800,-3.284385995
463.86850,-10.91424619
463.86900,-22.20643927
463.86950,-31.3622715
463.87000,-34.41421558
463.87050,-28.61552183
463.87100,-15.1869679
463.87150,-1.148025141
463.87200,7.702612683
463.87250,11.67013998
463.87300,14.72208406
463.87350,18.99480577
463.87400,23.57272188
463.87450,24.48830511
463.87500,20.52077781
463.87550,14.72208406
463.87600,12.58572321
463.87650,15.02727847
463.87700,17.46883373
463.87750,15.94286169
463.87800,11.67013998
463.87850,7.092223867
463.87900,2.514307752
463.87950,-0.5376363254
463.88000,2.209113344
463.88050,14.41688965
463.88100,28.150638
463.88150,32.42335971
463.88200,26.92986037
463.88250,21.43636103
463.88300,23.26752748
463.88350,29.06622122
463.88400,31.81297089
463.88450,29.67661004
463.88500,23.57272188
463.88550,14.11169524
463.88600,0.9883357131
463.88650,-10.60905178
463.88700,-13.96619026
463.88750,-8.777885333
463.88800,-3.589580402
463.88850,-8.167496518
463.88900,-18.84930079
463.88950,-23.4272169
463.89000,-12.44021823
463.89050,5.871446236
463.89100,14.11169524
463.89150,1.293530121
463.89200,-22.51163368
463.89250,-38.9921317
463.89300,-37.46615966
463.89350,-24.34280013
463.89400,-12.44021823
463.89450,-6.336330072
463.89500,-3.589580402
463.89550,-1.453219549
463.89600,-2.063608364
463.89650,-6.031135664
463.89700,-11.82982941
463.89750,-15.79735671
463.89800,-16.10255112
463.89850,-14.27138467
463.89900,-11.21944059
463.89950,-7.557107703
463.90000,-3.589580402
463.90050,1.293530121
463.90100,8.00780709
463.90150,15.94286169
463.90200,22.65713866
463.90250,25.70908274
463.90300,25.70908274
463.90350,26.92986037
463.90400,29.06622122
463.90450,25.70908274
463.90500,11.97533439
463.90550,-4.199969218
463.90600,-9.998662964
463.90650,-3.89477481
463.90700,-0.2324419177
463.90750,-9.998662964
463.90800,-26.47916098
463.90850,-33.80382676
463.90900,-26.78435539
463.90950,-13.05060704
463.91000,1.293530121
463.91050,16.2480561
463.91100,30.59219326
463.91150,40.96880312
463.91200,44.93633042
463.91250,41.57919194
463.91300,33.64413734
463.91350,26.62466596
463.91400,24.48830511
463.91450,19.91038899
463.91500,-3.284385995
463.91550,-47.2323807
463.91600,-85.68687607
463.91650,-89.04401456
463.91700,-55.47262971
463.91750,-13.05060704
463.91800,13.50130643
463.91850,21.74155544
463.91900,22.35194425
463.91950,22.96233307
463.92000,24.1831107
463.92050,20.82597221
463.92100,5.566251829
463.92150,-20.07007842
463.92200,-40.21290933
463.92250,-39.2973261
463.92300,-24.03760572
463.92350,-14.88177349
463.92400,-15.79735671
463.92450,-10.91424619
463.92500,9.533779129
463.92550,31.50777648
463.92600,38.83244227
463.92650,34.86491497
463.92700,32.42335971
463.92750,33.33894293
463.92800,32.42335971
463.92850,29.06622122
463.92900,24.1831107
463.92950,7.092223867
463.93000,-30.75188269
463.93050,-77.14143266
463.93100,-103.3881517
463.93150,-96.36868034
463.93200,-71.34273891
463.93250,-51.199908
463.93300,-43.2648534
463.93350,-40.51810373
463.93400,-34.41421558
463.93450,-23.73241131
463.93500,-9.693468556
463.93550,6.176640644
463.93600,24.79349951
463.93650,43.71555279
463.93700,56.83891232
463.93750,57.44930114
463.93800,47.07269128
463.93850,34.25452615
463.93900,25.70908274
463.93950,19.91038899
463.94000,12.89091761
463.94050,5.566251829
463.94100,-1.758413956
463.94150,-14.27138467
463.94200,-33.49863236
463.94250,-49.06354715
463.94300,-47.84276952
463.94350,-30.44668828
463.94400,-9.083079741
463.94450,7.702612683
463.94500,19.60519458
463.94550,26.01427714
463.94600,24.79349951
463.94650,18.68961136
463.94700,13.19611202
463.94750,10.14416794
463.94800,6.481835052
463.94850,3.124696567
463.94900,3.124696567
463.94950,1.903918936
463.95000,-6.946718887
463.95050,-19.4596896
463.95100,-19.4596896
463.95150,-2.673997179
463.95200,18.38441695
463.95250,29.37141563
463.95300,30.59219326
463.95350,30.28699885
463.95400,31.20258208
463.95450,28.150638
463.95500,19.30000018
463.95550,8.923390313
463.95600,0.07275248999
463.95650,-6.031135664
463.95700,-11.524635
463.95750,-17.01813434
463.95800,-23.73241131
463.95850,-29.53110506
463.95900,-29.53110506
463.95950,-20.68046723
463.96000,-7.86230211
463.96050,1.598724528
463.96100,6.176640644
463.96150,9.533779129
463.96200,13.50130643
463.96250,15.33247288
463.96300,13.80650084
463.96350,11.97533439
463.96400,10.75455676
463.96450,8.00780709
463.96500,0.9883357131
463.96550,-6.336330072
463.96600,-9.693468556
463.96650,-8.777885333
463.96700,-7.557107703
463.96750,-7.557107703
463.96800,-6.641524479
463.96850,-5.115552441
463.96900,-6.946718887
463.96950,-11.524635
463.97000,-14.27138467
463.97050,-9.693468556
463.97100,-0.5376363254
463.97150,6.176640644
463.97200,6.787029459
463.97250,2.514307752
463.97300,-0.8428307331
463.97350,-1.453219549
463.97400,-0.5376363254
463.97450,-0.2324419177
463.97500,-0.2324419177
463.97550,-0.2324419177
463.97600,-2.063608364
463.97650,-9.388274149
463.97700,-19.4596896
463.97750,-24.34280013
463.97800,-18.54410638
463.97850,-7.557107703
463.97900,-1.148025141
463.97950,-2.063608364
463.98000,-6.031135664
463.98050,-7.86230211
463.98100,-6.336330072
463.98150,-2.673997179
463.98200,1.598724528
463.98250,4.345474198
463.98300,4.345474198
463.98350,4.04027979
463.98400,5.871446236
463.98450,8.313001498
463.98500,7.397418275
463.98550,4.04027979
463.98600,1.598724528
463.98650,2.819502159
463.98700,5.261057421
463.98750,5.871446236
463.98800,4.345474198
463.98850,2.209113344
463.98900,1.598724528
463.98950,2.514307752
463.99000,3.124696567
463.99050,0.6831413054
463.99100,-4.505163626
463.99150,-8.472690926
463.99200,-9.693468556
463.99250,-9.693468556
463.99300,-9.693468556
463.99350,-9.388274149
463.99400,-8.167496518
463.99450,-8.472690926
463.99500,-9.083079741
463.99550,-5.725941256
463.99600,2.209113344
463.99650,10.14416794
463.99700,11.97533439
463.99750,10.75455676
463.99800,11.05975117
463.99850,13.19611202
463.99900,13.19611202
463.99950,11.36494557
464.00000,8.618195906
464.00050,4.955863013
464.00100,0.07275248999
464.00150,-2.673997179
464.00200,0.07275248999
464.00250,5.871446236
464.00300,9.228584721
464.00350,7.702612683
464.00400,4.04027979
464.00450,0.07275248999
464.00500,-1.758413956
464.00550,-1.453219549
464.00600,-0.2324419177
464.00650,-0.8428307331
464.00700,-2.673997179
464.00750,0.9883357131
464.00800,10.14416794
464.00850,13.50130643
464.00900,3.429890975
464.00950,-10.91424619
464.01000,-15.4921623
464.01050,-9.083079741
464.01100,-3.589580402
464.01150,-4.505163626
464.01200,-7.557107703
464.01250,-7.557107703
464.01300,-6.641524479
464.01350,-5.725941256
464.01400,-2.979191587
464.01450,0.3779468977
464.01500,2.209113344
464.01550,3.735085382
464.01600,10.14416794
464.01650,18.99480577
464.01700,19.91038899
464.01750,10.44936235
464.01800,-1.758413956
464.01850,-10.30385737
464.01900,-19.4596896
464.01950,-31.3622715
464.02000,-38.38174288
464.02050,-33.80382676
464.02100,-24.64799453
464.02150,-21.59605046
464.02200,-21.29085605
464.02250,-12.74541263
464.02300,4.955863013
464.02350,19.60519458
464.02400,22.04674984
464.02450,16.55325051
464.02500,13.50130643
464.02550,15.33247288
464.02600,18.99480577
464.02650,20.82597221
464.02700,20.52077781
464.02750,20.52077781
464.02800,25.09869392
464.02850,36.39088701
464.02900,47.37788568
464.02950,51.04021858
464.03000,48.29346891
464.03050,44.93633042
464.03100,38.52724786
464.03150,15.94286169
464.03200,-26.47916098
464.03250,-68.59598924
464.03300,-81.10895996
464.03350,-55.77782412
464.03400,-17.32332875
464.03450,3.124696567
464.03500,-4.199969218
464.03550,-23.1220225
464.03600,-31.0570771
464.03650,-20.98566164
464.03700,-3.284385995
464.03750,8.00780709
464.03800,8.618195906
464.03850,4.650668606
464.03900,3.124696567
464.03950,6.787029459
464.04000,12.2805288
464.04050,16.2480561
464.04100,17.16363932
464.04150,13.19611202
464.04200,4.650668606
464.04250,-3.89477481
464.04300,-4.810358033
464.04350,4.345474198
464.04400,14.72208406
464.04450,14.41688965
464.04500,4.04027979
464.04550,-5.115552441
464.04600,-10.91424619
464.04650,-24.64799453
464.04700,-52.42068563
464.04750,-77.44662707
464.04800,-76.83623825
464.04850,-50.28432478
464.04900,-20.37527283
464.04950,-3.89477481
464.05000,0.9883357131
464.05050,3.735085382
464.05100,5.261057421
464.05150,2.819502159
464.05200,-0.2324419177
464.05250,0.6831413054
464.05300,4.345474198
464.05350,7.397418275
464.05400,11.97533439
464.05450,18.38441695
464.05500,23.26752748
464.05550,22.65713866
464.05600,19.91038899
464.05650,19.60519458
464.05700,20.52077781
464.05750,20.52077781
464.05800,21.13116662
464.05850,24.79349951
464.05900,26.92986037
464.05950,21.74155544
464.06000,11.36494557
464.06050,4.650668606
464.06100,5.261057421
464.06150,8.00780709
464.06200,8.313001498
464.06250,6.481835052
464.06300,2.819502159
464.06350,-3.89477481
464.06400,-14.57657908
464.06450,-24.64799453
464.06500,-28.00513302
464.06550,-22.51163368
464.06600,-13.05060704
464.06650,-9.388274149
464.06700,-16.10255112
464.06750,-24.95318894
464.06800,-24.34280013
464.06850,-13.05060704
464.06900,-4.199969218
464.06950,-2.673997179
464.07000,3.429890975
464.07050,24.48830511
464.07100,47.68308009
464.07150,48.59866331
464.07200,22.96233307
464.07250,-6.336330072
464.07300,-17.01813434
464.07350,-7.557107703
464.07400,4.955863013
464.07450,3.735085382
464.07500,-14.27138467
464.07550,-39.60252051
464.07600,-54.8622409
464.07650,-52.42068563
464.07700,-36.24538203
464.07750,-16.10255112
464.07800,2.209113344
464.07850,18.99480577
464.07900,31.81297089
464.07950,37.91685904
464.08000,37.91685904
464.08050,35.17010938
464.08100,31.20258208
464.08150,27.23505478
464.08200,22.65713866
464.08250,12.58572321
464.08300,-6.946718887
464.08350,-28.92071624
464.08400,-36.85577084
464.08450,-24.95318894
464.08500,-6.031135664
464.08550,1.903918936
464.08600,-2.368802772
464.08650,-9.083079741
464.08700,-10.60905178
464.08750,-7.557107703
464.08800,-1.453219549
464.08850,8.618195906
464.08900,19.91038899
464.08950,26.92986037
464.09000,27.54024918
464.09050,23.57272188
464.09100,18.07922254
464.09150,10.44936235
464.09200,1.903918936
464.09250,-3.89477481
464.09300,-5.420746849
464.09350,-4.810358033
464.09400,-5.725941256
464.09450,-10.60905178
464.09500,-18.23891197
464.09550,-23.73241131
464.09600,-22.81682809
464.09650,-16.10255112
464.09700,-9.388274149
464.09750,-7.86230211
464.09800,-10.60905178
464.09850,-12.44021823
464.09900,-9.693468556
464.09950,-2.979191587
464.10000,2.819502159
464.10050,5.261057421
464.10100,4.345474198
464.10150,3.124696567
464.10200,3.124696567
464.10250,3.124696567
464.10300,2.819502159
464.10350,2.209113344
464.10400,0.9883357131
464.10450,-0.8428307331
464.10500,-3.89477481
464.10550,-5.115552441
464.10600,-4.199969218
464.10650,-2.673997179
464.10700,-1.453219549
464.10750,1.598724528
464.10800,8.00780709
464.10850,14.72208406
464.10900,18.38441695
464.10950,18.38441695
464.11000,15.02727847
464.11050,10.44936235
464.11100,5.261057421
464.11150,-0.5376363254
464.11200,-9.083079741
464.11250,-19.76488401
464.11300,-24.64799453
464.11350,-15.4921623
464.11400,3.429890975
464.11450,19.60519458
464.11500,23.57272188
464.11550,19.30000018
464.11600,16.55325051
464.11650,17.46883373
464.11700,20.2155834
464.11750,24.1831107
464.11800,28.45583241
464.11850,24.48830511
464.11900,3.429890975
464.11950,-25.86877216
464.12000,-40.82329814
464.12050,-28.00513302
464.12100,-4.199969218
464.12150,3.124696567
464.12200,-7.557107703
464.12250,-16.40774553
464.12300,-9.998662964
464.12350,-1.453219549
464.12400,-5.115552441
464.12450,-13.35580145
464.12500,-7.86230211
464.12550,10.14416794
464.12600,25.70908274
464.12650,33.64413734
464.12700,40.96880312
464.12750,44.0207472
464.12800,27.23505478
464.12850,-8.777885333
464.12900,-41.12849255
464.12950,-49.67393597
464.13000,-41.73888137
464.13050,-32.58304913
464.13100,-25.25838335
464.13150,-14.57657908
464.13200,0.07275248999
464.13250,17.77402814
464.13300,37.30647023
464.13350,49.81944095
464.13400,44.0207472
464.13450,25.70908274
464.13500,17.16363932
464.13550,22.35194425
464.13600,17.46883373
464.13650,-11.524635
464.13700,-43.57004781
464.13750,-50.8947136
464.13800,-41.43368696
464.13850,-41.73888137
464.13900,-53.03107445
464.13950,-52.42068563
464.14000,-34.10902117
464.14050,-16.71293993
464.14100,-12.74541263
464.14150,-13.66099586
464.14200,-9.388274149
464.14250,-2.979191587
464.14300,1.903918936
464.14350,10.14416794
464.14400,19.30000018
464.14450,19.60519458
464.14500,9.838973536
464.14550,1.293530121
464.14600,2.514307752
464.14650,8.313001498
464.14700,11.67013998
464.14750,10.14416794
464.14800,5.871446236
464.14850,4.04027979
464.14900,14.11169524
464.14950,40.66360871
464.15000,69.04668863
464.15050,75.15057678
464.15100,52.87138502
464.15150,24.1831107
464.15200,11.67013998
464.15250,17.16363932
464.15300,26.01427714
464.15350,24.48830511
464.15400,4.345474198
464.15450,-36.24538203
464.15500,-84.46609844
464.15550,-114.9855392
464.15600,-111.9335951
464.15650,-84.16090404
464.15700,-56.69340734
464.15750,-44.18043663
464.15800,-43.2648534
464.15850,-44.18043663
464.15900,-41.43368696
464.15950,-35.0246044
464.16000,-27.3947442
464.16050,-21.59605046
464.16100,-19.1544952
464.16150,-12.74541263
464.16200,6.481835052
464.16250,41.57919194
464.16300,77.59213205
464.16350,95.90379651
464.16400,90.71549158
464.16450,73.62460475
464.16500,59.28046758
464.16550,48.59866331
464.16600,34.55972056
464.16650,17.16363932
464.16700,3.735085382
464.16750,-2.063608364
464.16800,-9.693468556
464.16850,-25.86877216
464.16900,-46.31679748
464.16950,-59.74535142
464.17000,-59.1349626
464.17050,-47.2323807
464.17100,-31.97266032
464.17150,-18.23891197
464.17200,-4.505163626
464.17250,10.44936235
464.17300,22.96233307
464.17350,26.31947155
464.17400,23.26752748
464.17450,25.09869392
464.17500,34.25452615
464.17550,38.22205345
464.17600,30.89738767
464.17650,22.04674984
464.17700,17.46883373
464.17750,4.04027979
464.17800,-26.17396657
464.17850,-50.58951919
464.17900,-45.70640867
464.17950,-28.00513302
464.18000,-35.94018762
464.18050,-68.29079484
464.18100,-78.6674047
464.18150,-41.12849255
464.18200,10.75455676
464.18250,32.72855411
464.18300,22.65713866
464.18350,11.05975117
464.18400,11.67013998
464.18450,16.55325051
464.18500,19.91038899
464.18550,26.31947155
464.18600,37.00127582
464.18650,45.24152483
464.18700,47.68308009
464.18750,47.07269128
464.18800,44.63113601
464.18850,40.35841431
464.18900,35.78049819
464.18950,32.42335971
464.19000,27.84544359
464.19050,21.43636103
464.19100,16.55325051
464.19150,15.33247288
464.19200,12.89091761
464.19250,3.429890975
464.19300,-11.21944059
464.19350,-25.86877216
464.19400,-37.46615966
464.19450,-44.48563103
464.19500,-43.2648534
464.19550,-33.19343795
464.19600,-21.29085605
464.19650,-15.4921623
464.19700,-15.1869679
464.19750,-14.27138467
464.19800,-11.82982941
464.19850,-12.13502382
464.19900,-17.62852316
464.19950,-24.03760572
464.20000,-26.78435539
464.20050,-24.34280013
464.20100,-18.54410638
464.20150,-11.524635
464.20200,-6.031135664
464.20250,-2.979191587
464.20300,-1.148025141
464.20350,1.293530121
464.20400,3.735085382
464.20450,2.209113344
464.20500,-3.284385995
464.20550,-9.693468556
464.20600,-12.44021823
464.20650,-9.998662964
464.20700,-4.810358033
464.20750,0.9883357131
464.20800,6.787029459
464.20850,11.05975117
464.20900,13.50130643
464.20950,14.11169524
464.21000,11.97533439
464.21050,7.397418275
464.21100,1.293530121
464.21150,-2.368802772
464.21200,-3.89477481
464.21250,-4.505163626
464.21300,-5.420746849
464.21350,-4.810358033
464.21400,-0.5376363254
464.21450,4.650668606
464.21500,7.397418275
464.21550,6.481835052
464.21600,4.650668606
464.21650,4.04027979
464.21700,4.955863013
464.21750,6.787029459
464.21800,9.533779129
464.21850,11.36494557
464.21900,10.14416794
464.21950,5.261057421
464.22000,-0.2324419177
464.22050,-3.589580402
464.22100,-3.89477481
464.22150,-2.979191587
464.22200,-2.979191587
464.22250,-3.89477481
464.22300,-3.284385995
464.22350,0.3779468977
464.22400,4.955863013
464.22450,7.092223867
464.22500,6.787029459
464.22550,7.702612683
464.22600,11.36494557
464.22650,15.33247288
464.22700,15.94286169
464.22750,14.41688965
464.22800,13.19611202
464.22850,12.58572321
464.22900,10.75455676
464.22950,8.00780709
464.23000,6.176640644
464.23050,6.176640644
464.23100,6.481835052
464.23150,5.871446236
464.23200,5.261057421
464.23250,5.566251829
464.23300,6.176640644
464.23350,7.702612683
464.23400,8.923390313
464.23450,9.228584721
464.23500,8.00780709
464.23550,6.787029459
464.23600,6.787029459
464.23650,6.481835052
464.23700,2.514307752
464.23750,-4.810358033
464.23800,-13.05060704
464.23850,-18.23891197
464.23900,-20.68046723
464.23950,-21.59605046
464.24000,-21.90124486
464.24050,-20.68046723
464.24100,-17.01813434
464.24150,-12.44021823
464.24200,-7.86230211
464.24250,-2.368802772
464.24300,5.871446236
464.24350,16.2480561
464.24400,23.26752748
464.24450,22.96233307
464.24500,17.16363932
464.24550,12.89091761
464.24600,12.58572321
464.24650,12.2805288
464.24700,8.00780709
464.24750,2.819502159
464.24800,1.903918936
464.24850,4.650668606
464.24900,5.261057421
464.24950,1.293530121
464.25000,-2.673997179
464.25050,-2.063608364
464.25100,0.3779468977
464.25150,0.6831413054
464.25200,-1.148025141
464.25250,-2.673997179
464.25300,-2.979191587
464.25350,-6.031135664
464.25400,-11.21944059
464.25450,-13.66099586
464.25500,-9.998662964
464.25550,-3.89477481
464.25600,-0.2324419177
464.25650,2.514307752
464.25700,7.092223867
464.25750,11.67013998
464.25800,12.89091761
464.25850,11.97533439
464.25900,12.58572321
464.25950,16.85844491
464.26000,24.79349951
464.26050,35.47530378
464.26100,42.49477516
464.26150,35.47530378
464.26200,11.05975117
464.26250,-19.76488401
464.26300,-39.90771492
464.26350,-41.12849255
464.26400,-29.53110506
464.26450,-16.71293993
464.26500,-14.57657908
464.26550,-30.44668828
464.26600,-59.74535142
464.26650,-82.634932
464.26700,-82.02454318
464.26750,-61.27132346
464.26800,-40.51810373
464.26850,-28.92071624
464.26900,-20.37527283
464.26950,-7.86230211
464.27000,3.124696567
464.27050,7.397418275
464.27100,9.838973536
464.27150,16.2480561
464.27200,24.1831107
464.27250,28.76102681
464.27300,33.64413734
464.27350,42.49477516
464.27400,49.81944095
464.27450,47.07269128
464.27500,36.39088701
464.27550,24.1831107
464.27600,12.2805288
464.27650,0.3779468977
464.27700,-5.115552441
464.27750,-1.148025141
464.27800,0.07275248999
464.27850,-16.40774553
464.27900,-46.9271863
464.27950,-66.15443398
464.28000,-57.30379616
464.28050,-31.97266032
464.28100,-12.44021823
464.28150,-6.336330072
464.28200,-8.472690926
464.28250,-13.96619026
464.28300,-23.1220225
464.28350,-31.3622715
464.28400,-28.61552183
464.28450,-12.13502382
464.28500,7.092223867
464.28550,15.33247288
464.28600,7.397418275
464.28650,-6.641524479
464.28700,-13.66099586
464.28750,-11.21944059
464.28800,-7.86230211
464.28850,-10.91424619
464.28900,-17.01813434
464.28950,-21.90124486
464.29000,-26.47916098
464.29050,-30.44668828
464.29100,-24.03760572
464.29150,-0.2324419177
464.29200,30.59219326
464.29250,47.07269128
464.29300,42.79996957
464.29350,32.1181653
464.29400,27.23505478
464.29450,25.40388833
464.29500,21.74155544
464.29550,18.99480577
464.29600,18.99480577
464.29650,15.02727847
464.29700,0.3779468977
464.29750,-18.23891197
464.29800,-30.44668828
464.29850,-31.97266032
464.29900,-25.86877216
464.29950,-16.71293993
464.30000,-12.44021823
464.30050,-20.68046723
464.30100,-37.77135406
464.30150,-48.14796393
464.30200,-39.90771492
464.30250,-16.71293993
464.30300,11.97533439
464.30350,45.24152483
464.30400,83.6960202
464.30450,116.0466274
464.30500,127.3388205
464.30550,114.215461
464.30600,86.74796428
464.30650,59.8908564
464.30700,42.79996957
464.30750,34.86491497
464.30800,23.57272188
464.30850,-3.589580402
464.30900,-38.68693729
464.30950,-56.99860175
464.31000,-46.31679748
464.31050,-22.51163368
464.31100,-7.86230211
464.31150,-4.810358033
464.31200,-1.148025141
464.31250,5.566251829
464.31300,7.702612683
464.31350,3.429890975
464.31400,0.6831413054
464.31450,4.650668606
464.31500,10.75455676
464.31550,15.02727847
464.31600,16.85844491
464.31650,15.63766728
464.31700,11.97533439
464.31750,8.923390313
464.31800,6.481835052
464.31850,-2.368802772
464.31900,-23.1220225
464.31950,-46.62199189
464.32000,-55.1674353
464.32050,-43.57004781
464.32100,-22.81682809
464.32150,-7.557107703
464.32200,-0.8428307331
464.32250,2.209113344
464.32300,5.566251829
464.32350,5.566251829
464.32400,-1.758413956
464.32450,-15.4921623
464.32500,-28.61552183
464.32550,-33.80382676
464.32600,-30.14149387
464.32650,-21.90124486
464.32700,-16.10255112
464.32750,-16.40774553
464.32800,-18.84930079
464.32850,-12.44021823
464.32900,8.313001498
464.32950,35.17010938
464.33000,51.04021858
464.33050,50.12463535
464.33100,43.41035838
464.33150,42.49477516
464.33200,43.71555279
464.33250,37.00127582
464.33300,22.04674984
464.33350,11.05975117
464.33400,11.97533439
464.33450,20.2155834
464.33500,24.79349951
464.33550,18.68961136
464.33600,2.209113344
464.33650,-16.71293993
464.33700,-29.22591065
464.33750,-30.14149387
464.33800,-23.73241131
464.33850,-17.62852316
464.33900,-14.27138467
464.33950,-11.82982941
464.34000,-10.91424619
464.34050,-13.35580145
464.34100,-18.23891197
464.34150,-20.68046723
464.34200,-18.23891197
464.34250,-14.27138467
464.34300,-11.82982941
464.34350,-10.60905178
464.34400,-9.693468556
464.34450,-7.86230211
464.34500,-6.336330072
464.34550,-5.725941256
464.34600,-6.031135664
464.34650,-6.641524479
464.34700,-7.251913295
464.34750,-7.251913295
464.34800,-7.557107703
464.34850,-8.777885333
464.34900,-10.91424619
464.34950,-13.35580145
464.35000,-15.1869679
464.35050,-15.4921623
464.35100,-13.96619026
464.35150,-11.524635
464.35200,-9.998662964
464.35250,-8.167496518
464.35300,-3.589580402
464.35350,2.819502159
464.35400,6.481835052
464.35450,5.871446236
464.35500,3.124696567
464.35550,2.209113344
464.35600,2.514307752
464.35650,1.903918936
464.35700,-0.8428307331
464.35750,-2.673997179
464.35800,-2.673997179
464.35850,-1.453219549
464.35900,-1.148025141
464.35950,-0.8428307331
464.36000,0.9883357131
464.36050,4.04027979
464.36100,4.955863013
464.36150,3.124696567
464.36200,0.3779468977
464.36250,0.07275248999
464.36300,2.514307752
464.36350,5.871446236
464.36400,7.397418275
464.36450,4.650668606
464.36500,-2.063608364
464.36550,-8.777885333
464.36600,-8.777885333
464.36650,-0.5376363254
464.36700,10.75455676
464.36750,19.91038899
464.36800,26.31947155
464.36850,31.20258208
464.36900,32.42335971
464.36950,29.98180444
464.37000,29.98180444
464.37050,36.39088701
464.37100,37.91685904
464.37150,18.99480577
464.37200,-14.57657908
464.37250,-39.2973261
464.37300,-41.12849255
464.37350,-31.97266032
464.37400,-26.47916098
464.37450,-19.4596896
464.37500,-2.063608364
464.37550,14.72208406
464.37600,13.50130643
464.37650,-6.946718887
464.37700,-29.83629946
464.37750,-45.70640867
464.37800,-59.1349626
464.37850,-68.29079484
464.37900,-60.66093464
464.37950,-35.0246044
464.38000,-9.388274149
464.38050,-1.758413956
464.38100,-10.30385737
464.38150,-19.76488401
464.38200,-21.59605046
464.38250,-16.71293993
464.38300,-9.388274149
464.38350,-1.453219549
464.38400,2.819502159
464.38450,3.429890975
464.38500,4.345474198
464.38550,9.533779129
464.38600,16.55325051
464.38650,20.2155834
464.38700,19.91038899
464.38750,18.07922254
464.38800,15.33247288
464.38850,11.67013998
464.38900,8.923390313
464.38950,9.228584721
464.39000,10.44936235
464.39050,8.313001498
464.39100,2.209113344
464.39150,-3.89477481
464.39200,-7.251913295
464.39250,-7.251913295
464.39300,-6.031135664
464.39350,-4.199969218
464.39400,-2.673997179
464.39450,-2.368802772
464.39500,-3.589580402
464.39550,-3.284385995
464.39600,-0.2324419177
464.39650,4.955863013
464.39700,8.313001498
464.39750,8.923390313
464.39800,10.44936235
464.39850,15.63766728
464.39900,22.04674984
464.39950,24.48830511
464.40000,21.74155544
464.40050,16.85844491
464.40100,12.89091761
464.40150,10.75455676
464.40200,9.533779129
464.40250,8.618195906
464.40300,6.176640644
464.40350,0.9883357131
464.40400,-3.89477481
464.40450,-5.115552441
464.40500,-3.284385995
464.40550,-2.368802772
464.40600,-1.758413956
464.40650,3.735085382
464.40700,16.2480561
464.40750,29.37141563
464.40800,35.78049819
464.40850,34.86491497
464.40900,31.50777648
464.40950,28.76102681
464.41000,27.54024918
464.41050,27.54024918
464.41100,27.84544359
464.41150,23.87791629
464.41200,11.97533439
464.41250,-6.641524479
464.41300,-26.47916098
464.41350,-39.90771492
464.41400,-43.57004781
464.41450,-38.9921317
464.41500,-31.3622715
464.41550,-25.56357776
464.41600,-21.29085605
464.41650,-16.71293993
464.41700,-11.524635
464.41750,-10.30385737
464.41800,-13.05060704
464.41850,-12.74541263
464.41900,-2.673997179
464.41950,13.19611202
464.42000,26.31947155
464.42050,31.50777648
464.42100,32.42335971
464.42150,30.89738767
464.42200,25.09869392
464.42250,15.94286169
464.42300,9.838973536
464.42350,6.176640644
464.42400,-3.89477481
464.42450,-22.51163368
464.42500,-35.63499321
464.42550,-28.61552183
464.42600,-7.251913295
464.42650,9.533779129
464.42700,13.19611202
464.42750,9.838973536
464.42800,6.787029459
464.42850,4.04027979
464.42900,-0.8428307331
464.42950,-7.86230211
464.43000,-16.40774553
464.43050,-25.25838335
464.43100,-31.0570771
464.43150,-31.0570771
464.43200,-28.61552183
464.43250,-27.69993861
464.43300,-23.4272169
464.43350,-11.82982941
464.43400,0.6831413054
464.43450,3.735085382
464.43500,-0.8428307331
464.43550,-1.758413956
464.43600,3.429890975
464.43650,4.345474198
464.43700,-5.115552441
464.43750,-16.10255112
464.43800,-19.4596896
464.43850,-17.32332875
464.43900,-15.79735671
464.43950,-10.30385737
464.44000,6.787029459
464.44050,33.03374852
464.44100,52.56619061
464.44150,55.00774588
464.44200,46.15710805
464.44250,39.44283108
464.44300,39.44283108
464.44350,35.47530378
464.44400,19.30000018
464.44450,-1.148025141
464.44500,-8.472690926
464.44550,3.735085382
464.44600,23.26752748
464.44650,35.47530378
464.44700,37.30647023
464.44750,34.55972056
464.44800,29.98180444
464.44850,27.54024918
464.44900,31.50777648
464.44950,40.66360871
464.45000,45.24152483
464.45050,34.25452615
464.45100,6.787029459
464.45150,-28.61552183
464.45200,-59.44015701
464.45250,-70.42715569
464.45300,-50.8947136
464.45350,-12.74541263
464.45400,13.80650084
464.45450,11.36494557
464.45500,-4.810358033
464.45550,-8.167496518
464.45600,4.650668606
464.45650,15.63766728
464.45700,14.41688965
464.45750,5.261057421
464.45800,-10.30385737
464.45850,-42.34927018
464.45900,-89.95959778
464.45950,-130.8556484
464.46000,-140.6218695
464.46050,-118.9530665
464.46100,-86.29726489
464.46150,-61.88171227
464.46200,-49.36874156
464.46250,-42.65446459
464.46300,-32.88824354
464.46350,-17.32332875
464.46400,-0.2324419177
464.46450,11.05975117
464.46500,13.80650084
464.46550,11.05975117
464.46600,8.618195906
464.46650,7.702612683
464.46700,8.00780709
464.46750,11.67013998
464.46800,20.52077781
464.46850,32.42335971
464.46900,41.88438635
464.46950,46.46230246
464.47000,47.37788568
464.47050,46.46230246
464.47100,44.32594161
464.47150,41.27399753
464.47200,37.30647023
464.47250,30.89738767
464.47300,14.11169524
464.47350,-19.1544952
464.47400,-65.23885076
464.47450,-103.9985405
464.47500,-112.543984
464.47550,-87.21284811
464.47600,-49.67393597
464.47650,-24.95318894
464.47700,-20.37527283
464.47750,-24.34280013
464.47800,-24.03760572
464.47850,-16.71293993
464.47900,-4.199969218
464.47950,10.44936235
464.48000,25.09869392
464.48050,36.69608141
464.48100,46.76749687
464.48150,58.97527318
464.48200,70.26746626
464.48250,72.70902152
464.48300,65.68955015
464.48350,57.44930114
464.48400,52.26099621
464.48450,45.24152483
464.48500,32.42335971
464.48550,21.74155544
464.48600,21.43636103
464.48650,27.23505478
464.48700,31.50777648
464.48750,33.03374852
464.48800,33.94933174
464.48850,26.92986037
464.48900,5.261057421
464.48950,-20.07007842
464.49000,-29.22591065
464.49050,-16.71293993
464.49100,-0.8428307331
464.49150,2.819502159
464.49200,-0.8428307331
464.49250,-1.758413956
464.49300,0.3779468977
464.49350,0.07275248999
464.49400,-2.673997179
464.49450,-2.368802772
464.49500,0.07275248999
464.49550,0.07275248999
464.49600,-2.063608364
464.49650,-2.368802772
464.49700,0.3779468977
464.49750,2.514307752
464.49800,1.903918936
464.49850,0.9883357131
464.49900,1.903918936
464.49950,2.209113344
464.50000,1.293530121
464.50050,0.3779468977
464.50100,1.293530121
464.50150,2.209113344
464.50200,1.903918936
464.50250,1.293530121
464.50300,1.903918936
464.50350,2.819502159
464.50400,2.514307752
464.50450,1.598724528
464.50500,0.6831413054
464.50550,-0.2324419177
464.50600,-1.453219549
464.50650,-2.673997179
464.50700,-3.89477481
464.50750,-5.115552441
464.50800,-7.557107703
464.50850,-9.083079741
464.50900,-8.472690926
464.50950,-5.725941256
464.51000,-2.979191587
464.51050,-2.063608364
464.51100,-2.673997179
464.51150,-2.673997179
464.51200,-2.063608364
464.51250,-1.758413956
464.51300,-2.063608364
464.51350,-2.673997179
464.51400,-2.368802772
464.51450,-2.063608364
464.51500,-2.063608364
464.51550,-0.5376363254
464.51600,4.345474198
464.51650,11.05975117
464.51700,14.41688965
464.51750,12.58572321
464.51800,9.838973536
464.51850,8.313001498
464.51900,5.871446236
464.51950,0.3779468977
464.52000,-4.810358033
464.52050,-7.557107703
464.52100,-11.524635
464.52150,-23.4272169
464.52200,-38.9921317
464.52250,-46.31679748
464.52300,-39.90771492
464.52350,-25.25838335
464.52400,-13.96619026
464.52450,-9.998662964
464.52500,-9.998662964
464.52550,-8.167496518
464.52600,-4.199969218
464.52650,-0.8428307331
464.52700,-1.148025141
464.52750,-3.89477481
464.52800,-5.115552441
464.52850,-2.368802772
464.52900,1.293530121
464.52950,1.598724528
464.53000,-1.758413956
464.53050,-5.420746849
464.53100,-6.641524479
464.53150,-6.336330072
464.53200,-5.725941256
464.53250,-5.725941256
464.53300,-6.336330072
464.53350,-6.946718887
464.53400,-7.557107703
464.53450,-8.167496518
464.53500,-8.777885333
464.53550,-8.472690926
464.53600,-5.420746849
464.53650,-0.2324419177
464.53700,4.345474198
464.53750,7.397418275
464.53800,10.75455676
464.53850,16.2480561
464.53900,19.91038899
464.53950,18.68961136
464.54000,15.33247288
464.54050,14.41688965
464.54100,16.2480561
464.54150,17.46883373
464.54200,15.33247288
464.54250,11.97533439
464.54300,7.702612683
464.54350,2.209113344
464.54400,-5.115552441
464.54450,-12.13502382
464.54500,-16.40774553
464.54550,-14.57657908
464.54600,-7.251913295
464.54650,1.293530121
464.54700,5.871446236
464.54750,4.04027979
464.54800,-1.148025141
464.54850,-5.115552441
464.54900,-6.946718887
464.54950,-6.946718887
464.55000,-6.946718887
464.55050,-7.251913295
464.55100,-8.167496518
464.55150,-9.388274149
464.55200,-8.777885333
464.55250,-7.251913295
464.55300,-6.641524479
464.55350,-8.167496518
464.55400,-7.251913295
464.55450,0.07275248999
464.55500,11.67013998
464.55550,18.07922254
464.55600,14.72208406
464.55650,6.481835052
464.55700,-0.2324419177
464.55750,-2.673997179
464.55800,-3.89477481
464.55850,-4.810358033
464.55900,-4.810358033
464.55950,-5.725941256
464.56000,-7.251913295
464.56050,-7.557107703
464.56100,-3.89477481
464.56150,-0.2324419177
464.56200,-2.673997179
464.56250,-10.91424619
464.56300,-17.93371756
464.56350,-19.1544952
464.56400,-17.01813434
464.56450,-14.27138467
464.56500,-9.693468556
464.56550,-2.063608364
464.56600,4.955863013
464.56650,8.313001498
464.56700,9.533779129
464.56750,14.11169524
464.56800,26.62466596
464.56850,44.63113601
464.56900,60.80643962
464.56950,69.04668863
464.57000,67.825911
464.57050,59.28046758
464.57100,48.29346891
464.57150,37.91685904
464.57200,29.67661004
464.57250,22.96233307
464.57300,12.2805288
464.57350,-11.524635
464.57400,-53.94665767
464.57450,-103.3881517
464.57500,-137.8751198
464.57550,-140.0114806
464.57600,-111.0180119
464.57650,-70.42715569
464.57700,-40.51810373
464.57750,-27.3947442
464.57800,-17.01813434
464.57850,3.124696567
464.57900,28.150638
464.57950,40.96880312
464.58000,38.83244227
464.58050,38.83244227
464.58100,52.56619061
464.58150,69.96227185
464.58200,78.81290968
464.58250,81.86485375
464.58300,85.52718665
464.58350,81.55965935
464.58400,62.94280048
464.58450,39.74802549
464.58500,21.74155544
464.58550,-3.284385995
464.58600,-49.97913037
464.58650,-99.11543001
464.58700,-115.2907336
464.58750,-94.5375139
464.58800,-65.54404517
464.58850,-43.87524222
464.58900,-15.4921623
464.58950,21.13116662
464.59000,32.1181653
464.59050,-8.167496518
464.59100,-72.56351654
464.59150,-106.4400958
464.59200,-90.87518101
464.59250,-53.03107445
464.59300,-23.73241131
464.59350,-8.167496518
464.59400,0.3779468977
464.59450,4.650668606
464.59500,3.735085382
464.59550,2.819502159
464.59600,4.955863013
464.59650,8.618195906
464.59700,9.533779129
464.59750,8.313001498
464.59800,8.618195906
464.59850,10.75455676
464.59900,14.11169524
464.59950,18.07922254
464.60000,22.96233307
464.60050,27.23505478
464.60100,30.59219326
464.60150,33.94933174
464.60200,37.00127582
464.60250,40.0532199
464.60300,40.35841431
464.60350,34.86491497
464.60400,23.57272188
464.60450,12.89091761
464.60500,9.533779129
464.60550,11.05975117
464.60600,7.092223867
464.60650,-6.641524479
464.60700,-22.51163368
464.60750,-28.61552183
464.60800,-23.1220225
464.60850,-13.66099586
464.60900,-6.031135664
464.60950,-0.5376363254
464.61000,2.819502159
464.61050,4.650668606
464.61100,5.871446236
464.61150,7.702612683
464.61200,8.00780709
464.61250,4.650668606
464.61300,-0.8428307331
464.61350,-3.89477481
464.61400,-2.063608364
464.61450,0.6831413054
464.61500,1.598724528
464.61550,0.6831413054
464.61600,0.9883357131
464.61650,2.514307752
464.61700,2.819502159
464.61750,3.124696567
464.61800,4.345474198
464.61850,7.397418275
464.61900,10.75455676
464.61950,13.50130643
464.62000,17.16363932
464.62050,21.74155544
464.62100,24.1831107
464.62150,22.96233307
464.62200,18.38441695
464.62250,14.41688965
464.62300,13.19611202
464.62350,14.41688965
464.62400,16.85844491
464.62450,18.99480577
464.62500,19.30000018
464.62550,16.55325051
464.62600,10.14416794
464.62650,1.903918936
