"type","name","time_units","begin_time","frequency","count","units"
"signal","Ultium EMG-FLEX.CAPR.U RT","s",461.96000,2000,22000,"uV"

"time","value"
461.96000,-8.855365973
461.96050,-7.024199526
461.96100,-5.498227488
461.96150,-4.887838672
461.96200,-2.141089003
461.96250,2.74202152
461.96300,5.793965597
461.96350,3.962799151
461.96400,0.9108550739
461.96450,2.74202152
461.96500,9.151104082
461.96550,13.42382579
461.96600,12.81343697
461.96650,10.98227053
461.96700,10.0666873
461.96750,8.845909674
461.96800,5.183576782
461.96850,1.521243889
461.96900,1.216049482
461.96950,3.352410335
461.97000,4.267993559
461.97050,3.352410335
461.97100,3.352410335
461.97150,4.878382374
461.97200,5.793965597
461.97250,4.267993559
461.97300,1.216049482
461.97350,-1.530700188
461.97400,-3.667061042
461.97450,-4.582644265
461.97500,-5.19303308
461.97550,-5.19303308
461.97600,-4.887838672
461.97650,-3.972255449
461.97700,-2.446283411
461.97750,-1.22550578
461.97800,-1.22550578
461.97850,-3.056672226
461.97900,-5.19303308
461.97950,-7.024199526
461.98000,-7.024199526
461.98050,-5.19303308
461.98100,-1.835894595
461.98150,1.521243889
461.98200,4.267993559
461.98250,5.183576782
461.98300,4.267993559
461.98350,3.047215928
461.98400,2.131632705
461.98450,2.131632705
461.98500,3.047215928
461.98550,5.488771189
461.98600,8.540715266
461.98650,10.37188171
461.98700,9.761492897
461.98750,7.319937636
461.98800,4.878382374
461.98850,3.657604743
461.98900,1.826438297
461.98950,-0.004728149245
461.99000,-0.004728149245
461.99050,3.962799151
461.99100,7.625132043
461.99150,4.267993559
461.99200,-4.887838672
461.99250,-10.0761436
461.99300,-6.413810711
461.99350,-0.004728149245
461.99400,1.216049482
461.99450,-0.9203113723
461.99500,-0.004728149245
461.99550,3.962799151
461.99600,3.352410335
461.99650,-6.108616303
461.99700,-17.09561498
461.99750,-20.14755906
461.99800,-15.87483735
461.99850,-10.99172683
461.99900,-10.38133801
461.99950,-12.21250446
462.00000,-13.7384765
462.00050,-13.43328209
462.00100,-11.29692123
462.00150,-7.939782749
462.00200,-4.582644265
462.00250,-0.6151169646
462.00300,4.573187966
462.00350,12.20304816
462.00400,17.39135309
462.00450,15.56018664
462.00500,7.625132043
462.00550,-0.004728149245
462.00600,-0.9203113723
462.00650,3.962799151
462.00700,8.845909674
462.00750,7.625132043
462.00800,0.3004662585
462.00850,-5.803421896
462.00900,-8.244977157
462.00950,-8.550171565
462.01000,-10.0761436
462.01050,-11.29692123
462.01100,-8.855365973
462.01150,-2.751477819
462.01200,2.131632705
462.01250,5.488771189
462.01300,9.45629849
462.01350,14.94979783
462.01400,17.08615868
462.01450,14.03421461
462.01500,9.151104082
462.01550,6.70954882
462.01600,6.099160005
462.01650,4.878382374
462.01700,4.267993559
462.01750,5.183576782
462.01800,5.793965597
462.01850,3.657604743
462.01900,0.3004662585
462.01950,-0.3099225569
462.02000,0.6056606662
462.02050,0.9108550739
462.02100,-0.3099225569
462.02150,-0.9203113723
462.02200,-0.004728149245
462.02250,1.826438297
462.02300,3.657604743
462.02350,5.183576782
462.02400,6.099160005
462.02450,4.878382374
462.02500,2.131632705
462.02550,-0.3099225569
462.02600,-2.446283411
462.02650,-4.277449857
462.02700,-5.498227488
462.02750,-4.277449857
462.02800,-1.22550578
462.02850,0.6056606662
462.02900,-0.004728149245
462.02950,-1.835894595
462.03000,-3.667061042
462.03050,-2.751477819
462.03100,-0.004728149245
462.03150,3.962799151
462.03200,6.099160005
462.03250,4.878382374
462.03300,3.047215928
462.03350,1.826438297
462.03400,0.9108550739
462.03450,-1.22550578
462.03500,-3.361866634
462.03550,-2.446283411
462.03600,0.3004662585
462.03650,2.436827112
462.03700,0.9108550739
462.03750,-0.6151169646
462.03800,-1.22550578
462.03850,-0.9203113723
462.03900,-1.530700188
462.03950,-2.751477819
462.04000,-3.361866634
462.04050,-3.667061042
462.04100,-4.277449857
462.04150,-4.277449857
462.04200,-3.361866634
462.04250,-2.751477819
462.04300,-3.972255449
462.04350,-5.498227488
462.04400,-6.108616303
462.04450,-7.024199526
462.04500,-8.855365973
462.04550,-10.68653242
462.04600,-9.465754788
462.04650,-5.19303308
462.04700,-1.835894595
462.04750,-0.9203113723
462.04800,-1.530700188
462.04850,-2.141089003
462.04900,-2.446283411
462.04950,-3.972255449
462.05000,-5.498227488
462.05050,-6.108616303
462.05100,-5.19303308
462.05150,-3.972255449
462.05200,-4.887838672
462.05250,-6.719005119
462.05300,-6.719005119
462.05350,-1.835894595
462.05400,4.878382374
462.05450,9.151104082
462.05500,7.930326451
462.05550,4.878382374
462.05600,2.74202152
462.05650,2.131632705
462.05700,1.521243889
462.05750,0.9108550739
462.05800,0.3004662585
462.05850,-0.3099225569
462.05900,-1.530700188
462.05950,-2.751477819
462.06000,-3.361866634
462.06050,-3.361866634
462.06100,-2.751477819
462.06150,-1.835894595
462.06200,-2.141089003
462.06250,-3.056672226
462.06300,-2.446283411
462.06350,1.216049482
462.06400,5.793965597
462.06450,7.319937636
462.06500,6.099160005
462.06550,5.793965597
462.06600,6.70954882
462.06650,6.404354412
462.06700,3.352410335
462.06750,0.3004662585
462.06800,-0.6151169646
462.06850,-1.530700188
462.06900,-0.9203113723
462.06950,3.352410335
462.07000,10.37188171
462.07050,12.81343697
462.07100,6.404354412
462.07150,-2.141089003
462.07200,-5.498227488
462.07250,-1.835894595
462.07300,3.657604743
462.07350,6.404354412
462.07400,5.183576782
462.07450,3.352410335
462.07500,3.962799151
462.07550,7.014743228
462.07600,8.235520859
462.07650,3.047215928
462.07700,-6.108616303
462.07750,-10.68653242
462.07800,-6.108616303
462.07850,0.3004662585
462.07900,1.521243889
462.07950,-1.530700188
462.08000,-1.530700188
462.08050,2.131632705
462.08100,2.436827112
462.08150,-3.056672226
462.08200,-9.16056038
462.08250,-9.465754788
462.08300,-5.498227488
462.08350,-3.667061042
462.08400,-5.19303308
462.08450,-6.719005119
462.08500,-6.413810711
462.08550,-6.413810711
462.08600,-7.634588342
462.08650,-8.244977157
462.08700,-5.498227488
462.08750,0.3004662585
462.08800,6.70954882
462.08850,9.45629849
462.08900,8.540715266
462.08950,5.793965597
462.09000,3.962799151
462.09050,3.657604743
462.09100,2.131632705
462.09150,-1.530700188
462.09200,-5.498227488
462.09250,-5.19303308
462.09300,-1.530700188
462.09350,1.216049482
462.09400,2.74202152
462.09450,5.183576782
462.09500,8.235520859
462.09550,7.014743228
462.09600,-1.530700188
462.09650,-13.43328209
462.09700,-20.14755906
462.09750,-18.31639261
462.09800,-11.60211564
462.09850,-7.024199526
462.09900,-6.108616303
462.09950,-6.413810711
462.10000,-6.108616303
462.10050,-4.582644265
462.10100,-3.361866634
462.10150,-3.361866634
462.10200,-2.751477819
462.10250,-0.3099225569
462.10300,0.6056606662
462.10350,-0.9203113723
462.10400,-5.19303308
462.10450,-7.634588342
462.10500,-6.719005119
462.10550,-3.361866634
462.10600,0.3004662585
462.10650,4.573187966
462.10700,8.235520859
462.10750,8.235520859
462.10800,4.573187966
462.10850,0.3004662585
462.10900,-0.9203113723
462.10950,-0.9203113723
462.11000,-1.530700188
462.11050,-1.22550578
462.11100,1.826438297
462.11150,5.488771189
462.11200,5.793965597
462.11250,3.962799151
462.11300,4.573187966
462.11350,7.319937636
462.11400,8.235520859
462.11450,6.099160005
462.11500,4.573187966
462.11550,6.404354412
462.11600,8.235520859
462.11650,6.404354412
462.11700,2.131632705
462.11750,-1.22550578
462.11800,-3.361866634
462.11850,-4.277449857
462.11900,-3.056672226
462.11950,-0.004728149245
462.12000,1.826438297
462.12050,1.826438297
462.12100,1.521243889
462.12150,1.826438297
462.12200,0.9108550739
462.12250,-0.9203113723
462.12300,-2.141089003
462.12350,-0.004728149245
462.12400,2.131632705
462.12450,1.826438297
462.12500,-0.6151169646
462.12550,-0.9203113723
462.12600,1.521243889
462.12650,4.267993559
462.12700,5.183576782
462.12750,4.878382374
462.12800,3.962799151
462.12850,1.826438297
462.12900,0.3004662585
462.12950,-0.004728149245
462.13000,-0.004728149245
462.13050,-1.22550578
462.13100,-3.056672226
462.13150,-2.751477819
462.13200,-0.9203113723
462.13250,-1.22550578
462.13300,-3.056672226
462.13350,-3.361866634
462.13400,-2.141089003
462.13450,-2.141089003
462.13500,-4.277449857
462.13550,-5.19303308
462.13600,-2.751477819
462.13650,-0.3099225569
462.13700,-0.3099225569
462.13750,-1.835894595
462.13800,-1.835894595
462.13850,-0.3099225569
462.13900,0.9108550739
462.13950,2.436827112
462.14000,3.962799151
462.14050,3.962799151
462.14100,1.826438297
462.14150,0.3004662585
462.14200,1.521243889
462.14250,4.267993559
462.14300,5.488771189
462.14350,5.183576782
462.14400,5.488771189
462.14450,6.099160005
462.14500,6.099160005
462.14550,6.404354412
462.14600,8.540715266
462.14650,10.37188171
462.14700,7.930326451
462.14750,1.826438297
462.14800,-1.835894595
462.14850,-0.9203113723
462.14900,1.216049482
462.14950,3.047215928
462.15000,3.962799151
462.15050,4.573187966
462.15100,3.962799151
462.15150,1.521243889
462.15200,-0.004728149245
462.15250,0.6056606662
462.15300,1.826438297
462.15350,2.74202152
462.15400,4.267993559
462.15450,3.962799151
462.15500,0.9108550739
462.15550,-1.835894595
462.15600,0.9108550739
462.15650,8.235520859
462.15700,9.45629849
462.15750,-0.9203113723
462.15800,-15.56964294
462.15850,-21.06314228
462.15900,-14.0436709
462.15950,-2.751477819
462.16000,3.047215928
462.16050,3.657604743
462.16100,2.436827112
462.16150,0.6056606662
462.16200,-0.6151169646
462.16250,-0.6151169646
462.16300,0.6056606662
462.16350,1.216049482
462.16400,-1.22550578
462.16450,-5.498227488
462.16500,-7.329393934
462.16550,-6.413810711
462.16600,-7.024199526
462.16650,-10.68653242
462.16700,-14.34886531
462.16750,-13.7384765
462.16800,-8.855365973
462.16850,-3.667061042
462.16900,0.6056606662
462.16950,6.70954882
462.17000,14.94979783
462.17050,21.35888039
462.17100,22.57965802
462.17150,18.91732513
462.17200,14.03421461
462.17250,11.28746494
462.17300,10.0666873
462.17350,7.319937636
462.17400,1.521243889
462.17450,-3.056672226
462.17500,-3.361866634
462.17550,0.6056606662
462.17600,4.878382374
462.17650,6.404354412
462.17700,6.70954882
462.17750,7.930326451
462.17800,8.540715266
462.17850,6.404354412
462.17900,2.436827112
462.17950,-0.004728149245
462.18000,-1.22550578
462.18050,-3.361866634
462.18100,-5.19303308
462.18150,-4.582644265
462.18200,-1.22550578
462.18250,0.9108550739
462.18300,1.521243889
462.18350,0.6056606662
462.18400,-1.530700188
462.18450,-5.19303308
462.18500,-8.244977157
462.18550,-8.244977157
462.18600,-5.19303308
462.18650,-1.835894595
462.18700,-0.3099225569
462.18750,0.3004662585
462.18800,0.9108550739
462.18850,1.216049482
462.18900,0.9108550739
462.18950,1.216049482
462.19000,2.74202152
462.19050,3.962799151
462.19100,2.74202152
462.19150,-0.004728149245
462.19200,-2.751477819
462.19250,-3.056672226
462.19300,-2.141089003
462.19350,-1.835894595
462.19400,-2.751477819
462.19450,-2.446283411
462.19500,-0.6151169646
462.19550,0.6056606662
462.19600,-0.004728149245
462.19650,-0.9203113723
462.19700,-1.530700188
462.19750,-1.530700188
462.19800,-1.22550578
462.19850,-0.004728149245
462.19900,1.216049482
462.19950,-0.004728149245
462.20000,-5.19303308
462.20050,-8.550171565
462.20100,-7.329393934
462.20150,-4.277449857
462.20200,-6.108616303
462.20250,-10.99172683
462.20300,-12.51769887
462.20350,-9.465754788
462.20400,-7.634588342
462.20450,-9.16056038
462.20500,-10.0761436
462.20550,-6.108616303
462.20600,-0.9203113723
462.20650,1.216049482
462.20700,1.521243889
462.20750,1.826438297
462.20800,2.436827112
462.20850,2.436827112
462.20900,1.521243889
462.20950,-0.004728149245
462.21000,-3.361866634
462.21050,-6.719005119
462.21100,-7.024199526
462.21150,-5.19303308
462.21200,-5.19303308
462.21250,-7.939782749
462.21300,-9.16056038
462.21350,-6.413810711
462.21400,-3.972255449
462.21450,-4.887838672
462.21500,-7.024199526
462.21550,-5.498227488
462.21600,-1.835894595
462.21650,-0.6151169646
462.21700,-1.530700188
462.21750,-0.6151169646
462.21800,2.131632705
462.21850,4.267993559
462.21900,5.183576782
462.21950,6.70954882
462.22000,9.761492897
462.22050,10.98227053
462.22100,9.45629849
462.22150,7.319937636
462.22200,5.488771189
462.22250,2.74202152
462.22300,-0.004728149245
462.22350,-2.141089003
462.22400,-3.361866634
462.22450,-5.19303308
462.22500,-6.108616303
462.22550,-3.056672226
462.22600,0.6056606662
462.22650,-0.3099225569
462.22700,-6.719005119
462.22750,-8.244977157
462.22800,1.216049482
462.22850,13.7290202
462.22900,15.25499224
462.22950,5.183576782
462.23000,-5.19303308
462.23050,-7.634588342
462.23100,-3.667061042
462.23150,0.6056606662
462.23200,4.573187966
462.23250,7.930326451
462.23300,7.625132043
462.23350,1.216049482
462.23400,-6.108616303
462.23450,-8.550171565
462.23500,-4.887838672
462.23550,0.3004662585
462.23600,4.267993559
462.23650,7.014743228
462.23700,7.319937636
462.23750,3.352410335
462.23800,-1.835894595
462.23850,-4.887838672
462.23900,-5.19303308
462.23950,-4.887838672
462.24000,-4.582644265
462.24050,-1.22550578
462.24100,4.573187966
462.24150,8.540715266
462.24200,7.014743228
462.24250,2.74202152
462.24300,-0.004728149245
462.24350,-0.004728149245
462.24400,-0.6151169646
462.24450,-1.835894595
462.24500,-1.835894595
462.24550,-1.530700188
462.24600,-2.141089003
462.24650,-3.056672226
462.24700,-2.446283411
462.24750,-0.6151169646
462.24800,-0.004728149245
462.24850,-0.9203113723
462.24900,-2.446283411
462.24950,-1.835894595
462.25000,-0.3099225569
462.25050,0.6056606662
462.25100,1.826438297
462.25150,3.047215928
462.25200,2.436827112
462.25250,-0.3099225569
462.25300,-4.277449857
462.25350,-6.413810711
462.25400,-5.803421896
462.25450,-3.972255449
462.25500,-0.9203113723
462.25550,2.436827112
462.25600,6.099160005
462.25650,7.625132043
462.25700,6.099160005
462.25750,4.878382374
462.25800,5.183576782
462.25850,7.014743228
462.25900,8.235520859
462.25950,8.540715266
462.26000,8.540715266
462.26050,7.625132043
462.26100,5.488771189
462.26150,2.131632705
462.26200,-0.6151169646
462.26250,-2.141089003
462.26300,-1.835894595
462.26350,-0.004728149245
462.26400,0.9108550739
462.26450,0.3004662585
462.26500,-3.056672226
462.26550,-7.634588342
462.26600,-10.68653242
462.26650,-11.29692123
462.26700,-10.38133801
462.26750,-8.855365973
462.26800,-7.024199526
462.26850,-4.887838672
462.26900,-2.141089003
462.26950,1.216049482
462.27000,5.183576782
462.27050,7.319937636
462.27100,6.404354412
462.27150,4.267993559
462.27200,2.74202152
462.27250,2.74202152
462.27300,3.962799151
462.27350,6.099160005
462.27400,8.540715266
462.27450,10.0666873
462.27500,9.151104082
462.27550,7.319937636
462.27600,5.793965597
462.27650,5.488771189
462.27700,5.183576782
462.27750,4.267993559
462.27800,3.047215928
462.27850,1.826438297
462.27900,0.3004662585
462.27950,-0.004728149245
462.28000,0.3004662585
462.28050,0.9108550739
462.28100,-0.004728149245
462.28150,-2.446283411
462.28200,-2.751477819
462.28250,-0.3099225569
462.28300,0.6056606662
462.28350,-0.9203113723
462.28400,-4.582644265
462.28450,-7.329393934
462.28500,-9.465754788
462.28550,-12.82289327
462.28600,-15.56964294
462.28650,-14.95925413
462.28700,-8.855365973
462.28750,-0.6151169646
462.28800,5.793965597
462.28850,8.235520859
462.28900,7.014743228
462.28950,4.267993559
462.29000,0.9108550739
462.29050,-2.141089003
462.29100,-4.277449857
462.29150,-4.582644265
462.29200,-3.056672226
462.29250,-0.9203113723
462.29300,-0.3099225569
462.29350,-0.6151169646
462.29400,-0.9203113723
462.29450,-0.9203113723
462.29500,-1.835894595
462.29550,-3.667061042
462.29600,-4.277449857
462.29650,-1.835894595
462.29700,2.131632705
462.29750,4.267993559
462.29800,3.047215928
462.29850,0.6056606662
462.29900,-0.004728149245
462.29950,0.3004662585
462.30000,0.9108550739
462.30050,2.131632705
462.30100,3.962799151
462.30150,5.488771189
462.30200,3.962799151
462.30250,1.521243889
462.30300,0.3004662585
462.30350,1.216049482
462.30400,1.826438297
462.30450,0.6056606662
462.30500,-0.004728149245
462.30550,1.216049482
462.30600,3.657604743
462.30650,3.962799151
462.30700,1.521243889
462.30750,-1.530700188
462.30800,-2.751477819
462.30850,-2.141089003
462.30900,-0.3099225569
462.30950,0.3004662585
462.31000,-0.004728149245
462.31050,-0.6151169646
462.31100,-1.530700188
462.31150,-1.530700188
462.31200,-0.9203113723
462.31250,-0.3099225569
462.31300,0.3004662585
462.31350,0.3004662585
462.31400,-0.004728149245
462.31450,-1.22550578
462.31500,-0.6151169646
462.31550,0.3004662585
462.31600,-0.004728149245
462.31650,-3.056672226
462.31700,-7.024199526
462.31750,-8.550171565
462.31800,-6.719005119
462.31850,-3.667061042
462.31900,-1.530700188
462.31950,-0.9203113723
462.32000,-1.530700188
462.32050,-3.056672226
462.32100,-4.582644265
462.32150,-5.19303308
462.32200,-4.887838672
462.32250,-4.277449857
462.32300,-5.19303308
462.32350,-7.329393934
462.32400,-8.855365973
462.32450,-7.939782749
462.32500,-5.19303308
462.32550,-2.141089003
462.32600,0.9108550739
462.32650,4.573187966
462.32700,7.014743228
462.32750,7.014743228
462.32800,5.183576782
462.32850,3.657604743
462.32900,2.74202152
462.32950,1.521243889
462.33000,0.9108550739
462.33050,2.436827112
462.33100,4.878382374
462.33150,3.352410335
462.33200,-2.141089003
462.33250,-6.413810711
462.33300,-4.887838672
462.33350,-0.6151169646
462.33400,1.521243889
462.33450,3.047215928
462.33500,6.099160005
462.33550,10.0666873
462.33600,10.37188171
462.33650,7.319937636
462.33700,3.962799151
462.33750,3.047215928
462.33800,4.878382374
462.33850,7.014743228
462.33900,7.930326451
462.33950,5.793965597
462.34000,2.74202152
462.34050,3.657604743
462.34100,7.930326451
462.34150,8.540715266
462.34200,0.3004662585
462.34250,-11.60211564
462.34300,-18.0111982
462.34350,-16.18003176
462.34400,-12.21250446
462.34450,-10.0761436
462.34500,-7.634588342
462.34550,-4.582644265
462.34600,-5.19303308
462.34650,-11.90731005
462.34700,-18.0111982
462.34750,-16.79042057
462.34800,-8.855365973
462.34850,-1.530700188
462.34900,1.216049482
462.34950,3.047215928
462.35000,6.404354412
462.35050,10.67707612
462.35100,13.7290202
462.35150,14.94979783
462.35200,14.64460342
462.35250,13.42382579
462.35300,10.98227053
462.35350,8.845909674
462.35400,7.930326451
462.35450,8.235520859
462.35500,9.151104082
462.35550,10.0666873
462.35600,10.37188171
462.35650,8.540715266
462.35700,4.878382374
462.35750,1.216049482
462.35800,-0.004728149245
462.35850,1.216049482
462.35900,3.047215928
462.35950,3.962799151
462.36000,3.352410335
462.36050,1.216049482
462.36100,-0.3099225569
462.36150,-1.530700188
462.36200,-0.9203113723
462.36250,0.6056606662
462.36300,3.047215928
462.36350,4.573187966
462.36400,4.267993559
462.36450,2.131632705
462.36500,-0.3099225569
462.36550,-1.835894595
462.36600,-2.446283411
462.36650,-4.887838672
462.36700,-9.16056038
462.36750,-10.68653242
462.36800,-7.329393934
462.36850,-3.972255449
462.36900,-5.498227488
462.36950,-10.99172683
462.37000,-14.34886531
462.37050,-13.12808768
462.37100,-9.770949196
462.37150,-4.582644265
462.37200,3.047215928
462.37250,11.59265934
462.37300,15.25499224
462.37350,12.50824257
462.37400,9.151104082
462.37450,9.151104082
462.37500,11.28746494
462.37550,11.28746494
462.37600,11.28746494
462.37650,13.7290202
462.37700,16.47576987
462.37750,14.94979783
462.37800,9.761492897
462.37850,4.267993559
462.37900,-0.3099225569
462.37950,-5.803421896
462.38000,-11.29692123
462.38050,-13.7384765
462.38100,-11.90731005
462.38150,-9.16056038
462.38200,-6.413810711
462.38250,-3.361866634
462.38300,0.3004662585
462.38350,3.352410335
462.38400,3.352410335
462.38450,1.521243889
462.38500,-0.6151169646
462.38550,-1.530700188
462.38600,-0.3099225569
462.38650,2.74202152
462.38700,5.793965597
462.38750,6.404354412
462.38800,3.962799151
462.38850,0.3004662585
462.38900,-2.141089003
462.38950,-3.972255449
462.39000,-5.19303308
462.39050,-6.108616303
462.39100,-6.413810711
462.39150,-5.803421896
462.39200,-4.582644265
462.39250,-5.19303308
462.39300,-8.244977157
462.39350,-10.68653242
462.39400,-8.550171565
462.39450,-2.446283411
462.39500,2.74202152
462.39550,3.352410335
462.39600,0.3004662585
462.39650,-1.835894595
462.39700,-2.446283411
462.39750,-2.141089003
462.39800,-1.835894595
462.39850,-0.9203113723
462.39900,-0.004728149245
462.39950,-0.3099225569
462.40000,-2.751477819
462.40050,-5.19303308
462.40100,-5.803421896
462.40150,-4.582644265
462.40200,-3.361866634
462.40250,-3.056672226
462.40300,-4.277449857
462.40350,-5.498227488
462.40400,-6.108616303
462.40450,-6.413810711
462.40500,-6.413810711
462.40550,-6.108616303
462.40600,-6.413810711
462.40650,-7.329393934
462.40700,-7.634588342
462.40750,-6.413810711
462.40800,-5.19303308
462.40850,-5.19303308
462.40900,-5.803421896
462.40950,-5.803421896
462.41000,-6.413810711
462.41050,-8.855365973
462.41100,-11.29692123
462.41150,-9.770949196
462.41200,-5.19303308
462.41250,-3.361866634
462.41300,-4.582644265
462.41350,-2.446283411
462.41400,4.878382374
462.41450,12.20304816
462.41500,14.03421461
462.41550,13.42382579
462.41600,15.25499224
462.41650,17.08615868
462.41700,15.25499224
462.41750,10.0666873
462.41800,6.099160005
462.41850,4.267993559
462.41900,2.74202152
462.41950,0.9108550739
462.42000,-1.22550578
462.42050,-7.939782749
462.42100,-19.53717024
462.42150,-28.08261366
462.42200,-25.33586399
462.42250,-13.43328209
462.42300,-3.667061042
462.42350,-0.9203113723
462.42400,-1.530700188
462.42450,-0.3099225569
462.42500,0.9108550739
462.42550,0.9108550739
462.42600,-0.3099225569
462.42650,-0.9203113723
462.42700,-0.6151169646
462.42750,-0.004728149245
462.42800,2.131632705
462.42850,6.099160005
462.42900,8.540715266
462.42950,6.70954882
462.43000,1.826438297
462.43050,-1.835894595
462.43100,-0.3099225569
462.43150,5.183576782
462.43200,10.0666873
462.43250,9.151104082
462.43300,3.657604743
462.43350,-0.6151169646
462.43400,-1.22550578
462.43450,-0.6151169646
462.43500,-1.530700188
462.43550,-3.361866634
462.43600,-3.361866634
462.43650,-2.141089003
462.43700,-1.22550578
462.43750,-1.22550578
462.43800,-0.6151169646
462.43850,-0.004728149245
462.43900,0.3004662585
462.43950,1.826438297
462.44000,3.962799151
462.44050,3.962799151
462.44100,0.6056606662
462.44150,-1.835894595
462.44200,-1.22550578
462.44250,-0.004728149245
462.44300,-0.004728149245
462.44350,1.521243889
462.44400,7.014743228
462.44450,11.28746494
462.44500,7.930326451
462.44550,0.6056606662
462.44600,-2.446283411
462.44650,-0.3099225569
462.44700,1.521243889
462.44750,0.6056606662
462.44800,-0.9203113723
462.44850,-0.6151169646
462.44900,-0.004728149245
462.44950,0.3004662585
462.45000,1.216049482
462.45050,3.962799151
462.45100,4.573187966
462.45150,2.131632705
462.45200,-0.004728149245
462.45250,0.3004662585
462.45300,2.131632705
462.45350,1.521243889
462.45400,-0.3099225569
462.45450,-0.3099225569
462.45500,1.521243889
462.45550,4.267993559
462.45600,6.404354412
462.45650,8.845909674
462.45700,10.67707612
462.45750,11.59265934
462.45800,11.28746494
462.45850,10.0666873
462.45900,6.70954882
462.45950,2.74202152
462.46000,1.826438297
462.46050,5.488771189
462.46100,9.45629849
462.46150,8.235520859
462.46200,2.131632705
462.46250,-3.361866634
462.46300,-4.582644265
462.46350,-3.056672226
462.46400,-1.22550578
462.46450,-0.004728149245
462.46500,0.9108550739
462.46550,0.6056606662
462.46600,-0.6151169646
462.46650,-0.9203113723
462.46700,0.6056606662
462.46750,2.74202152
462.46800,3.352410335
462.46850,3.962799151
462.46900,6.404354412
462.46950,9.45629849
462.47000,9.45629849
462.47050,6.70954882
462.47100,3.047215928
462.47150,0.3004662585
462.47200,-0.9203113723
462.47250,-0.9203113723
462.47300,-0.3099225569
462.47350,-0.3099225569
462.47400,-2.446283411
462.47450,-4.582644265
462.47500,-4.582644265
462.47550,-1.835894595
462.47600,0.3004662585
462.47650,0.3004662585
462.47700,-0.6151169646
462.47750,-2.446283411
462.47800,-3.667061042
462.47850,-3.056672226
462.47900,-2.141089003
462.47950,-2.141089003
462.48000,-3.361866634
462.48050,-3.667061042
462.48100,-2.446283411
462.48150,-1.835894595
462.48200,-2.751477819
462.48250,-2.751477819
462.48300,-0.004728149245
462.48350,1.216049482
462.48400,-3.056672226
462.48450,-9.770949196
462.48500,-11.29692123
462.48550,-5.803421896
462.48600,-0.004728149245
462.48650,0.9108550739
462.48700,-1.530700188
462.48750,-3.361866634
462.48800,-2.141089003
462.48850,0.3004662585
462.48900,2.74202152
462.48950,3.657604743
462.49000,2.74202152
462.49050,0.9108550739
462.49100,-0.004728149245
462.49150,0.3004662585
462.49200,1.216049482
462.49250,0.9108550739
462.49300,-0.6151169646
462.49350,-2.751477819
462.49400,-3.056672226
462.49450,-0.9203113723
462.49500,2.74202152
462.49550,5.183576782
462.49600,3.962799151
462.49650,-0.004728149245
462.49700,-3.056672226
462.49750,-3.056672226
462.49800,-1.530700188
462.49850,-0.9203113723
462.49900,-1.22550578
462.49950,-0.9203113723
462.50000,1.521243889
462.50050,5.793965597
462.50100,9.151104082
462.50150,8.235520859
462.50200,1.826438297
462.50250,-5.19303308
462.50300,-8.244977157
462.50350,-5.498227488
462.50400,-0.9203113723
462.50450,1.826438297
462.50500,2.436827112
462.50550,1.521243889
462.50600,-0.9203113723
462.50650,-3.056672226
462.50700,-0.9203113723
462.50750,3.962799151
462.50800,4.878382374
462.50850,-1.22550578
462.50900,-9.770949196
462.50950,-12.51769887
462.51000,-8.855365973
462.51050,-3.667061042
462.51100,0.3004662585
462.51150,4.267993559
462.51200,3.657604743
462.51250,-5.498227488
462.51300,-19.53717024
462.51350,-26.55664162
462.51400,-21.6735311
462.51450,-11.90731005
462.51500,-5.803421896
462.51550,-4.887838672
462.51600,-3.667061042
462.51650,-0.6151169646
462.51700,2.131632705
462.51750,3.657604743
462.51800,4.878382374
462.51850,6.70954882
462.51900,7.625132043
462.51950,6.099160005
462.52000,3.657604743
462.52050,2.74202152
462.52100,3.047215928
462.52150,2.74202152
462.52200,1.826438297
462.52250,3.047215928
462.52300,6.70954882
462.52350,8.845909674
462.52400,5.183576782
462.52450,-0.004728149245
462.52500,-0.6151169646
462.52550,3.962799151
462.52600,8.845909674
462.52650,9.151104082
462.52700,7.625132043
462.52750,7.319937636
462.52800,6.70954882
462.52850,4.267993559
462.52900,1.826438297
462.52950,-0.004728149245
462.53000,-3.056672226
462.53050,-8.550171565
462.53100,-10.38133801
462.53150,-3.972255449
462.53200,6.404354412
462.53250,12.50824257
462.53300,10.98227053
462.53350,4.878382374
462.53400,-0.9203113723
462.53450,-5.19303308
462.53500,-6.413810711
462.53550,-5.498227488
462.53600,-3.972255449
462.53650,-3.667061042
462.53700,-3.056672226
462.53750,-0.9203113723
462.53800,0.9108550739
462.53850,0.6056606662
462.53900,-0.9203113723
462.53950,-1.835894595
462.54000,-1.22550578
462.54050,-1.22550578
462.54100,-2.751477819
462.54150,-3.972255449
462.54200,-3.361866634
462.54250,-2.141089003
462.54300,-2.141089003
462.54350,-3.361866634
462.54400,-3.972255449
462.54450,-3.361866634
462.54500,-2.446283411
462.54550,-2.446283411
462.54600,-2.751477819
462.54650,-3.667061042
462.54700,-5.19303308
462.54750,-6.719005119
462.54800,-7.634588342
462.54850,-7.939782749
462.54900,-7.634588342
462.54950,-7.024199526
462.55000,-4.582644265
462.55050,0.3004662585
462.55100,4.878382374
462.55150,5.793965597
462.55200,4.267993559
462.55250,3.657604743
462.55300,5.488771189
462.55350,8.845909674
462.55400,10.98227053
462.55450,11.28746494
462.55500,9.761492897
462.55550,6.70954882
462.55600,3.657604743
462.55650,2.131632705
462.55700,1.826438297
462.55750,0.9108550739
462.55800,-1.835894595
462.55850,-4.277449857
462.55900,-3.667061042
462.55950,-0.004728149245
462.56000,3.657604743
462.56050,4.267993559
462.56100,1.521243889
462.56150,-2.446283411
462.56200,-5.19303308
462.56250,-3.667061042
462.56300,1.216049482
462.56350,5.488771189
462.56400,5.488771189
462.56450,1.216049482
462.56500,-4.582644265
462.56550,-8.855365973
462.56600,-8.855365973
462.56650,-4.887838672
462.56700,-0.004728149245
462.56750,2.74202152
462.56800,3.352410335
462.56850,5.183576782
462.56900,9.45629849
462.56950,13.42382579
462.57000,14.33940901
462.57050,14.64460342
462.57100,14.33940901
462.57150,8.540715266
462.57200,-3.361866634
462.57250,-13.12808768
462.57300,-11.60211564
462.57350,-1.530700188
462.57400,5.488771189
462.57450,5.183576782
462.57500,2.436827112
462.57550,2.131632705
462.57600,2.436827112
462.57650,2.131632705
462.57700,3.352410335
462.57750,6.70954882
462.57800,6.70954882
462.57850,-1.22550578
462.57900,-11.60211564
462.57950,-15.87483735
462.58000,-12.21250446
462.58050,-6.413810711
462.58100,-3.972255449
462.58150,-5.19303308
462.58200,-8.244977157
462.58250,-10.0761436
462.58300,-9.770949196
462.58350,-6.413810711
462.58400,-3.361866634
462.58450,-3.361866634
462.58500,-6.413810711
462.58550,-8.550171565
462.58600,-7.634588342
462.58650,-6.108616303
462.58700,-5.19303308
462.58750,-5.19303308
462.58800,-4.277449857
462.58850,-3.361866634
462.58900,-3.056672226
462.58950,-3.056672226
462.59000,-1.530700188
462.59050,1.826438297
462.59100,7.625132043
462.59150,13.42382579
462.59200,17.08615868
462.59250,17.08615868
462.59300,12.81343697
462.59350,7.625132043
462.59400,3.352410335
462.59450,1.826438297
462.59500,1.826438297
462.59550,0.9108550739
462.59600,-1.835894595
462.59650,-6.108616303
462.59700,-9.16056038
462.59750,-8.855365973
462.59800,-6.108616303
462.59850,-3.972255449
462.59900,-3.056672226
462.59950,-2.141089003
462.60000,0.6056606662
462.60050,4.878382374
462.60100,7.014743228
462.60150,6.70954882
462.60200,5.793965597
462.60250,5.793965597
462.60300,5.793965597
462.60350,4.878382374
462.60400,3.047215928
462.60450,2.436827112
462.60500,2.436827112
462.60550,2.436827112
462.60600,1.826438297
462.60650,2.131632705
462.60700,2.436827112
462.60750,1.826438297
462.60800,-0.004728149245
462.60850,-0.9203113723
462.60900,-0.6151169646
462.60950,-0.3099225569
462.61000,-0.3099225569
462.61050,-0.3099225569
462.61100,0.6056606662
462.61150,2.131632705
462.61200,3.047215928
462.61250,2.131632705
462.61300,-0.004728149245
462.61350,-1.22550578
462.61400,-0.3099225569
462.61450,1.521243889
462.61500,2.436827112
462.61550,0.9108550739
462.61600,-0.004728149245
462.61650,-0.004728149245
462.61700,0.9108550739
462.61750,1.216049482
462.61800,1.521243889
462.61850,2.74202152
462.61900,3.962799151
462.61950,3.047215928
462.62000,-0.004728149245
462.62050,-1.835894595
462.62100,-2.141089003
462.62150,-2.141089003
462.62200,-3.361866634
462.62250,-4.277449857
462.62300,-4.582644265
462.62350,-5.19303308
462.62400,-6.719005119
462.62450,-8.855365973
462.62500,-8.855365973
462.62550,-7.329393934
462.62600,-4.277449857
462.62650,-1.22550578
462.62700,2.131632705
462.62750,5.488771189
462.62800,7.319937636
462.62850,6.70954882
462.62900,4.573187966
462.62950,2.436827112
462.63000,1.521243889
462.63050,1.826438297
462.63100,2.74202152
462.63150,4.267993559
462.63200,4.573187966
462.63250,1.521243889
462.63300,-3.361866634
462.63350,-6.413810711
462.63400,-4.887838672
462.63450,-1.22550578
462.63500,0.6056606662
462.63550,1.826438297
462.63600,3.657604743
462.63650,4.878382374
462.63700,2.131632705
462.63750,-2.751477819
462.63800,-6.108616303
462.63850,-6.108616303
462.63900,-4.887838672
462.63950,-4.277449857
462.64000,-2.141089003
462.64050,1.521243889
462.64100,4.267993559
462.64150,4.267993559
462.64200,3.657604743
462.64250,3.962799151
462.64300,4.267993559
462.64350,2.74202152
462.64400,1.521243889
462.64450,2.436827112
462.64500,4.267993559
462.64550,4.878382374
462.64600,3.047215928
462.64650,-0.004728149245
462.64700,-4.277449857
462.64750,-9.465754788
462.64800,-13.7384765
462.64850,-13.7384765
462.64900,-10.38133801
462.64950,-6.413810711
462.65000,-4.277449857
462.65050,-3.361866634
462.65100,-2.446283411
462.65150,-0.9203113723
462.65200,-0.004728149245
462.65250,-0.9203113723
462.65300,-2.446283411
462.65350,-3.056672226
462.65400,-2.141089003
462.65450,-1.22550578
462.65500,-1.530700188
462.65550,-3.667061042
462.65600,-5.19303308
462.65650,-4.887838672
462.65700,-4.582644265
462.65750,-6.413810711
462.65800,-8.550171565
462.65850,-5.803421896
462.65900,1.216049482
462.65950,7.625132043
462.66000,8.540715266
462.66050,7.014743228
462.66100,8.540715266
462.66150,12.20304816
462.66200,11.28746494
462.66250,3.962799151
462.66300,-3.361866634
462.66350,-7.939782749
462.66400,-12.82289327
462.66450,-20.45275347
462.66500,-25.6410584
462.66550,-21.36833669
462.66600,-9.770949196
462.66650,-0.004728149245
462.66700,4.878382374
462.66750,8.235520859
462.66800,11.89785375
462.66850,12.50824257
462.66900,7.625132043
462.66950,1.216049482
462.67000,-1.835894595
462.67050,-1.530700188
462.67100,-0.9203113723
462.67150,-1.835894595
462.67200,-2.141089003
462.67250,-0.3099225569
462.67300,2.131632705
462.67350,3.352410335
462.67400,1.521243889
462.67450,-2.141089003
462.67500,-7.024199526
462.67550,-10.99172683
462.67600,-13.43328209
462.67650,-14.34886531
462.67700,-14.0436709
462.67750,-12.21250446
462.67800,-7.939782749
462.67850,-0.9203113723
462.67900,5.488771189
462.67950,8.845909674
462.68000,7.930326451
462.68050,5.793965597
462.68100,5.183576782
462.68150,4.878382374
462.68200,3.047215928
462.68250,-0.004728149245
462.68300,-1.530700188
462.68350,-0.004728149245
462.68400,3.352410335
462.68450,7.319937636
462.68500,11.28746494
462.68550,14.64460342
462.68600,14.94979783
462.68650,11.59265934
462.68700,6.70954882
462.68750,3.962799151
462.68800,2.74202152
462.68850,1.521243889
462.68900,0.6056606662
462.68950,0.6056606662
462.69000,1.521243889
462.69050,1.521243889
462.69100,1.826438297
462.69150,3.962799151
462.69200,6.099160005
462.69250,4.573187966
462.69300,-0.004728149245
462.69350,-3.361866634
462.69400,-2.446283411
462.69450,0.6056606662
462.69500,2.74202152
462.69550,3.352410335
462.69600,2.74202152
462.69650,0.6056606662
462.69700,-1.22550578
462.69750,-0.6151169646
462.69800,2.74202152
462.69850,4.573187966
462.69900,3.047215928
462.69950,1.521243889
462.70000,3.962799151
462.70050,7.930326451
462.70100,8.235520859
462.70150,3.962799151
462.70200,0.3004662585
462.70250,0.3004662585
462.70300,1.216049482
462.70350,0.6056606662
462.70400,-0.6151169646
462.70450,-1.22550578
462.70500,-0.004728149245
462.70550,1.826438297
462.70600,2.74202152
462.70650,2.436827112
462.70700,1.826438297
462.70750,2.131632705
462.70800,2.74202152
462.70850,2.131632705
462.70900,-0.004728149245
462.70950,-3.056672226
462.71000,-4.582644265
462.71050,-5.498227488
462.71100,-5.803421896
462.71150,-4.887838672
462.71200,-2.446283411
462.71250,-0.004728149245
462.71300,1.521243889
462.71350,1.826438297
462.71400,2.436827112
462.71450,2.74202152
462.71500,0.3004662585
462.71550,-4.887838672
462.71600,-7.939782749
462.71650,-4.582644265
462.71700,3.047215928
462.71750,8.845909674
462.71800,7.930326451
462.71850,3.047215928
462.71900,-0.004728149245
462.71950,-0.004728149245
462.72000,1.521243889
462.72050,2.74202152
462.72100,4.878382374
462.72150,8.235520859
462.72200,9.761492897
462.72250,7.625132043
462.72300,4.573187966
462.72350,5.793965597
462.72400,10.0666873
462.72450,11.59265934
462.72500,8.845909674
462.72550,5.488771189
462.72600,4.573187966
462.72650,3.962799151
462.72700,2.74202152
462.72750,3.962799151
462.72800,7.014743228
462.72850,4.878382374
462.72900,-5.803421896
462.72950,-17.7060038
462.73000,-19.84236465
462.73050,-13.7384765
462.73100,-10.0761436
462.73150,-13.7384765
462.73200,-18.31639261
462.73250,-16.48522617
462.73300,-9.465754788
462.73350,-3.667061042
462.73400,-3.361866634
462.73450,-6.413810711
462.73500,-8.244977157
462.73550,-6.719005119
462.73600,-4.277449857
462.73650,-3.972255449
462.73700,-4.277449857
462.73750,-0.9203113723
462.73800,5.183576782
462.73850,9.45629849
462.73900,9.45629849
462.73950,7.625132043
462.74000,7.319937636
462.74050,7.014743228
462.74100,5.183576782
462.74150,4.267993559
462.74200,5.488771189
462.74250,5.488771189
462.74300,1.826438297
462.74350,-3.056672226
462.74400,-6.108616303
462.74450,-9.465754788
462.74500,-15.26444853
462.74550,-20.45275347
462.74600,-18.92678143
462.74650,-9.770949196
462.74700,1.521243889
462.74750,11.59265934
462.74800,18.91732513
462.74850,23.19004684
462.74900,23.19004684
462.74950,21.6640748
462.75000,21.35888039
462.75050,19.22251954
462.75100,11.28746494
462.75150,-1.22550578
462.75200,-10.68653242
462.75250,-10.0761436
462.75300,-1.530700188
462.75350,5.793965597
462.75400,7.625132043
462.75450,5.488771189
462.75500,4.573187966
462.75550,4.573187966
462.75600,1.216049482
462.75650,-7.329393934
462.75700,-14.65405972
462.75750,-13.43328209
462.75800,-5.498227488
462.75850,0.6056606662
462.75900,0.6056606662
462.75950,-1.835894595
462.76000,-2.446283411
462.76050,-1.835894595
462.76100,-2.751477819
462.76150,-4.582644265
462.76200,-5.498227488
462.76250,-5.498227488
462.76300,-6.108616303
462.76350,-7.634588342
462.76400,-7.939782749
462.76450,-5.803421896
462.76500,-1.835894595
462.76550,2.131632705
462.76600,4.878382374
462.76650,5.793965597
462.76700,5.793965597
462.76750,6.70954882
462.76800,7.930326451
462.76850,7.014743228
462.76900,3.352410335
462.76950,-0.6151169646
462.77000,-1.835894595
462.77050,-0.9203113723
462.77100,-0.004728149245
462.77150,0.6056606662
462.77200,2.436827112
462.77250,3.352410335
462.77300,-0.004728149245
462.77350,-9.770949196
462.77400,-20.45275347
462.77450,-24.42028077
462.77500,-18.92678143
462.77550,-9.770949196
462.77600,-2.446283411
462.77650,1.826438297
462.77700,3.962799151
462.77750,3.047215928
462.77800,-1.835894595
462.77850,-9.16056038
462.77900,-12.82289327
462.77950,-11.90731005
462.78000,-9.770949196
462.78050,-9.465754788
462.78100,-8.855365973
462.78150,-4.887838672
462.78200,0.3004662585
462.78250,4.878382374
462.78300,7.319937636
462.78350,8.540715266
462.78400,8.845909674
462.78450,7.319937636
462.78500,4.573187966
462.78550,2.436827112
462.78600,0.9108550739
462.78650,-1.22550578
462.78700,-4.582644265
462.78750,-9.16056038
462.78800,-13.43328209
462.78850,-15.26444853
462.78900,-12.21250446
462.78950,-4.582644265
462.79000,1.216049482
462.79050,2.74202152
462.79100,0.9108550739
462.79150,-0.004728149245
462.79200,-0.004728149245
462.79250,-1.530700188
462.79300,-4.887838672
462.79350,-6.719005119
462.79400,-5.19303308
462.79450,-2.446283411
462.79500,-1.530700188
462.79550,-2.446283411
462.79600,-3.972255449
462.79650,-3.972255449
462.79700,-2.751477819
462.79750,-1.22550578
462.79800,-1.22550578
462.79850,-2.751477819
462.79900,-3.667061042
462.79950,-2.446283411
462.80000,-0.004728149245
462.80050,1.216049482
462.80100,2.131632705
462.80150,3.352410335
462.80200,4.573187966
462.80250,4.573187966
462.80300,3.047215928
462.80350,0.9108550739
462.80400,-0.3099225569
462.80450,-1.22550578
462.80500,-0.3099225569
462.80550,1.826438297
462.80600,5.793965597
462.80650,8.235520859
462.80700,7.930326451
462.80750,4.573187966
462.80800,0.3004662585
462.80850,-2.446283411
462.80900,-1.835894595
462.80950,1.826438297
462.81000,6.404354412
462.81050,7.014743228
462.81100,1.826438297
462.81150,-5.498227488
462.81200,-8.550171565
462.81250,-5.803421896
462.81300,-2.751477819
462.81350,-4.582644265
462.81400,-10.0761436
462.81450,-12.21250446
462.81500,-9.465754788
462.81550,-5.498227488
462.81600,-3.667061042
462.81650,-3.056672226
462.81700,-1.22550578
462.81750,1.216049482
462.81800,5.183576782
462.81850,9.151104082
462.81900,8.540715266
462.81950,1.826438297
462.82000,-4.277449857
462.82050,-2.446283411
462.82100,3.962799151
462.82150,5.183576782
462.82200,-1.22550578
462.82250,-5.498227488
462.82300,-0.004728149245
462.82350,8.235520859
462.82400,8.540715266
462.82450,0.9108550739
462.82500,-4.887838672
462.82550,-3.667061042
462.82600,4.267993559
462.82650,16.78096427
462.82700,27.76796295
462.82750,28.07315736
462.82800,16.78096427
462.82850,5.183576782
462.82900,3.352410335
462.82950,8.235520859
462.83000,8.235520859
462.83050,1.521243889
462.83100,-3.361866634
462.83150,-4.277449857
462.83200,-6.108616303
462.83250,-11.29692123
462.83300,-14.0436709
462.83350,-11.29692123
462.83400,-8.550171565
462.83450,-10.99172683
462.83500,-16.18003176
462.83550,-20.14755906
462.83600,-24.72547517
462.83650,-32.35533537
462.83700,-35.40727944
462.83750,-23.50469754
462.83800,2.131632705
462.83850,27.15757414
462.83900,38.14457281
462.83950,34.78743433
462.84000,25.32640769
462.84050,17.39135309
462.84100,11.59265934
462.84150,4.573187966
462.84200,-3.056672226
462.84250,-6.108616303
462.84300,-0.004728149245
462.84350,10.67707612
462.84400,14.03421461
462.84450,7.014743228
462.84500,1.826438297
462.84550,6.099160005
462.84600,11.59265934
462.84650,8.540715266
462.84700,7.625132043
462.84750,26.24199091
462.84800,53.4042932
462.84850,49.74196031
462.84900,-1.835894595
462.84950,-70.50463633
462.85000,-109.2643261
462.85050,-105.2967988
462.85100,-82.10202382
462.85150,-65.3163314
462.85200,-61.04360969
462.85250,-64.40074817
462.85300,-68.06308107
462.85350,-64.09555377
462.85400,-49.4462222
462.85450,-31.13455773
462.85500,-18.0111982
462.85550,-12.82289327
462.85600,-10.0761436
462.85650,-7.329393934
462.85700,-5.498227488
462.85750,-5.19303308
462.85800,-2.751477819
462.85850,7.930326451
462.85900,31.43029584
462.85950,60.42376458
462.86000,79.65101226
462.86050,79.34581785
462.86100,71.41076325
462.86150,79.04062345
462.86200,108.0340922
462.86250,141.605477
462.86300,162.6638912
462.86350,169.3781681
462.86400,165.7158352
462.86450,147.4041708
462.86500,111.0860363
462.86550,67.13804155
462.86600,33.5666567
462.86650,20.74849157
462.86700,27.15757414
462.86750,43.63807215
462.86800,57.98220931
462.86850,59.50818135
462.86900,50.04715471
462.86950,39.67054485
462.87000,34.17704551
462.87050,27.46276854
462.87100,15.56018664
462.87150,3.657604743
462.87200,-0.3099225569
462.87250,-0.3099225569
462.87300,-1.22550578
462.87350,-0.9203113723
462.87400,6.70954882
462.87450,19.52771394
462.87500,25.93679651
462.87550,19.22251954
462.87600,2.131632705
462.87650,-15.56964294
462.87700,-28.99819688
462.87750,-36.62805707
462.87800,-40.59558437
462.87850,-43.34233404
462.87900,-46.08908371
462.87950,-46.69947253
462.88000,-44.25791727
462.88050,-40.29038997
462.88100,-38.45922352
462.88150,-39.06961234
462.88200,-38.76441793
462.88250,-35.40727944
462.88300,-32.05014096
462.88350,-32.66052977
462.88400,-37.8488347
462.88450,-41.816362
462.88500,-42.12155641
462.88550,-40.59558437
462.88600,-40.90077878
462.88650,-44.56311167
462.88700,-48.83583338
462.88750,-51.27738864
462.88800,-51.27738864
462.88850,-50.97219424
462.88900,-51.88777746
462.88950,-52.19297187
462.89000,-48.83583338
462.89050,-43.34233404
462.89100,-40.90077878
462.89150,-43.95272286
462.89200,-45.7838893
462.89250,-40.29038997
462.89300,-31.13455773
462.89350,-26.86183603
462.89400,-28.08261366
462.89450,-26.55664162
462.89500,-20.14755906
462.89550,-15.87483735
462.89600,-20.45275347
462.89650,-28.38780807
462.89700,-29.6085857
462.89750,-23.50469754
462.89800,-18.0111982
462.89850,-18.31639261
462.89900,-21.36833669
462.89950,-22.28391991
462.90000,-19.84236465
462.90050,-17.40080939
462.90100,-18.0111982
462.90150,-21.36833669
462.90200,-23.50469754
462.90250,-22.58911432
462.90300,-19.53717024
462.90350,-17.40080939
462.90400,-16.79042057
462.90450,-15.56964294
462.90500,-12.21250446
462.90550,-7.939782749
462.90600,-4.887838672
462.90650,-2.751477819
462.90700,-2.141089003
462.90750,-2.751477819
462.90800,-3.972255449
462.90850,-3.667061042
462.90900,-1.22550578
462.90950,0.6056606662
462.91000,-0.9203113723
462.91050,-4.277449857
462.91100,-4.277449857
462.91150,0.9108550739
462.91200,7.625132043
462.91250,10.98227053
462.91300,10.67707612
462.91350,7.930326451
462.91400,3.047215928
462.91450,-1.530700188
462.91500,-2.446283411
462.91550,3.047215928
462.91600,12.50824257
462.91650,21.05368598
462.91700,26.54718532
462.91750,28.68354617
462.91800,23.19004684
462.91850,8.540715266
462.91900,-7.634588342
462.91950,-14.34886531
462.92000,-8.550171565
462.92050,0.6056606662
462.92100,3.657604743
462.92150,-0.6151169646
462.92200,-6.413810711
462.92250,-7.024199526
462.92300,-0.6151169646
462.92350,7.930326451
462.92400,12.50824257
462.92450,10.67707612
462.92500,9.151104082
462.92550,15.25499224
462.92600,25.6316021
462.92650,26.54718532
462.92700,14.03421461
462.92750,1.216049482
462.92800,3.047215928
462.92850,17.39135309
462.92900,28.07315736
462.92950,25.02121328
462.93000,14.03421461
462.93050,7.014743228
462.93100,6.099160005
462.93150,6.404354412
462.93200,5.488771189
462.93250,6.099160005
462.93300,8.540715266
462.93350,8.235520859
462.93400,2.74202152
462.93450,-3.361866634
462.93500,-4.887838672
462.93550,-0.9203113723
462.93600,4.878382374
462.93650,10.37188171
462.93700,13.11863138
462.93750,12.50824257
462.93800,9.45629849
462.93850,8.845909674
462.93900,12.81343697
462.93950,18.00174191
462.94000,19.22251954
462.94050,16.47576987
462.94100,13.42382579
462.94150,10.98227053
462.94200,9.761492897
462.94250,11.89785375
462.94300,17.6965475
462.94350,23.49524124
462.94400,24.71601887
462.94450,22.88485243
462.94500,22.27446361
462.94550,22.27446361
462.94600,20.13810276
462.94650,17.6965475
462.94700,18.30693631
462.94750,21.05368598
462.94800,20.13810276
462.94850,14.03421461
462.94900,7.930326451
462.94950,5.488771189
462.95000,4.267993559
462.95050,2.436827112
462.95100,0.9108550739
462.95150,1.521243889
462.95200,3.047215928
462.95250,6.099160005
462.95300,10.0666873
462.95350,10.98227053
462.95400,4.573187966
462.95450,-5.19303308
462.95500,-8.855365973
462.95550,-1.835894595
462.95600,7.319937636
462.95650,9.151104082
462.95700,3.352410335
462.95750,-0.6151169646
462.95800,1.521243889
462.95850,7.319937636
462.95900,11.59265934
462.95950,13.42382579
462.96000,12.50824257
462.96050,5.793965597
462.96100,-9.16056038
462.96150,-28.08261366
462.96200,-37.8488347
462.96250,-33.27091859
462.96300,-24.11508636
462.96350,-25.9462528
462.96400,-37.5436403
462.96450,-43.34233404
462.96500,-34.79689063
462.96550,-23.80989195
462.96600,-21.9787255
462.96650,-24.11508636
462.96700,-16.48522617
462.96750,-3.056672226
462.96800,-0.004728149245
462.96850,-8.550171565
462.96900,-13.12808768
462.96950,-2.141089003
462.97000,16.17057546
462.97050,28.98874058
462.97100,36.00821196
462.97150,46.07962741
462.97200,59.50818135
462.97250,69.2744024
462.97300,70.80037444
462.97350,65.61206951
462.97400,56.15104287
462.97450,43.94326656
462.97500,30.81990703
462.97550,15.25499224
462.97600,-3.667061042
462.97650,-21.36833669
462.97700,-24.11508636
462.97750,-9.16056038
462.97800,6.404354412
462.97850,6.404354412
462.97900,-1.835894595
462.97950,0.3004662585
462.98000,14.94979783
462.98050,20.74849157
462.98100,4.573187966
462.98150,-14.95925413
462.98200,-11.60211564
462.98250,15.56018664
462.98300,41.80690571
462.98350,46.07962741
462.98400,34.48223992
462.98450,28.07315736
462.98500,37.22898959
462.98550,55.23545964
462.98600,71.10556885
462.98650,82.70295634
462.98700,92.77437179
462.98750,97.35228791
462.98800,85.44970601
462.98850,54.31987642
462.98900,18.61213072
462.98950,-3.056672226
462.99000,-7.634588342
462.99050,-7.634588342
462.99100,-14.0436709
462.99150,-25.03066958
462.99200,-32.05014096
462.99250,-30.21897451
462.99300,-21.36833669
462.99350,-10.99172683
462.99400,-2.751477819
462.99450,0.6056606662
462.99500,-0.004728149245
462.99550,-2.751477819
462.99600,-5.498227488
462.99650,-5.19303308
462.99700,1.521243889
462.99750,12.81343697
462.99800,17.39135309
462.99850,3.962799151
462.99900,-22.89430873
462.99950,-47.61505575
463.00000,-57.99166561
463.00050,-61.3488041
463.00100,-69.58905311
463.00150,-81.1864406
463.00200,-84.23838467
463.00250,-74.16696922
463.00300,-59.51763765
463.00350,-51.88777746
463.00400,-53.10855509
463.00450,-59.51763765
463.00500,-67.45269225
463.00550,-71.42021955
463.00600,-63.17997054
463.00650,-45.4786949
463.00700,-34.49169622
463.00750,-42.73194523
463.00800,-60.43322087
463.00850,-68.06308107
463.00900,-60.73841528
463.00950,-51.88777746
463.01000,-49.14102779
463.01050,-45.7838893
463.01100,-35.40727944
463.01150,-27.47222484
463.01200,-35.40727944
463.01250,-56.16049917
463.01300,-72.94619159
463.01350,-74.47216363
463.01400,-64.09555377
463.01450,-50.97219424
463.01500,-41.20597319
463.01550,-32.66052977
463.01600,-21.9787255
463.01650,-7.939782749
463.01700,4.878382374
463.01750,13.42382579
463.01800,20.44329717
463.01850,33.26146229
463.01900,56.76143168
463.01950,90.63801094
463.02000,126.3457566
463.02050,147.0989764
463.02100,135.8067833
463.02150,94.91073265
463.02200,48.82637708
463.02250,21.96926921
463.02300,15.25499224
463.02350,14.94979783
463.02400,14.64460342
463.02450,16.78096427
463.02500,19.22251954
463.02550,13.11863138
463.02600,-1.530700188
463.02650,-13.43328209
463.02700,-16.18003176
463.02750,-14.95925413
463.02800,-15.56964294
463.02850,-15.26444853
463.02900,-12.21250446
463.02950,-9.770949196
463.03000,-10.99172683
463.03050,-12.82289327
463.03100,-12.82289327
463.03150,-13.12808768
463.03200,-15.26444853
463.03250,-16.79042057
463.03300,-16.18003176
463.03350,-15.56964294
463.03400,-16.18003176
463.03450,-16.48522617
463.03500,-17.09561498
463.03550,-19.84236465
463.03600,-21.06314228
463.03650,-12.82289327
463.03700,2.436827112
463.03750,13.11863138
463.03800,11.28746494
463.03850,3.047215928
463.03900,-1.530700188
463.03950,-4.277449857
463.04000,-10.68653242
463.04050,-18.92678143
463.04100,-22.89430873
463.04150,-21.6735311
463.04200,-19.23197583
463.04250,-16.48522617
463.04300,-13.43328209
463.04350,-13.43328209
463.04400,-18.31639261
463.04450,-20.14755906
463.04500,-10.99172683
463.04550,1.216049482
463.04600,1.216049482
463.04650,-11.90731005
463.04700,-21.06314228
463.04750,-12.82289327
463.04800,2.131632705
463.04850,7.319937636
463.04900,2.74202152
463.04950,3.352410335
463.05000,16.78096427
463.05050,37.83937841
463.05100,57.98220931
463.05150,71.41076325
463.05200,73.2419297
463.05250,61.3393478
463.05300,42.72248893
463.05350,26.54718532
463.05400,15.56018664
463.05450,6.404354412
463.05500,0.6056606662
463.05550,2.131632705
463.05600,6.70954882
463.05650,4.267993559
463.05700,-6.413810711
463.05750,-17.09561498
463.05800,-21.6735311
463.05850,-24.72547517
463.05900,-28.38780807
463.05950,-29.6085857
463.06000,-28.69300247
463.06050,-30.21897451
463.06100,-31.43975214
463.06150,-21.9787255
463.06200,-0.6151169646
463.06250,18.30693631
463.06300,24.10563006
463.06350,22.57965802
463.06400,23.19004684
463.06450,21.6640748
463.06500,11.59265934
463.06550,2.131632705
463.06600,8.235520859
463.06650,25.32640769
463.06700,36.31340637
463.06750,36.31340637
463.06800,41.80690571
463.06850,62.25493102
463.06900,83.00815075
463.06950,84.22892838
463.07000,64.69648628
463.07050,43.02768334
463.07100,32.65107347
463.07150,30.81990703
463.07200,28.98874058
463.07250,24.71601887
463.07300,21.05368598
463.07350,18.91732513
463.07400,15.25499224
463.07450,9.761492897
463.07500,5.488771189
463.07550,3.962799151
463.07600,2.131632705
463.07650,-2.751477819
463.07700,-10.68653242
463.07750,-15.56964294
463.07800,-14.95925413
463.07850,-11.60211564
463.07900,-10.99172683
463.07950,-15.87483735
463.08000,-22.28391991
463.08050,-24.11508636
463.08100,-17.7060038
463.08150,-7.024199526
463.08200,0.9108550739
463.08250,2.74202152
463.08300,1.521243889
463.08350,1.826438297
463.08400,3.657604743
463.08450,1.826438297
463.08500,-3.361866634
463.08550,-7.634588342
463.08600,-8.550171565
463.08650,-8.550171565
463.08700,-9.465754788
463.08750,-7.939782749
463.08800,-2.141089003
463.08850,3.352410335
463.08900,3.657604743
463.08950,0.3004662585
463.09000,-1.835894595
463.09050,-3.361866634
463.09100,-7.024199526
463.09150,-11.90731005
463.09200,-11.60211564
463.09250,-7.024199526
463.09300,-5.19303308
463.09350,-9.16056038
463.09400,-12.82289327
463.09450,-12.21250446
463.09500,-13.12808768
463.09550,-22.89430873
463.09600,-34.79689063
463.09650,-37.23844589
463.09700,-26.86183603
463.09750,-11.90731005
463.09800,-0.004728149245
463.09850,6.70954882
463.09900,6.404354412
463.09950,-1.835894595
463.10000,-10.99172683
463.10050,-10.99172683
463.10100,-0.9203113723
463.10150,7.319937636
463.10200,7.014743228
463.10250,1.521243889
463.10300,-2.751477819
463.10350,-5.498227488
463.10400,-7.024199526
463.10450,-3.972255449
463.10500,3.047215928
463.10550,7.014743228
463.10600,4.573187966
463.10650,2.74202152
463.10700,7.319937636
463.10750,13.42382579
463.10800,14.33940901
463.10850,13.7290202
463.10900,18.30693631
463.10950,24.41082447
463.11000,21.35888039
463.11050,9.761492897
463.11100,0.9108550739
463.11150,-3.361866634
463.11200,-12.51769887
463.11250,-30.21897451
463.11300,-44.86830608
463.11350,-44.86830608
463.11400,-35.40727944
463.11450,-30.82936333
463.11500,-34.79689063
463.11550,-37.5436403
463.11600,-31.74494655
463.11650,-21.36833669
463.11700,-13.43328209
463.11750,-7.939782749
463.11800,-0.3099225569
463.11850,8.235520859
463.11900,16.17057546
463.11950,22.27446361
463.12000,26.85237973
463.12050,26.54718532
463.12100,18.61213072
463.12150,9.151104082
463.12200,6.70954882
463.12250,12.50824257
463.12300,21.35888039
463.12350,30.20951821
463.12400,40.28093367
463.12450,48.82637708
463.12500,47.91079386
463.12550,36.92379518
463.12600,24.41082447
463.12650,16.17057546
463.12700,8.845909674
463.12750,2.131632705
463.12800,2.131632705
463.12850,10.37188171
463.12900,18.30693631
463.12950,18.61213072
463.13000,15.25499224
463.13050,12.81343697
463.13100,7.625132043
463.13150,-4.582644265
463.13200,-17.7060038
463.13250,-21.6735311
463.13300,-18.62158702
463.13350,-18.31639261
463.13400,-21.9787255
463.13450,-22.58911432
463.13500,-18.0111982
463.13550,-14.34886531
463.13600,-14.0436709
463.13650,-11.29692123
463.13700,-6.719005119
463.13750,-8.550171565
463.13800,-18.62158702
463.13850,-25.9462528
463.13900,-19.84236465
463.13950,-4.887838672
463.14000,7.319937636
463.14050,12.20304816
463.14100,11.59265934
463.14150,4.878382374
463.14200,-7.939782749
463.14250,-20.75794787
463.14300,-24.72547517
463.14350,-21.36833669
463.14400,-19.84236465
463.14450,-22.89430873
463.14500,-25.9462528
463.14550,-25.33586399
463.14600,-24.72547517
463.14650,-25.03066958
463.14700,-18.31639261
463.14750,-3.056672226
463.14800,11.59265934
463.14850,20.13810276
463.14900,30.20951821
463.14950,50.65754353
463.15000,69.88479121
463.15050,68.05362477
463.15100,46.07962741
463.15150,26.85237973
463.15200,25.32640769
463.15250,29.5991294
463.15300,21.05368598
463.15350,-0.6151169646
463.15400,-19.23197583
463.15450,-23.50469754
463.15500,-19.23197583
463.15550,-17.7060038
463.15600,-23.19950313
463.15650,-29.30339129
463.15700,-29.30339129
463.15750,-24.42028077
463.15800,-21.36833669
463.15850,-22.58911432
463.15900,-24.72547517
463.15950,-23.19950313
463.16000,-16.79042057
463.16050,-5.19303308
463.16100,9.45629849
463.16150,19.83290835
463.16200,16.17057546
463.16250,1.216049482
463.16300,-8.244977157
463.16350,-6.413810711
463.16400,-7.329393934
463.16450,-24.72547517
463.16500,-47.30986134
463.16550,-53.7189439
463.16600,-42.12155641
463.16650,-28.69300247
463.16700,-22.58911432
463.16750,-19.53717024
463.16800,-17.7060038
463.16850,-19.23197583
463.16900,-14.65405972
463.16950,10.37188171
463.17000,51.26793234
463.17050,80.26140108
463.17100,83.31334515
463.17150,76.29387378
463.17200,78.73542904
463.17250,86.67048364
463.17300,84.53412278
463.17350,70.18998562
463.17400,51.87832116
463.17450,32.95626788
463.17500,14.64460342
463.17550,2.436827112
463.17600,-1.835894595
463.17650,-7.024199526
463.17700,-17.09561498
463.17750,-23.50469754
463.17800,-18.92678143
463.17850,-15.56964294
463.17900,-29.9137801
463.17950,-55.24491594
463.18000,-65.62152581
463.18050,-49.4462222
463.18100,-22.28391991
463.18150,-5.498227488
463.18200,-4.582644265
463.18250,-12.21250446
463.18300,-21.6735311
463.18350,-28.99819688
463.18400,-29.30339129
463.18450,-16.79042057
463.18500,3.962799151
463.18550,19.83290835
463.18600,17.6965475
463.18650,0.3004662585
463.18700,-16.79042057
463.18750,-24.11508636
463.18800,-24.42028077
463.18850,-23.50469754
463.18900,-18.92678143
463.18950,-9.770949196
463.19000,-3.667061042
463.19050,-8.855365973
463.19100,-16.79042057
463.19150,-11.60211564
463.19200,5.488771189
463.19250,17.6965475
463.19300,13.42382579
463.19350,2.74202152
463.19400,0.3004662585
463.19450,4.573187966
463.19500,5.488771189
463.19550,-0.6151169646
463.19600,-8.244977157
463.19650,-12.51769887
463.19700,-14.0436709
463.19750,-14.0436709
463.19800,-13.12808768
463.19850,-11.60211564
463.19900,-10.38133801
463.19950,-8.855365973
463.20000,-7.939782749
463.20050,-8.550171565
463.20100,-10.0761436
463.20150,-10.99172683
463.20200,-10.68653242
463.20250,-10.0761436
463.20300,-9.465754788
463.20350,-7.329393934
463.20400,-4.277449857
463.20450,-2.751477819
463.20500,-4.887838672
463.20550,-7.024199526
463.20600,-7.329393934
463.20650,-4.582644265
463.20700,-0.004728149245
463.20750,7.319937636
463.20800,15.56018664
463.20850,19.22251954
463.20900,16.17057546
463.20950,9.45629849
463.21000,5.183576782
463.21050,5.183576782
463.21100,7.625132043
463.21150,9.151104082
463.21200,8.845909674
463.21250,7.014743228
463.21300,4.267993559
463.21350,2.131632705
463.21400,1.521243889
463.21450,2.436827112
463.21500,3.047215928
463.21550,3.657604743
463.21600,3.657604743
463.21650,3.352410335
463.21700,3.047215928
463.21750,3.047215928
463.21800,3.657604743
463.21850,3.962799151
463.21900,4.267993559
463.21950,3.352410335
463.22000,1.521243889
463.22050,0.3004662585
463.22100,0.9108550739
463.22150,3.047215928
463.22200,5.183576782
463.22250,5.183576782
463.22300,3.657604743
463.22350,1.521243889
463.22400,0.3004662585
463.22450,0.3004662585
463.22500,1.216049482
463.22550,3.047215928
463.22600,5.183576782
463.22650,6.099160005
463.22700,4.573187966
463.22750,2.131632705
463.22800,0.9108550739
463.22850,2.131632705
463.22900,3.657604743
463.22950,3.352410335
463.23000,1.521243889
463.23050,0.6056606662
463.23100,2.436827112
463.23150,4.878382374
463.23200,5.488771189
463.23250,3.962799151
463.23300,2.436827112
463.23350,1.826438297
463.23400,1.521243889
463.23450,-0.004728149245
463.23500,-2.141089003
463.23550,-3.667061042
463.23600,-3.667061042
463.23650,-3.972255449
463.23700,-5.19303308
463.23750,-6.413810711
463.23800,-5.19303308
463.23850,-0.9203113723
463.23900,3.962799151
463.23950,7.930326451
463.24000,10.98227053
463.24050,13.11863138
463.24100,11.89785375
463.24150,4.573187966
463.24200,-4.582644265
463.24250,-7.024199526
463.24300,-0.3099225569
463.24350,8.235520859
463.24400,9.761492897
463.24450,5.183576782
463.24500,2.436827112
463.24550,4.267993559
463.24600,7.930326451
463.24650,9.45629849
463.24700,8.235520859
463.24750,6.099160005
463.24800,3.657604743
463.24850,3.047215928
463.24900,5.488771189
463.24950,9.761492897
463.25000,11.28746494
463.25050,8.540715266
463.25100,5.183576782
463.25150,4.267993559
463.25200,5.183576782
463.25250,6.099160005
463.25300,5.488771189
463.25350,3.047215928
463.25400,1.521243889
463.25450,2.74202152
463.25500,6.404354412
463.25550,7.014743228
463.25600,2.436827112
463.25650,-2.141089003
463.25700,-0.6151169646
463.25750,4.573187966
463.25800,5.793965597
463.25850,0.3004662585
463.25900,-4.582644265
463.25950,-4.277449857
463.26000,-3.056672226
463.26050,-6.108616303
463.26100,-10.68653242
463.26150,-11.29692123
463.26200,-11.29692123
463.26250,-16.48522617
463.26300,-23.80989195
463.26350,-24.72547517
463.26400,-16.79042057
463.26450,-8.244977157
463.26500,-3.667061042
463.26550,-0.004728149245
463.26600,5.793965597
463.26650,7.930326451
463.26700,3.962799151
463.26750,0.3004662585
463.26800,2.436827112
463.26850,4.573187966
463.26900,1.521243889
463.26950,-0.3099225569
463.27000,9.761492897
463.27050,32.04068466
463.27100,53.09909879
463.27150,62.86531984
463.27200,60.11857017
463.27250,45.77443301
463.27300,21.6640748
463.27350,-2.141089003
463.27400,-14.0436709
463.27450,-13.12808768
463.27500,-11.90731005
463.27550,-17.40080939
463.27600,-21.6735311
463.27650,-17.09561498
463.27700,-7.634588342
463.27750,-2.141089003
463.27800,0.3004662585
463.27850,6.404354412
463.27900,14.64460342
463.27950,16.47576987
463.28000,9.151104082
463.28050,-0.9203113723
463.28100,-6.413810711
463.28150,-6.413810711
463.28200,-3.667061042
463.28250,-0.3099225569
463.28300,3.047215928
463.28350,6.404354412
463.28400,8.540715266
463.28450,9.151104082
463.28500,9.151104082
463.28550,9.45629849
463.28600,10.37188171
463.28650,11.28746494
463.28700,9.151104082
463.28750,4.573187966
463.28800,2.74202152
463.28850,8.235520859
463.28900,18.30693631
463.28950,23.49524124
463.29000,19.52771394
463.29050,11.89785375
463.29100,8.540715266
463.29150,8.235520859
463.29200,3.962799151
463.29250,-5.803421896
463.29300,-17.7060038
463.29350,-27.47222484
463.29400,-36.62805707
463.29450,-43.64752845
463.29500,-43.64752845
463.29550,-33.576113
463.29600,-21.06314228
463.29650,-13.7384765
463.29700,-11.90731005
463.29750,-9.16056038
463.29800,-4.582644265
463.29850,-3.361866634
463.29900,-7.634588342
463.29950,-10.0761436
463.30000,-3.972255449
463.30050,5.183576782
463.30100,6.099160005
463.30150,-4.277449857
463.30200,-17.40080939
463.30250,-23.80989195
463.30300,-23.50469754
463.30350,-22.28391991
463.30400,-19.84236465
463.30450,-13.7384765
463.30500,-5.498227488
463.30550,-1.530700188
463.30600,-3.056672226
463.30650,-4.582644265
463.30700,-1.530700188
463.30750,1.216049482
463.30800,1.521243889
463.30850,1.521243889
463.30900,5.183576782
463.30950,9.761492897
463.31000,8.845909674
463.31050,3.352410335
463.31100,0.9108550739
463.31150,3.352410335
463.31200,5.488771189
463.31250,3.657604743
463.31300,-0.6151169646
463.31350,-4.887838672
463.31400,-10.0761436
463.31450,-17.40080939
463.31500,-23.50469754
463.31550,-23.80989195
463.31600,-18.31639261
463.31650,-11.60211564
463.31700,-6.719005119
463.31750,-2.141089003
463.31800,2.131632705
463.31850,3.352410335
463.31900,-1.835894595
463.31950,-10.68653242
463.32000,-16.18003176
463.32050,-16.18003176
463.32100,-14.34886531
463.32150,-14.0436709
463.32200,-14.65405972
463.32250,-13.7384765
463.32300,-12.82289327
463.32350,-14.0436709
463.32400,-14.95925413
463.32450,-13.7384765
463.32500,-10.99172683
463.32550,-7.634588342
463.32600,-0.3099225569
463.32650,12.50824257
463.32700,23.80043565
463.32750,22.27446361
463.32800,10.37188171
463.32850,2.436827112
463.32900,9.151104082
463.32950,25.6316021
463.33000,44.24846097
463.33050,61.64454221
463.33100,73.85231851
463.33150,70.49518003
463.33200,48.52118268
463.33250,22.27446361
463.33300,10.37188171
463.33350,12.50824257
463.33400,11.89785375
463.33450,0.3004662585
463.33500,-11.29692123
463.33550,-13.43328209
463.33600,-10.68653242
463.33650,-12.21250446
463.33700,-17.7060038
463.33750,-19.23197583
463.33800,-16.18003176
463.33850,-15.87483735
463.33900,-19.84236465
463.33950,-21.6735311
463.34000,-17.09561498
463.34050,-7.024199526
463.34100,3.657604743
463.34150,11.28746494
463.34200,13.7290202
463.34250,10.67707612
463.34300,7.319937636
463.34350,6.70954882
463.34400,4.267993559
463.34450,-6.719005119
463.34500,-24.11508636
463.34550,-34.18650181
463.34600,-29.6085857
463.34650,-16.79042057
463.34700,-7.329393934
463.34750,-4.582644265
463.34800,-4.582644265
463.34850,-5.498227488
463.34900,-6.108616303
463.34950,-6.108616303
463.35000,-4.277449857
463.35050,-3.361866634
463.35100,-4.887838672
463.35150,-6.413810711
463.35200,-3.361866634
463.35250,2.436827112
463.35300,7.625132043
463.35350,10.98227053
463.35400,14.03421461
463.35450,16.47576987
463.35500,14.33940901
463.35550,7.625132043
463.35600,-0.3099225569
463.35650,-5.498227488
463.35700,-7.329393934
463.35750,-8.855365973
463.35800,-12.82289327
463.35850,-18.31639261
463.35900,-22.28391991
463.35950,-21.36833669
463.36000,-16.79042057
463.36050,-12.82289327
463.36100,-9.465754788
463.36150,-5.803421896
463.36200,-2.446283411
463.36250,-3.667061042
463.36300,-8.550171565
463.36350,-11.29692123
463.36400,-7.939782749
463.36450,-1.530700188
463.36500,3.962799151
463.36550,10.98227053
463.36600,20.74849157
463.36650,28.98874058
463.36700,30.20951821
463.36750,24.10563006
463.36800,17.08615868
463.36850,13.7290202
463.36900,13.42382579
463.36950,14.03421461
463.37000,13.7290202
463.37050,10.98227053
463.37100,6.404354412
463.37150,0.9108550739
463.37200,-4.277449857
463.37250,-11.29692123
463.37300,-19.84236465
463.37350,-24.11508636
463.37400,-20.45275347
463.37450,-12.21250446
463.37500,-6.413810711
463.37550,-4.887838672
463.37600,-3.361866634
463.37650,-0.3099225569
463.37700,0.3004662585
463.37750,-0.9203113723
463.37800,-1.22550578
463.37850,1.826438297
463.37900,4.267993559
463.37950,1.216049482
463.38000,-5.19303308
463.38050,-7.939782749
463.38100,-4.582644265
463.38150,1.216049482
463.38200,5.793965597
463.38250,8.235520859
463.38300,8.845909674
463.38350,7.319937636
463.38400,3.657604743
463.38450,-0.3099225569
463.38500,-3.361866634
463.38550,-4.582644265
463.38600,-4.582644265
463.38650,-5.19303308
463.38700,-6.108616303
463.38750,-6.413810711
463.38800,-5.19303308
463.38850,-3.056672226
463.38900,-2.446283411
463.38950,-3.667061042
463.39000,-5.19303308
463.39050,-5.803421896
463.39100,-3.056672226
463.39150,6.099160005
463.39200,23.49524124
463.39250,41.5017113
463.39300,49.13157149
463.39350,43.33287774
463.39400,29.90432381
463.39450,17.39135309
463.39500,8.540715266
463.39550,6.404354412
463.39600,12.50824257
463.39650,22.57965802
463.39700,27.46276854
463.39750,23.80043565
463.39800,18.00174191
463.39850,13.7290202
463.39900,7.930326451
463.39950,-0.6151169646
463.40000,-6.413810711
463.40050,-3.972255449
463.40100,1.826438297
463.40150,3.657604743
463.40200,0.9108550739
463.40250,-1.22550578
463.40300,-2.446283411
463.40350,-4.887838672
463.40400,-7.329393934
463.40450,-6.108616303
463.40500,-1.835894595
463.40550,2.131632705
463.40600,3.047215928
463.40650,1.216049482
463.40700,-0.004728149245
463.40750,0.9108550739
463.40800,3.657604743
463.40850,3.047215928
463.40900,-4.277449857
463.40950,-14.0436709
463.41000,-16.18003176
463.41050,-10.38133801
463.41100,-5.803421896
463.41150,-7.634588342
463.41200,-10.68653242
463.41250,-7.939782749
463.41300,-1.835894595
463.41350,0.9108550739
463.41400,1.216049482
463.41450,3.657604743
463.41500,7.930326451
463.41550,9.761492897
463.41600,7.014743228
463.41650,3.047215928
463.41700,-0.004728149245
463.41750,-1.835894595
463.41800,-2.751477819
463.41850,-2.141089003
463.41900,-1.22550578
463.41950,-1.835894595
463.42000,-3.056672226
463.42050,-2.141089003
463.42100,0.3004662585
463.42150,1.826438297
463.42200,0.3004662585
463.42250,-2.141089003
463.42300,-2.751477819
463.42350,-0.9203113723
463.42400,0.9108550739
463.42450,1.216049482
463.42500,-0.3099225569
463.42550,-3.361866634
463.42600,-6.413810711
463.42650,-9.16056038
463.42700,-12.82289327
463.42750,-16.48522617
463.42800,-15.87483735
463.42850,-9.465754788
463.42900,-2.141089003
463.42950,-0.3099225569
463.43000,-4.582644265
463.43050,-9.16056038
463.43100,-10.68653242
463.43150,-11.60211564
463.43200,-13.12808768
463.43250,-13.43328209
463.43300,-10.38133801
463.43350,-6.719005119
463.43400,-6.413810711
463.43450,-9.465754788
463.43500,-11.29692123
463.43550,-10.99172683
463.43600,-9.770949196
463.43650,-6.719005119
463.43700,0.3004662585
463.43750,11.28746494
463.43800,20.13810276
463.43850,20.74849157
463.43900,12.81343697
463.43950,3.657604743
463.44000,-0.6151169646
463.44050,-0.3099225569
463.44100,1.826438297
463.44150,3.657604743
463.44200,3.962799151
463.44250,2.436827112
463.44300,-0.9203113723
463.44350,-6.413810711
463.44400,-12.51769887
463.44450,-16.48522617
463.44500,-17.7060038
463.44550,-17.7060038
463.44600,-18.0111982
463.44650,-18.62158702
463.44700,-14.34886531
463.44750,-3.667061042
463.44800,8.845909674
463.44850,16.78096427
463.44900,19.83290835
463.44950,23.80043565
463.45000,29.29393499
463.45050,31.43029584
463.45100,26.85237973
463.45150,21.35888039
463.45200,21.96926921
463.45250,24.10563006
463.45300,19.83290835
463.45350,7.930326451
463.45400,-3.667061042
463.45450,-9.16056038
463.45500,-7.634588342
463.45550,-1.530700188
463.45600,3.047215928
463.45650,3.047215928
463.45700,-0.004728149245
463.45750,0.6056606662
463.45800,6.404354412
463.45850,8.845909674
463.45900,-0.004728149245
463.45950,-14.95925413
463.46000,-24.11508636
463.46050,-23.19950313
463.46100,-17.40080939
463.46150,-10.68653242
463.46200,-3.667061042
463.46250,1.826438297
463.46300,3.657604743
463.46350,3.047215928
463.46400,3.047215928
463.46450,1.216049482
463.46500,-5.19303308
463.46550,-14.0436709
463.46600,-17.40080939
463.46650,-14.0436709
463.46700,-10.0761436
463.46750,-8.550171565
463.46800,-8.550171565
463.46850,-7.024199526
463.46900,-3.667061042
463.46950,1.216049482
463.47000,6.404354412
463.47050,8.540715266
463.47100,8.540715266
463.47150,10.98227053
463.47200,14.94979783
463.47250,10.67707612
463.47300,-4.887838672
463.47350,-19.23197583
463.47400,-19.84236465
463.47450,-14.65405972
463.47500,-19.53717024
463.47550,-33.576113
463.47600,-39.37480674
463.47650,-28.69300247
463.47700,-12.21250446
463.47750,-1.22550578
463.47800,5.183576782
463.47850,12.81343697
463.47900,18.00174191
463.47950,17.39135309
463.48000,12.81343697
463.48050,10.0666873
463.48100,10.37188171
463.48150,11.89785375
463.48200,12.81343697
463.48250,11.89785375
463.48300,8.540715266
463.48350,3.962799151
463.48400,1.216049482
463.48450,-0.004728149245
463.48500,-1.530700188
463.48550,-3.056672226
463.48600,-1.835894595
463.48650,0.3004662585
463.48700,-0.6151169646
463.48750,-6.719005119
463.48800,-10.99172683
463.48850,-9.465754788
463.48900,-4.277449857
463.48950,-0.6151169646
463.49000,-0.004728149245
463.49050,-0.004728149245
463.49100,0.3004662585
463.49150,3.047215928
463.49200,7.014743228
463.49250,10.98227053
463.49300,13.42382579
463.49350,14.94979783
463.49400,16.47576987
463.49450,15.86538105
463.49500,9.761492897
463.49550,1.216049482
463.49600,-4.277449857
463.49650,-6.108616303
463.49700,-6.719005119
463.49750,-7.939782749
463.49800,-7.329393934
463.49850,-3.667061042
463.49900,-0.3099225569
463.49950,-0.004728149245
463.50000,-1.22550578
463.50050,-2.141089003
463.50100,-3.056672226
463.50150,-3.667061042
463.50200,-2.751477819
463.50250,0.3004662585
463.50300,3.352410335
463.50350,4.573187966
463.50400,4.573187966
463.50450,4.267993559
463.50500,4.267993559
463.50550,4.267993559
463.50600,5.183576782
463.50650,6.404354412
463.50700,5.183576782
463.50750,0.6056606662
463.50800,-4.277449857
463.50850,-6.413810711
463.50900,-4.887838672
463.50950,-1.835894595
463.51000,-0.3099225569
463.51050,-0.3099225569
463.51100,-0.9203113723
463.51150,-0.9203113723
463.51200,0.6056606662
463.51250,2.74202152
463.51300,2.436827112
463.51350,-0.004728149245
463.51400,-1.835894595
463.51450,-0.3099225569
463.51500,2.74202152
463.51550,4.573187966
463.51600,4.878382374
463.51650,6.099160005
463.51700,9.151104082
463.51750,11.59265934
463.51800,12.20304816
463.51850,10.98227053
463.51900,7.930326451
463.51950,0.6056606662
463.52000,-10.38133801
463.52050,-19.84236465
463.52100,-21.9787255
463.52150,-17.09561498
463.52200,-10.0761436
463.52250,-5.19303308
463.52300,-2.141089003
463.52350,1.826438297
463.52400,6.70954882
463.52450,8.845909674
463.52500,6.099160005
463.52550,1.216049482
463.52600,-0.9203113723
463.52650,-0.9203113723
463.52700,-3.667061042
463.52750,-9.770949196
463.52800,-11.60211564
463.52850,-4.582644265
463.52900,4.878382374
463.52950,9.761492897
463.53000,11.89785375
463.53050,17.6965475
463.53100,25.32640769
463.53150,25.93679651
463.53200,18.00174191
463.53250,10.98227053
463.53300,10.0666873
463.53350,8.540715266
463.53400,-0.004728149245
463.53450,-12.21250446
463.53500,-16.48522617
463.53550,-10.38133801
463.53600,-1.22550578
463.53650,3.962799151
463.53700,4.573187966
463.53750,2.436827112
463.53800,-0.004728149245
463.53850,-0.9203113723
463.53900,0.6056606662
463.53950,4.573187966
463.54000,8.540715266
463.54050,9.761492897
463.54100,6.099160005
463.54150,-2.446283411
463.54200,-10.38133801
463.54250,-10.68653242
463.54300,-2.751477819
463.54350,3.962799151
463.54400,1.521243889
463.54450,-9.465754788
463.54500,-19.84236465
463.54550,-21.9787255
463.54600,-17.09561498
463.54650,-10.68653242
463.54700,-6.413810711
463.54750,-4.582644265
463.54800,-3.056672226
463.54850,-0.9203113723
463.54900,1.826438297
463.54950,5.793965597
463.55000,9.45629849
463.55050,10.98227053
463.55100,9.761492897
463.55150,6.404354412
463.55200,2.436827112
463.55250,0.6056606662
463.55300,1.521243889
463.55350,4.573187966
463.55400,7.625132043
463.55450,8.540715266
463.55500,6.70954882
463.55550,4.267993559
463.55600,3.047215928
463.55650,3.047215928
463.55700,2.74202152
463.55750,1.521243889
463.55800,-0.3099225569
463.55850,-2.751477819
463.55900,-6.108616303
463.55950,-10.0761436
463.56000,-12.21250446
463.56050,-10.0761436
463.56100,-3.972255449
463.56150,1.826438297
463.56200,4.573187966
463.56250,4.878382374
463.56300,7.014743228
463.56350,10.98227053
463.56400,12.81343697
463.56450,9.761492897
463.56500,3.047215928
463.56550,-4.582644265
463.56600,-12.82289327
463.56650,-20.14755906
463.56700,-22.28391991
463.56750,-15.87483735
463.56800,-4.277449857
463.56850,3.962799151
463.56900,6.404354412
463.56950,6.404354412
463.57000,8.540715266
463.57050,14.03421461
463.57100,18.00174191
463.57150,17.08615868
463.57200,11.28746494
463.57250,5.183576782
463.57300,2.74202152
463.57350,3.047215928
463.57400,1.826438297
463.57450,-2.141089003
463.57500,-6.413810711
463.57550,-8.244977157
463.57600,-9.465754788
463.57650,-12.82289327
463.57700,-17.09561498
463.57750,-17.7060038
463.57800,-14.34886531
463.57850,-10.99172683
463.57900,-11.60211564
463.57950,-13.7384765
463.58000,-14.34886531
463.58050,-13.7384765
463.58100,-13.7384765
463.58150,-14.0436709
463.58200,-13.7384765
463.58250,-12.51769887
463.58300,-11.60211564
463.58350,-10.0761436
463.58400,-4.277449857
463.58450,6.404354412
463.58500,18.30693631
463.58550,24.71601887
463.58600,26.24199091
463.58650,26.24199091
463.58700,26.85237973
463.58750,25.6316021
463.58800,20.13810276
463.58850,12.81343697
463.58900,7.625132043
463.58950,5.183576782
463.59000,2.74202152
463.59050,-1.22550578
463.59100,-6.413810711
463.59150,-9.16056038
463.59200,-7.024199526
463.59250,-1.835894595
463.59300,3.047215928
463.59350,4.878382374
463.59400,2.74202152
463.59450,-0.9203113723
463.59500,-3.972255449
463.59550,-4.277449857
463.59600,-3.056672226
463.59650,-0.6151169646
463.59700,2.436827112
463.59750,5.488771189
463.59800,5.488771189
463.59850,2.436827112
463.59900,0.6056606662
463.59950,2.131632705
463.60000,3.657604743
463.60050,-0.6151169646
463.60100,-10.0761436
463.60150,-17.7060038
463.60200,-18.62158702
463.60250,-13.7384765
463.60300,-7.024199526
463.60350,-1.22550578
463.60400,3.657604743
463.60450,7.319937636
463.60500,9.45629849
463.60550,10.98227053
463.60600,12.50824257
463.60650,13.42382579
463.60700,12.50824257
463.60750,7.930326451
463.60800,0.6056606662
463.60850,-7.939782749
463.60900,-17.09561498
463.60950,-25.33586399
463.61000,-29.30339129
463.61050,-28.38780807
463.61100,-23.80989195
463.61150,-21.06314228
463.61200,-24.11508636
463.61250,-31.13455773
463.61300,-35.71247385
463.61350,-33.27091859
463.61400,-25.33586399
463.61450,-14.95925413
463.61500,-3.972255449
463.61550,6.404354412
463.61600,12.81343697
463.61650,12.20304816
463.61700,8.540715266
463.61750,8.540715266
463.61800,13.7290202
463.61850,16.78096427
463.61900,14.64460342
463.61950,10.67707612
463.62000,10.0666873
463.62050,10.98227053
463.62100,9.761492897
463.62150,7.625132043
463.62200,7.014743228
463.62250,4.573187966
463.62300,-4.277449857
463.62350,-15.56964294
463.62400,-16.48522617
463.62450,-5.19303308
463.62500,5.488771189
463.62550,4.267993559
463.62600,-4.582644265
463.62650,-9.16056038
463.62700,-5.19303308
463.62750,-0.3099225569
463.62800,0.9108550739
463.62850,2.436827112
463.62900,7.930326451
463.62950,13.42382579
463.63000,14.64460342
463.63050,14.03421461
463.63100,14.03421461
463.63150,13.42382579
463.63200,9.761492897
463.63250,6.099160005
463.63300,4.573187966
463.63350,2.74202152
463.63400,-3.972255449
463.63450,-14.34886531
463.63500,-19.84236465
463.63550,-16.18003176
463.63600,-7.329393934
463.63650,-0.004728149245
463.63700,5.183576782
463.63750,8.845909674
463.63800,10.0666873
463.63850,7.625132043
463.63900,3.352410335
463.63950,0.9108550739
463.64000,-0.004728149245
463.64050,-1.835894595
463.64100,-3.361866634
463.64150,-0.9203113723
463.64200,5.793965597
463.64250,11.28746494
463.64300,11.59265934
463.64350,8.540715266
463.64400,6.404354412
463.64450,6.099160005
463.64500,7.625132043
463.64550,9.761492897
463.64600,10.37188171
463.64650,5.488771189
463.64700,-4.887838672
463.64750,-14.34886531
463.64800,-16.18003176
463.64850,-11.29692123
463.64900,-5.803421896
463.64950,-3.056672226
463.65000,-1.835894595
463.65050,-1.22550578
463.65100,-2.446283411
463.65150,-4.887838672
463.65200,-5.803421896
463.65250,-3.361866634
463.65300,0.3004662585
463.65350,4.573187966
463.65400,7.930326451
463.65450,9.761492897
463.65500,10.0666873
463.65550,9.151104082
463.65600,8.540715266
463.65650,8.845909674
463.65700,8.845909674
463.65750,7.319937636
463.65800,5.183576782
463.65850,4.267993559
463.65900,6.404354412
463.65950,9.761492897
463.66000,12.81343697
463.66050,15.56018664
463.66100,19.22251954
463.66150,21.96926921
463.66200,20.74849157
463.66250,17.39135309
463.66300,15.56018664
463.66350,13.11863138
463.66400,3.962799151
463.66450,-10.38133801
463.66500,-21.36833669
463.66550,-24.11508636
463.66600,-23.19950313
463.66650,-25.03066958
463.66700,-28.38780807
463.66750,-27.47222484
463.66800,-20.45275347
463.66850,-9.770949196
463.66900,1.826438297
463.66950,9.45629849
463.67000,6.099160005
463.67050,-5.803421896
463.67100,-15.87483735
463.67150,-14.65405972
463.67200,-6.108616303
463.67250,1.521243889
463.67300,7.319937636
463.67350,13.11863138
463.67400,16.78096427
463.67450,14.64460342
463.67500,8.235520859
463.67550,3.047215928
463.67600,0.3004662585
463.67650,-1.835894595
463.67700,-3.667061042
463.67750,-2.446283411
463.67800,0.9108550739
463.67850,3.047215928
463.67900,3.352410335
463.67950,4.267993559
463.68000,4.267993559
463.68050,0.9108550739
463.68100,-3.056672226
463.68150,-3.667061042
463.68200,-0.004728149245
463.68250,2.131632705
463.68300,0.6056606662
463.68350,-0.3099225569
463.68400,1.216049482
463.68450,3.657604743
463.68500,4.267993559
463.68550,4.267993559
463.68600,5.793965597
463.68650,8.540715266
463.68700,10.0666873
463.68750,9.761492897
463.68800,8.845909674
463.68850,7.625132043
463.68900,5.488771189
463.68950,2.74202152
463.69000,1.216049482
463.69050,0.3004662585
463.69100,-1.530700188
463.69150,-4.887838672
463.69200,-7.939782749
463.69250,-8.855365973
463.69300,-8.855365973
463.69350,-8.855365973
463.69400,-8.855365973
463.69450,-8.244977157
463.69500,-6.413810711
463.69550,-2.751477819
463.69600,1.216049482
463.69650,3.962799151
463.69700,3.047215928
463.69750,0.3004662585
463.69800,-0.3099225569
463.69850,1.216049482
463.69900,1.521243889
463.69950,-3.361866634
463.70000,-11.29692123
463.70050,-15.26444853
463.70100,-10.99172683
463.70150,-0.9203113723
463.70200,8.235520859
463.70250,10.67707612
463.70300,3.962799151
463.70350,-6.719005119
463.70400,-16.48522617
463.70450,-21.36833669
463.70500,-22.58911432
463.70550,-22.28391991
463.70600,-18.31639261
463.70650,-8.550171565
463.70700,2.74202152
463.70750,7.625132043
463.70800,3.352410335
463.70850,-3.972255449
463.70900,-6.108616303
463.70950,-0.6151169646
463.71000,6.404354412
463.71050,11.59265934
463.71100,15.86538105
463.71150,20.74849157
463.71200,23.49524124
463.71250,21.6640748
463.71300,17.6965475
463.71350,15.86538105
463.71400,15.25499224
463.71450,9.45629849
463.71500,-3.056672226
463.71550,-14.95925413
463.71600,-18.31639261
463.71650,-14.0436709
463.71700,-7.634588342
463.71750,-0.6151169646
463.71800,5.793965597
463.71850,9.761492897
463.71900,8.540715266
463.71950,4.573187966
463.72000,0.6056606662
463.72050,-5.803421896
463.72100,-19.53717024
463.72150,-35.71247385
463.72200,-42.42675082
463.72250,-35.10208503
463.72300,-24.11508636
463.72350,-18.62158702
463.72400,-15.56964294
463.72450,-6.719005119
463.72500,6.404354412
463.72550,14.03421461
463.72600,10.37188171
463.72650,2.436827112
463.72700,-2.446283411
463.72750,-4.582644265
463.72800,-5.803421896
463.72850,-5.19303308
463.72900,-0.004728149245
463.72950,5.793965597
463.73000,7.625132043
463.73050,5.488771189
463.73100,3.657604743
463.73150,3.657604743
463.73200,4.267993559
463.73250,5.488771189
463.73300,8.845909674
463.73350,13.42382579
463.73400,16.47576987
463.73450,18.30693631
463.73500,20.44329717
463.73550,22.57965802
463.73600,21.6640748
463.73650,18.00174191
463.73700,12.81343697
463.73750,4.267993559
463.73800,-11.60211564
463.73850,-30.21897451
463.73900,-39.06961234
463.73950,-32.96572418
463.74000,-18.92678143
463.74050,-6.413810711
463.74100,0.3004662585
463.74150,3.047215928
463.74200,2.436827112
463.74250,-0.3099225569
463.74300,-3.056672226
463.74350,-3.972255449
463.74400,-4.887838672
463.74450,-4.887838672
463.74500,-0.9203113723
463.74550,5.793965597
463.74600,7.930326451
463.74650,-1.530700188
463.74700,-17.09561498
463.74750,-25.6410584
463.74800,-20.14755906
463.74850,-6.719005119
463.74900,3.657604743
463.74950,6.70954882
463.75000,5.183576782
463.75050,6.099160005
463.75100,9.761492897
463.75150,13.11863138
463.75200,14.33940901
463.75250,17.6965475
463.75300,25.02121328
463.75350,28.37835177
463.75400,21.6640748
463.75450,9.151104082
463.75500,3.352410335
463.75550,8.540715266
463.75600,16.17057546
463.75650,18.30693631
463.75700,14.33940901
463.75750,9.761492897
463.75800,8.845909674
463.75850,10.0666873
463.75900,10.98227053
463.75950,6.70954882
463.76000,-2.446283411
463.76050,-12.21250446
463.76100,-14.65405972
463.76150,-10.99172683
463.76200,-7.634588342
463.76250,-8.244977157
463.76300,-9.16056038
463.76350,-7.939782749
463.76400,-7.024199526
463.76450,-7.634588342
463.76500,-6.719005119
463.76550,-2.751477819
463.76600,0.9108550739
463.76650,0.9108550739
463.76700,-0.6151169646
463.76750,-0.9203113723
463.76800,-0.004728149245
463.76850,1.521243889
463.76900,2.436827112
463.76950,3.657604743
463.77000,3.657604743
463.77050,1.826438297
463.77100,0.3004662585
463.77150,-0.004728149245
463.77200,-0.9203113723
463.77250,-2.751477819
463.77300,-3.361866634
463.77350,-1.530700188
463.77400,-0.6151169646
463.77450,-2.751477819
463.77500,-5.498227488
463.77550,-5.498227488
463.77600,-2.446283411
463.77650,-0.004728149245
463.77700,2.131632705
463.77750,4.573187966
463.77800,6.70954882
463.77850,7.319937636
463.77900,8.235520859
463.77950,10.37188171
463.78000,11.89785375
463.78050,10.0666873
463.78100,4.267993559
463.78150,-2.751477819
463.78200,-10.99172683
463.78250,-19.84236465
463.78300,-25.6410584
463.78350,-23.80989195
463.78400,-16.48522617
463.78450,-10.0761436
463.78500,-8.550171565
463.78550,-8.244977157
463.78600,-4.582644265
463.78650,0.9108550739
463.78700,4.573187966
463.78750,4.267993559
463.78800,2.436827112
463.78850,2.131632705
463.78900,2.131632705
463.78950,-1.530700188
463.79000,-9.16056038
463.79050,-14.65405972
463.79100,-13.43328209
463.79150,-7.024199526
463.79200,-0.004728149245
463.79250,3.657604743
463.79300,5.793965597
463.79350,6.404354412
463.79400,5.183576782
463.79450,3.352410335
463.79500,3.047215928
463.79550,2.74202152
463.79600,1.216049482
463.79650,-0.6151169646
463.79700,-0.6151169646
463.79750,0.3004662585
463.79800,1.826438297
463.79850,4.267993559
463.79900,8.845909674
463.79950,12.81343697
463.80000,12.20304816
463.80050,8.845909674
463.80100,6.70954882
463.80150,5.793965597
463.80200,3.657604743
463.80250,2.131632705
463.80300,3.962799151
463.80350,7.014743228
463.80400,7.319937636
463.80450,6.404354412
463.80500,8.845909674
463.80550,11.59265934
463.80600,7.930326451
463.80650,-1.22550578
463.80700,-7.329393934
463.80750,-7.024199526
463.80800,-6.108616303
463.80850,-8.550171565
463.80900,-10.38133801
463.80950,-7.939782749
463.81000,-2.446283411
463.81050,1.216049482
463.81100,3.047215928
463.81150,2.74202152
463.81200,1.521243889
463.81250,1.216049482
463.81300,1.216049482
463.81350,-1.22550578
463.81400,-6.413810711
463.81450,-7.329393934
463.81500,-0.004728149245
463.81550,7.319937636
463.81600,3.657604743
463.81650,-8.244977157
463.81700,-14.34886531
463.81750,-8.550171565
463.81800,0.3004662585
463.81850,5.488771189
463.81900,8.540715266
463.81950,12.50824257
463.82000,13.7290202
463.82050,9.151104082
463.82100,4.267993559
463.82150,5.793965597
463.82200,10.37188171
463.82250,10.37188171
463.82300,5.793965597
463.82350,1.826438297
463.82400,-0.6151169646
463.82450,-3.667061042
463.82500,-6.719005119
463.82550,-6.413810711
463.82600,-2.446283411
463.82650,1.521243889
463.82700,6.099160005
463.82750,13.11863138
463.82800,18.61213072
463.82850,17.08615868
463.82900,11.28746494
463.82950,9.45629849
463.83000,10.37188171
463.83050,3.047215928
463.83100,-13.7384765
463.83150,-26.86183603
463.83200,-25.6410584
463.83250,-17.09561498
463.83300,-14.34886531
463.83350,-16.79042057
463.83400,-13.7384765
463.83450,-3.972255449
463.83500,2.74202152
463.83550,1.826438297
463.83600,-1.835894595
463.83650,-2.446283411
463.83700,-1.835894595
463.83750,-3.056672226
463.83800,-5.498227488
463.83850,-6.108616303
463.83900,-5.803421896
463.83950,-5.498227488
463.84000,-5.498227488
463.84050,-5.498227488
463.84100,-4.277449857
463.84150,-0.004728149245
463.84200,7.014743228
463.84250,13.11863138
463.84300,14.64460342
463.84350,13.42382579
463.84400,13.7290202
463.84450,16.17057546
463.84500,18.30693631
463.84550,17.08615868
463.84600,9.761492897
463.84650,-5.803421896
463.84700,-26.25144721
463.84750,-40.90077878
463.84800,-43.03713964
463.84850,-34.49169622
463.84900,-23.50469754
463.84950,-14.0436709
463.85000,-7.024199526
463.85050,-4.582644265
463.85100,-7.329393934
463.85150,-9.465754788
463.85200,-6.413810711
463.85250,-0.9203113723
463.85300,0.6056606662
463.85350,-1.530700188
463.85400,-3.056672226
463.85450,-1.835894595
463.85500,-0.9203113723
463.85550,-2.446283411
463.85600,-3.361866634
463.85650,-1.530700188
463.85700,0.3004662585
463.85750,0.9108550739
463.85800,-0.3099225569
463.85850,-3.667061042
463.85900,-7.329393934
463.85950,-9.16056038
463.86000,-7.329393934
463.86050,-3.667061042
463.86100,-0.9203113723
463.86150,-0.6151169646
463.86200,-2.141089003
463.86250,-3.972255449
463.86300,-4.277449857
463.86350,-1.530700188
463.86400,2.74202152
463.86450,4.573187966
463.86500,2.74202152
463.86550,2.436827112
463.86600,7.930326451
463.86650,15.56018664
463.86700,18.30693631
463.86750,15.25499224
463.86800,11.89785375
463.86850,11.89785375
463.86900,14.64460342
463.86950,18.30693631
463.87000,20.74849157
463.87050,20.13810276
463.87100,14.64460342
463.87150,7.319937636
463.87200,3.352410335
463.87250,3.352410335
463.87300,3.962799151
463.87350,1.521243889
463.87400,-1.835894595
463.87450,-2.141089003
463.87500,1.826438297
463.87550,3.657604743
463.87600,-4.887838672
463.87650,-23.19950313
463.87700,-38.15402911
463.87750,-39.06961234
463.87800,-30.21897451
463.87850,-23.50469754
463.87900,-23.80989195
463.87950,-24.11508636
463.88000,-16.79042057
463.88050,-3.667061042
463.88100,11.89785375
463.88150,28.98874058
463.88200,43.33287774
463.88250,47.60559945
463.88300,40.89132248
463.88350,29.29393499
463.88400,15.86538105
463.88450,-3.361866634
463.88500,-27.47222484
463.88550,-42.42675082
463.88600,-39.98519556
463.88650,-27.16703043
463.88700,-15.26444853
463.88750,-5.19303308
463.88800,7.930326451
463.88850,22.27446361
463.88900,32.04068466
463.88950,40.89132248
463.89000,53.70948761
463.89050,63.47570865
463.89100,57.98220931
463.89150,41.19651689
463.89200,29.90432381
463.89250,30.20951821
463.89300,28.98874058
463.89350,16.17057546
463.89400,-0.9203113723
463.89450,-10.0761436
463.89500,-10.68653242
463.89550,-9.465754788
463.89600,-8.244977157
463.89650,-4.277449857
463.89700,0.6056606662
463.89750,0.6056606662
463.89800,-4.887838672
463.89850,-10.0761436
463.89900,-9.770949196
463.89950,-6.413810711
463.90000,-4.582644265
463.90050,-4.582644265
463.90100,-4.277449857
463.90150,-3.361866634
463.90200,-4.277449857
463.90250,-7.329393934
463.90300,-10.0761436
463.90350,-10.0761436
463.90400,-8.550171565
463.90450,-9.770949196
463.90500,-14.0436709
463.90550,-16.48522617
463.90600,-13.7384765
463.90650,-8.550171565
463.90700,-5.19303308
463.90750,-4.277449857
463.90800,-2.751477819
463.90850,-0.004728149245
463.90900,0.9108550739
463.90950,-2.751477819
463.91000,-10.99172683
463.91050,-18.31639261
463.91100,-19.84236465
463.91150,-15.56964294
463.91200,-9.770949196
463.91250,-5.803421896
463.91300,-3.667061042
463.91350,-2.446283411
463.91400,-2.141089003
463.91450,-4.582644265
463.91500,-7.939782749
463.91550,-7.634588342
463.91600,-1.22550578
463.91650,5.793965597
463.91700,7.930326451
463.91750,4.573187966
463.91800,-0.004728149245
463.91850,-2.446283411
463.91900,-3.361866634
463.91950,-4.887838672
463.92000,-6.719005119
463.92050,-7.024199526
463.92100,-5.498227488
463.92150,-3.667061042
463.92200,-2.751477819
463.92250,-2.751477819
463.92300,-3.361866634
463.92350,-2.446283411
463.92400,-0.9203113723
463.92450,-0.004728149245
463.92500,-0.6151169646
463.92550,-2.446283411
463.92600,-2.751477819
463.92650,-1.530700188
463.92700,-0.004728149245
463.92750,0.6056606662
463.92800,1.216049482
463.92850,2.436827112
463.92900,3.657604743
463.92950,3.962799151
463.93000,3.352410335
463.93050,2.131632705
463.93100,1.521243889
463.93150,2.131632705
463.93200,2.436827112
463.93250,1.521243889
463.93300,0.3004662585
463.93350,0.9108550739
463.93400,2.74202152
463.93450,1.826438297
463.93500,-3.056672226
463.93550,-8.244977157
463.93600,-8.550171565
463.93650,-4.277449857
463.93700,-1.22550578
463.93750,-1.835894595
463.93800,-2.751477819
463.93850,-1.530700188
463.93900,-0.004728149245
463.93950,0.6056606662
463.94000,2.74202152
463.94050,6.099160005
463.94100,7.319937636
463.94150,4.573187966
463.94200,3.657604743
463.94250,8.235520859
463.94300,14.03421461
463.94350,13.7290202
463.94400,7.930326451
463.94450,6.099160005
463.94500,10.67707612
463.94550,15.56018664
463.94600,15.25499224
463.94650,11.89785375
463.94700,7.319937636
463.94750,-1.22550578
463.94800,-15.26444853
463.94850,-27.16703043
463.94900,-27.47222484
463.94950,-19.84236465
463.95000,-16.79042057
463.95050,-22.89430873
463.95100,-29.9137801
463.95150,-28.99819688
463.95200,-21.6735311
463.95250,-14.95925413
463.95300,-11.29692123
463.95350,-7.634588342
463.95400,-5.19303308
463.95450,-5.498227488
463.95500,-6.413810711
463.95550,-3.361866634
463.95600,3.962799151
463.95650,10.0666873
463.95700,10.37188171
463.95750,8.540715266
463.95800,11.59265934
463.95850,18.91732513
463.95900,22.57965802
463.95950,17.39135309
463.96000,8.235520859
463.96050,2.74202152
463.96100,3.352410335
463.96150,5.488771189
463.96200,4.267993559
463.96250,0.3004662585
463.96300,-2.141089003
463.96350,-2.141089003
463.96400,-0.6151169646
463.96450,0.6056606662
463.96500,1.826438297
463.96550,4.573187966
463.96600,7.319937636
463.96650,8.235520859
463.96700,6.099160005
463.96750,3.962799151
463.96800,5.488771189
463.96850,10.0666873
463.96900,14.64460342
463.96950,17.6965475
463.97000,18.91732513
463.97050,15.86538105
463.97100,6.404354412
463.97150,-4.887838672
463.97200,-10.68653242
463.97250,-8.244977157
463.97300,-3.056672226
463.97350,0.3004662585
463.97400,5.488771189
463.97450,13.7290202
463.97500,18.61213072
463.97550,16.17057546
463.97600,9.761492897
463.97650,6.404354412
463.97700,6.70954882
463.97750,7.014743228
463.97800,6.70954882
463.97850,6.099160005
463.97900,4.573187966
463.97950,0.6056606662
463.98000,-1.835894595
463.98050,-1.835894595
463.98100,-0.004728149245
463.98150,1.216049482
463.98200,3.962799151
463.98250,7.625132043
463.98300,9.45629849
463.98350,7.930326451
463.98400,6.099160005
463.98450,3.962799151
463.98500,-3.667061042
463.98550,-17.40080939
463.98600,-29.30339129
463.98650,-30.82936333
463.98700,-22.89430873
463.98750,-12.82289327
463.98800,-4.582644265
463.98850,1.521243889
463.98900,5.488771189
463.98950,8.235520859
463.99000,10.37188171
463.99050,10.98227053
463.99100,7.014743228
463.99150,1.216049482
463.99200,0.6056606662
463.99250,6.404354412
463.99300,12.50824257
463.99350,13.11863138
463.99400,9.761492897
463.99450,6.404354412
463.99500,1.826438297
463.99550,-3.056672226
463.99600,-3.667061042
463.99650,2.436827112
463.99700,10.0666873
463.99750,11.28746494
463.99800,7.625132043
463.99850,5.488771189
463.99900,7.625132043
463.99950,10.98227053
464.00000,11.59265934
464.00050,6.099160005
464.00100,-6.719005119
464.00150,-22.58911432
464.00200,-30.52416892
464.00250,-26.55664162
464.00300,-17.09561498
464.00350,-11.60211564
464.00400,-10.38133801
464.00450,-9.16056038
464.00500,-7.939782749
464.00550,-9.770949196
464.00600,-13.12808768
464.00650,-12.51769887
464.00700,-7.939782749
464.00750,-3.361866634
464.00800,0.3004662585
464.00850,5.488771189
464.00900,10.67707612
464.00950,10.67707612
464.01000,6.099160005
464.01050,2.436827112
464.01100,2.436827112
464.01150,2.74202152
464.01200,0.6056606662
464.01250,-0.9203113723
464.01300,0.3004662585
464.01350,2.131632705
464.01400,1.521243889
464.01450,0.3004662585
464.01500,0.3004662585
464.01550,-0.3099225569
464.01600,-5.498227488
464.01650,-12.51769887
464.01700,-15.26444853
464.01750,-10.99172683
464.01800,-4.887838672
464.01850,-1.22550578
464.01900,-0.9203113723
464.01950,-1.835894595
464.02000,-2.141089003
464.02050,-1.530700188
464.02100,-0.004728149245
464.02150,1.216049482
464.02200,-0.004728149245
464.02250,-2.446283411
464.02300,-3.361866634
464.02350,-1.22550578
464.02400,1.826438297
464.02450,3.352410335
464.02500,3.352410335
464.02550,3.657604743
464.02600,3.352410335
464.02650,0.6056606662
464.02700,-2.751477819
464.02750,-3.972255449
464.02800,-2.446283411
464.02850,-2.751477819
464.02900,-8.550171565
464.02950,-18.0111982
464.03000,-23.80989195
464.03050,-21.6735311
464.03100,-14.0436709
464.03150,-6.413810711
464.03200,-1.530700188
464.03250,1.521243889
464.03300,5.183576782
464.03350,7.930326451
464.03400,7.319937636
464.03450,3.352410335
464.03500,-0.004728149245
464.03550,0.9108550739
464.03600,6.70954882
464.03650,13.7290202
464.03700,16.78096427
464.03750,14.33940901
464.03800,7.625132043
464.03850,0.3004662585
464.03900,-4.582644265
464.03950,-6.413810711
464.04000,-4.582644265
464.04050,0.6056606662
464.04100,6.099160005
464.04150,7.319937636
464.04200,3.657604743
464.04250,1.216049482
464.04300,4.573187966
464.04350,7.014743228
464.04400,-0.004728149245
464.04450,-14.95925413
464.04500,-26.25144721
464.04550,-22.89430873
464.04600,-9.465754788
464.04650,2.436827112
464.04700,7.014743228
464.04750,6.404354412
464.04800,6.099160005
464.04850,7.014743228
464.04900,8.845909674
464.04950,10.0666873
464.05000,10.98227053
464.05050,10.37188171
464.05100,8.540715266
464.05150,6.404354412
464.05200,4.267993559
464.05250,2.74202152
464.05300,1.216049482
464.05350,0.3004662585
464.05400,-0.3099225569
464.05450,-2.751477819
464.05500,-6.108616303
464.05550,-9.16056038
464.05600,-11.29692123
464.05650,-12.82289327
464.05700,-13.7384765
464.05750,-12.21250446
464.05800,-7.939782749
464.05850,-3.972255449
464.05900,-2.751477819
464.05950,-1.835894595
464.06000,2.436827112
464.06050,9.45629849
464.06100,13.42382579
464.06150,11.59265934
464.06200,7.319937636
464.06250,5.183576782
464.06300,6.099160005
464.06350,7.014743228
464.06400,5.488771189
464.06450,1.216049482
464.06500,-3.056672226
464.06550,-4.887838672
464.06600,-3.972255449
464.06650,-2.446283411
464.06700,-1.835894595
464.06750,-1.530700188
464.06800,-0.004728149245
464.06850,2.74202152
464.06900,4.573187966
464.06950,2.74202152
464.07000,-3.667061042
464.07050,-13.7384765
464.07100,-23.19950313
464.07150,-25.03066958
464.07200,-18.0111982
464.07250,-7.024199526
464.07300,1.216049482
464.07350,5.793965597
464.07400,7.625132043
464.07450,7.319937636
464.07500,4.573187966
464.07550,3.047215928
464.07600,6.099160005
464.07650,11.28746494
464.07700,12.20304816
464.07750,7.930326451
464.07800,3.352410335
464.07850,2.74202152
464.07900,3.352410335
464.07950,2.436827112
464.08000,0.9108550739
464.08050,1.521243889
464.08100,3.352410335
464.08150,3.657604743
464.08200,2.74202152
464.08250,3.047215928
464.08300,3.962799151
464.08350,5.183576782
464.08400,7.930326451
464.08450,11.59265934
464.08500,11.89785375
464.08550,2.436827112
464.08600,-13.43328209
464.08650,-25.03066958
464.08700,-24.72547517
464.08750,-17.40080939
464.08800,-13.7384765
464.08850,-16.79042057
464.08900,-20.75794787
464.08950,-20.45275347
464.09000,-15.87483735
464.09050,-10.38133801
464.09100,-3.972255449
464.09150,2.74202152
464.09200,8.540715266
464.09250,12.50824257
464.09300,15.25499224
464.09350,16.78096427
464.09400,14.94979783
464.09450,8.845909674
464.09500,3.047215928
464.09550,2.436827112
464.09600,6.404354412
464.09650,9.151104082
464.09700,9.151104082
464.09750,8.845909674
464.09800,9.45629849
464.09850,8.235520859
464.09900,3.657604743
464.09950,-0.9203113723
464.10000,-1.530700188
464.10050,0.9108550739
464.10100,3.047215928
464.10150,2.131632705
464.10200,-0.004728149245
464.10250,-1.530700188
464.10300,-2.141089003
464.10350,-2.141089003
464.10400,-1.835894595
464.10450,-1.22550578
464.10500,0.6056606662
464.10550,3.047215928
464.10600,3.962799151
464.10650,1.216049482
464.10700,-3.361866634
464.10750,-6.413810711
464.10800,-7.024199526
464.10850,-6.413810711
464.10900,-6.413810711
464.10950,-4.887838672
464.11000,-2.446283411
464.11050,-1.835894595
464.11100,-3.361866634
464.11150,-3.361866634
464.11200,-0.3099225569
464.11250,2.131632705
464.11300,0.9108550739
464.11350,-0.6151169646
464.11400,0.3004662585
464.11450,2.74202152
464.11500,2.131632705
464.11550,-0.004728149245
464.11600,-0.6151169646
464.11650,0.3004662585
464.11700,1.826438297
464.11750,2.436827112
464.11800,3.047215928
464.11850,0.9108550739
464.11900,-3.361866634
464.11950,-5.803421896
464.12000,-3.667061042
464.12050,-4.887838672
464.12100,-17.09561498
464.12150,-33.576113
464.12200,-38.45922352
464.12250,-26.86183603
464.12300,-9.770949196
464.12350,0.9108550739
464.12400,5.488771189
464.12450,8.540715266
464.12500,11.89785375
464.12550,14.94979783
464.12600,19.22251954
464.12650,24.10563006
464.12700,26.24199091
464.12750,24.71601887
464.12800,23.19004684
464.12850,23.19004684
464.12900,20.13810276
464.12950,11.89785375
464.13000,2.436827112
464.13050,-1.530700188
464.13100,-0.9203113723
464.13150,-0.004728149245
464.13200,-1.530700188
464.13250,-4.582644265
464.13300,-7.024199526
464.13350,-7.939782749
464.13400,-5.498227488
464.13450,-0.3099225569
464.13500,5.183576782
464.13550,9.151104082
464.13600,15.56018664
464.13650,26.24199091
464.13700,35.70301755
464.13750,35.09262874
464.13800,23.19004684
464.13850,8.845909674
464.13900,0.3004662585
464.13950,-2.751477819
464.14000,-6.413810711
464.14050,-11.29692123
464.14100,-14.0436709
464.14150,-12.21250446
464.14200,-8.855365973
464.14250,-6.108616303
464.14300,-3.972255449
464.14350,-0.6151169646
464.14400,3.047215928
464.14450,6.404354412
464.14500,7.625132043
464.14550,6.404354412
464.14600,3.657604743
464.14650,0.9108550739
464.14700,-1.530700188
464.14750,-5.803421896
464.14800,-12.51769887
464.14850,-19.53717024
464.14900,-21.6735311
464.14950,-18.31639261
464.15000,-13.7384765
464.15050,-11.29692123
464.15100,-10.68653242
464.15150,-8.550171565
464.15200,-4.887838672
464.15250,-3.361866634
464.15300,-5.803421896
464.15350,-8.855365973
464.15400,-8.855365973
464.15450,-5.498227488
464.15500,-2.751477819
464.15550,-3.056672226
464.15600,-3.972255449
464.15650,-1.530700188
464.15700,3.352410335
464.15750,7.930326451
464.15800,8.845909674
464.15850,7.625132043
464.15900,6.099160005
464.15950,4.573187966
464.16000,2.131632705
464.16050,-0.004728149245
464.16100,-2.141089003
464.16150,-3.361866634
464.16200,-3.361866634
464.16250,-1.530700188
464.16300,-0.004728149245
464.16350,-2.141089003
464.16400,-8.244977157
464.16450,-10.38133801
464.16500,-5.498227488
464.16550,-3.361866634
464.16600,-15.56964294
464.16650,-37.23844589
464.16700,-49.7514166
464.16750,-43.64752845
464.16800,-29.30339129
464.16850,-21.06314228
464.16900,-18.0111982
464.16950,-10.38133801
464.17000,3.047215928
464.17050,17.39135309
464.17100,31.12510144
464.17150,46.38482182
464.17200,58.28740372
464.17250,57.06662609
464.17300,42.72248893
464.17350,28.07315736
464.17400,21.35888039
464.17450,17.39135309
464.17500,10.37188171
464.17550,3.657604743
464.17600,2.74202152
464.17650,4.267993559
464.17700,2.131632705
464.17750,-1.530700188
464.17800,-2.751477819
464.17850,-1.22550578
464.17900,-2.446283411
464.17950,-6.413810711
464.18000,-8.855365973
464.18050,-6.719005119
464.18100,-3.056672226
464.18150,-0.004728149245
464.18200,3.047215928
464.18250,5.488771189
464.18300,4.878382374
464.18350,2.436827112
464.18400,0.3004662585
464.18450,0.3004662585
464.18500,-0.004728149245
464.18550,-0.6151169646
464.18600,-3.056672226
464.18650,-7.939782749
464.18700,-15.26444853
464.18750,-21.06314228
464.18800,-20.75794787
464.18850,-17.40080939
464.18900,-16.79042057
464.18950,-19.53717024
464.19000,-20.75794787
464.19050,-18.92678143
464.19100,-18.62158702
464.19150,-20.45275347
464.19200,-18.0111982
464.19250,-7.329393934
464.19300,5.183576782
464.19350,10.98227053
464.19400,10.0666873
464.19450,11.59265934
464.19500,21.35888039
464.19550,32.34587907
464.19600,33.87185111
464.19650,22.88485243
464.19700,7.930326451
464.19750,-0.6151169646
464.19800,-0.004728149245
464.19850,3.047215928
464.19900,1.216049482
464.19950,-7.024199526
464.20000,-17.7060038
464.20050,-24.72547517
464.20100,-26.25144721
464.20150,-23.50469754
464.20200,-16.48522617
464.20250,-6.108616303
464.20300,3.657604743
464.20350,10.98227053
464.20400,17.08615868
464.20450,25.93679651
464.20500,36.31340637
464.20550,41.5017113
464.20600,36.31340637
464.20650,23.19004684
464.20700,10.67707612
464.20750,4.267993559
464.20800,2.74202152
464.20850,2.131632705
464.20900,2.131632705
464.20950,2.436827112
464.21000,3.657604743
464.21050,5.488771189
464.21100,8.540715266
464.21150,12.81343697
464.21200,14.94979783
464.21250,11.59265934
464.21300,2.74202152
464.21350,-8.244977157
464.21400,-17.40080939
464.21450,-22.58911432
464.21500,-21.36833669
464.21550,-13.43328209
464.21600,-1.22550578
464.21650,7.319937636
464.21700,7.930326451
464.21750,3.352410335
464.21800,-0.004728149245
464.21850,-0.9203113723
464.21900,-2.751477819
464.21950,-6.719005119
464.22000,-8.855365973
464.22050,-6.108616303
464.22100,-1.530700188
464.22150,0.9108550739
464.22200,0.9108550739
464.22250,-0.3099225569
464.22300,-2.751477819
464.22350,-6.108616303
464.22400,-8.550171565
464.22450,-8.244977157
464.22500,-6.719005119
464.22550,-5.498227488
464.22600,-4.277449857
464.22650,-1.835894595
464.22700,1.826438297
464.22750,5.183576782
464.22800,7.014743228
464.22850,7.930326451
464.22900,7.319937636
464.22950,5.793965597
464.23000,2.436827112
464.23050,-2.446283411
464.23100,-8.855365973
464.23150,-13.7384765
464.23200,-13.7384765
464.23250,-10.0761436
464.23300,-7.024199526
464.23350,-7.024199526
464.23400,-7.329393934
464.23450,-5.19303308
464.23500,-1.835894595
464.23550,-0.004728149245
464.23600,0.9108550739
464.23650,1.216049482
464.23700,-0.004728149245
464.23750,-3.361866634
464.23800,-5.803421896
464.23850,-3.972255449
464.23900,-0.004728149245
464.23950,0.6056606662
464.24000,-2.751477819
464.24050,-7.024199526
464.24100,-8.855365973
464.24150,-8.244977157
464.24200,-8.550171565
464.24250,-10.68653242
464.24300,-13.7384765
464.24350,-14.95925413
464.24400,-12.51769887
464.24450,-7.329393934
464.24500,-2.751477819
464.24550,-0.9203113723
464.24600,-0.004728149245
464.24650,2.436827112
464.24700,5.793965597
464.24750,7.014743228
464.24800,6.70954882
464.24850,5.183576782
464.24900,0.9108550739
464.24950,-6.413810711
464.25000,-13.7384765
464.25050,-14.65405972
464.25100,-9.465754788
464.25150,-3.972255449
464.25200,-2.141089003
464.25250,-1.22550578
464.25300,2.131632705
464.25350,7.319937636
464.25400,10.67707612
464.25450,11.89785375
464.25500,11.28746494
464.25550,9.761492897
464.25600,7.625132043
464.25650,6.099160005
464.25700,7.014743228
464.25750,9.151104082
464.25800,10.0666873
464.25850,8.845909674
464.25900,6.404354412
464.25950,4.267993559
464.26000,3.962799151
464.26050,4.878382374
464.26100,7.319937636
464.26150,11.28746494
464.26200,16.78096427
464.26250,21.05368598
464.26300,20.74849157
464.26350,16.47576987
464.26400,10.98227053
464.26450,5.488771189
464.26500,-2.446283411
464.26550,-14.34886531
464.26600,-25.9462528
464.26650,-31.43975214
464.26700,-29.30339129
464.26750,-23.50469754
464.26800,-16.48522617
464.26850,-10.0761436
464.26900,-5.19303308
464.26950,-3.972255449
464.27000,-6.108616303
464.27050,-9.770949196
464.27100,-14.0436709
464.27150,-16.48522617
464.27200,-16.18003176
464.27250,-14.95925413
464.27300,-14.95925413
464.27350,-15.26444853
464.27400,-10.99172683
464.27450,-2.141089003
464.27500,6.70954882
464.27550,12.50824257
464.27600,18.00174191
464.27650,25.93679651
464.27700,32.65107347
464.27750,30.81990703
464.27800,21.35888039
464.27850,9.761492897
464.27900,1.521243889
464.27950,-2.141089003
464.28000,-0.3099225569
464.28050,6.70954882
464.28100,14.33940901
464.28150,16.47576987
464.28200,11.89785375
464.28250,6.70954882
464.28300,5.183576782
464.28350,5.183576782
464.28400,4.878382374
464.28450,3.962799151
464.28500,3.352410335
464.28550,2.131632705
464.28600,-0.004728149245
464.28650,-0.9203113723
464.28700,-0.3099225569
464.28750,-0.3099225569
464.28800,-1.835894595
464.28850,-3.361866634
464.28900,-2.446283411
464.28950,-0.3099225569
464.29000,-0.004728149245
464.29050,-1.835894595
464.29100,-3.972255449
464.29150,-4.582644265
464.29200,-4.277449857
464.29250,-2.446283411
464.29300,-0.3099225569
464.29350,0.9108550739
464.29400,1.216049482
464.29450,1.521243889
464.29500,2.436827112
464.29550,2.74202152
464.29600,2.436827112
464.29650,2.131632705
464.29700,3.047215928
464.29750,3.047215928
464.29800,1.521243889
464.29850,-0.004728149245
464.29900,0.9108550739
464.29950,2.74202152
464.30000,1.826438297
464.30050,-2.141089003
464.30100,-6.719005119
464.30150,-7.939782749
464.30200,-6.719005119
464.30250,-5.803421896
464.30300,-7.329393934
464.30350,-10.99172683
464.30400,-13.12808768
464.30450,-10.38133801
464.30500,-2.751477819
464.30550,5.793965597
464.30600,10.98227053
464.30650,11.89785375
464.30700,10.0666873
464.30750,3.962799151
464.30800,-6.719005119
464.30850,-17.09561498
464.30900,-19.23197583
464.30950,-11.29692123
464.31000,-2.141089003
464.31050,1.216049482
464.31100,-0.004728149245
464.31150,0.6056606662
464.31200,4.878382374
464.31250,8.845909674
464.31300,9.761492897
464.31350,8.540715266
464.31400,6.404354412
464.31450,4.267993559
464.31500,2.131632705
464.31550,2.74202152
464.31600,4.573187966
464.31650,4.267993559
464.31700,-0.004728149245
464.31750,-4.582644265
464.31800,-3.972255449
464.31850,-0.004728149245
464.31900,0.9108550739
464.31950,-1.22550578
464.32000,-2.751477819
464.32050,-0.6151169646
464.32100,0.3004662585
464.32150,-3.667061042
464.32200,-9.16056038
464.32250,-8.855365973
464.32300,-2.751477819
464.32350,2.436827112
464.32400,2.436827112
464.32450,-0.004728149245
464.32500,-1.22550578
464.32550,-1.835894595
464.32600,-2.141089003
464.32650,-1.835894595
464.32700,-0.004728149245
464.32750,1.216049482
464.32800,-0.004728149245
464.32850,-3.056672226
464.32900,-6.108616303
464.32950,-7.939782749
464.33000,-7.024199526
464.33050,-0.6151169646
464.33100,10.67707612
464.33150,20.13810276
464.33200,20.13810276
464.33250,11.59265934
464.33300,3.047215928
464.33350,-0.3099225569
464.33400,-0.3099225569
464.33450,-0.004728149245
464.33500,1.521243889
464.33550,6.70954882
464.33600,11.89785375
464.33650,11.89785375
464.33700,7.319937636
464.33750,3.657604743
464.33800,3.047215928
464.33850,3.962799151
464.33900,3.352410335
464.33950,1.216049482
464.34000,-0.3099225569
464.34050,-0.9203113723
464.34100,-0.9203113723
464.34150,-0.3099225569
464.34200,-0.3099225569
464.34250,-2.446283411
464.34300,-7.024199526
464.34350,-10.99172683
464.34400,-11.29692123
464.34450,-7.939782749
464.34500,-3.361866634
464.34550,1.216049482
464.34600,6.70954882
464.34650,10.98227053
464.34700,11.89785375
464.34750,9.45629849
464.34800,9.151104082
464.34850,13.11863138
464.34900,16.47576987
464.34950,9.761492897
464.35000,-7.024199526
464.35050,-23.50469754
464.35100,-28.08261366
464.35150,-21.6735311
464.35200,-14.0436709
464.35250,-11.90731005
464.35300,-13.12808768
464.35350,-11.90731005
464.35400,-7.024199526
464.35450,-0.9203113723
464.35500,4.267993559
464.35550,7.930326451
464.35600,8.540715266
464.35650,7.319937636
464.35700,7.014743228
464.35750,10.67707612
464.35800,15.86538105
464.35850,18.00174191
464.35900,16.78096427
464.35950,14.64460342
464.36000,11.28746494
464.36050,3.352410335
464.36100,-11.29692123
464.36150,-27.16703043
464.36200,-35.10208503
464.36250,-29.6085857
464.36300,-16.18003176
464.36350,-4.582644265
464.36400,-3.056672226
464.36450,-10.38133801
464.36500,-18.62158702
464.36550,-20.14755906
464.36600,-14.34886531
464.36650,-6.719005119
464.36700,-2.141089003
464.36750,-1.835894595
464.36800,-3.361866634
464.36850,-3.361866634
464.36900,-1.530700188
464.36950,0.6056606662
464.37000,2.74202152
464.37050,3.962799151
464.37100,5.488771189
464.37150,7.014743228
464.37200,7.625132043
464.37250,7.319937636
464.37300,6.70954882
464.37350,5.488771189
464.37400,4.267993559
464.37450,4.267993559
464.37500,6.099160005
464.37550,8.845909674
464.37600,10.98227053
464.37650,11.28746494
464.37700,8.845909674
464.37750,5.793965597
464.37800,5.793965597
464.37850,10.0666873
464.37900,15.86538105
464.37950,15.86538105
464.38000,8.235520859
464.38050,-1.22550578
464.38100,-6.413810711
464.38150,-7.024199526
464.38200,-7.329393934
464.38250,-7.939782749
464.38300,-7.024199526
464.38350,-3.361866634
464.38400,-0.3099225569
464.38450,-1.22550578
464.38500,-5.19303308
464.38550,-9.16056038
464.38600,-10.68653242
464.38650,-8.550171565
464.38700,-3.056672226
464.38750,3.352410335
464.38800,6.70954882
464.38850,4.573187966
464.38900,0.6056606662
464.38950,-0.004728149245
464.39000,3.657604743
464.39050,9.151104082
464.39100,12.20304816
464.39150,12.81343697
464.39200,13.11863138
464.39250,13.11863138
464.39300,12.20304816
464.39350,10.98227053
464.39400,9.45629849
464.39450,7.319937636
464.39500,5.183576782
464.39550,3.962799151
464.39600,2.74202152
464.39650,-0.004728149245
464.39700,-4.582644265
464.39750,-6.719005119
464.39800,-5.498227488
464.39850,-3.361866634
464.39900,-3.056672226
464.39950,-2.446283411
464.40000,-0.004728149245
464.40050,1.216049482
464.40100,-0.004728149245
464.40150,-0.9203113723
464.40200,-0.004728149245
464.40250,-0.004728149245
464.40300,-4.887838672
464.40350,-10.99172683
464.40400,-10.99172683
464.40450,-5.803421896
464.40500,-1.835894595
464.40550,-2.141089003
464.40600,-3.056672226
464.40650,-3.667061042
464.40700,-6.413810711
464.40750,-10.99172683
464.40800,-12.82289327
464.40850,-10.38133801
464.40900,-6.719005119
464.40950,-4.277449857
464.41000,-4.277449857
464.41050,-6.108616303
464.41100,-10.68653242
464.41150,-14.65405972
464.41200,-14.34886531
464.41250,-10.38133801
464.41300,-7.024199526
464.41350,-5.19303308
464.41400,-1.22550578
464.41450,4.267993559
464.41500,7.625132043
464.41550,6.099160005
464.41600,3.657604743
464.41650,3.962799151
464.41700,7.319937636
464.41750,11.89785375
464.41800,16.78096427
464.41850,20.44329717
464.41900,20.13810276
464.41950,15.86538105
464.42000,9.151104082
464.42050,2.131632705
464.42100,-5.19303308
464.42150,-12.51769887
464.42200,-16.79042057
464.42250,-17.09561498
464.42300,-14.95925413
464.42350,-12.51769887
464.42400,-8.855365973
464.42450,-5.19303308
464.42500,-3.667061042
464.42550,-4.277449857
464.42600,-4.887838672
464.42650,-4.582644265
464.42700,-4.277449857
464.42750,-4.277449857
464.42800,-4.277449857
464.42850,-3.972255449
464.42900,-5.803421896
464.42950,-9.16056038
464.43000,-9.16056038
464.43050,-3.361866634
464.43100,2.74202152
464.43150,4.573187966
464.43200,2.436827112
464.43250,0.6056606662
464.43300,-0.004728149245
464.43350,-1.22550578
464.43400,-3.972255449
464.43450,-5.803421896
464.43500,-5.803421896
464.43550,-4.582644265
464.43600,-2.446283411
464.43650,1.521243889
464.43700,7.014743228
464.43750,11.28746494
464.43800,14.03421461
464.43850,16.17057546
464.43900,17.08615868
464.43950,15.25499224
464.44000,10.67707612
464.44050,6.70954882
464.44100,6.099160005
464.44150,8.235520859
464.44200,10.37188171
464.44250,10.37188171
464.44300,9.151104082
464.44350,9.151104082
464.44400,9.45629849
464.44450,7.625132043
464.44500,2.436827112
464.44550,-1.530700188
464.44600,-0.9203113723
464.44650,3.657604743
464.44700,8.235520859
464.44750,10.37188171
464.44800,11.89785375
464.44850,11.28746494
464.44900,5.183576782
464.44950,-4.277449857
464.45000,-9.770949196
464.45050,-6.413810711
464.45100,-0.6151169646
464.45150,0.9108550739
464.45200,0.9108550739
464.45250,3.962799151
464.45300,8.235520859
464.45350,8.540715266
464.45400,5.793965597
464.45450,4.573187966
464.45500,1.521243889
464.45550,-8.855365973
464.45600,-25.03066958
464.45650,-34.49169622
464.45700,-29.9137801
464.45750,-17.7060038
464.45800,-8.550171565
464.45850,-6.413810711
464.45900,-7.024199526
464.45950,-6.108616303
464.46000,-3.361866634
464.46050,-0.9203113723
464.46100,-0.6151169646
464.46150,-0.3099225569
464.46200,3.657604743
464.46250,9.761492897
464.46300,11.28746494
464.46350,5.793965597
464.46400,0.9108550739
464.46450,4.878382374
464.46500,12.20304816
464.46550,10.37188171
464.46600,-1.835894595
464.46650,-13.12808768
464.46700,-11.90731005
464.46750,-1.530700188
464.46800,5.793965597
464.46850,6.404354412
464.46900,4.878382374
464.46950,6.70954882
464.47000,8.540715266
464.47050,7.930326451
464.47100,5.183576782
464.47150,3.657604743
464.47200,2.74202152
464.47250,1.521243889
464.47300,0.6056606662
464.47350,0.9108550739
464.47400,0.6056606662
464.47450,-0.3099225569
464.47500,0.9108550739
464.47550,6.404354412
464.47600,9.761492897
464.47650,4.267993559
464.47700,-6.719005119
464.47750,-14.95925413
464.47800,-16.48522617
464.47850,-15.26444853
464.47900,-14.0436709
464.47950,-12.21250446
464.48000,-9.465754788
464.48050,-8.855365973
464.48100,-9.770949196
464.48150,-10.38133801
464.48200,-9.16056038
464.48250,-8.550171565
464.48300,-7.634588342
464.48350,-2.751477819
464.48400,3.962799151
464.48450,8.235520859
464.48500,9.151104082
464.48550,10.0666873
464.48600,11.59265934
464.48650,7.625132043
464.48700,-2.141089003
464.48750,-10.99172683
464.48800,-12.82289327
464.48850,-9.16056038
464.48900,-4.277449857
464.48950,0.9108550739
464.49000,6.70954882
464.49050,10.67707612
464.49100,13.11863138
464.49150,15.86538105
464.49200,17.08615868
464.49250,12.50824257
464.49300,3.657604743
464.49350,-2.141089003
464.49400,-4.887838672
464.49450,-10.38133801
464.49500,-19.84236465
464.49550,-25.33586399
464.49600,-21.36833669
464.49650,-14.0436709
464.49700,-11.29692123
464.49750,-11.60211564
464.49800,-8.550171565
464.49850,-0.9203113723
464.49900,5.793965597
464.49950,9.761492897
464.50000,12.81343697
464.50050,14.94979783
464.50100,14.33940901
464.50150,12.20304816
464.50200,10.98227053
464.50250,11.59265934
464.50300,10.98227053
464.50350,8.845909674
464.50400,7.014743228
464.50450,5.793965597
464.50500,4.573187966
464.50550,3.047215928
464.50600,2.74202152
464.50650,3.657604743
464.50700,3.047215928
464.50750,0.9108550739
464.50800,-0.9203113723
464.50850,-1.835894595
464.50900,-2.141089003
464.50950,-2.446283411
464.51000,-2.446283411
464.51050,-1.530700188
464.51100,-0.004728149245
464.51150,1.216049482
464.51200,2.131632705
464.51250,2.131632705
464.51300,1.216049482
464.51350,-0.004728149245
464.51400,-0.3099225569
464.51450,0.3004662585
464.51500,1.826438297
464.51550,2.436827112
464.51600,2.131632705
464.51650,1.216049482
464.51700,-0.004728149245
464.51750,-3.667061042
464.51800,-10.38133801
464.51850,-15.87483735
464.51900,-16.48522617
464.51950,-12.82289327
464.52000,-8.855365973
464.52050,-7.329393934
464.52100,-6.413810711
464.52150,-4.582644265
464.52200,-2.751477819
464.52250,-2.446283411
464.52300,-2.446283411
464.52350,-1.22550578
464.52400,-0.6151169646
464.52450,-1.835894595
464.52500,-2.751477819
464.52550,-1.835894595
464.52600,-0.3099225569
464.52650,-2.141089003
464.52700,-7.024199526
464.52750,-11.60211564
464.52800,-12.51769887
464.52850,-10.38133801
464.52900,-7.329393934
464.52950,-3.361866634
464.53000,-0.004728149245
464.53050,3.657604743
464.53100,7.930326451
464.53150,11.28746494
464.53200,12.50824257
464.53250,10.67707612
464.53300,9.151104082
464.53350,10.67707612
464.53400,12.20304816
464.53450,8.845909674
464.53500,-0.004728149245
464.53550,-7.329393934
464.53600,-8.244977157
464.53650,-3.972255449
464.53700,-0.3099225569
464.53750,-1.22550578
464.53800,-4.582644265
464.53850,-7.939782749
464.53900,-7.634588342
464.53950,-2.751477819
464.54000,4.267993559
464.54050,10.67707612
464.54100,12.81343697
464.54150,11.28746494
464.54200,9.45629849
464.54250,8.845909674
464.54300,7.625132043
464.54350,5.793965597
464.54400,7.014743228
464.54450,11.28746494
464.54500,13.7290202
464.54550,7.930326451
464.54600,-3.056672226
464.54650,-10.68653242
464.54700,-7.939782749
464.54750,1.216049482
464.54800,8.540715266
464.54850,9.761492897
464.54900,8.235520859
464.54950,7.014743228
464.55000,5.488771189
464.55050,3.047215928
464.55100,1.521243889
464.55150,2.74202152
464.55200,5.183576782
464.55250,4.573187966
464.55300,-0.004728149245
464.55350,-6.108616303
464.55400,-9.770949196
464.55450,-9.465754788
464.55500,-7.024199526
464.55550,-3.972255449
464.55600,-1.835894595
464.55650,0.6056606662
464.55700,3.962799151
464.55750,6.70954882
464.55800,6.404354412
464.55850,4.573187966
464.55900,4.573187966
464.55950,6.099160005
464.56000,6.099160005
464.56050,3.047215928
464.56100,0.3004662585
464.56150,2.436827112
464.56200,7.930326451
464.56250,11.89785375
464.56300,14.03421461
464.56350,16.78096427
464.56400,19.83290835
464.56450,18.91732513
464.56500,13.11863138
464.56550,4.573187966
464.56600,-4.887838672
464.56650,-16.48522617
464.56700,-27.47222484
464.56750,-30.82936333
464.56800,-24.11508636
464.56850,-14.95925413
464.56900,-11.90731005
464.56950,-13.43328209
464.57000,-12.82289327
464.57050,-8.855365973
464.57100,-6.413810711
464.57150,-7.634588342
464.57200,-7.024199526
464.57250,-1.530700188
464.57300,4.573187966
464.57350,7.319937636
464.57400,6.099160005
464.57450,5.183576782
464.57500,6.70954882
464.57550,7.930326451
464.57600,7.014743228
464.57650,4.878382374
464.57700,3.352410335
464.57750,3.962799151
464.57800,6.70954882
464.57850,10.98227053
464.57900,13.7290202
464.57950,12.20304816
464.58000,7.625132043
464.58050,3.047215928
464.58100,1.216049482
464.58150,0.6056606662
464.58200,-0.004728149245
464.58250,-0.004728149245
464.58300,3.047215928
464.58350,7.319937636
464.58400,8.540715266
464.58450,4.878382374
464.58500,0.3004662585
464.58550,-0.6151169646
464.58600,2.436827112
464.58650,6.70954882
464.58700,6.70954882
464.58750,-0.6151169646
464.58800,-12.82289327
464.58850,-23.50469754
464.58900,-26.55664162
464.58950,-21.6735311
464.59000,-13.43328209
464.59050,-6.719005119
464.59100,-3.361866634
464.59150,-2.446283411
464.59200,-1.835894595
464.59250,-1.22550578
464.59300,-0.3099225569
464.59350,-0.004728149245
464.59400,-0.6151169646
464.59450,-2.446283411
464.59500,-6.108616303
464.59550,-11.29692123
464.59600,-15.26444853
464.59650,-15.26444853
464.59700,-11.29692123
464.59750,-7.024199526
464.59800,-4.277449857
464.59850,-2.446283411
464.59900,-0.9203113723
464.59950,-0.004728149245
464.60000,-0.004728149245
464.60050,-0.004728149245
464.60100,-0.004728149245
464.60150,-2.751477819
464.60200,-7.939782749
464.60250,-11.29692123
464.60300,-9.770949196
464.60350,-7.634588342
464.60400,-7.939782749
464.60450,-8.244977157
464.60500,-4.887838672
464.60550,1.521243889
464.60600,7.319937636
464.60650,12.20304816
464.60700,18.30693631
464.60750,22.88485243
464.60800,19.52771394
464.60850,7.014743228
464.60900,-5.498227488
464.60950,-8.550171565
464.61000,-2.141089003
464.61050,7.014743228
464.61100,12.20304816
464.61150,12.81343697
464.61200,10.98227053
464.61250,9.45629849
464.61300,7.319937636
