"type","name","time_units","begin_time","frequency","count","units"
"signal","Ultium EMG-FLEX.CAPR.U RT","s",329.96000,2000,22000,"uV"

"time","value"
329.96000,-1.530700188
329.96050,0.9108550739
329.96100,0.9108550739
329.96150,0.6056606662
329.96200,0.9108550739
329.96250,1.521243889
329.96300,0.6056606662
329.96350,-0.3099225569
329.96400,-0.3099225569
329.96450,-0.004728149245
329.96500,-0.004728149245
329.96550,-0.9203113723
329.96600,-1.835894595
329.96650,-1.530700188
329.96700,-0.9203113723
329.96750,-0.6151169646
329.96800,-0.6151169646
329.96850,-0.6151169646
329.96900,-0.3099225569
329.96950,-0.6151169646
329.97000,-1.530700188
329.97050,-2.446283411
329.97100,-3.056672226
329.97150,-3.056672226
329.97200,-3.056672226
329.97250,-3.361866634
329.97300,-3.972255449
329.97350,-3.361866634
329.97400,-1.835894595
329.97450,-0.6151169646
329.97500,-0.6151169646
329.97550,-1.22550578
329.97600,-1.530700188
329.97650,-1.835894595
329.97700,-2.141089003
329.97750,-2.141089003
329.97800,-0.6151169646
329.97850,1.216049482
329.97900,2.131632705
329.97950,1.521243889
329.98000,0.6056606662
329.98050,0.6056606662
329.98100,0.6056606662
329.98150,-0.004728149245
329.98200,-0.6151169646
329.98250,-0.3099225569
329.98300,0.6056606662
329.98350,1.826438297
329.98400,1.826438297
329.98450,1.216049482
329.98500,-0.004728149245
329.98550,-0.3099225569
329.98600,-0.3099225569
329.98650,-0.004728149245
329.98700,-0.3099225569
329.98750,-1.22550578
329.98800,-1.530700188
329.98850,-2.446283411
329.98900,-3.667061042
329.98950,-4.887838672
329.99000,-4.887838672
329.99050,-3.056672226
329.99100,-1.530700188
329.99150,-1.22550578
329.99200,-0.6151169646
329.99250,0.3004662585
329.99300,1.216049482
329.99350,0.9108550739
329.99400,-0.004728149245
329.99450,-0.9203113723
329.99500,-1.22550578
329.99550,-2.141089003
329.99600,-3.361866634
329.99650,-3.667061042
329.99700,-2.141089003
329.99750,-0.004728149245
329.99800,-0.3099225569
329.99850,-2.446283411
329.99900,-3.056672226
329.99950,-0.6151169646
330.00000,2.74202152
330.00050,3.657604743
330.00100,0.6056606662
330.00150,-3.972255449
330.00200,-8.855365973
330.00250,-11.60211564
330.00300,-10.68653242
330.00350,-5.803421896
330.00400,0.9108550739
330.00450,7.625132043
330.00500,11.59265934
330.00550,12.20304816
330.00600,9.151104082
330.00650,3.657604743
330.00700,-0.9203113723
330.00750,-3.056672226
330.00800,-2.751477819
330.00850,-1.22550578
330.00900,0.3004662585
330.00950,2.74202152
330.01000,4.573187966
330.01050,4.878382374
330.01100,2.74202152
330.01150,-0.004728149245
330.01200,-2.751477819
330.01250,-4.582644265
330.01300,-5.19303308
330.01350,-4.887838672
330.01400,-3.361866634
330.01450,-0.004728149245
330.01500,3.352410335
330.01550,5.183576782
330.01600,4.573187966
330.01650,3.352410335
330.01700,3.962799151
330.01750,4.878382374
330.01800,5.183576782
330.01850,4.878382374
330.01900,4.267993559
330.01950,3.962799151
330.02000,2.131632705
330.02050,-0.004728149245
330.02100,-1.530700188
330.02150,-1.835894595
330.02200,-0.6151169646
330.02250,1.826438297
330.02300,4.573187966
330.02350,6.404354412
330.02400,6.404354412
330.02450,5.488771189
330.02500,3.962799151
330.02550,0.9108550739
330.02600,-3.972255449
330.02650,-9.465754788
330.02700,-12.21250446
330.02750,-11.29692123
330.02800,-7.634588342
330.02850,-3.667061042
330.02900,-0.9203113723
330.02950,-0.6151169646
330.03000,-2.446283411
330.03050,-4.277449857
330.03100,-4.582644265
330.03150,-3.056672226
330.03200,-2.446283411
330.03250,-3.056672226
330.03300,-4.887838672
330.03350,-6.719005119
330.03400,-6.413810711
330.03450,-2.141089003
330.03500,4.573187966
330.03550,11.28746494
330.03600,14.33940901
330.03650,11.28746494
330.03700,3.047215928
330.03750,-6.108616303
330.03800,-13.12808768
330.03850,-13.7384765
330.03900,-8.550171565
330.03950,-1.22550578
330.04000,2.131632705
330.04050,1.216049482
330.04100,-2.141089003
330.04150,-4.582644265
330.04200,-4.277449857
330.04250,-2.751477819
330.04300,-2.446283411
330.04350,-3.361866634
330.04400,-3.361866634
330.04450,-0.6151169646
330.04500,3.047215928
330.04550,5.793965597
330.04600,6.404354412
330.04650,5.793965597
330.04700,5.183576782
330.04750,4.573187966
330.04800,2.74202152
330.04850,0.6056606662
330.04900,-1.22550578
330.04950,-1.530700188
330.05000,-0.6151169646
330.05050,-0.004728149245
330.05100,-0.004728149245
330.05150,0.3004662585
330.05200,1.521243889
330.05250,3.352410335
330.05300,4.878382374
330.05350,4.573187966
330.05400,3.352410335
330.05450,2.131632705
330.05500,1.521243889
330.05550,1.216049482
330.05600,1.216049482
330.05650,1.521243889
330.05700,1.216049482
330.05750,-0.004728149245
330.05800,-1.22550578
330.05850,-1.530700188
330.05900,-0.9203113723
330.05950,-0.004728149245
330.06000,0.6056606662
330.06050,2.131632705
330.06100,3.962799151
330.06150,5.488771189
330.06200,4.878382374
330.06250,2.74202152
330.06300,0.6056606662
330.06350,-0.9203113723
330.06400,-2.446283411
330.06450,-3.361866634
330.06500,-3.667061042
330.06550,-3.056672226
330.06600,-3.056672226
330.06650,-2.751477819
330.06700,-2.751477819
330.06750,-2.446283411
330.06800,-2.446283411
330.06850,-2.141089003
330.06900,-1.835894595
330.06950,-1.835894595
330.07000,-1.530700188
330.07050,-0.3099225569
330.07100,1.216049482
330.07150,3.047215928
330.07200,3.962799151
330.07250,3.962799151
330.07300,3.657604743
330.07350,3.352410335
330.07400,2.74202152
330.07450,1.521243889
330.07500,0.3004662585
330.07550,-0.004728149245
330.07600,-0.3099225569
330.07650,-0.3099225569
330.07700,-0.004728149245
330.07750,0.3004662585
330.07800,0.9108550739
330.07850,0.9108550739
330.07900,1.216049482
330.07950,1.521243889
330.08000,1.521243889
330.08050,0.6056606662
330.08100,-0.004728149245
330.08150,0.3004662585
330.08200,1.521243889
330.08250,2.131632705
330.08300,1.521243889
330.08350,1.521243889
330.08400,2.131632705
330.08450,1.826438297
330.08500,0.6056606662
330.08550,0.9108550739
330.08600,2.436827112
330.08650,3.352410335
330.08700,2.436827112
330.08750,1.521243889
330.08800,2.131632705
330.08850,3.047215928
330.08900,2.436827112
330.08950,1.216049482
330.09000,2.131632705
330.09050,4.267993559
330.09100,5.183576782
330.09150,4.267993559
330.09200,3.352410335
330.09250,3.047215928
330.09300,2.436827112
330.09350,0.6056606662
330.09400,-0.3099225569
330.09450,-0.004728149245
330.09500,-0.004728149245
330.09550,-0.6151169646
330.09600,-1.530700188
330.09650,-1.835894595
330.09700,-1.835894595
330.09750,-1.835894595
330.09800,-1.530700188
330.09850,-0.9203113723
330.09900,-0.9203113723
330.09950,-1.22550578
330.10000,-1.835894595
330.10050,-0.6151169646
330.10100,1.521243889
330.10150,3.352410335
330.10200,2.436827112
330.10250,-0.3099225569
330.10300,-2.446283411
330.10350,-1.530700188
330.10400,1.826438297
330.10450,4.878382374
330.10500,5.488771189
330.10550,3.352410335
330.10600,0.6056606662
330.10650,-2.141089003
330.10700,-4.887838672
330.10750,-6.108616303
330.10800,-5.803421896
330.10850,-3.972255449
330.10900,-2.141089003
330.10950,-0.6151169646
330.11000,-0.3099225569
330.11050,-0.9203113723
330.11100,-1.530700188
330.11150,-1.530700188
330.11200,-1.22550578
330.11250,-1.835894595
330.11300,-2.141089003
330.11350,-0.3099225569
330.11400,3.657604743
330.11450,7.625132043
330.11500,10.0666873
330.11550,10.0666873
330.11600,8.540715266
330.11650,5.183576782
330.11700,1.826438297
330.11750,-0.004728149245
330.11800,-0.6151169646
330.11850,-1.22550578
330.11900,-2.446283411
330.11950,-3.361866634
330.12000,-3.667061042
330.12050,-5.19303308
330.12100,-6.719005119
330.12150,-6.413810711
330.12200,-3.667061042
330.12250,-0.9203113723
330.12300,-1.530700188
330.12350,-3.361866634
330.12400,-3.972255449
330.12450,-4.277449857
330.12500,-5.803421896
330.12550,-6.108616303
330.12600,-1.22550578
330.12650,6.70954882
330.12700,11.89785375
330.12750,10.0666873
330.12800,5.183576782
330.12850,2.131632705
330.12900,1.216049482
330.12950,-0.004728149245
330.13000,-1.530700188
330.13050,-2.446283411
330.13100,-3.056672226
330.13150,-4.582644265
330.13200,-6.719005119
330.13250,-7.024199526
330.13300,-5.19303308
330.13350,-2.141089003
330.13400,-0.004728149245
330.13450,2.131632705
330.13500,2.74202152
330.13550,2.74202152
330.13600,2.436827112
330.13650,2.131632705
330.13700,1.521243889
330.13750,0.9108550739
330.13800,0.9108550739
330.13850,1.826438297
330.13900,0.9108550739
330.13950,-1.22550578
330.14000,-1.835894595
330.14050,0.6056606662
330.14100,4.573187966
330.14150,5.488771189
330.14200,4.267993559
330.14250,3.352410335
330.14300,3.352410335
330.14350,2.436827112
330.14400,0.6056606662
330.14450,-0.3099225569
330.14500,-0.6151169646
330.14550,-0.9203113723
330.14600,-1.835894595
330.14650,-2.141089003
330.14700,-2.141089003
330.14750,-2.446283411
330.14800,-2.446283411
330.14850,-0.9203113723
330.14900,0.6056606662
330.14950,0.6056606662
330.15000,-0.3099225569
330.15050,-0.004728149245
330.15100,1.521243889
330.15150,1.216049482
330.15200,-0.3099225569
330.15250,-0.004728149245
330.15300,1.521243889
330.15350,-0.004728149245
330.15400,-7.939782749
330.15450,-16.18003176
330.15500,-16.79042057
330.15550,-9.465754788
330.15600,-0.9203113723
330.15650,3.657604743
330.15700,4.267993559
330.15750,2.74202152
330.15800,0.3004662585
330.15850,-1.530700188
330.15900,-2.446283411
330.15950,-1.530700188
330.16000,-0.3099225569
330.16050,0.6056606662
330.16100,0.6056606662
330.16150,-0.6151169646
330.16200,-2.751477819
330.16250,-3.361866634
330.16300,-1.835894595
330.16350,0.3004662585
330.16400,0.9108550739
330.16450,-0.9203113723
330.16500,-3.667061042
330.16550,-4.887838672
330.16600,-3.667061042
330.16650,-1.22550578
330.16700,-0.004728149245
330.16750,-0.004728149245
330.16800,0.6056606662
330.16850,2.74202152
330.16900,3.657604743
330.16950,0.3004662585
330.17000,-5.803421896
330.17050,-9.770949196
330.17100,-7.939782749
330.17150,-3.667061042
330.17200,-1.835894595
330.17250,-2.751477819
330.17300,-3.361866634
330.17350,-2.751477819
330.17400,-2.751477819
330.17450,-3.667061042
330.17500,-3.361866634
330.17550,-0.9203113723
330.17600,1.521243889
330.17650,2.436827112
330.17700,1.521243889
330.17750,-0.004728149245
330.17800,-1.22550578
330.17850,-0.6151169646
330.17900,1.521243889
330.17950,2.131632705
330.18000,-0.3099225569
330.18050,-3.667061042
330.18100,-3.056672226
330.18150,1.216049482
330.18200,4.573187966
330.18250,4.573187966
330.18300,3.352410335
330.18350,1.521243889
330.18400,-3.056672226
330.18450,-10.38133801
330.18500,-14.65405972
330.18550,-10.38133801
330.18600,-1.22550578
330.18650,4.267993559
330.18700,3.657604743
330.18750,0.9108550739
330.18800,0.3004662585
330.18850,0.9108550739
330.18900,0.9108550739
330.18950,0.6056606662
330.19000,0.6056606662
330.19050,0.3004662585
330.19100,-0.6151169646
330.19150,-1.530700188
330.19200,-0.9203113723
330.19250,-0.004728149245
330.19300,0.3004662585
330.19350,-0.004728149245
330.19400,-0.004728149245
330.19450,-0.004728149245
330.19500,-1.22550578
330.19550,-2.446283411
330.19600,-1.530700188
330.19650,2.436827112
330.19700,7.319937636
330.19750,10.67707612
330.19800,11.59265934
330.19850,9.45629849
330.19900,5.488771189
330.19950,0.9108550739
330.20000,-2.751477819
330.20050,-5.19303308
330.20100,-6.108616303
330.20150,-5.498227488
330.20200,-2.751477819
330.20250,-0.004728149245
330.20300,0.9108550739
330.20350,-0.3099225569
330.20400,-2.141089003
330.20450,-2.141089003
330.20500,-0.6151169646
330.20550,0.3004662585
330.20600,0.3004662585
330.20650,-0.004728149245
330.20700,-0.004728149245
330.20750,0.6056606662
330.20800,0.6056606662
330.20850,-1.530700188
330.20900,-4.277449857
330.20950,-3.972255449
330.21000,-0.6151169646
330.21050,1.521243889
330.21100,0.9108550739
330.21150,-0.004728149245
330.21200,2.436827112
330.21250,6.70954882
330.21300,8.235520859
330.21350,6.404354412
330.21400,3.657604743
330.21450,1.826438297
330.21500,-0.004728149245
330.21550,-1.835894595
330.21600,-3.667061042
330.21650,-4.582644265
330.21700,-4.277449857
330.21750,-3.056672226
330.21800,-0.004728149245
330.21850,3.047215928
330.21900,4.267993559
330.21950,4.878382374
330.22000,5.793965597
330.22050,7.319937636
330.22100,6.70954882
330.22150,4.573187966
330.22200,2.74202152
330.22250,2.74202152
330.22300,3.352410335
330.22350,3.047215928
330.22400,2.131632705
330.22450,1.521243889
330.22500,1.216049482
330.22550,1.216049482
330.22600,1.826438297
330.22650,2.74202152
330.22700,2.436827112
330.22750,1.826438297
330.22800,1.521243889
330.22850,1.521243889
330.22900,0.3004662585
330.22950,-1.22550578
330.23000,-1.22550578
330.23050,-0.004728149245
330.23100,0.9108550739
330.23150,0.6056606662
330.23200,1.521243889
330.23250,4.267993559
330.23300,6.099160005
330.23350,4.878382374
330.23400,3.047215928
330.23450,2.74202152
330.23500,2.74202152
330.23550,1.216049482
330.23600,-0.3099225569
330.23650,-0.004728149245
330.23700,1.216049482
330.23750,1.216049482
330.23800,-0.004728149245
330.23850,-0.9203113723
330.23900,-0.9203113723
330.23950,-0.9203113723
330.24000,-2.141089003
330.24050,-3.056672226
330.24100,-2.446283411
330.24150,-1.530700188
330.24200,-1.22550578
330.24250,-0.6151169646
330.24300,-0.004728149245
330.24350,-0.004728149245
330.24400,-1.530700188
330.24450,-2.141089003
330.24500,-0.9203113723
330.24550,0.9108550739
330.24600,1.826438297
330.24650,1.521243889
330.24700,0.6056606662
330.24750,-0.004728149245
330.24800,-0.9203113723
330.24850,-1.530700188
330.24900,-1.22550578
330.24950,-0.004728149245
330.25000,0.3004662585
330.25050,-0.3099225569
330.25100,-1.835894595
330.25150,-3.361866634
330.25200,-3.972255449
330.25250,-3.667061042
330.25300,-3.361866634
330.25350,-3.361866634
330.25400,-3.361866634
330.25450,-3.667061042
330.25500,-3.972255449
330.25550,-3.361866634
330.25600,-2.141089003
330.25650,-0.9203113723
330.25700,-0.3099225569
330.25750,-0.004728149245
330.25800,0.3004662585
330.25850,0.9108550739
330.25900,-0.004728149245
330.25950,-2.141089003
330.26000,-4.277449857
330.26050,-6.108616303
330.26100,-7.634588342
330.26150,-8.855365973
330.26200,-7.024199526
330.26250,-1.22550578
330.26300,5.793965597
330.26350,10.0666873
330.26400,8.540715266
330.26450,3.962799151
330.26500,-0.6151169646
330.26550,-3.667061042
330.26600,-4.277449857
330.26650,-2.446283411
330.26700,-0.004728149245
330.26750,1.521243889
330.26800,1.521243889
330.26850,2.131632705
330.26900,4.878382374
330.26950,8.845909674
330.27000,11.59265934
330.27050,10.98227053
330.27100,8.540715266
330.27150,7.014743228
330.27200,6.70954882
330.27250,6.099160005
330.27300,3.962799151
330.27350,0.9108550739
330.27400,-0.004728149245
330.27450,-0.004728149245
330.27500,-0.3099225569
330.27550,-2.446283411
330.27600,-4.277449857
330.27650,-3.667061042
330.27700,-1.835894595
330.27750,-1.22550578
330.27800,-2.751477819
330.27850,-4.582644265
330.27900,-5.498227488
330.27950,-5.498227488
330.28000,-3.972255449
330.28050,-1.530700188
330.28100,-0.004728149245
330.28150,0.6056606662
330.28200,1.826438297
330.28250,4.878382374
330.28300,7.930326451
330.28350,7.930326451
330.28400,5.488771189
330.28450,3.047215928
330.28500,1.826438297
330.28550,0.9108550739
330.28600,-0.004728149245
330.28650,-0.004728149245
330.28700,1.521243889
330.28750,2.436827112
330.28800,0.9108550739
330.28850,-1.530700188
330.28900,-3.056672226
330.28950,-3.361866634
330.29000,-3.056672226
330.29050,-2.141089003
330.29100,-1.22550578
330.29150,-0.6151169646
330.29200,-0.9203113723
330.29250,-1.835894595
330.29300,-1.835894595
330.29350,-1.530700188
330.29400,-1.835894595
330.29450,-3.056672226
330.29500,-3.361866634
330.29550,-2.446283411
330.29600,-0.9203113723
330.29650,-0.004728149245
330.29700,0.9108550739
330.29750,0.9108550739
330.29800,0.6056606662
330.29850,0.6056606662
330.29900,0.6056606662
330.29950,0.9108550739
330.30000,1.826438297
330.30050,3.657604743
330.30100,5.793965597
330.30150,5.488771189
330.30200,4.267993559
330.30250,5.488771189
330.30300,9.761492897
330.30350,10.37188171
330.30400,2.131632705
330.30450,-10.99172683
330.30500,-18.62158702
330.30550,-16.18003176
330.30600,-8.550171565
330.30650,-2.751477819
330.30700,-0.004728149245
330.30750,2.436827112
330.30800,4.878382374
330.30850,4.267993559
330.30900,-0.3099225569
330.30950,-5.803421896
330.31000,-8.244977157
330.31050,-7.329393934
330.31100,-5.498227488
330.31150,-4.582644265
330.31200,-4.887838672
330.31250,-5.19303308
330.31300,-4.887838672
330.31350,-3.972255449
330.31400,-3.361866634
330.31450,-2.751477819
330.31500,-1.530700188
330.31550,-0.3099225569
330.31600,-0.004728149245
330.31650,-0.3099225569
330.31700,-0.004728149245
330.31750,0.9108550739
330.31800,2.436827112
330.31850,2.74202152
330.31900,3.047215928
330.31950,3.352410335
330.32000,3.352410335
330.32050,2.131632705
330.32100,1.216049482
330.32150,1.521243889
330.32200,2.74202152
330.32250,3.047215928
330.32300,2.131632705
330.32350,1.216049482
330.32400,1.216049482
330.32450,2.131632705
330.32500,3.047215928
330.32550,3.352410335
330.32600,3.962799151
330.32650,4.878382374
330.32700,5.183576782
330.32750,4.573187966
330.32800,3.657604743
330.32850,3.352410335
330.32900,3.962799151
330.32950,4.573187966
330.33000,4.573187966
330.33050,3.962799151
330.33100,1.826438297
330.33150,-0.6151169646
330.33200,-3.667061042
330.33250,-4.582644265
330.33300,-3.056672226
330.33350,-0.004728149245
330.33400,1.826438297
330.33450,1.826438297
330.33500,-0.004728149245
330.33550,-1.22550578
330.33600,-1.835894595
330.33650,-1.22550578
330.33700,-0.6151169646
330.33750,-0.004728149245
330.33800,-0.004728149245
330.33850,-0.004728149245
330.33900,-0.6151169646
330.33950,-2.446283411
330.34000,-5.19303308
330.34050,-7.634588342
330.34100,-8.550171565
330.34150,-7.024199526
330.34200,-3.972255449
330.34250,-0.6151169646
330.34300,0.9108550739
330.34350,0.9108550739
330.34400,-0.004728149245
330.34450,-1.835894595
330.34500,-3.361866634
330.34550,-2.751477819
330.34600,0.9108550739
330.34650,4.573187966
330.34700,4.267993559
330.34750,1.216049482
330.34800,-0.004728149245
330.34850,2.131632705
330.34900,5.488771189
330.34950,8.540715266
330.35000,12.81343697
330.35050,16.78096427
330.35100,15.56018664
330.35150,7.319937636
330.35200,-1.22550578
330.35250,-3.056672226
330.35300,0.3004662585
330.35350,1.216049482
330.35400,-1.835894595
330.35450,-4.277449857
330.35500,-2.141089003
330.35550,0.3004662585
330.35600,0.3004662585
330.35650,-2.446283411
330.35700,-4.582644265
330.35750,-4.887838672
330.35800,-3.361866634
330.35850,-0.9203113723
330.35900,1.216049482
330.35950,1.521243889
330.36000,0.3004662585
330.36050,0.3004662585
330.36100,2.74202152
330.36150,5.183576782
330.36200,4.878382374
330.36250,2.436827112
330.36300,0.6056606662
330.36350,-0.3099225569
330.36400,-1.835894595
330.36450,-2.751477819
330.36500,-2.141089003
330.36550,-0.3099225569
330.36600,-0.3099225569
330.36650,-1.835894595
330.36700,-3.972255449
330.36750,-4.277449857
330.36800,-3.056672226
330.36850,-1.530700188
330.36900,-0.6151169646
330.36950,-0.9203113723
330.37000,-2.446283411
330.37050,-3.361866634
330.37100,-2.751477819
330.37150,-1.530700188
330.37200,-0.6151169646
330.37250,-0.3099225569
330.37300,-0.004728149245
330.37350,-0.6151169646
330.37400,-1.835894595
330.37450,-3.361866634
330.37500,-3.972255449
330.37550,-4.277449857
330.37600,-5.19303308
330.37650,-5.803421896
330.37700,-3.972255449
330.37750,-0.9203113723
330.37800,0.6056606662
330.37850,0.3004662585
330.37900,-0.3099225569
330.37950,-0.004728149245
330.38000,0.3004662585
330.38050,-0.004728149245
330.38100,-0.6151169646
330.38150,-1.530700188
330.38200,-2.446283411
330.38250,-3.361866634
330.38300,-4.277449857
330.38350,-5.498227488
330.38400,-6.413810711
330.38450,-6.413810711
330.38500,-5.19303308
330.38550,-3.667061042
330.38600,-2.751477819
330.38650,-1.530700188
330.38700,-0.004728149245
330.38750,1.216049482
330.38800,1.216049482
330.38850,0.3004662585
330.38900,-0.004728149245
330.38950,-0.3099225569
330.39000,-0.6151169646
330.39050,-1.22550578
330.39100,-1.835894595
330.39150,-2.141089003
330.39200,-2.141089003
330.39250,-1.22550578
330.39300,0.6056606662
330.39350,2.436827112
330.39400,2.74202152
330.39450,1.216049482
330.39500,-0.004728149245
330.39550,-0.6151169646
330.39600,-0.6151169646
330.39650,-0.6151169646
330.39700,-0.004728149245
330.39750,1.216049482
330.39800,2.74202152
330.39850,3.657604743
330.39900,3.657604743
330.39950,3.352410335
330.40000,2.436827112
330.40050,1.521243889
330.40100,1.826438297
330.40150,2.131632705
330.40200,1.826438297
330.40250,-0.004728149245
330.40300,-1.530700188
330.40350,-1.22550578
330.40400,-0.004728149245
330.40450,-0.004728149245
330.40500,-2.446283411
330.40550,-3.667061042
330.40600,-2.446283411
330.40650,-0.3099225569
330.40700,-0.004728149245
330.40750,-0.3099225569
330.40800,-0.3099225569
330.40850,-0.004728149245
330.40900,-0.3099225569
330.40950,-1.530700188
330.41000,-1.835894595
330.41050,-0.6151169646
330.41100,0.6056606662
330.41150,0.3004662585
330.41200,-0.004728149245
330.41250,0.3004662585
330.41300,1.216049482
330.41350,0.9108550739
330.41400,-0.004728149245
330.41450,-1.22550578
330.41500,-1.835894595
330.41550,-1.835894595
330.41600,-0.9203113723
330.41650,0.6056606662
330.41700,1.521243889
330.41750,0.9108550739
330.41800,-1.22550578
330.41850,-3.972255449
330.41900,-5.19303308
330.41950,-3.972255449
330.42000,-0.6151169646
330.42050,2.74202152
330.42100,3.962799151
330.42150,2.74202152
330.42200,0.9108550739
330.42250,0.9108550739
330.42300,2.74202152
330.42350,4.267993559
330.42400,4.267993559
330.42450,3.047215928
330.42500,2.436827112
330.42550,2.74202152
330.42600,3.352410335
330.42650,3.047215928
330.42700,2.131632705
330.42750,0.6056606662
330.42800,-1.835894595
330.42850,-5.19303308
330.42900,-7.024199526
330.42950,-7.939782749
330.43000,-8.855365973
330.43050,-9.770949196
330.43100,-6.413810711
330.43150,2.74202152
330.43200,14.03421461
330.43250,20.13810276
330.43300,18.30693631
330.43350,12.20304816
330.43400,7.319937636
330.43450,4.267993559
330.43500,0.6056606662
330.43550,-3.056672226
330.43600,-5.803421896
330.43650,-4.277449857
330.43700,0.3004662585
330.43750,5.183576782
330.43800,6.404354412
330.43850,2.74202152
330.43900,-1.22550578
330.43950,-2.141089003
330.44000,0.9108550739
330.44050,6.70954882
330.44100,12.50824257
330.44150,18.30693631
330.44200,19.83290835
330.44250,12.50824257
330.44300,-2.446283411
330.44350,-15.87483735
330.44400,-18.31639261
330.44450,-10.38133801
330.44500,-0.9203113723
330.44550,3.657604743
330.44600,4.878382374
330.44650,5.793965597
330.44700,6.404354412
330.44750,5.183576782
330.44800,2.131632705
330.44850,-1.22550578
330.44900,-3.056672226
330.44950,-3.056672226
330.45000,-2.751477819
330.45050,-3.972255449
330.45100,-7.634588342
330.45150,-11.90731005
330.45200,-12.51769887
330.45250,-9.465754788
330.45300,-5.498227488
330.45350,-3.972255449
330.45400,-3.972255449
330.45450,-2.751477819
330.45500,-0.3099225569
330.45550,0.9108550739
330.45600,0.6056606662
330.45650,0.3004662585
330.45700,0.6056606662
330.45750,0.3004662585
330.45800,-0.6151169646
330.45850,-1.22550578
330.45900,-0.9203113723
330.45950,-0.9203113723
330.46000,-2.446283411
330.46050,-3.667061042
330.46100,-2.446283411
330.46150,-0.6151169646
330.46200,-0.004728149245
330.46250,-0.9203113723
330.46300,-1.22550578
330.46350,-0.3099225569
330.46400,0.3004662585
330.46450,0.9108550739
330.46500,1.521243889
330.46550,1.521243889
330.46600,1.216049482
330.46650,0.9108550739
330.46700,0.9108550739
330.46750,0.9108550739
330.46800,-0.004728149245
330.46850,-0.9203113723
330.46900,-0.6151169646
330.46950,0.3004662585
330.47000,0.6056606662
330.47050,-0.3099225569
330.47100,-2.141089003
330.47150,-2.751477819
330.47200,-2.446283411
330.47250,-1.530700188
330.47300,-1.22550578
330.47350,-1.530700188
330.47400,-2.141089003
330.47450,-2.141089003
330.47500,-1.835894595
330.47550,-1.835894595
330.47600,-2.446283411
330.47650,-2.446283411
330.47700,-1.835894595
330.47750,-0.6151169646
330.47800,-0.3099225569
330.47850,-0.6151169646
330.47900,-1.835894595
330.47950,-2.751477819
330.48000,-2.446283411
330.48050,-0.9203113723
330.48100,1.216049482
330.48150,2.74202152
330.48200,2.436827112
330.48250,1.216049482
330.48300,0.9108550739
330.48350,1.521243889
330.48400,2.131632705
330.48450,2.74202152
330.48500,3.047215928
330.48550,3.657604743
330.48600,3.657604743
330.48650,1.521243889
330.48700,-1.22550578
330.48750,-3.361866634
330.48800,-3.361866634
330.48850,-3.056672226
330.48900,-3.972255449
330.48950,-4.582644265
330.49000,-3.667061042
330.49050,-0.9203113723
330.49100,2.131632705
330.49150,4.878382374
330.49200,5.488771189
330.49250,3.962799151
330.49300,1.216049482
330.49350,-0.3099225569
330.49400,-0.3099225569
330.49450,-0.004728149245
330.49500,-0.6151169646
330.49550,-1.530700188
330.49600,-0.3099225569
330.49650,2.436827112
330.49700,3.657604743
330.49750,1.216049482
330.49800,-3.056672226
330.49850,-6.108616303
330.49900,-5.19303308
330.49950,-0.004728149245
330.50000,7.625132043
330.50050,14.64460342
330.50100,17.08615868
330.50150,14.64460342
330.50200,10.98227053
330.50250,8.845909674
330.50300,7.625132043
330.50350,5.793965597
330.50400,3.962799151
330.50450,3.962799151
330.50500,5.488771189
330.50550,6.70954882
330.50600,7.319937636
330.50650,7.319937636
330.50700,6.70954882
330.50750,4.573187966
330.50800,2.131632705
330.50850,2.131632705
330.50900,3.657604743
330.50950,2.74202152
330.51000,-1.22550578
330.51050,-4.887838672
330.51100,-4.887838672
330.51150,-2.751477819
330.51200,-1.530700188
330.51250,-1.530700188
330.51300,-0.9203113723
330.51350,-0.004728149245
330.51400,-0.004728149245
330.51450,-1.22550578
330.51500,-2.446283411
330.51550,-2.446283411
330.51600,-2.446283411
330.51650,-2.751477819
330.51700,-3.361866634
330.51750,-4.582644265
330.51800,-6.108616303
330.51850,-7.939782749
330.51900,-8.244977157
330.51950,-7.634588342
330.52000,-6.719005119
330.52050,-4.887838672
330.52100,-2.141089003
330.52150,1.521243889
330.52200,4.878382374
330.52250,5.488771189
330.52300,2.74202152
330.52350,-0.9203113723
330.52400,-2.446283411
330.52450,-0.004728149245
330.52500,4.267993559
330.52550,5.793965597
330.52600,3.047215928
330.52650,-0.3099225569
330.52700,-1.22550578
330.52750,-0.6151169646
330.52800,-0.3099225569
330.52850,-0.6151169646
330.52900,0.9108550739
330.52950,4.267993559
330.53000,5.183576782
330.53050,2.74202152
330.53100,-0.6151169646
330.53150,-2.141089003
330.53200,-1.835894595
330.53250,-0.6151169646
330.53300,1.521243889
330.53350,4.267993559
330.53400,4.573187966
330.53450,2.436827112
330.53500,-0.004728149245
330.53550,-0.6151169646
330.53600,-0.004728149245
330.53650,-0.004728149245
330.53700,-0.9203113723
330.53750,-2.141089003
330.53800,-3.361866634
330.53850,-3.972255449
330.53900,-3.056672226
330.53950,-1.22550578
330.54000,-0.3099225569
330.54050,-0.9203113723
330.54100,-2.446283411
330.54150,-3.361866634
330.54200,-3.972255449
330.54250,-3.667061042
330.54300,-3.056672226
330.54350,-2.141089003
330.54400,-1.530700188
330.54450,-0.9203113723
330.54500,-0.9203113723
330.54550,-0.9203113723
330.54600,-1.835894595
330.54650,-3.056672226
330.54700,-3.667061042
330.54750,-3.056672226
330.54800,-1.22550578
330.54850,0.9108550739
330.54900,2.436827112
330.54950,1.826438297
330.55000,-0.004728149245
330.55050,-1.22550578
330.55100,-0.9203113723
330.55150,-0.6151169646
330.55200,-1.530700188
330.55250,-2.446283411
330.55300,-2.141089003
330.55350,-0.6151169646
330.55400,-0.3099225569
330.55450,-1.22550578
330.55500,-3.056672226
330.55550,-4.582644265
330.55600,-4.887838672
330.55650,-3.361866634
330.55700,-0.004728149245
330.55750,2.131632705
330.55800,2.131632705
330.55850,0.3004662585
330.55900,-0.9203113723
330.55950,-2.446283411
330.56000,-3.667061042
330.56050,-3.361866634
330.56100,-0.3099225569
330.56150,3.657604743
330.56200,5.793965597
330.56250,4.573187966
330.56300,3.047215928
330.56350,1.826438297
330.56400,1.216049482
330.56450,0.3004662585
330.56500,-1.22550578
330.56550,-3.056672226
330.56600,-4.277449857
330.56650,-4.582644265
330.56700,-3.972255449
330.56750,-3.361866634
330.56800,-3.361866634
330.56850,-3.056672226
330.56900,-1.530700188
330.56950,0.3004662585
330.57000,1.216049482
330.57050,0.9108550739
330.57100,-0.004728149245
330.57150,-1.530700188
330.57200,-3.667061042
330.57250,-4.582644265
330.57300,-3.972255449
330.57350,-2.446283411
330.57400,-3.056672226
330.57450,-5.19303308
330.57500,-6.413810711
330.57550,-5.498227488
330.57600,-3.361866634
330.57650,-1.530700188
330.57700,-0.004728149245
330.57750,1.521243889
330.57800,2.436827112
330.57850,3.047215928
330.57900,3.962799151
330.57950,5.488771189
330.58000,6.404354412
330.58050,4.878382374
330.58100,2.74202152
330.58150,1.521243889
330.58200,1.216049482
330.58250,0.6056606662
330.58300,-0.3099225569
330.58350,-0.004728149245
330.58400,0.3004662585
330.58450,-0.6151169646
330.58500,-3.056672226
330.58550,-3.667061042
330.58600,-0.3099225569
330.58650,2.74202152
330.58700,3.352410335
330.58750,1.521243889
330.58800,-0.004728149245
330.58850,-0.6151169646
330.58900,-1.835894595
330.58950,-3.972255449
330.59000,-6.413810711
330.59050,-6.413810711
330.59100,-3.361866634
330.59150,1.826438297
330.59200,7.014743228
330.59250,9.151104082
330.59300,8.540715266
330.59350,7.014743228
330.59400,6.70954882
330.59450,6.404354412
330.59500,5.183576782
330.59550,3.352410335
330.59600,1.521243889
330.59650,0.3004662585
330.59700,0.9108550739
330.59750,2.74202152
330.59800,4.573187966
330.59850,5.183576782
330.59900,5.488771189
330.59950,7.014743228
330.60000,7.319937636
330.60050,2.74202152
330.60100,-5.803421896
330.60150,-13.7384765
330.60200,-15.56964294
330.60250,-11.29692123
330.60300,-6.108616303
330.60350,-4.277449857
330.60400,-8.244977157
330.60450,-16.18003176
330.60500,-21.36833669
330.60550,-18.0111982
330.60600,-8.855365973
330.60650,-0.6151169646
330.60700,2.74202152
330.60750,5.488771189
330.60800,10.0666873
330.60850,12.81343697
330.60900,10.37188171
330.60950,6.099160005
330.61000,5.793965597
330.61050,8.845909674
330.61100,9.151104082
330.61150,5.793965597
330.61200,3.352410335
330.61250,5.183576782
330.61300,8.235520859
330.61350,7.930326451
330.61400,4.267993559
330.61450,1.826438297
330.61500,1.216049482
330.61550,0.9108550739
330.61600,-0.3099225569
330.61650,-1.530700188
330.61700,-0.6151169646
330.61750,1.826438297
330.61800,4.878382374
330.61850,5.793965597
330.61900,4.573187966
330.61950,2.74202152
330.62000,1.826438297
330.62050,1.521243889
330.62100,2.131632705
330.62150,3.657604743
330.62200,5.488771189
330.62250,6.099160005
330.62300,3.962799151
330.62350,-0.004728149245
330.62400,-2.751477819
330.62450,-2.446283411
330.62500,-0.6151169646
330.62550,-0.004728149245
330.62600,-0.9203113723
330.62650,-2.446283411
330.62700,-3.361866634
330.62750,-3.667061042
330.62800,-3.056672226
330.62850,-2.446283411
330.62900,-2.446283411
330.62950,-2.446283411
330.63000,-1.530700188
330.63050,-0.9203113723
330.63100,-1.835894595
330.63150,-4.887838672
330.63200,-7.939782749
330.63250,-8.855365973
330.63300,-8.550171565
330.63350,-7.024199526
330.63400,-2.141089003
330.63450,5.183576782
330.63500,12.50824257
330.63550,16.47576987
330.63600,16.17057546
330.63650,13.7290202
330.63700,10.0666873
330.63750,7.014743228
330.63800,5.183576782
330.63850,5.488771189
330.63900,5.183576782
330.63950,1.826438297
330.64000,-2.141089003
330.64050,-3.972255449
330.64100,-2.446283411
330.64150,-0.004728149245
330.64200,1.216049482
330.64250,1.216049482
330.64300,-0.3099225569
330.64350,-1.835894595
330.64400,-2.141089003
330.64450,-1.22550578
330.64500,-0.6151169646
330.64550,-1.22550578
330.64600,-2.141089003
330.64650,-1.530700188
330.64700,-1.22550578
330.64750,-2.751477819
330.64800,-4.277449857
330.64850,-4.277449857
330.64900,-3.667061042
330.64950,-4.582644265
330.65000,-6.413810711
330.65050,-6.108616303
330.65100,-3.361866634
330.65150,-0.9203113723
330.65200,-0.004728149245
330.65250,0.3004662585
330.65300,0.9108550739
330.65350,0.9108550739
330.65400,-0.004728149245
330.65450,-0.6151169646
330.65500,-0.9203113723
330.65550,-0.9203113723
330.65600,-0.9203113723
330.65650,-0.6151169646
330.65700,-0.004728149245
330.65750,-0.004728149245
330.65800,-0.9203113723
330.65850,-1.530700188
330.65900,-1.22550578
330.65950,-0.3099225569
330.66000,-0.004728149245
330.66050,-0.004728149245
330.66100,-0.004728149245
330.66150,-0.6151169646
330.66200,-1.835894595
330.66250,-1.835894595
330.66300,-0.6151169646
330.66350,-0.004728149245
330.66400,-1.22550578
330.66450,-3.056672226
330.66500,-4.277449857
330.66550,-5.19303308
330.66600,-6.413810711
330.66650,-7.329393934
330.66700,-6.108616303
330.66750,-3.972255449
330.66800,-3.361866634
330.66850,-3.972255449
330.66900,-3.972255449
330.66950,-2.446283411
330.67000,-0.3099225569
330.67050,0.3004662585
330.67100,-0.004728149245
330.67150,-0.6151169646
330.67200,-1.530700188
330.67250,-1.22550578
330.67300,-0.3099225569
330.67350,-0.004728149245
330.67400,-0.3099225569
330.67450,-1.835894595
330.67500,-2.446283411
330.67550,-1.835894595
330.67600,-1.22550578
330.67650,-0.6151169646
330.67700,-0.004728149245
330.67750,-0.004728149245
330.67800,-0.6151169646
330.67850,-1.22550578
330.67900,-0.6151169646
330.67950,-0.004728149245
330.68000,-1.22550578
330.68050,-2.141089003
330.68100,-1.22550578
330.68150,1.826438297
330.68200,3.962799151
330.68250,3.047215928
330.68300,-0.004728149245
330.68350,-3.361866634
330.68400,-4.582644265
330.68450,-3.056672226
330.68500,0.3004662585
330.68550,3.047215928
330.68600,2.131632705
330.68650,-0.9203113723
330.68700,-1.835894595
330.68750,1.826438297
330.68800,7.014743228
330.68850,8.235520859
330.68900,6.099160005
330.68950,4.573187966
330.69000,4.878382374
330.69050,3.962799151
330.69100,0.3004662585
330.69150,-1.835894595
330.69200,0.9108550739
330.69250,6.70954882
330.69300,7.319937636
330.69350,-0.9203113723
330.69400,-13.7384765
330.69450,-21.36833669
330.69500,-18.31639261
330.69550,-7.634588342
330.69600,2.436827112
330.69650,6.099160005
330.69700,2.74202152
330.69750,-1.835894595
330.69800,-2.446283411
330.69850,1.216049482
330.69900,5.183576782
330.69950,4.267993559
330.70000,0.9108550739
330.70050,1.216049482
330.70100,6.70954882
330.70150,11.89785375
330.70200,11.89785375
330.70250,8.540715266
330.70300,7.930326451
330.70350,10.67707612
330.70400,12.50824257
330.70450,10.67707612
330.70500,8.235520859
330.70550,8.540715266
330.70600,9.151104082
330.70650,5.488771189
330.70700,-1.530700188
330.70750,-7.329393934
330.70800,-8.550171565
330.70850,-7.634588342
330.70900,-7.024199526
330.70950,-6.413810711
330.71000,-5.19303308
330.71050,-3.972255449
330.71100,-3.667061042
330.71150,-3.972255449
330.71200,-4.887838672
330.71250,-6.719005119
330.71300,-9.16056038
330.71350,-10.38133801
330.71400,-10.0761436
330.71450,-9.770949196
330.71500,-9.770949196
330.71550,-8.244977157
330.71600,-5.19303308
330.71650,-3.972255449
330.71700,-6.413810711
330.71750,-9.465754788
330.71800,-7.939782749
330.71850,-1.835894595
330.71900,4.267993559
330.71950,7.625132043
330.72000,8.235520859
330.72050,8.845909674
330.72100,8.845909674
330.72150,7.625132043
330.72200,5.793965597
330.72250,4.573187966
330.72300,3.657604743
330.72350,2.131632705
330.72400,1.216049482
330.72450,1.826438297
330.72500,4.267993559
330.72550,6.099160005
330.72600,6.404354412
330.72650,5.488771189
330.72700,5.183576782
330.72750,5.488771189
330.72800,5.488771189
330.72850,4.573187966
330.72900,3.962799151
330.72950,4.573187966
330.73000,6.099160005
330.73050,7.014743228
330.73100,6.70954882
330.73150,5.488771189
330.73200,4.878382374
330.73250,4.573187966
330.73300,3.047215928
330.73350,0.9108550739
330.73400,-0.004728149245
330.73450,-0.3099225569
330.73500,-0.6151169646
330.73550,-1.835894595
330.73600,-2.446283411
330.73650,-1.22550578
330.73700,0.6056606662
330.73750,2.131632705
330.73800,2.131632705
330.73850,1.826438297
330.73900,1.521243889
330.73950,1.216049482
330.74000,1.216049482
330.74050,0.9108550739
330.74100,-0.004728149245
330.74150,-0.9203113723
330.74200,-1.835894595
330.74250,-2.446283411
330.74300,-2.751477819
330.74350,-3.056672226
330.74400,-2.446283411
330.74450,-1.22550578
330.74500,-0.6151169646
330.74550,-0.9203113723
330.74600,-1.22550578
330.74650,-1.835894595
330.74700,-2.751477819
330.74750,-3.667061042
330.74800,-3.667061042
330.74850,-3.056672226
330.74900,-3.056672226
330.74950,-3.972255449
330.75000,-3.667061042
330.75050,-2.751477819
330.75100,-2.141089003
330.75150,-2.446283411
330.75200,-3.056672226
330.75250,-2.751477819
330.75300,-2.751477819
330.75350,-3.056672226
330.75400,-2.141089003
330.75450,-0.6151169646
330.75500,0.3004662585
330.75550,-0.004728149245
330.75600,-0.9203113723
330.75650,-0.3099225569
330.75700,0.9108550739
330.75750,0.9108550739
330.75800,-0.3099225569
330.75850,-1.835894595
330.75900,-2.141089003
330.75950,-1.22550578
330.76000,-0.004728149245
330.76050,0.3004662585
330.76100,-0.6151169646
330.76150,-2.446283411
330.76200,-3.667061042
330.76250,-3.361866634
330.76300,-2.141089003
330.76350,-1.22550578
330.76400,-0.9203113723
330.76450,-1.22550578
330.76500,-1.22550578
330.76550,-0.6151169646
330.76600,0.3004662585
330.76650,1.521243889
330.76700,1.216049482
330.76750,-0.004728149245
330.76800,-1.22550578
330.76850,-1.835894595
330.76900,-2.446283411
330.76950,-3.361866634
330.77000,-3.667061042
330.77050,-2.751477819
330.77100,-1.530700188
330.77150,-1.530700188
330.77200,-2.141089003
330.77250,-2.141089003
330.77300,-0.6151169646
330.77350,0.6056606662
330.77400,0.6056606662
330.77450,-0.004728149245
330.77500,-0.3099225569
330.77550,-0.004728149245
330.77600,-0.004728149245
330.77650,-1.835894595
330.77700,-1.835894595
330.77750,1.521243889
330.77800,7.625132043
330.77850,10.98227053
330.77900,8.235520859
330.77950,4.267993559
330.78000,3.047215928
330.78050,4.878382374
330.78100,5.793965597
330.78150,4.267993559
330.78200,3.962799151
330.78250,4.878382374
330.78300,5.183576782
330.78350,3.352410335
330.78400,0.9108550739
330.78450,0.9108550739
330.78500,1.521243889
330.78550,1.521243889
330.78600,0.3004662585
330.78650,0.3004662585
330.78700,1.826438297
330.78750,3.962799151
330.78800,3.657604743
330.78850,1.216049482
330.78900,-0.004728149245
330.78950,0.9108550739
330.79000,1.216049482
330.79050,-4.277449857
330.79100,-13.43328209
330.79150,-18.0111982
330.79200,-12.21250446
330.79250,-1.22550578
330.79300,4.267993559
330.79350,1.216049482
330.79400,-4.582644265
330.79450,-8.244977157
330.79500,-8.550171565
330.79550,-7.024199526
330.79600,-4.887838672
330.79650,-3.361866634
330.79700,-4.277449857
330.79750,-5.803421896
330.79800,-4.277449857
330.79850,1.216049482
330.79900,6.404354412
330.79950,7.014743228
330.80000,3.657604743
330.80050,0.9108550739
330.80100,0.3004662585
330.80150,-0.004728149245
330.80200,-1.530700188
330.80250,-3.056672226
330.80300,-2.751477819
330.80350,-1.835894595
330.80400,-1.22550578
330.80450,-1.22550578
330.80500,-0.6151169646
330.80550,1.216049482
330.80600,3.962799151
330.80650,4.878382374
330.80700,3.352410335
330.80750,0.9108550739
330.80800,-0.004728149245
330.80850,-0.3099225569
330.80900,-0.6151169646
330.80950,-1.22550578
330.81000,-0.6151169646
330.81050,2.131632705
330.81100,5.183576782
330.81150,6.099160005
330.81200,3.962799151
330.81250,1.521243889
330.81300,0.6056606662
330.81350,0.6056606662
330.81400,-0.004728149245
330.81450,-0.3099225569
330.81500,-0.004728149245
330.81550,1.521243889
330.81600,1.826438297
330.81650,0.6056606662
330.81700,-1.22550578
330.81750,-2.141089003
330.81800,-2.141089003
330.81850,-2.446283411
330.81900,-3.667061042
330.81950,-4.887838672
330.82000,-5.498227488
330.82050,-4.887838672
330.82100,-3.361866634
330.82150,-0.3099225569
330.82200,3.352410335
330.82250,7.319937636
330.82300,11.59265934
330.82350,15.25499224
330.82400,16.47576987
330.82450,13.7290202
330.82500,8.235520859
330.82550,3.352410335
330.82600,2.436827112
330.82650,3.352410335
330.82700,4.573187966
330.82750,4.573187966
330.82800,3.962799151
330.82850,3.047215928
330.82900,1.216049482
330.82950,-0.6151169646
330.83000,-1.835894595
330.83050,-1.835894595
330.83100,-1.530700188
330.83150,-1.22550578
330.83200,-1.835894595
330.83250,-3.972255449
330.83300,-7.329393934
330.83350,-10.38133801
330.83400,-12.21250446
330.83450,-13.43328209
330.83500,-13.7384765
330.83550,-10.99172683
330.83600,-3.972255449
330.83650,5.183576782
330.83700,12.50824257
330.83750,15.56018664
330.83800,14.94979783
330.83850,11.89785375
330.83900,7.930326451
330.83950,4.573187966
330.84000,2.131632705
330.84050,0.3004662585
330.84100,-0.3099225569
330.84150,0.6056606662
330.84200,2.74202152
330.84250,2.436827112
330.84300,-0.6151169646
330.84350,-2.751477819
330.84400,-2.446283411
330.84450,-1.22550578
330.84500,-0.9203113723
330.84550,0.6056606662
330.84600,4.878382374
330.84650,6.404354412
330.84700,0.9108550739
330.84750,-7.024199526
330.84800,-10.68653242
330.84850,-8.244977157
330.84900,-5.19303308
330.84950,-3.667061042
330.85000,-2.751477819
330.85050,-0.6151169646
330.85100,0.9108550739
330.85150,1.826438297
330.85200,3.352410335
330.85250,5.183576782
330.85300,5.793965597
330.85350,4.573187966
330.85400,3.047215928
330.85450,1.216049482
330.85500,-0.3099225569
330.85550,-1.22550578
330.85600,-0.9203113723
330.85650,-1.530700188
330.85700,-3.667061042
330.85750,-5.498227488
330.85800,-4.277449857
330.85850,-2.141089003
330.85900,-0.9203113723
330.85950,-1.22550578
330.86000,-1.22550578
330.86050,-0.3099225569
330.86100,-0.004728149245
330.86150,-0.3099225569
330.86200,-0.9203113723
330.86250,-1.530700188
330.86300,-2.446283411
330.86350,-1.835894595
330.86400,-0.6151169646
330.86450,-1.530700188
330.86500,-5.803421896
330.86550,-9.465754788
330.86600,-9.16056038
330.86650,-5.19303308
330.86700,-2.141089003
330.86750,-1.22550578
330.86800,-0.9203113723
330.86850,-0.3099225569
330.86900,-0.6151169646
330.86950,-1.835894595
330.87000,-3.056672226
330.87050,-3.056672226
330.87100,-2.751477819
330.87150,-3.056672226
330.87200,-3.361866634
330.87250,-2.751477819
330.87300,-1.530700188
330.87350,-0.9203113723
330.87400,-1.530700188
330.87450,-1.530700188
330.87500,-0.9203113723
330.87550,-0.004728149245
330.87600,-0.004728149245
330.87650,-0.3099225569
330.87700,-0.004728149245
330.87750,0.9108550739
330.87800,1.216049482
330.87850,-0.004728149245
330.87900,-0.3099225569
330.87950,-0.004728149245
330.88000,0.9108550739
330.88050,1.216049482
330.88100,0.9108550739
330.88150,1.521243889
330.88200,1.216049482
330.88250,-0.3099225569
330.88300,-1.835894595
330.88350,-1.22550578
330.88400,-0.004728149245
330.88450,-0.6151169646
330.88500,-2.751477819
330.88550,-2.751477819
330.88600,-0.004728149245
330.88650,4.267993559
330.88700,7.319937636
330.88750,7.930326451
330.88800,6.70954882
330.88850,3.657604743
330.88900,0.3004662585
330.88950,-0.9203113723
330.89000,0.3004662585
330.89050,2.436827112
330.89100,2.436827112
330.89150,1.216049482
330.89200,0.6056606662
330.89250,0.6056606662
330.89300,0.6056606662
330.89350,-0.004728149245
330.89400,-0.004728149245
330.89450,-0.004728149245
330.89500,-0.004728149245
330.89550,0.3004662585
330.89600,0.6056606662
330.89650,1.216049482
330.89700,0.9108550739
330.89750,-0.004728149245
330.89800,-0.6151169646
330.89850,-0.004728149245
330.89900,1.826438297
330.89950,3.962799151
330.90000,5.183576782
330.90050,5.183576782
330.90100,4.573187966
330.90150,4.267993559
330.90200,4.267993559
330.90250,4.267993559
330.90300,3.657604743
330.90350,3.047215928
330.90400,3.047215928
330.90450,3.047215928
330.90500,2.74202152
330.90550,1.521243889
330.90600,-0.004728149245
330.90650,-1.835894595
330.90700,-3.361866634
330.90750,-3.361866634
330.90800,-2.141089003
330.90850,-1.22550578
330.90900,-1.835894595
330.90950,-2.446283411
330.91000,-1.22550578
330.91050,1.216049482
330.91100,1.826438297
330.91150,-0.3099225569
330.91200,-3.667061042
330.91250,-6.719005119
330.91300,-9.465754788
330.91350,-12.51769887
330.91400,-12.51769887
330.91450,-7.939782749
330.91500,-0.9203113723
330.91550,3.657604743
330.91600,4.573187966
330.91650,3.352410335
330.91700,2.131632705
330.91750,2.436827112
330.91800,5.488771189
330.91850,9.761492897
330.91900,10.0666873
330.91950,3.657604743
330.92000,-5.803421896
330.92050,-10.38133801
330.92100,-6.719005119
330.92150,-0.3099225569
330.92200,2.131632705
330.92250,1.216049482
330.92300,1.521243889
330.92350,4.267993559
330.92400,6.70954882
330.92450,6.70954882
330.92500,3.962799151
330.92550,-0.004728149245
330.92600,-6.413810711
330.92650,-12.51769887
330.92700,-14.34886531
330.92750,-10.38133801
330.92800,-4.277449857
330.92850,-0.3099225569
330.92900,0.6056606662
330.92950,1.521243889
330.93000,2.74202152
330.93050,3.047215928
330.93100,1.521243889
330.93150,0.6056606662
330.93200,1.216049482
330.93250,2.74202152
330.93300,3.657604743
330.93350,4.573187966
330.93400,6.70954882
330.93450,8.235520859
330.93500,7.930326451
330.93550,6.70954882
330.93600,5.793965597
330.93650,4.878382374
330.93700,3.352410335
330.93750,1.826438297
330.93800,1.521243889
330.93850,2.436827112
330.93900,2.74202152
330.93950,1.216049482
330.94000,-0.6151169646
330.94050,-2.141089003
330.94100,-2.751477819
330.94150,-2.141089003
330.94200,-0.004728149245
330.94250,3.352410335
330.94300,4.573187966
330.94350,2.74202152
330.94400,-0.004728149245
330.94450,-2.141089003
330.94500,-4.277449857
330.94550,-5.803421896
330.94600,-5.803421896
330.94650,-3.361866634
330.94700,0.3004662585
330.94750,3.047215928
330.94800,2.436827112
330.94850,-0.004728149245
330.94900,-3.667061042
330.94950,-6.108616303
330.95000,-7.024199526
330.95050,-5.803421896
330.95100,-3.972255449
330.95150,-2.446283411
330.95200,-1.530700188
330.95250,-1.22550578
330.95300,-0.3099225569
330.95350,-0.004728149245
330.95400,0.3004662585
330.95450,-0.004728149245
330.95500,-0.004728149245
330.95550,0.3004662585
330.95600,1.826438297
330.95650,3.962799151
330.95700,4.878382374
330.95750,3.657604743
330.95800,0.9108550739
330.95850,-1.22550578
330.95900,-2.141089003
330.95950,-1.835894595
330.96000,-0.9203113723
330.96050,-0.9203113723
330.96100,-0.6151169646
330.96150,-0.3099225569
330.96200,0.3004662585
330.96250,1.216049482
330.96300,1.826438297
330.96350,1.826438297
330.96400,0.3004662585
330.96450,-1.22550578
330.96500,-1.835894595
330.96550,-0.6151169646
330.96600,0.9108550739
330.96650,1.826438297
330.96700,1.216049482
330.96750,0.9108550739
330.96800,1.826438297
330.96850,3.047215928
330.96900,3.962799151
330.96950,3.962799151
330.97000,3.657604743
330.97050,3.047215928
330.97100,1.216049482
330.97150,-2.141089003
330.97200,-5.803421896
330.97250,-7.329393934
330.97300,-6.413810711
330.97350,-4.277449857
330.97400,-2.751477819
330.97450,-1.530700188
330.97500,0.3004662585
330.97550,3.047215928
330.97600,5.793965597
330.97650,6.70954882
330.97700,3.657604743
330.97750,-2.751477819
330.97800,-8.855365973
330.97850,-10.38133801
330.97900,-6.719005119
330.97950,-1.835894595
330.98000,-0.004728149245
330.98050,-1.22550578
330.98100,-3.056672226
330.98150,-3.056672226
330.98200,-2.751477819
330.98250,-2.141089003
330.98300,-1.530700188
330.98350,-0.6151169646
330.98400,-0.3099225569
330.98450,-0.6151169646
330.98500,-0.3099225569
330.98550,0.6056606662
330.98600,2.436827112
330.98650,2.436827112
330.98700,0.3004662585
330.98750,-3.056672226
330.98800,-5.498227488
330.98850,-3.972255449
330.98900,0.3004662585
330.98950,3.962799151
330.99000,3.962799151
330.99050,1.521243889
330.99100,-0.004728149245
330.99150,-0.004728149245
330.99200,-1.22550578
330.99250,-3.667061042
330.99300,-3.056672226
330.99350,-0.3099225569
330.99400,-1.22550578
330.99450,-8.244977157
330.99500,-16.18003176
330.99550,-19.53717024
330.99600,-18.62158702
330.99650,-17.09561498
330.99700,-14.34886531
330.99750,-7.939782749
330.99800,1.521243889
330.99850,9.761492897
330.99900,14.03421461
330.99950,14.64460342
331.00000,13.11863138
331.00050,10.37188171
331.00100,8.235520859
331.00150,6.099160005
331.00200,2.131632705
331.00250,-1.530700188
331.00300,-0.6151169646
331.00350,3.962799151
331.00400,6.099160005
331.00450,-0.3099225569
331.00500,-8.550171565
331.00550,-9.16056038
331.00600,-1.530700188
331.00650,6.70954882
331.00700,10.37188171
331.00750,11.28746494
331.00800,10.67707612
331.00850,8.235520859
331.00900,4.878382374
331.00950,4.267993559
331.01000,6.099160005
331.01050,6.70954882
331.01100,4.267993559
331.01150,1.216049482
331.01200,-0.3099225569
331.01250,-1.22550578
331.01300,-2.446283411
331.01350,-2.446283411
331.01400,-0.6151169646
331.01450,0.9108550739
331.01500,1.216049482
331.01550,0.6056606662
331.01600,-0.004728149245
331.01650,-0.6151169646
331.01700,-0.9203113723
331.01750,-0.6151169646
331.01800,-0.3099225569
331.01850,-0.6151169646
331.01900,-1.835894595
331.01950,-1.835894595
331.02000,-1.22550578
331.02050,-1.22550578
331.02100,-1.835894595
331.02150,-2.446283411
331.02200,-2.141089003
331.02250,-2.751477819
331.02300,-3.667061042
331.02350,-3.667061042
331.02400,-3.361866634
331.02450,-3.361866634
331.02500,-3.667061042
331.02550,-3.667061042
331.02600,-2.751477819
331.02650,-1.530700188
331.02700,-0.6151169646
331.02750,-0.3099225569
331.02800,-0.9203113723
331.02850,-0.9203113723
331.02900,-0.004728149245
331.02950,-0.004728149245
331.03000,-0.3099225569
331.03050,-0.9203113723
331.03100,-0.3099225569
331.03150,1.521243889
331.03200,2.74202152
331.03250,1.826438297
331.03300,0.6056606662
331.03350,0.9108550739
331.03400,1.216049482
331.03450,0.6056606662
331.03500,-0.3099225569
331.03550,-0.6151169646
331.03600,0.3004662585
331.03650,1.826438297
331.03700,2.436827112
331.03750,1.826438297
331.03800,0.3004662585
331.03850,-0.3099225569
331.03900,1.216049482
331.03950,4.573187966
331.04000,5.488771189
331.04050,1.216049482
331.04100,-4.277449857
331.04150,-7.024199526
331.04200,-6.108616303
331.04250,-3.361866634
331.04300,-1.530700188
331.04350,-0.3099225569
331.04400,0.3004662585
331.04450,0.9108550739
331.04500,2.436827112
331.04550,3.962799151
331.04600,4.267993559
331.04650,3.047215928
331.04700,3.047215928
331.04750,5.183576782
331.04800,6.70954882
331.04850,3.047215928
331.04900,-3.972255449
331.04950,-9.465754788
331.05000,-9.465754788
331.05050,-6.108616303
331.05100,-3.667061042
331.05150,-3.056672226
331.05200,-3.361866634
331.05250,-4.277449857
331.05300,-4.582644265
331.05350,-3.667061042
331.05400,-1.22550578
331.05450,0.9108550739
331.05500,1.826438297
331.05550,1.521243889
331.05600,1.521243889
331.05650,2.131632705
331.05700,2.436827112
331.05750,1.826438297
331.05800,0.9108550739
331.05850,0.6056606662
331.05900,0.9108550739
331.05950,1.216049482
331.06000,0.9108550739
331.06050,-0.004728149245
331.06100,-0.6151169646
331.06150,-0.3099225569
331.06200,0.6056606662
331.06250,3.047215928
331.06300,5.793965597
331.06350,7.625132043
331.06400,7.014743228
331.06450,4.573187966
331.06500,2.436827112
331.06550,2.436827112
331.06600,3.657604743
331.06650,3.352410335
331.06700,1.216049482
331.06750,-0.3099225569
331.06800,-0.6151169646
331.06850,-0.004728149245
331.06900,0.6056606662
331.06950,0.6056606662
331.07000,-0.004728149245
331.07050,-1.530700188
331.07100,-2.446283411
331.07150,-1.22550578
331.07200,-0.3099225569
331.07250,-0.9203113723
331.07300,-2.446283411
331.07350,-3.667061042
331.07400,-3.667061042
331.07450,-4.277449857
331.07500,-5.19303308
331.07550,-4.887838672
331.07600,-2.751477819
331.07650,-0.9203113723
331.07700,-0.004728149245
331.07750,0.9108550739
331.07800,2.74202152
331.07850,3.657604743
331.07900,2.74202152
331.07950,-0.004728149245
331.08000,-1.835894595
331.08050,-1.835894595
331.08100,0.9108550739
331.08150,5.488771189
331.08200,8.540715266
331.08250,7.930326451
331.08300,4.573187966
331.08350,1.521243889
331.08400,0.6056606662
331.08450,0.6056606662
331.08500,0.3004662585
331.08550,-0.6151169646
331.08600,-1.22550578
331.08650,-0.9203113723
331.08700,0.3004662585
331.08750,1.826438297
331.08800,3.352410335
331.08850,3.352410335
331.08900,1.826438297
331.08950,0.6056606662
331.09000,1.521243889
331.09050,4.878382374
331.09100,8.540715266
331.09150,9.45629849
331.09200,6.70954882
331.09250,2.74202152
331.09300,0.6056606662
331.09350,-0.004728149245
331.09400,0.6056606662
331.09450,1.826438297
331.09500,3.657604743
331.09550,3.962799151
331.09600,3.352410335
331.09650,2.436827112
331.09700,3.047215928
331.09750,3.962799151
331.09800,3.352410335
331.09850,2.436827112
331.09900,2.436827112
331.09950,3.352410335
331.10000,3.657604743
331.10050,3.047215928
331.10100,3.047215928
331.10150,3.047215928
331.10200,1.826438297
331.10250,0.6056606662
331.10300,0.3004662585
331.10350,-0.3099225569
331.10400,-3.667061042
331.10450,-8.550171565
331.10500,-9.770949196
331.10550,-6.719005119
331.10600,-3.361866634
331.10650,-3.056672226
331.10700,-5.19303308
331.10750,-6.108616303
331.10800,-5.803421896
331.10850,-5.803421896
331.10900,-5.803421896
331.10950,-3.667061042
331.11000,-0.3099225569
331.11050,0.6056606662
331.11100,-2.751477819
331.11150,-8.244977157
331.11200,-10.38133801
331.11250,-7.329393934
331.11300,-1.530700188
331.11350,3.047215928
331.11400,6.099160005
331.11450,8.235520859
331.11500,8.540715266
331.11550,6.404354412
331.11600,2.436827112
331.11650,-1.22550578
331.11700,-3.972255449
331.11750,-5.19303308
331.11800,-3.972255449
331.11850,-0.9203113723
331.11900,2.436827112
331.11950,3.962799151
331.12000,3.962799151
331.12050,4.267993559
331.12100,5.183576782
331.12150,5.488771189
331.12200,3.352410335
331.12250,-0.9203113723
331.12300,-4.582644265
331.12350,-3.667061042
331.12400,1.521243889
331.12450,4.878382374
331.12500,0.6056606662
331.12550,-8.550171565
331.12600,-14.0436709
331.12650,-11.29692123
331.12700,-4.887838672
331.12750,-0.9203113723
331.12800,-0.004728149245
331.12850,-0.004728149245
331.12900,-2.751477819
331.12950,-8.550171565
331.13000,-12.82289327
331.13050,-11.90731005
331.13100,-6.719005119
331.13150,-2.751477819
331.13200,-1.530700188
331.13250,-0.6151169646
331.13300,0.6056606662
331.13350,1.521243889
331.13400,0.6056606662
331.13450,-1.530700188
331.13500,-4.582644265
331.13550,-6.108616303
331.13600,-5.19303308
331.13650,-2.446283411
331.13700,-0.3099225569
331.13750,-0.004728149245
331.13800,-0.9203113723
331.13850,-1.22550578
331.13900,-1.530700188
331.13950,-2.141089003
331.14000,-2.751477819
331.14050,-2.446283411
331.14100,-1.835894595
331.14150,-1.835894595
331.14200,-1.530700188
331.14250,-0.004728149245
331.14300,0.9108550739
331.14350,-0.004728149245
331.14400,-2.446283411
331.14450,-4.582644265
331.14500,-5.19303308
331.14550,-5.803421896
331.14600,-5.803421896
331.14650,-3.056672226
331.14700,1.521243889
331.14750,4.878382374
331.14800,3.657604743
331.14850,0.9108550739
331.14900,-0.3099225569
331.14950,-0.9203113723
331.15000,-1.835894595
331.15050,-3.056672226
331.15100,-2.751477819
331.15150,-1.22550578
331.15200,0.3004662585
331.15250,1.216049482
331.15300,2.131632705
331.15350,2.74202152
331.15400,3.047215928
331.15450,3.047215928
331.15500,2.74202152
331.15550,2.74202152
331.15600,1.826438297
331.15650,1.521243889
331.15700,2.131632705
331.15750,3.047215928
331.15800,2.74202152
331.15850,1.826438297
331.15900,1.216049482
331.15950,2.131632705
331.16000,3.047215928
331.16050,2.436827112
331.16100,0.6056606662
331.16150,-0.3099225569
331.16200,-0.6151169646
331.16250,-0.004728149245
331.16300,0.6056606662
331.16350,1.826438297
331.16400,2.74202152
331.16450,2.74202152
331.16500,1.826438297
331.16550,1.216049482
331.16600,1.216049482
331.16650,1.216049482
331.16700,0.3004662585
331.16750,-0.004728149245
331.16800,-0.004728149245
331.16850,-0.004728149245
331.16900,-0.9203113723
331.16950,-2.141089003
331.17000,-0.9203113723
331.17050,2.436827112
331.17100,5.488771189
331.17150,6.404354412
331.17200,5.488771189
331.17250,5.183576782
331.17300,5.488771189
331.17350,5.183576782
331.17400,3.352410335
331.17450,0.9108550739
331.17500,0.3004662585
331.17550,2.74202152
331.17600,6.099160005
331.17650,7.319937636
331.17700,6.404354412
331.17750,5.183576782
331.17800,4.878382374
331.17850,3.657604743
331.17900,0.6056606662
331.17950,-2.446283411
331.18000,-2.446283411
331.18050,-0.6151169646
331.18100,-0.004728149245
331.18150,-1.835894595
331.18200,-5.803421896
331.18250,-8.244977157
331.18300,-8.550171565
331.18350,-6.413810711
331.18400,-3.056672226
331.18450,-0.004728149245
331.18500,2.74202152
331.18550,4.267993559
331.18600,4.878382374
331.18650,3.352410335
331.18700,-0.004728149245
331.18750,-1.835894595
331.18800,-0.004728149245
331.18850,0.9108550739
331.18900,-3.056672226
331.18950,-9.465754788
331.19000,-9.770949196
331.19050,-0.6151169646
331.19100,9.761492897
331.19150,12.20304816
331.19200,7.319937636
331.19250,2.436827112
331.19300,2.131632705
331.19350,3.047215928
331.19400,1.216049482
331.19450,-1.835894595
331.19500,-3.361866634
331.19550,-1.835894595
331.19600,0.9108550739
331.19650,2.131632705
331.19700,1.216049482
331.19750,-0.3099225569
331.19800,-1.530700188
331.19850,-1.835894595
331.19900,-0.9203113723
331.19950,-0.004728149245
331.20000,0.9108550739
331.20050,1.826438297
331.20100,1.216049482
331.20150,-0.004728149245
331.20200,-0.6151169646
331.20250,-0.004728149245
331.20300,2.74202152
331.20350,4.573187966
331.20400,4.267993559
331.20450,2.74202152
331.20500,1.826438297
331.20550,1.521243889
331.20600,0.9108550739
331.20650,-0.004728149245
331.20700,-0.3099225569
331.20750,-0.004728149245
331.20800,0.3004662585
331.20850,-0.004728149245
331.20900,-1.22550578
331.20950,-3.667061042
331.21000,-4.582644265
331.21050,-3.667061042
331.21100,-1.530700188
331.21150,-0.6151169646
331.21200,-0.3099225569
331.21250,-0.004728149245
331.21300,1.826438297
331.21350,3.962799151
331.21400,4.573187966
331.21450,3.657604743
331.21500,1.826438297
331.21550,-0.004728149245
331.21600,-1.835894595
331.21650,-3.361866634
331.21700,-3.972255449
331.21750,-3.361866634
331.21800,-2.751477819
331.21850,-2.446283411
331.21900,-1.22550578
331.21950,0.6056606662
331.22000,3.047215928
331.22050,4.267993559
331.22100,5.183576782
331.22150,6.099160005
331.22200,6.099160005
331.22250,3.657604743
331.22300,-0.004728149245
331.22350,-2.751477819
331.22400,-2.446283411
331.22450,-1.835894595
331.22500,-2.751477819
331.22550,-5.19303308
331.22600,-6.108616303
331.22650,-4.887838672
331.22700,-3.056672226
331.22750,-1.835894595
331.22800,-1.22550578
331.22850,-0.3099225569
331.22900,-0.3099225569
331.22950,-1.835894595
331.23000,-3.056672226
331.23050,-1.835894595
331.23100,1.216049482
331.23150,3.657604743
331.23200,2.74202152
331.23250,0.3004662585
331.23300,-0.9203113723
331.23350,-1.22550578
331.23400,-2.446283411
331.23450,-3.056672226
331.23500,-2.751477819
331.23550,-1.835894595
331.23600,-2.141089003
331.23650,-4.277449857
331.23700,-5.498227488
331.23750,-5.498227488
331.23800,-6.108616303
331.23850,-6.719005119
331.23900,-4.887838672
331.23950,1.216049482
331.24000,9.45629849
331.24050,15.25499224
331.24100,16.47576987
331.24150,14.64460342
331.24200,11.28746494
331.24250,7.014743228
331.24300,3.047215928
331.24350,0.9108550739
331.24400,0.3004662585
331.24450,-0.3099225569
331.24500,-1.530700188
331.24550,-1.835894595
331.24600,-1.530700188
331.24650,-2.446283411
331.24700,-4.277449857
331.24750,-4.582644265
331.24800,-2.751477819
331.24850,-1.22550578
331.24900,-2.141089003
331.24950,-4.277449857
331.25000,-4.887838672
331.25050,-3.972255449
331.25100,-3.972255449
331.25150,-5.19303308
331.25200,-6.108616303
331.25250,-5.19303308
331.25300,-3.667061042
331.25350,-2.141089003
331.25400,-0.9203113723
331.25450,-0.3099225569
331.25500,-0.9203113723
331.25550,-2.446283411
331.25600,-3.056672226
331.25650,-2.751477819
331.25700,-1.835894595
331.25750,-2.141089003
331.25800,-3.361866634
331.25850,-3.667061042
331.25900,-2.751477819
331.25950,-1.835894595
331.26000,-1.835894595
331.26050,-2.141089003
331.26100,-1.530700188
331.26150,-0.004728149245
331.26200,0.3004662585
331.26250,-0.3099225569
331.26300,-1.22550578
331.26350,-0.004728149245
331.26400,1.521243889
331.26450,1.521243889
331.26500,-0.3099225569
331.26550,-1.835894595
331.26600,-0.9203113723
331.26650,-0.004728149245
331.26700,-0.3099225569
331.26750,-1.530700188
331.26800,-1.835894595
331.26850,-0.9203113723
331.26900,-0.3099225569
331.26950,-0.004728149245
331.27000,0.3004662585
331.27050,1.216049482
331.27100,1.826438297
331.27150,1.216049482
331.27200,1.216049482
331.27250,2.436827112
331.27300,2.436827112
331.27350,-0.004728149245
331.27400,-3.972255449
331.27450,-5.803421896
331.27500,-3.972255449
331.27550,-2.141089003
331.27600,-2.751477819
331.27650,-3.972255449
331.27700,-0.6151169646
331.27750,6.404354412
331.27800,10.98227053
331.27850,9.151104082
331.27900,4.878382374
331.27950,3.962799151
331.28000,4.878382374
331.28050,3.657604743
331.28100,0.3004662585
331.28150,-0.9203113723
331.28200,-0.3099225569
331.28250,-0.004728149245
331.28300,-0.6151169646
331.28350,1.521243889
331.28400,5.183576782
331.28450,4.267993559
331.28500,-3.972255449
331.28550,-13.12808768
331.28600,-15.56964294
331.28650,-10.99172683
331.28700,-5.803421896
331.28750,-3.056672226
331.28800,-3.056672226
331.28850,-3.972255449
331.28900,-4.277449857
331.28950,-1.530700188
331.29000,3.047215928
331.29050,5.183576782
331.29100,2.436827112
331.29150,-1.22550578
331.29200,-2.446283411
331.29250,-0.3099225569
331.29300,0.9108550739
331.29350,0.9108550739
331.29400,0.9108550739
331.29450,0.6056606662
331.29500,-0.004728149245
331.29550,-0.9203113723
331.29600,-0.6151169646
331.29650,-0.3099225569
331.29700,-2.446283411
331.29750,-4.582644265
331.29800,-2.751477819
331.29850,3.047215928
331.29900,8.540715266
331.29950,9.45629849
331.30000,7.014743228
331.30050,5.488771189
331.30100,6.404354412
331.30150,7.625132043
331.30200,7.319937636
331.30250,5.183576782
331.30300,2.74202152
331.30350,1.826438297
331.30400,2.131632705
331.30450,2.74202152
331.30500,2.131632705
331.30550,0.6056606662
331.30600,-0.004728149245
331.30650,-0.004728149245
331.30700,-0.004728149245
331.30750,-0.6151169646
331.30800,-0.6151169646
331.30850,-0.004728149245
331.30900,-0.004728149245
331.30950,-0.3099225569
331.31000,-1.22550578
331.31050,-0.9203113723
331.31100,-0.3099225569
331.31150,-0.9203113723
331.31200,-1.22550578
331.31250,0.9108550739
331.31300,5.183576782
331.31350,8.540715266
331.31400,9.45629849
331.31450,8.845909674
331.31500,8.235520859
331.31550,8.235520859
331.31600,7.930326451
331.31650,6.404354412
331.31700,3.962799151
331.31750,1.216049482
331.31800,-0.6151169646
331.31850,-0.6151169646
331.31900,0.3004662585
331.31950,1.826438297
331.32000,2.74202152
331.32050,3.047215928
331.32100,3.047215928
331.32150,2.131632705
331.32200,1.826438297
331.32250,2.436827112
331.32300,2.436827112
331.32350,-0.004728149245
331.32400,-3.056672226
331.32450,-5.498227488
331.32500,-7.634588342
331.32550,-11.29692123
331.32600,-12.82289327
331.32650,-8.244977157
331.32700,1.521243889
331.32750,10.67707612
331.32800,14.94979783
331.32850,16.17057546
331.32900,14.64460342
331.32950,6.099160005
331.33000,-10.0761436
331.33050,-24.72547517
331.33100,-27.16703043
331.33150,-18.31639261
331.33200,-8.244977157
331.33250,-3.667061042
331.33300,-2.446283411
331.33350,-0.9203113723
331.33400,0.6056606662
331.33450,0.9108550739
331.33500,0.3004662585
331.33550,0.3004662585
331.33600,-0.004728149245
331.33650,-0.9203113723
331.33700,-2.141089003
331.33750,-2.751477819
331.33800,-3.056672226
331.33850,-3.056672226
331.33900,-2.446283411
331.33950,-2.141089003
331.34000,-2.446283411
331.34050,-1.530700188
331.34100,1.216049482
331.34150,5.183576782
331.34200,6.099160005
331.34250,3.657604743
331.34300,1.521243889
331.34350,1.826438297
331.34400,2.74202152
331.34450,1.521243889
331.34500,-0.004728149245
331.34550,-0.004728149245
331.34600,1.521243889
331.34650,2.74202152
331.34700,1.521243889
331.34750,-0.004728149245
331.34800,-0.3099225569
331.34850,-0.004728149245
331.34900,0.3004662585
331.34950,0.9108550739
331.35000,1.521243889
331.35050,1.826438297
331.35100,0.9108550739
331.35150,-0.004728149245
331.35200,-1.22550578
331.35250,-1.22550578
331.35300,-1.530700188
331.35350,-1.22550578
331.35400,-0.6151169646
331.35450,0.3004662585
331.35500,1.521243889
331.35550,1.216049482
331.35600,0.6056606662
331.35650,1.216049482
331.35700,2.131632705
331.35750,1.521243889
331.35800,-0.3099225569
331.35850,-1.22550578
331.35900,-0.004728149245
331.35950,1.521243889
331.36000,2.131632705
331.36050,2.131632705
331.36100,3.047215928
331.36150,3.047215928
331.36200,1.826438297
331.36250,-0.004728149245
331.36300,-0.6151169646
331.36350,-0.6151169646
331.36400,-1.22550578
331.36450,-2.141089003
331.36500,-2.751477819
331.36550,-3.361866634
331.36600,-4.277449857
331.36650,-6.108616303
331.36700,-7.939782749
331.36750,-9.16056038
331.36800,-9.16056038
331.36850,-7.939782749
331.36900,-5.803421896
331.36950,-3.056672226
331.37000,-0.3099225569
331.37050,1.216049482
331.37100,1.521243889
331.37150,-0.004728149245
331.37200,-1.835894595
331.37250,-1.22550578
331.37300,1.826438297
331.37350,5.183576782
331.37400,7.014743228
331.37450,6.404354412
331.37500,4.878382374
331.37550,2.74202152
331.37600,0.9108550739
331.37650,0.6056606662
331.37700,2.436827112
331.37750,4.267993559
331.37800,4.267993559
331.37850,1.826438297
331.37900,-0.004728149245
331.37950,-0.004728149245
331.38000,0.9108550739
331.38050,2.131632705
331.38100,2.436827112
331.38150,2.436827112
331.38200,1.521243889
331.38250,0.6056606662
331.38300,-0.004728149245
331.38350,-2.446283411
331.38400,-6.413810711
331.38450,-9.770949196
331.38500,-7.939782749
331.38550,-0.6151169646
331.38600,6.404354412
331.38650,8.540715266
331.38700,5.793965597
331.38750,2.436827112
331.38800,0.9108550739
331.38850,-0.004728149245
331.38900,-1.22550578
331.38950,-1.530700188
331.39000,-0.6151169646
331.39050,-0.004728149245
331.39100,-0.9203113723
331.39150,-1.835894595
331.39200,-1.835894595
331.39250,-1.530700188
331.39300,-1.530700188
331.39350,-0.6151169646
331.39400,0.9108550739
331.39450,2.131632705
331.39500,1.826438297
331.39550,0.6056606662
331.39600,0.6056606662
331.39650,1.216049482
331.39700,1.216049482
331.39750,0.3004662585
331.39800,-0.004728149245
331.39850,0.3004662585
331.39900,1.521243889
331.39950,2.436827112
331.40000,2.74202152
331.40050,1.826438297
331.40100,-0.004728149245
331.40150,-1.530700188
331.40200,-1.835894595
331.40250,-1.22550578
331.40300,-2.141089003
331.40350,-4.582644265
331.40400,-4.887838672
331.40450,-1.530700188
331.40500,3.047215928
331.40550,4.878382374
331.40600,3.047215928
331.40650,0.6056606662
331.40700,-0.3099225569
331.40750,-1.530700188
331.40800,-3.361866634
331.40850,-4.277449857
331.40900,-3.667061042
331.40950,-3.667061042
331.41000,-5.19303308
331.41050,-5.498227488
331.41100,-1.835894595
331.41150,3.352410335
331.41200,6.099160005
331.41250,5.488771189
331.41300,4.878382374
331.41350,6.099160005
331.41400,6.70954882
331.41450,5.183576782
331.41500,2.74202152
331.41550,1.521243889
331.41600,0.3004662585
331.41650,-1.22550578
331.41700,-3.667061042
331.41750,-4.277449857
331.41800,-2.141089003
331.41850,1.216049482
331.41900,4.878382374
331.41950,5.793965597
331.42000,3.657604743
331.42050,-0.004728149245
331.42100,-2.751477819
331.42150,-5.19303308
331.42200,-7.329393934
331.42250,-9.16056038
331.42300,-8.855365973
331.42350,-6.108616303
331.42400,-2.446283411
331.42450,-0.004728149245
331.42500,1.826438297
331.42550,4.267993559
331.42600,5.183576782
331.42650,4.267993559
331.42700,2.74202152
331.42750,0.9108550739
331.42800,-0.3099225569
331.42850,-2.141089003
331.42900,-3.361866634
331.42950,-3.056672226
331.43000,-1.530700188
331.43050,-0.004728149245
331.43100,1.216049482
331.43150,2.74202152
331.43200,3.047215928
331.43250,2.74202152
331.43300,2.436827112
331.43350,1.826438297
331.43400,-0.3099225569
331.43450,-3.972255449
331.43500,-5.803421896
331.43550,-5.498227488
331.43600,-5.498227488
331.43650,-5.19303308
331.43700,-1.22550578
331.43750,6.099160005
331.43800,8.540715266
331.43850,0.6056606662
331.43900,-11.29692123
331.43950,-16.18003176
331.44000,-10.38133801
331.44050,-0.9203113723
331.44100,3.657604743
331.44150,4.573187966
331.44200,4.267993559
331.44250,3.657604743
331.44300,0.6056606662
331.44350,-3.361866634
331.44400,-6.719005119
331.44450,-6.719005119
331.44500,-4.582644265
331.44550,-3.667061042
331.44600,-5.19303308
331.44650,-7.634588342
331.44700,-8.550171565
331.44750,-6.719005119
331.44800,-3.667061042
331.44850,-1.530700188
331.44900,-0.6151169646
331.44950,-0.004728149245
331.45000,0.3004662585
331.45050,0.9108550739
331.45100,1.826438297
331.45150,2.436827112
331.45200,1.521243889
331.45250,-0.6151169646
331.45300,-2.751477819
331.45350,-3.361866634
331.45400,-3.361866634
331.45450,-3.972255449
331.45500,-3.972255449
331.45550,-2.446283411
331.45600,-0.004728149245
331.45650,0.3004662585
331.45700,-0.6151169646
331.45750,-0.9203113723
331.45800,1.521243889
331.45850,5.488771189
331.45900,8.845909674
331.45950,10.0666873
331.46000,10.0666873
331.46050,9.45629849
331.46100,8.845909674
331.46150,9.761492897
331.46200,10.37188171
331.46250,8.540715266
331.46300,4.573187966
331.46350,1.521243889
331.46400,1.521243889
331.46450,2.131632705
331.46500,0.3004662585
331.46550,-1.530700188
331.46600,0.3004662585
331.46650,5.793965597
331.46700,9.45629849
331.46750,8.540715266
331.46800,4.878382374
331.46850,1.826438297
331.46900,-0.004728149245
331.46950,-1.22550578
331.47000,-2.751477819
331.47050,-4.277449857
331.47100,-5.498227488
331.47150,-5.803421896
331.47200,-4.887838672
331.47250,-3.361866634
331.47300,-2.141089003
331.47350,-0.6151169646
331.47400,2.131632705
331.47450,6.099160005
331.47500,7.625132043
331.47550,6.099160005
331.47600,2.74202152
331.47650,-0.004728149245
331.47700,-1.530700188
331.47750,-2.141089003
331.47800,-2.141089003
331.47850,-3.972255449
331.47900,-7.634588342
331.47950,-9.770949196
331.48000,-5.498227488
331.48050,2.74202152
331.48100,9.45629849
331.48150,10.98227053
331.48200,9.761492897
331.48250,7.319937636
331.48300,3.962799151
331.48350,0.6056606662
331.48400,-0.3099225569
331.48450,-0.004728149245
331.48500,-0.9203113723
331.48550,-3.667061042
331.48600,-4.582644265
331.48650,-1.835894595
331.48700,0.6056606662
331.48750,0.3004662585
331.48800,-0.004728149245
331.48850,1.826438297
331.48900,4.878382374
331.48950,3.657604743
331.49000,-0.6151169646
331.49050,-2.751477819
331.49100,-0.9203113723
331.49150,0.9108550739
331.49200,-0.3099225569
331.49250,-3.972255449
331.49300,-4.582644265
331.49350,-0.6151169646
331.49400,3.352410335
331.49450,5.488771189
331.49500,5.183576782
331.49550,4.573187966
331.49600,3.657604743
331.49650,2.436827112
331.49700,0.9108550739
331.49750,-0.004728149245
331.49800,-0.6151169646
331.49850,-1.22550578
331.49900,-1.835894595
331.49950,-1.22550578
331.50000,-0.6151169646
331.50050,-0.9203113723
331.50100,-2.141089003
331.50150,-2.751477819
331.50200,-1.530700188
331.50250,-0.004728149245
331.50300,0.6056606662
331.50350,-0.004728149245
331.50400,-0.6151169646
331.50450,-0.9203113723
331.50500,-1.22550578
331.50550,-1.835894595
331.50600,-1.530700188
331.50650,-0.004728149245
331.50700,0.3004662585
331.50750,-0.3099225569
331.50800,-1.835894595
331.50850,-1.835894595
331.50900,-0.9203113723
331.50950,-0.6151169646
331.51000,-0.9203113723
331.51050,-0.9203113723
331.51100,-0.004728149245
331.51150,-0.3099225569
331.51200,-2.141089003
331.51250,-3.056672226
331.51300,-1.835894595
331.51350,-0.004728149245
331.51400,-0.004728149245
331.51450,-0.9203113723
331.51500,-1.530700188
331.51550,-0.9203113723
331.51600,-0.6151169646
331.51650,-1.22550578
331.51700,-1.22550578
331.51750,-0.6151169646
331.51800,-0.3099225569
331.51850,-0.6151169646
331.51900,-0.004728149245
331.51950,1.216049482
331.52000,1.521243889
331.52050,-0.004728149245
331.52100,-2.446283411
331.52150,-2.141089003
331.52200,-0.004728149245
331.52250,1.216049482
331.52300,0.6056606662
331.52350,-1.530700188
331.52400,-3.667061042
331.52450,-4.887838672
331.52500,-5.498227488
331.52550,-6.108616303
331.52600,-6.413810711
331.52650,-6.413810711
331.52700,-4.887838672
331.52750,-2.141089003
331.52800,-0.004728149245
331.52850,1.216049482
331.52900,1.521243889
331.52950,1.521243889
331.53000,1.521243889
331.53050,0.3004662585
331.53100,-0.9203113723
331.53150,-3.056672226
331.53200,-4.887838672
331.53250,-5.803421896
331.53300,-5.19303308
331.53350,-2.751477819
331.53400,0.3004662585
331.53450,3.047215928
331.53500,4.267993559
331.53550,3.352410335
331.53600,0.9108550739
331.53650,-1.530700188
331.53700,-2.751477819
331.53750,-2.446283411
331.53800,-1.22550578
331.53850,-0.004728149245
331.53900,-0.3099225569
331.53950,-2.446283411
331.54000,-4.277449857
331.54050,-3.056672226
331.54100,1.216049482
331.54150,5.793965597
331.54200,6.70954882
331.54250,4.267993559
331.54300,1.521243889
331.54350,0.3004662585
331.54400,-0.3099225569
331.54450,-1.22550578
331.54500,-2.751477819
331.54550,-4.277449857
331.54600,-5.19303308
331.54650,-3.361866634
331.54700,0.3004662585
331.54750,4.573187966
331.54800,6.404354412
331.54850,7.014743228
331.54900,7.625132043
331.54950,8.540715266
331.55000,7.319937636
331.55050,5.183576782
331.55100,4.573187966
331.55150,6.099160005
331.55200,7.930326451
331.55250,7.930326451
331.55300,5.793965597
331.55350,3.962799151
331.55400,3.352410335
331.55450,5.793965597
331.55500,9.761492897
331.55550,12.20304816
331.55600,10.0666873
331.55650,4.573187966
331.55700,0.3004662585
331.55750,-0.3099225569
331.55800,0.3004662585
331.55850,0.6056606662
331.55900,-0.3099225569
331.55950,-1.835894595
331.56000,-3.667061042
331.56050,-5.498227488
331.56100,-6.108616303
331.56150,-4.887838672
331.56200,-3.056672226
331.56250,-2.141089003
331.56300,-1.835894595
331.56350,-0.9203113723
331.56400,-0.004728149245
331.56450,0.6056606662
331.56500,-0.004728149245
331.56550,-1.22550578
331.56600,-1.835894595
331.56650,-0.9203113723
331.56700,0.3004662585
331.56750,0.3004662585
331.56800,-0.3099225569
331.56850,-2.141089003
331.56900,-2.751477819
331.56950,-2.751477819
331.57000,-2.751477819
331.57050,-2.751477819
331.57100,-3.056672226
331.57150,-3.667061042
331.57200,-4.277449857
331.57250,-4.277449857
331.57300,-2.751477819
331.57350,-0.004728149245
331.57400,1.521243889
331.57450,0.9108550739
331.57500,-0.9203113723
331.57550,-3.056672226
331.57600,-5.19303308
331.57650,-7.329393934
331.57700,-6.719005119
331.57750,-2.751477819
331.57800,2.74202152
331.57850,6.70954882
331.57900,7.319937636
331.57950,6.099160005
331.58000,5.488771189
331.58050,5.183576782
331.58100,5.488771189
331.58150,6.099160005
331.58200,6.099160005
331.58250,6.70954882
331.58300,8.845909674
331.58350,11.28746494
331.58400,7.625132043
331.58450,-3.972255449
331.58500,-18.31639261
331.58550,-25.03066958
331.58600,-21.36833669
331.58650,-13.12808768
331.58700,-6.719005119
331.58750,-2.751477819
331.58800,-0.9203113723
331.58850,-1.22550578
331.58900,-2.141089003
331.58950,-1.22550578
331.59000,2.131632705
331.59050,4.878382374
331.59100,4.573187966
331.59150,3.047215928
331.59200,3.352410335
331.59250,4.878382374
331.59300,4.573187966
331.59350,2.436827112
331.59400,0.6056606662
331.59450,-0.004728149245
331.59500,-0.004728149245
331.59550,-0.6151169646
331.59600,-2.446283411
331.59650,-5.19303308
331.59700,-7.329393934
331.59750,-6.108616303
331.59800,-0.6151169646
331.59850,4.267993559
331.59900,4.878382374
331.59950,2.436827112
331.60000,0.3004662585
331.60050,-0.004728149245
331.60100,-0.004728149245
331.60150,-0.004728149245
331.60200,1.521243889
331.60250,4.267993559
331.60300,4.267993559
331.60350,0.6056606662
331.60400,-3.056672226
331.60450,-3.972255449
331.60500,-2.446283411
331.60550,-1.22550578
331.60600,-0.9203113723
331.60650,-0.9203113723
331.60700,-0.3099225569
331.60750,-0.6151169646
331.60800,-1.530700188
331.60850,-1.530700188
331.60900,-0.6151169646
331.60950,-0.004728149245
331.61000,0.3004662585
331.61050,0.6056606662
331.61100,1.216049482
331.61150,0.6056606662
331.61200,-0.6151169646
331.61250,-1.835894595
331.61300,-1.530700188
331.61350,-0.004728149245
331.61400,0.9108550739
331.61450,1.826438297
331.61500,3.352410335
331.61550,4.878382374
331.61600,4.878382374
331.61650,3.352410335
331.61700,2.74202152
331.61750,3.962799151
331.61800,5.183576782
331.61850,4.878382374
331.61900,3.352410335
331.61950,1.826438297
331.62000,0.9108550739
331.62050,-0.004728149245
331.62100,0.3004662585
331.62150,1.521243889
331.62200,2.74202152
331.62250,2.131632705
331.62300,0.9108550739
331.62350,0.3004662585
331.62400,0.3004662585
331.62450,-0.3099225569
331.62500,-2.751477819
331.62550,-3.972255449
331.62600,-3.667061042
331.62650,-2.446283411
331.62700,-1.22550578
331.62750,-0.004728149245
331.62800,2.436827112
331.62850,3.962799151
331.62900,3.352410335
331.62950,1.216049482
331.63000,-0.6151169646
331.63050,-2.446283411
331.63100,-3.361866634
331.63150,-3.056672226
331.63200,-1.835894595
331.63250,-1.835894595
331.63300,-3.361866634
331.63350,-3.972255449
331.63400,-2.446283411
331.63450,0.3004662585
331.63500,2.131632705
331.63550,1.826438297
331.63600,1.216049482
331.63650,0.3004662585
331.63700,-0.3099225569
331.63750,-1.835894595
331.63800,-2.141089003
331.63850,-0.9203113723
331.63900,0.6056606662
331.63950,2.74202152
331.64000,4.878382374
331.64050,5.793965597
331.64100,4.573187966
331.64150,2.436827112
331.64200,0.6056606662
331.64250,-0.9203113723
331.64300,-2.446283411
331.64350,-3.361866634
331.64400,-3.361866634
331.64450,-3.056672226
331.64500,-3.361866634
331.64550,-2.751477819
331.64600,-0.6151169646
331.64650,1.216049482
331.64700,-0.004728149245
331.64750,-2.446283411
331.64800,-2.751477819
331.64850,0.3004662585
331.64900,4.267993559
331.64950,5.793965597
331.65000,4.267993559
331.65050,1.521243889
331.65100,-0.6151169646
331.65150,-1.835894595
331.65200,-1.530700188
331.65250,0.3004662585
331.65300,2.131632705
331.65350,2.436827112
331.65400,0.3004662585
331.65450,-2.446283411
331.65500,-4.887838672
331.65550,-6.108616303
331.65600,-5.19303308
331.65650,-3.361866634
331.65700,-2.141089003
331.65750,-1.530700188
331.65800,-1.22550578
331.65850,-0.9203113723
331.65900,-0.9203113723
331.65950,-1.835894595
331.66000,-2.141089003
331.66050,-2.141089003
331.66100,-1.22550578
331.66150,-0.004728149245
331.66200,0.3004662585
331.66250,0.3004662585
331.66300,-0.004728149245
331.66350,-0.9203113723
331.66400,-1.835894595
331.66450,-2.751477819
331.66500,-3.361866634
331.66550,-3.667061042
331.66600,-3.667061042
331.66650,-3.361866634
331.66700,-3.056672226
331.66750,-2.751477819
331.66800,-1.22550578
331.66850,0.6056606662
331.66900,2.74202152
331.66950,3.962799151
331.67000,3.962799151
331.67050,2.131632705
331.67100,-0.004728149245
331.67150,-1.22550578
331.67200,-0.9203113723
331.67250,-0.9203113723
331.67300,-2.141089003
331.67350,-3.361866634
331.67400,-2.446283411
331.67450,-0.3099225569
331.67500,-0.004728149245
331.67550,-2.141089003
331.67600,-3.667061042
331.67650,-3.056672226
331.67700,-1.22550578
331.67750,0.6056606662
331.67800,2.131632705
331.67850,3.047215928
331.67900,3.352410335
331.67950,3.962799151
331.68000,4.573187966
331.68050,4.267993559
331.68100,3.047215928
331.68150,1.826438297
331.68200,1.521243889
331.68250,0.6056606662
331.68300,-1.835894595
331.68350,-4.277449857
331.68400,-3.361866634
331.68450,0.6056606662
331.68500,4.267993559
331.68550,4.573187966
331.68600,2.131632705
331.68650,-0.004728149245
331.68700,-0.6151169646
331.68750,-1.22550578
331.68800,-1.530700188
331.68850,-1.835894595
331.68900,-3.056672226
331.68950,-4.277449857
331.69000,-4.887838672
331.69050,-4.887838672
331.69100,-4.277449857
331.69150,-3.972255449
331.69200,-3.056672226
331.69250,-1.530700188
331.69300,0.3004662585
331.69350,1.521243889
331.69400,1.521243889
331.69450,-0.004728149245
331.69500,-1.835894595
331.69550,-3.056672226
331.69600,-2.446283411
331.69650,-1.22550578
331.69700,-0.3099225569
331.69750,-0.3099225569
331.69800,-0.3099225569
331.69850,0.3004662585
331.69900,1.521243889
331.69950,2.74202152
331.70000,3.352410335
331.70050,2.74202152
331.70100,1.521243889
331.70150,-0.3099225569
331.70200,-1.530700188
331.70250,-2.141089003
331.70300,-2.141089003
331.70350,-2.751477819
331.70400,-4.277449857
331.70450,-4.887838672
331.70500,-3.667061042
331.70550,-0.9203113723
331.70600,1.521243889
331.70650,2.74202152
331.70700,0.6056606662
331.70750,-1.835894595
331.70800,-2.751477819
331.70850,-1.530700188
331.70900,-0.004728149245
331.70950,-0.6151169646
331.71000,-1.835894595
331.71050,-1.835894595
331.71100,-0.3099225569
331.71150,0.3004662585
331.71200,-0.004728149245
331.71250,0.3004662585
331.71300,3.352410335
331.71350,9.151104082
331.71400,16.78096427
331.71450,22.27446361
331.71500,20.13810276
331.71550,8.235520859
331.71600,-7.024199526
331.71650,-15.87483735
331.71700,-13.7384765
331.71750,-5.498227488
331.71800,0.9108550739
331.71850,5.488771189
331.71900,10.0666873
331.71950,13.7290202
331.72000,13.42382579
331.72050,9.761492897
331.72100,7.014743228
331.72150,6.404354412
331.72200,5.488771189
331.72250,2.436827112
331.72300,-0.004728149245
331.72350,0.3004662585
331.72400,2.131632705
331.72450,1.826438297
331.72500,-0.6151169646
331.72550,-3.361866634
331.72600,-4.277449857
331.72650,-5.19303308
331.72700,-7.024199526
331.72750,-7.329393934
331.72800,-3.056672226
331.72850,4.573187966
331.72900,10.37188171
331.72950,10.0666873
331.73000,4.878382374
331.73050,-0.004728149245
331.73100,-1.835894595
331.73150,-1.530700188
331.73200,0.3004662585
331.73250,1.826438297
331.73300,0.9108550739
331.73350,-1.835894595
331.73400,-3.972255449
331.73450,-2.446283411
331.73500,1.521243889
331.73550,3.962799151
331.73600,3.047215928
331.73650,0.3004662585
331.73700,-1.22550578
331.73750,-2.751477819
331.73800,-3.667061042
331.73850,-3.667061042
331.73900,-2.446283411
331.73950,-1.22550578
331.74000,-0.9203113723
331.74050,-0.3099225569
331.74100,0.3004662585
331.74150,1.216049482
331.74200,0.9108550739
331.74250,0.9108550739
331.74300,2.436827112
331.74350,3.047215928
331.74400,1.521243889
331.74450,-0.6151169646
331.74500,-1.22550578
331.74550,0.3004662585
331.74600,1.826438297
331.74650,1.521243889
331.74700,1.826438297
331.74750,3.047215928
331.74800,3.962799151
331.74850,3.047215928
331.74900,1.216049482
331.74950,-0.004728149245
331.75000,0.6056606662
331.75050,1.826438297
331.75100,1.521243889
331.75150,-1.22550578
331.75200,-6.108616303
331.75250,-9.465754788
331.75300,-8.855365973
331.75350,-5.498227488
331.75400,-3.056672226
331.75450,-3.361866634
331.75500,-4.277449857
331.75550,-3.056672226
331.75600,-0.6151169646
331.75650,-0.004728149245
331.75700,-0.9203113723
331.75750,-0.9203113723
331.75800,0.6056606662
331.75850,2.436827112
331.75900,3.047215928
331.75950,2.131632705
331.76000,1.216049482
331.76050,0.6056606662
331.76100,-0.004728149245
331.76150,0.3004662585
331.76200,1.826438297
331.76250,3.047215928
331.76300,1.826438297
331.76350,-0.004728149245
331.76400,-0.3099225569
331.76450,0.3004662585
331.76500,0.3004662585
331.76550,-0.9203113723
331.76600,-1.835894595
331.76650,-1.530700188
331.76700,-0.9203113723
331.76750,-1.835894595
331.76800,-2.446283411
331.76850,-1.530700188
331.76900,-0.6151169646
331.76950,-0.9203113723
331.77000,-1.530700188
331.77050,-0.3099225569
331.77100,1.216049482
331.77150,1.521243889
331.77200,0.6056606662
331.77250,0.3004662585
331.77300,1.521243889
331.77350,1.826438297
331.77400,0.9108550739
331.77450,0.6056606662
331.77500,1.826438297
331.77550,3.352410335
331.77600,3.962799151
331.77650,3.352410335
331.77700,3.047215928
331.77750,2.74202152
331.77800,2.436827112
331.77850,2.436827112
331.77900,3.352410335
331.77950,3.352410335
331.78000,2.131632705
331.78050,-0.004728149245
331.78100,-0.004728149245
331.78150,0.6056606662
331.78200,0.6056606662
331.78250,-0.3099225569
331.78300,-0.9203113723
331.78350,-0.004728149245
331.78400,1.216049482
331.78450,0.9108550739
331.78500,-0.6151169646
331.78550,-2.446283411
331.78600,-2.141089003
331.78650,-0.004728149245
331.78700,2.436827112
331.78750,3.657604743
331.78800,2.131632705
331.78850,-0.6151169646
331.78900,-2.446283411
331.78950,-2.446283411
331.79000,-2.446283411
331.79050,-4.582644265
331.79100,-7.329393934
331.79150,-7.634588342
331.79200,-5.498227488
331.79250,-2.751477819
331.79300,-1.22550578
331.79350,0.6056606662
331.79400,4.573187966
331.79450,7.930326451
331.79500,7.625132043
331.79550,4.267993559
331.79600,0.6056606662
331.79650,-1.835894595
331.79700,-3.972255449
331.79750,-6.413810711
331.79800,-9.16056038
331.79850,-10.68653242
331.79900,-10.99172683
331.79950,-9.465754788
331.80000,-5.19303308
331.80050,-0.004728149245
331.80100,3.352410335
331.80150,2.74202152
331.80200,-0.6151169646
331.80250,-4.887838672
331.80300,-8.550171565
331.80350,-9.465754788
331.80400,-5.498227488
331.80450,1.826438297
331.80500,7.625132043
331.80550,7.625132043
331.80600,4.878382374
331.80650,3.657604743
331.80700,2.131632705
331.80750,-2.446283411
331.80800,-8.855365973
331.80850,-10.68653242
331.80900,-5.803421896
331.80950,-0.004728149245
331.81000,1.521243889
331.81050,2.131632705
331.81100,4.878382374
331.81150,7.014743228
331.81200,6.099160005
331.81250,2.74202152
331.81300,1.521243889
331.81350,2.74202152
331.81400,3.352410335
331.81450,1.826438297
331.81500,0.3004662585
331.81550,-0.6151169646
331.81600,-1.530700188
331.81650,-1.835894595
331.81700,-0.3099225569
331.81750,2.131632705
331.81800,2.74202152
331.81850,-0.004728149245
331.81900,-2.751477819
331.81950,-3.361866634
331.82000,-3.056672226
331.82050,-4.277449857
331.82100,-6.108616303
331.82150,-5.803421896
331.82200,-3.056672226
331.82250,-0.004728149245
331.82300,2.131632705
331.82350,3.352410335
331.82400,3.047215928
331.82450,0.6056606662
331.82500,-2.446283411
331.82550,-3.972255449
331.82600,-3.056672226
331.82650,-1.530700188
331.82700,-1.835894595
331.82750,-2.751477819
331.82800,-2.141089003
331.82850,-1.22550578
331.82900,-0.9203113723
331.82950,-1.530700188
331.83000,-0.3099225569
331.83050,2.436827112
331.83100,3.962799151
331.83150,2.74202152
331.83200,-0.004728149245
331.83250,-2.141089003
331.83300,-2.751477819
331.83350,-1.835894595
331.83400,-0.3099225569
331.83450,0.9108550739
331.83500,1.826438297
331.83550,2.131632705
331.83600,1.826438297
331.83650,1.521243889
331.83700,1.216049482
331.83750,1.521243889
331.83800,2.131632705
331.83850,1.826438297
331.83900,0.6056606662
331.83950,-0.004728149245
331.84000,0.6056606662
331.84050,1.216049482
331.84100,0.3004662585
331.84150,-0.9203113723
331.84200,-0.9203113723
331.84250,-0.004728149245
331.84300,-0.6151169646
331.84350,-3.361866634
331.84400,-5.498227488
331.84450,-5.19303308
331.84500,-3.056672226
331.84550,-1.22550578
331.84600,-0.004728149245
331.84650,0.6056606662
331.84700,-0.004728149245
331.84750,-0.9203113723
331.84800,-1.530700188
331.84850,-1.22550578
331.84900,-0.3099225569
331.84950,1.216049482
331.85000,3.657604743
331.85050,4.878382374
331.85100,4.267993559
331.85150,1.521243889
331.85200,-0.004728149245
331.85250,-0.004728149245
331.85300,-0.004728149245
331.85350,-0.004728149245
331.85400,-0.004728149245
331.85450,1.216049482
331.85500,3.352410335
331.85550,5.183576782
331.85600,6.099160005
331.85650,5.488771189
331.85700,3.657604743
331.85750,1.521243889
331.85800,-0.004728149245
331.85850,-0.004728149245
331.85900,-0.004728149245
331.85950,-0.3099225569
331.86000,-0.9203113723
331.86050,-0.9203113723
331.86100,-0.3099225569
331.86150,-0.004728149245
331.86200,-0.9203113723
331.86250,-2.446283411
331.86300,-3.056672226
331.86350,-2.446283411
331.86400,-0.9203113723
331.86450,0.6056606662
331.86500,1.826438297
331.86550,2.131632705
331.86600,0.9108550739
331.86650,-0.3099225569
331.86700,-0.3099225569
331.86750,0.3004662585
331.86800,0.6056606662
331.86850,-0.004728149245
331.86900,-0.004728149245
331.86950,1.826438297
331.87000,4.267993559
331.87050,5.488771189
331.87100,4.267993559
331.87150,3.352410335
331.87200,3.352410335
331.87250,3.352410335
331.87300,1.521243889
331.87350,-2.141089003
331.87400,-5.803421896
331.87450,-5.803421896
331.87500,-2.141089003
331.87550,0.9108550739
331.87600,0.3004662585
331.87650,-2.446283411
331.87700,-2.446283411
331.87750,2.436827112
331.87800,8.235520859
331.87850,9.151104082
331.87900,4.573187966
331.87950,-0.004728149245
331.88000,-0.9203113723
331.88050,0.6056606662
331.88100,2.74202152
331.88150,4.267993559
331.88200,5.183576782
331.88250,5.793965597
331.88300,4.878382374
331.88350,2.74202152
331.88400,0.3004662585
331.88450,-0.6151169646
331.88500,-1.530700188
331.88550,-2.446283411
331.88600,-3.667061042
331.88650,-4.887838672
331.88700,-4.887838672
331.88750,-4.582644265
331.88800,-3.972255449
331.88850,-3.056672226
331.88900,-0.6151169646
331.88950,1.521243889
331.89000,1.216049482
331.89050,-0.6151169646
331.89100,-0.004728149245
331.89150,4.267993559
331.89200,5.793965597
331.89250,-1.22550578
331.89300,-13.43328209
331.89350,-18.62158702
331.89400,-11.90731005
331.89450,-0.3099225569
331.89500,6.70954882
331.89550,8.845909674
331.89600,7.930326451
331.89650,3.962799151
331.89700,-2.446283411
331.89750,-7.634588342
331.89800,-8.244977157
331.89850,-7.024199526
331.89900,-7.939782749
331.89950,-7.634588342
331.90000,-2.446283411
331.90050,4.573187966
331.90100,6.404354412
331.90150,2.74202152
331.90200,0.9108550739
331.90250,3.962799151
331.90300,7.319937636
331.90350,7.014743228
331.90400,5.183576782
331.90450,5.488771189
331.90500,7.014743228
331.90550,7.014743228
331.90600,4.878382374
331.90650,3.352410335
331.90700,2.74202152
331.90750,1.216049482
331.90800,-0.3099225569
331.90850,-0.3099225569
331.90900,0.6056606662
331.90950,1.826438297
331.91000,1.216049482
331.91050,0.3004662585
331.91100,-0.3099225569
331.91150,-0.6151169646
331.91200,-0.9203113723
331.91250,-0.9203113723
331.91300,-1.22550578
331.91350,-2.751477819
331.91400,-4.277449857
331.91450,-4.277449857
331.91500,-3.056672226
331.91550,-1.835894595
331.91600,-2.141089003
331.91650,-2.446283411
331.91700,-3.056672226
331.91750,-3.972255449
331.91800,-5.19303308
331.91850,-5.498227488
331.91900,-4.277449857
331.91950,-3.056672226
331.92000,-3.361866634
331.92050,-3.361866634
331.92100,-1.530700188
331.92150,0.3004662585
331.92200,0.6056606662
331.92250,-0.9203113723
331.92300,-3.056672226
331.92350,-3.667061042
331.92400,-2.141089003
331.92450,-0.9203113723
331.92500,-0.6151169646
331.92550,-1.22550578
331.92600,-2.141089003
331.92650,-2.141089003
331.92700,-0.9203113723
331.92750,-0.004728149245
331.92800,-0.004728149245
331.92850,-0.3099225569
331.92900,-0.3099225569
331.92950,0.3004662585
331.93000,-0.004728149245
331.93050,-1.22550578
331.93100,-2.751477819
331.93150,-3.056672226
331.93200,-2.141089003
331.93250,-1.22550578
331.93300,-0.9203113723
331.93350,-1.22550578
331.93400,-1.530700188
331.93450,-1.22550578
331.93500,-0.3099225569
331.93550,-0.004728149245
331.93600,-0.9203113723
331.93650,-2.446283411
331.93700,-1.530700188
331.93750,1.826438297
331.93800,4.573187966
331.93850,4.878382374
331.93900,3.962799151
331.93950,3.657604743
331.94000,3.352410335
331.94050,1.826438297
331.94100,-0.004728149245
331.94150,1.216049482
331.94200,3.962799151
331.94250,4.878382374
331.94300,3.047215928
331.94350,1.216049482
331.94400,0.9108550739
331.94450,0.3004662585
331.94500,-0.6151169646
331.94550,-1.22550578
331.94600,-0.3099225569
331.94650,0.3004662585
331.94700,-0.3099225569
331.94750,-2.141089003
331.94800,-2.446283411
331.94850,-1.22550578
331.94900,-0.6151169646
331.94950,-0.9203113723
331.95000,-1.22550578
331.95050,-0.9203113723
331.95100,-0.3099225569
331.95150,-0.004728149245
331.95200,-0.004728149245
331.95250,-0.6151169646
331.95300,-1.22550578
331.95350,-1.835894595
331.95400,-1.530700188
331.95450,-1.835894595
331.95500,-2.446283411
331.95550,-1.835894595
331.95600,-0.004728149245
331.95650,2.131632705
331.95700,1.826438297
331.95750,0.3004662585
331.95800,0.6056606662
331.95850,2.131632705
331.95900,2.436827112
331.95950,-0.3099225569
331.96000,-3.667061042
331.96050,-4.277449857
331.96100,-2.141089003
331.96150,-0.004728149245
331.96200,1.521243889
331.96250,3.657604743
331.96300,5.488771189
331.96350,5.183576782
331.96400,2.131632705
331.96450,-0.004728149245
331.96500,-0.004728149245
331.96550,0.6056606662
331.96600,0.6056606662
331.96650,-0.004728149245
331.96700,-0.3099225569
331.96750,-0.004728149245
331.96800,0.9108550739
331.96850,2.131632705
331.96900,4.267993559
331.96950,5.183576782
331.97000,4.267993559
331.97050,0.9108550739
331.97100,-2.141089003
331.97150,-3.361866634
331.97200,-3.056672226
331.97250,-1.835894595
331.97300,-0.004728149245
331.97350,1.216049482
331.97400,2.131632705
331.97450,1.826438297
331.97500,0.6056606662
331.97550,0.3004662585
331.97600,0.3004662585
331.97650,0.3004662585
331.97700,-0.3099225569
331.97750,-1.22550578
331.97800,-0.004728149245
331.97850,1.826438297
331.97900,3.047215928
331.97950,2.74202152
331.98000,1.826438297
331.98050,1.521243889
331.98100,1.216049482
331.98150,0.3004662585
331.98200,0.9108550739
331.98250,3.962799151
331.98300,7.625132043
331.98350,9.151104082
331.98400,7.930326451
331.98450,5.488771189
331.98500,3.047215928
331.98550,0.6056606662
331.98600,-0.6151169646
331.98650,-0.004728149245
331.98700,0.9108550739
331.98750,2.131632705
331.98800,2.131632705
331.98850,1.216049482
331.98900,-0.9203113723
331.98950,-3.361866634
331.99000,-3.361866634
331.99050,-0.9203113723
331.99100,0.6056606662
331.99150,-0.9203113723
331.99200,-3.361866634
331.99250,-2.446283411
331.99300,0.9108550739
331.99350,2.436827112
331.99400,0.9108550739
331.99450,-0.004728149245
331.99500,0.6056606662
331.99550,-0.004728149245
331.99600,-3.056672226
331.99650,-5.498227488
331.99700,-5.19303308
331.99750,-5.19303308
331.99800,-6.413810711
331.99850,-6.108616303
331.99900,-2.141089003
331.99950,2.131632705
332.00000,3.047215928
332.00050,1.521243889
332.00100,1.521243889
332.00150,3.047215928
332.00200,3.352410335
332.00250,1.826438297
332.00300,1.216049482
332.00350,1.826438297
332.00400,1.826438297
332.00450,-0.3099225569
332.00500,-1.835894595
332.00550,-1.22550578
332.00600,-0.004728149245
332.00650,-0.004728149245
332.00700,-1.22550578
332.00750,-1.835894595
332.00800,-2.446283411
332.00850,-3.361866634
332.00900,-3.972255449
332.00950,-2.751477819
332.01000,-1.530700188
332.01050,-2.141089003
332.01100,-4.277449857
332.01150,-5.803421896
332.01200,-5.498227488
332.01250,-3.667061042
332.01300,-2.141089003
332.01350,-1.835894595
332.01400,-2.446283411
332.01450,-3.056672226
332.01500,-2.446283411
332.01550,-0.9203113723
332.01600,0.6056606662
332.01650,1.521243889
332.01700,1.826438297
332.01750,1.216049482
332.01800,-0.004728149245
332.01850,-0.3099225569
332.01900,-0.004728149245
332.01950,0.3004662585
332.02000,-0.004728149245
332.02050,-1.22550578
332.02100,-2.141089003
332.02150,-1.835894595
332.02200,-0.9203113723
332.02250,-0.004728149245
332.02300,0.6056606662
332.02350,1.521243889
332.02400,2.74202152
332.02450,3.962799151
332.02500,3.657604743
332.02550,2.436827112
332.02600,0.6056606662
332.02650,-0.004728149245
332.02700,-0.3099225569
332.02750,-0.9203113723
332.02800,-1.22550578
332.02850,0.3004662585
332.02900,3.657604743
332.02950,4.878382374
332.03000,1.826438297
332.03050,-1.835894595
332.03100,-3.361866634
332.03150,-3.056672226
332.03200,-3.667061042
332.03250,-4.887838672
332.03300,-3.972255449
332.03350,-1.835894595
332.03400,-0.6151169646
332.03450,-0.9203113723
332.03500,-0.3099225569
332.03550,1.826438297
332.03600,4.267993559
332.03650,4.878382374
332.03700,3.352410335
332.03750,1.521243889
332.03800,0.6056606662
332.03850,1.826438297
332.03900,5.488771189
332.03950,9.151104082
332.04000,9.45629849
332.04050,6.099160005
332.04100,3.352410335
332.04150,2.74202152
332.04200,2.74202152
332.04250,0.9108550739
332.04300,-1.835894595
332.04350,-3.667061042
332.04400,-4.277449857
332.04450,-4.582644265
332.04500,-4.277449857
332.04550,-3.056672226
332.04600,-1.22550578
332.04650,-0.004728149245
332.04700,-0.004728149245
332.04750,-0.004728149245
332.04800,-1.22550578
332.04850,-3.056672226
332.04900,-5.19303308
332.04950,-6.108616303
332.05000,-5.498227488
332.05050,-3.972255449
332.05100,-3.361866634
332.05150,-4.582644265
332.05200,-6.108616303
332.05250,-6.413810711
332.05300,-4.887838672
332.05350,-2.141089003
332.05400,0.3004662585
332.05450,3.047215928
332.05500,6.099160005
332.05550,8.845909674
332.05600,9.45629849
332.05650,8.845909674
332.05700,7.930326451
332.05750,7.014743228
332.05800,5.793965597
332.05850,3.962799151
332.05900,3.047215928
332.05950,2.436827112
332.06000,2.131632705
332.06050,1.521243889
332.06100,1.521243889
332.06150,1.521243889
332.06200,1.216049482
332.06250,0.6056606662
332.06300,0.3004662585
332.06350,-0.004728149245
332.06400,-0.9203113723
332.06450,-2.141089003
332.06500,-2.446283411
332.06550,-1.835894595
332.06600,-0.9203113723
332.06650,0.3004662585
332.06700,1.826438297
332.06750,2.74202152
332.06800,2.131632705
332.06850,1.521243889
332.06900,1.826438297
332.06950,2.131632705
332.07000,1.521243889
332.07050,-0.004728149245
332.07100,-0.9203113723
332.07150,-1.22550578
332.07200,-2.141089003
332.07250,-3.056672226
332.07300,-2.141089003
332.07350,-0.6151169646
332.07400,-1.22550578
332.07450,-3.972255449
332.07500,-5.498227488
332.07550,-4.277449857
332.07600,-3.056672226
332.07650,-5.19303308
332.07700,-7.939782749
332.07750,-6.413810711
332.07800,-0.004728149245
332.07850,7.014743228
332.07900,10.0666873
332.07950,8.235520859
332.08000,4.878382374
332.08050,1.826438297
332.08100,-0.004728149245
332.08150,-0.3099225569
332.08200,-0.004728149245
332.08250,-0.004728149245
332.08300,-0.004728149245
332.08350,-0.3099225569
332.08400,-2.446283411
332.08450,-4.582644265
332.08500,-4.277449857
332.08550,-1.22550578
332.08600,-0.004728149245
332.08650,-1.835894595
332.08700,-4.887838672
332.08750,-5.803421896
332.08800,-5.498227488
332.08850,-7.939782749
332.08900,-11.29692123
332.08950,-8.855365973
332.09000,1.826438297
332.09050,13.7290202
332.09100,16.78096427
332.09150,10.98227053
332.09200,3.962799151
332.09250,1.216049482
332.09300,1.826438297
332.09350,2.131632705
332.09400,1.826438297
332.09450,1.521243889
332.09500,1.216049482
332.09550,1.521243889
332.09600,2.131632705
332.09650,2.74202152
332.09700,2.436827112
332.09750,0.6056606662
332.09800,-0.3099225569
332.09850,-0.004728149245
332.09900,0.3004662585
332.09950,-0.004728149245
332.10000,-1.22550578
332.10050,-1.530700188
332.10100,-0.6151169646
332.10150,-0.3099225569
332.10200,-1.835894595
332.10250,-4.277449857
332.10300,-5.498227488
332.10350,-4.887838672
332.10400,-3.361866634
332.10450,-2.446283411
332.10500,-2.446283411
332.10550,-3.056672226
332.10600,-3.361866634
332.10650,-2.751477819
332.10700,-0.9203113723
332.10750,0.6056606662
332.10800,1.826438297
332.10850,2.436827112
332.10900,2.436827112
332.10950,2.74202152
332.11000,2.74202152
332.11050,2.436827112
332.11100,2.131632705
332.11150,1.826438297
332.11200,1.521243889
332.11250,0.6056606662
332.11300,-0.004728149245
332.11350,-0.9203113723
332.11400,-1.835894595
332.11450,-2.141089003
332.11500,-0.6151169646
332.11550,1.521243889
332.11600,1.826438297
332.11650,-0.3099225569
332.11700,-3.667061042
332.11750,-3.972255449
332.11800,-1.835894595
332.11850,-0.004728149245
332.11900,0.3004662585
332.11950,0.3004662585
332.12000,1.216049482
332.12050,1.826438297
332.12100,2.131632705
332.12150,3.047215928
332.12200,3.962799151
332.12250,3.352410335
332.12300,0.9108550739
332.12350,-0.3099225569
332.12400,-0.3099225569
332.12450,-0.6151169646
332.12500,-1.835894595
332.12550,-3.667061042
332.12600,-4.277449857
332.12650,-5.19303308
332.12700,-7.024199526
332.12750,-7.329393934
332.12800,-4.887838672
332.12850,-0.6151169646
332.12900,1.216049482
332.12950,0.6056606662
332.13000,-0.004728149245
332.13050,0.6056606662
332.13100,1.826438297
332.13150,2.74202152
332.13200,2.74202152
332.13250,2.131632705
332.13300,0.9108550739
332.13350,0.6056606662
332.13400,1.521243889
332.13450,2.74202152
332.13500,2.74202152
332.13550,3.352410335
332.13600,5.183576782
332.13650,4.878382374
332.13700,-0.004728149245
332.13750,-7.024199526
332.13800,-10.0761436
332.13850,-7.634588342
332.13900,-4.887838672
332.13950,-5.19303308
332.14000,-5.19303308
332.14050,-1.835894595
332.14100,2.436827112
332.14150,5.793965597
332.14200,7.625132043
332.14250,10.37188171
332.14300,12.50824257
332.14350,10.98227053
332.14400,6.70954882
332.14450,2.436827112
332.14500,0.6056606662
332.14550,-0.004728149245
332.14600,-0.004728149245
332.14650,-0.3099225569
332.14700,-0.3099225569
332.14750,0.3004662585
332.14800,1.826438297
332.14850,3.047215928
332.14900,3.047215928
332.14950,2.74202152
332.15000,3.352410335
332.15050,4.267993559
332.15100,3.657604743
332.15150,1.826438297
332.15200,0.9108550739
332.15250,1.826438297
332.15300,2.131632705
332.15350,0.3004662585
332.15400,-1.22550578
332.15450,-1.530700188
332.15500,-1.835894595
332.15550,-3.361866634
332.15600,-5.19303308
332.15650,-4.887838672
332.15700,-3.972255449
332.15750,-4.582644265
332.15800,-5.803421896
332.15850,-4.277449857
332.15900,0.6056606662
332.15950,6.099160005
332.16000,7.319937636
332.16050,3.962799151
332.16100,-0.6151169646
332.16150,-2.751477819
332.16200,-0.6151169646
332.16250,2.74202152
332.16300,3.962799151
332.16350,2.436827112
332.16400,0.6056606662
332.16450,0.3004662585
332.16500,0.3004662585
332.16550,-0.3099225569
332.16600,-1.835894595
332.16650,-2.141089003
332.16700,-1.22550578
332.16750,-0.9203113723
332.16800,-2.446283411
332.16850,-4.582644265
332.16900,-6.719005119
332.16950,-8.550171565
332.17000,-9.465754788
332.17050,-8.550171565
332.17100,-6.413810711
332.17150,-3.667061042
332.17200,-2.141089003
332.17250,-2.446283411
332.17300,-3.972255449
332.17350,-4.277449857
332.17400,-0.004728149245
332.17450,7.930326451
332.17500,13.7290202
332.17550,10.67707612
332.17600,0.3004662585
332.17650,-8.550171565
332.17700,-9.465754788
332.17750,-3.972255449
332.17800,0.9108550739
332.17850,2.74202152
332.17900,1.826438297
332.17950,0.3004662585
332.18000,-1.22550578
332.18050,-2.751477819
332.18100,-2.446283411
332.18150,-0.9203113723
332.18200,-0.6151169646
332.18250,-0.9203113723
332.18300,-1.22550578
332.18350,-0.004728149245
332.18400,0.6056606662
332.18450,0.3004662585
332.18500,-0.9203113723
332.18550,-1.530700188
332.18600,-1.22550578
332.18650,-0.9203113723
332.18700,-1.22550578
332.18750,-1.530700188
332.18800,-1.835894595
332.18850,-1.835894595
332.18900,-1.530700188
332.18950,-1.530700188
332.19000,-1.530700188
332.19050,-1.835894595
332.19100,-2.446283411
332.19150,-3.056672226
332.19200,-3.056672226
332.19250,-3.056672226
332.19300,-3.056672226
332.19350,-3.056672226
332.19400,-2.751477819
332.19450,-2.446283411
332.19500,-2.141089003
332.19550,-1.835894595
332.19600,-1.530700188
332.19650,-1.530700188
332.19700,-1.835894595
332.19750,-1.835894595
332.19800,-0.3099225569
332.19850,1.216049482
332.19900,1.826438297
332.19950,0.9108550739
332.20000,-0.004728149245
332.20050,-0.004728149245
332.20100,1.216049482
332.20150,2.131632705
332.20200,2.436827112
332.20250,2.436827112
332.20300,2.74202152
332.20350,2.436827112
332.20400,1.826438297
332.20450,1.521243889
332.20500,1.521243889
332.20550,0.9108550739
332.20600,0.6056606662
332.20650,1.521243889
332.20700,3.047215928
332.20750,3.657604743
332.20800,3.047215928
332.20850,1.826438297
332.20900,1.216049482
332.20950,0.9108550739
332.21000,-0.004728149245
332.21050,-0.004728149245
332.21100,0.3004662585
332.21150,0.3004662585
332.21200,-1.22550578
332.21250,-4.887838672
332.21300,-8.855365973
332.21350,-12.51769887
332.21400,-15.26444853
332.21450,-15.87483735
332.21500,-13.12808768
332.21550,-8.244977157
332.21600,-2.446283411
332.21650,3.962799151
332.21700,10.0666873
332.21750,14.33940901
332.21800,15.56018664
332.21850,14.03421461
332.21900,10.98227053
332.21950,7.319937636
332.22000,4.573187966
332.22050,3.352410335
332.22100,3.047215928
332.22150,2.436827112
332.22200,2.131632705
332.22250,2.74202152
332.22300,3.962799151
332.22350,3.657604743
332.22400,1.521243889
332.22450,-0.004728149245
332.22500,-0.004728149245
332.22550,-0.3099225569
332.22600,-0.6151169646
332.22650,-0.9203113723
332.22700,-0.6151169646
332.22750,-0.9203113723
332.22800,-2.141089003
332.22850,-2.751477819
332.22900,-1.835894595
332.22950,-1.22550578
332.23000,-1.835894595
332.23050,-2.446283411
332.23100,-2.141089003
332.23150,-1.835894595
332.23200,-2.141089003
332.23250,-2.751477819
332.23300,-1.835894595
332.23350,-0.004728149245
332.23400,-0.004728149245
332.23450,-1.835894595
332.23500,-3.972255449
332.23550,-3.667061042
332.23600,-1.835894595
332.23650,-0.004728149245
332.23700,1.216049482
332.23750,1.826438297
332.23800,1.521243889
332.23850,2.131632705
332.23900,3.962799151
332.23950,4.878382374
332.24000,3.352410335
332.24050,0.6056606662
332.24100,0.3004662585
332.24150,3.047215928
332.24200,5.793965597
332.24250,5.488771189
332.24300,3.657604743
332.24350,3.352410335
332.24400,3.657604743
332.24450,3.047215928
332.24500,1.521243889
332.24550,0.9108550739
332.24600,0.9108550739
332.24650,0.6056606662
332.24700,-0.004728149245
332.24750,-0.6151169646
332.24800,-1.22550578
332.24850,-1.22550578
332.24900,-0.9203113723
332.24950,-0.004728149245
332.25000,0.9108550739
332.25050,1.521243889
332.25100,1.216049482
332.25150,0.6056606662
332.25200,-0.004728149245
332.25250,-0.004728149245
332.25300,-0.004728149245
332.25350,-0.004728149245
332.25400,-0.6151169646
332.25450,-1.22550578
332.25500,-0.9203113723
332.25550,0.3004662585
332.25600,1.216049482
332.25650,1.216049482
332.25700,-0.004728149245
332.25750,-0.6151169646
332.25800,-0.6151169646
332.25850,-0.004728149245
332.25900,0.6056606662
332.25950,0.6056606662
332.26000,-0.004728149245
332.26050,-0.6151169646
332.26100,-0.3099225569
332.26150,-0.004728149245
332.26200,0.3004662585
332.26250,-0.3099225569
332.26300,-0.6151169646
332.26350,-0.6151169646
332.26400,-0.9203113723
332.26450,-2.141089003
332.26500,-3.667061042
332.26550,-4.582644265
332.26600,-4.277449857
332.26650,-2.446283411
332.26700,-0.3099225569
332.26750,0.6056606662
332.26800,-0.004728149245
332.26850,-2.446283411
332.26900,-6.413810711
332.26950,-9.770949196
332.27000,-10.68653242
332.27050,-9.465754788
332.27100,-7.939782749
332.27150,-7.634588342
332.27200,-6.108616303
332.27250,-2.141089003
332.27300,2.436827112
332.27350,3.047215928
332.27400,-0.004728149245
332.27450,-0.6151169646
332.27500,5.183576782
332.27550,13.7290202
332.27600,16.17057546
332.27650,12.81343697
332.27700,10.0666873
332.27750,9.761492897
332.27800,8.540715266
332.27850,5.793965597
332.27900,5.793965597
332.27950,10.0666873
332.28000,11.59265934
332.28050,6.404354412
332.28100,-1.22550578
332.28150,-4.582644265
332.28200,-3.361866634
332.28250,-1.530700188
332.28300,-1.530700188
332.28350,-1.22550578
332.28400,-0.6151169646
332.28450,-0.6151169646
332.28500,-1.22550578
332.28550,-0.3099225569
332.28600,0.9108550739
332.28650,0.9108550739
332.28700,-0.6151169646
332.28750,-1.22550578
332.28800,-0.004728149245
332.28850,0.6056606662
332.28900,-0.6151169646
332.28950,-1.22550578
332.29000,-0.004728149245
332.29050,0.6056606662
332.29100,-0.9203113723
332.29150,-3.361866634
332.29200,-2.751477819
332.29250,-0.9203113723
332.29300,-0.6151169646
332.29350,-1.835894595
332.29400,-3.056672226
332.29450,-3.056672226
332.29500,-2.751477819
332.29550,-2.751477819
332.29600,-1.530700188
332.29650,1.216049482
332.29700,3.657604743
332.29750,3.047215928
332.29800,0.6056606662
332.29850,-0.6151169646
332.29900,-0.004728149245
332.29950,0.9108550739
332.30000,1.216049482
332.30050,1.216049482
332.30100,0.9108550739
332.30150,0.3004662585
332.30200,-0.004728149245
332.30250,-0.3099225569
332.30300,-0.004728149245
332.30350,0.6056606662
332.30400,0.9108550739
332.30450,1.216049482
332.30500,1.521243889
332.30550,1.826438297
332.30600,1.216049482
332.30650,-0.004728149245
332.30700,-0.6151169646
332.30750,-0.9203113723
332.30800,-0.9203113723
332.30850,-1.530700188
332.30900,-1.835894595
332.30950,-1.835894595
332.31000,-2.446283411
332.31050,-2.751477819
332.31100,-2.141089003
332.31150,-1.530700188
332.31200,-2.141089003
332.31250,-3.056672226
332.31300,-2.751477819
332.31350,-1.530700188
332.31400,-1.835894595
332.31450,-3.056672226
332.31500,-3.056672226
332.31550,-0.6151169646
332.31600,2.436827112
332.31650,4.573187966
332.31700,5.488771189
332.31750,6.099160005
332.31800,5.488771189
332.31850,3.962799151
332.31900,2.436827112
332.31950,1.826438297
332.32000,1.826438297
332.32050,1.826438297
332.32100,1.216049482
332.32150,0.6056606662
332.32200,-0.004728149245
332.32250,-1.22550578
332.32300,-2.446283411
332.32350,-3.667061042
332.32400,-4.582644265
332.32450,-4.887838672
332.32500,-4.582644265
332.32550,-3.056672226
332.32600,-0.6151169646
332.32650,2.131632705
332.32700,4.878382374
332.32750,5.793965597
332.32800,4.878382374
332.32850,3.352410335
332.32900,1.826438297
332.32950,-0.004728149245
332.33000,-2.446283411
332.33050,-4.277449857
332.33100,-3.361866634
332.33150,-0.004728149245
332.33200,2.436827112
332.33250,2.131632705
332.33300,0.9108550739
332.33350,1.826438297
332.33400,5.488771189
332.33450,9.761492897
332.33500,11.89785375
332.33550,9.761492897
332.33600,4.573187966
332.33650,-0.3099225569
332.33700,-1.530700188
332.33750,2.74202152
332.33800,8.845909674
332.33850,11.89785375
332.33900,9.761492897
332.33950,5.793965597
332.34000,3.657604743
332.34050,1.521243889
332.34100,-2.751477819
332.34150,-8.550171565
332.34200,-9.770949196
332.34250,-4.582644265
332.34300,2.74202152
332.34350,8.845909674
332.34400,10.67707612
332.34450,9.151104082
332.34500,5.793965597
332.34550,2.74202152
332.34600,1.521243889
332.34650,0.6056606662
332.34700,-0.3099225569
332.34750,-1.22550578
332.34800,-0.6151169646
332.34850,-0.004728149245
332.34900,-0.3099225569
332.34950,-0.3099225569
332.35000,3.352410335
332.35050,7.625132043
332.35100,4.878382374
332.35150,-5.803421896
332.35200,-16.79042057
332.35250,-18.62158702
332.35300,-12.51769887
332.35350,-5.803421896
332.35400,-2.141089003
332.35450,-0.9203113723
332.35500,-1.530700188
332.35550,-2.446283411
332.35600,-2.751477819
332.35650,-1.835894595
332.35700,-1.835894595
332.35750,-2.751477819
332.35800,-3.361866634
332.35850,-3.361866634
332.35900,-4.277449857
332.35950,-5.803421896
332.36000,-6.413810711
332.36050,-3.972255449
332.36100,-0.9203113723
332.36150,-0.6151169646
332.36200,-2.141089003
332.36250,-3.667061042
332.36300,-3.972255449
332.36350,-3.667061042
332.36400,-3.972255449
332.36450,-3.972255449
332.36500,-3.972255449
332.36550,-3.361866634
332.36600,-2.446283411
332.36650,-1.835894595
332.36700,-2.141089003
332.36750,-3.667061042
332.36800,-3.667061042
332.36850,-2.446283411
332.36900,-1.530700188
332.36950,-2.446283411
332.37000,-3.056672226
332.37050,-2.141089003
332.37100,-0.9203113723
332.37150,-1.530700188
332.37200,-3.361866634
332.37250,-3.972255449
332.37300,-3.667061042
332.37350,-3.361866634
332.37400,-2.751477819
332.37450,-2.141089003
332.37500,-1.22550578
332.37550,-1.530700188
332.37600,-2.141089003
332.37650,-1.835894595
332.37700,-0.9203113723
332.37750,-0.6151169646
332.37800,-1.22550578
332.37850,-0.9203113723
332.37900,-0.004728149245
332.37950,0.3004662585
332.38000,0.3004662585
332.38050,-0.004728149245
332.38100,0.3004662585
332.38150,0.6056606662
332.38200,0.9108550739
332.38250,1.521243889
332.38300,2.436827112
332.38350,3.047215928
332.38400,2.131632705
332.38450,1.216049482
332.38500,1.826438297
332.38550,3.352410335
332.38600,5.183576782
332.38650,5.793965597
332.38700,4.878382374
332.38750,2.74202152
332.38800,0.6056606662
332.38850,0.3004662585
332.38900,1.826438297
332.38950,2.436827112
332.39000,1.826438297
332.39050,0.9108550739
332.39100,1.216049482
332.39150,2.436827112
332.39200,2.131632705
332.39250,0.9108550739
332.39300,-0.004728149245
332.39350,-0.004728149245
332.39400,-0.3099225569
332.39450,-1.22550578
332.39500,-1.835894595
332.39550,-1.530700188
332.39600,-0.9203113723
332.39650,-0.9203113723
332.39700,-0.9203113723
332.39750,-0.6151169646
332.39800,-0.3099225569
332.39850,-0.004728149245
332.39900,-0.004728149245
332.39950,-0.3099225569
332.40000,-0.6151169646
332.40050,-0.6151169646
332.40100,-0.3099225569
332.40150,0.3004662585
332.40200,1.216049482
332.40250,1.216049482
332.40300,-0.004728149245
332.40350,-0.6151169646
332.40400,-1.22550578
332.40450,-0.9203113723
332.40500,-1.22550578
332.40550,-2.751477819
332.40600,-3.667061042
332.40650,-3.056672226
332.40700,-0.9203113723
332.40750,-0.004728149245
332.40800,-0.004728149245
332.40850,-0.6151169646
332.40900,-0.004728149245
332.40950,1.826438297
332.41000,1.216049482
332.41050,-1.530700188
332.41100,-4.887838672
332.41150,-5.803421896
332.41200,-4.277449857
332.41250,-3.056672226
332.41300,-2.446283411
332.41350,-1.530700188
332.41400,-0.004728149245
332.41450,1.521243889
332.41500,1.521243889
332.41550,0.3004662585
332.41600,-0.9203113723
332.41650,-1.835894595
332.41700,-2.141089003
332.41750,-2.141089003
332.41800,-1.22550578
332.41850,-0.3099225569
332.41900,-0.6151169646
332.41950,-0.9203113723
332.42000,-0.3099225569
332.42050,0.6056606662
332.42100,1.521243889
332.42150,1.521243889
332.42200,0.6056606662
332.42250,-0.004728149245
332.42300,-1.22550578
332.42350,-2.141089003
332.42400,-2.446283411
332.42450,-2.141089003
332.42500,-2.141089003
332.42550,-2.751477819
332.42600,-3.972255449
332.42650,-4.887838672
332.42700,-4.887838672
332.42750,-3.056672226
332.42800,0.6056606662
332.42850,4.267993559
332.42900,5.793965597
332.42950,4.573187966
332.43000,2.436827112
332.43050,1.521243889
332.43100,0.3004662585
332.43150,-0.3099225569
332.43200,-0.9203113723
332.43250,-0.004728149245
332.43300,1.826438297
332.43350,2.131632705
332.43400,0.6056606662
332.43450,-1.22550578
332.43500,-1.835894595
332.43550,-0.004728149245
332.43600,1.826438297
332.43650,2.74202152
332.43700,2.131632705
332.43750,1.521243889
332.43800,1.826438297
332.43850,0.9108550739
332.43900,-1.22550578
332.43950,-2.751477819
332.44000,-1.530700188
332.44050,-0.004728149245
332.44100,-1.835894595
332.44150,-4.582644265
332.44200,-3.361866634
332.44250,2.131632705
332.44300,7.014743228
332.44350,7.625132043
332.44400,5.488771189
332.44450,5.488771189
332.44500,8.540715266
332.44550,12.50824257
332.44600,15.56018664
332.44650,15.86538105
332.44700,12.50824257
332.44750,7.625132043
332.44800,4.878382374
332.44850,5.183576782
332.44900,6.404354412
332.44950,5.793965597
332.45000,4.267993559
332.45050,2.436827112
332.45100,0.9108550739
332.45150,-0.3099225569
332.45200,-0.3099225569
332.45250,1.826438297
332.45300,4.573187966
332.45350,5.488771189
332.45400,4.267993559
332.45450,3.047215928
332.45500,3.047215928
332.45550,3.047215928
332.45600,3.047215928
332.45650,3.047215928
332.45700,2.436827112
332.45750,0.9108550739
332.45800,-0.9203113723
332.45850,-2.446283411
332.45900,-2.751477819
332.45950,-2.446283411
332.46000,-2.141089003
332.46050,-2.446283411
332.46100,-2.751477819
332.46150,-3.361866634
332.46200,-3.972255449
332.46250,-3.972255449
332.46300,-3.056672226
332.46350,-2.141089003
332.46400,-2.141089003
332.46450,-3.361866634
332.46500,-5.19303308
332.46550,-6.108616303
332.46600,-5.498227488
332.46650,-4.277449857
332.46700,-3.667061042
332.46750,-3.361866634
332.46800,-3.056672226
332.46850,-3.056672226
332.46900,-3.361866634
332.46950,-3.667061042
332.47000,-3.972255449
332.47050,-3.667061042
332.47100,-3.667061042
332.47150,-4.582644265
332.47200,-4.887838672
332.47250,-3.667061042
332.47300,-1.835894595
332.47350,-1.835894595
332.47400,-3.056672226
332.47450,-3.972255449
332.47500,-3.667061042
332.47550,-3.972255449
332.47600,-5.498227488
332.47650,-7.634588342
332.47700,-7.634588342
332.47750,-7.024199526
332.47800,-6.719005119
332.47850,-5.803421896
332.47900,-2.751477819
332.47950,2.131632705
332.48000,5.488771189
332.48050,6.099160005
332.48100,5.793965597
332.48150,6.099160005
332.48200,5.793965597
332.48250,3.657604743
332.48300,1.216049482
332.48350,0.9108550739
332.48400,2.131632705
332.48450,2.436827112
332.48500,1.521243889
332.48550,0.9108550739
332.48600,2.131632705
332.48650,3.352410335
332.48700,2.74202152
332.48750,0.6056606662
332.48800,-0.3099225569
332.48850,-0.004728149245
332.48900,1.521243889
332.48950,2.74202152
332.49000,3.047215928
332.49050,2.436827112
332.49100,2.131632705
332.49150,1.826438297
332.49200,1.521243889
332.49250,0.3004662585
332.49300,-0.9203113723
332.49350,-1.530700188
332.49400,-1.22550578
332.49450,-0.9203113723
332.49500,-0.9203113723
332.49550,-0.9203113723
332.49600,-0.004728149245
332.49650,1.521243889
332.49700,2.131632705
332.49750,2.436827112
332.49800,3.047215928
332.49850,3.962799151
332.49900,4.878382374
332.49950,4.267993559
332.50000,3.352410335
332.50050,2.131632705
332.50100,-0.004728149245
332.50150,-2.751477819
332.50200,-3.667061042
332.50250,-1.835894595
332.50300,0.3004662585
332.50350,0.9108550739
332.50400,-0.004728149245
332.50450,-2.446283411
332.50500,-4.277449857
332.50550,-4.277449857
332.50600,-1.835894595
332.50650,0.6056606662
332.50700,-0.004728149245
332.50750,-3.667061042
332.50800,-7.024199526
332.50850,-5.803421896
332.50900,-0.9203113723
332.50950,2.74202152
332.51000,3.962799151
332.51050,3.962799151
332.51100,3.962799151
332.51150,3.962799151
332.51200,3.657604743
332.51250,3.962799151
332.51300,5.793965597
332.51350,7.014743228
332.51400,4.878382374
332.51450,-0.004728149245
332.51500,-3.972255449
332.51550,-4.582644265
332.51600,-2.446283411
332.51650,-2.446283411
332.51700,-7.024199526
332.51750,-12.82289327
332.51800,-16.18003176
332.51850,-17.40080939
332.51900,-18.92678143
332.51950,-19.84236465
332.52000,-14.34886531
332.52050,-1.22550578
332.52100,11.89785375
332.52150,18.30693631
332.52200,17.6965475
332.52250,14.94979783
332.52300,12.81343697
332.52350,9.761492897
332.52400,4.878382374
332.52450,0.6056606662
332.52500,-0.6151169646
332.52550,-0.3099225569
332.52600,0.3004662585
332.52650,0.9108550739
332.52700,2.131632705
332.52750,3.962799151
332.52800,5.183576782
332.52850,4.878382374
332.52900,3.962799151
332.52950,4.267993559
332.53000,6.404354412
332.53050,9.45629849
332.53100,11.28746494
332.53150,10.98227053
332.53200,10.0666873
332.53250,8.845909674
332.53300,7.014743228
332.53350,4.267993559
332.53400,1.216049482
332.53450,0.3004662585
332.53500,1.216049482
332.53550,2.436827112
332.53600,2.131632705
332.53650,0.9108550739
332.53700,-0.004728149245
332.53750,-0.004728149245
332.53800,-0.004728149245
332.53850,-0.004728149245
332.53900,-0.004728149245
332.53950,-0.004728149245
332.54000,-0.6151169646
332.54050,-2.141089003
332.54100,-3.667061042
332.54150,-3.972255449
332.54200,-2.446283411
332.54250,-0.9203113723
332.54300,-1.530700188
332.54350,-3.667061042
332.54400,-4.582644265
332.54450,-3.361866634
332.54500,-2.141089003
332.54550,-1.835894595
332.54600,-2.446283411
332.54650,-2.141089003
332.54700,-1.835894595
332.54750,-3.056672226
332.54800,-4.582644265
332.54850,-3.972255449
332.54900,-2.751477819
332.54950,-1.530700188
332.55000,-1.530700188
332.55050,-1.22550578
332.55100,-1.530700188
332.55150,-2.751477819
332.55200,-4.277449857
332.55250,-4.582644265
332.55300,-4.277449857
332.55350,-3.667061042
332.55400,-3.361866634
332.55450,-3.056672226
332.55500,-2.751477819
332.55550,-3.667061042
332.55600,-5.19303308
332.55650,-5.19303308
332.55700,-3.361866634
332.55750,-1.835894595
332.55800,-1.530700188
332.55850,-1.835894595
332.55900,-1.22550578
332.55950,-1.22550578
332.56000,-1.835894595
332.56050,-1.835894595
332.56100,-1.22550578
332.56150,-0.6151169646
332.56200,-2.141089003
332.56250,-3.972255449
332.56300,-4.277449857
332.56350,-3.056672226
332.56400,-2.751477819
332.56450,-4.582644265
332.56500,-6.413810711
332.56550,-6.108616303
332.56600,-3.972255449
332.56650,-2.141089003
332.56700,-1.835894595
332.56750,-2.446283411
332.56800,-1.22550578
332.56850,1.521243889
332.56900,5.488771189
332.56950,7.625132043
332.57000,7.930326451
332.57050,6.404354412
332.57100,4.573187966
332.57150,3.352410335
332.57200,2.131632705
332.57250,0.3004662585
332.57300,-1.530700188
332.57350,-1.835894595
332.57400,-0.6151169646
332.57450,0.6056606662
332.57500,0.9108550739
