time,Brachiarod, EXt Carp,EXT DIG,Flex CarpU,Flex Carp R
219.98,19.55150721,-5.464215317,69.16412976,-10.35632458,6.088025976
219.9805,21.68786806,-5.15902091,87.47579422,-14.32385188,4.867248345
219.981,16.49956313,-2.41227124,96.32643204,-14.01865747,-5.814555924
219.9815,7.64892531,0.02928402113,72.52126824,-9.745935761,-15.27558256
219.982,0.01906511792,0.9448672442,32.84599524,-5.168019645,-11.91844408
219.9825,-5.474434221,1.250061652,6.904470586,-3.031658792,0.2893322296
219.983,-9.136767113,1.860450467,-0.1150007913,-3.336853199,10.36074768
219.9835,-10.96793356,2.470839283,-3.166944868,-4.252436422,12.49710854
219.984,-9.747155929,2.77603369,-10.18641625,-4.252436422,11.58152531
219.9845,-7.305600667,3.081228098,-14.45913795,-3.336853199,11.88671972
219.985,-7.610795075,3.081228098,-12.3227771,-0.5901035299,11.27633091
219.9855,-11.88351678,3.691616914,-11.10199947,3.072229362,7.003609199
219.986,-15.54584967,4.912394544,-12.62797151,6.734562255,1.51010986
219.9865,-13.40948882,5.52278336,-10.18641625,7.34495107,-0.3210565858
219.987,-7.000406259,4.607200137,0.8005824318,4.903395809,0.2893322296
219.9875,-3.948462182,2.77603369,12.70316433,2.461840547,-0.3210565858
219.988,-8.831572705,2.470839283,11.17719229,3.072229362,-3.983389478
219.9885,-17.68221053,3.996811321,-5.303305722,6.734562255,-5.204167109
219.989,-21.64973783,4.607200137,-24.225359,10.09170074,-0.9314454012
219.9895,-17.07182171,2.77603369,-33.38119123,10.70208956,5.477637161
219.99,-7.610795075,0.02928402113,-31.55002478,9.176117517,8.529581238
219.9905,0.01906511792,-1.19149361,-24.225359,6.429367847,7.308803607
219.991,4.596981233,-0.2759103866,-15.67991558,3.072229362,5.477637161
219.9915,7.343730903,0.6396728365,-7.744860984,0.02028528547,3.646470714
219.992,9.785286164,0.6396728365,-1.64097283,-2.116075568,0.5945266373
219.9925,12.22684143,0.02928402113,4.768109732,-3.947242015,-2.152223032
219.993,14.36320228,-1.801882425,16.06030282,-6.999186092,-1.236639809
219.9935,15.58397991,-3.633048871,30.40443998,-10.66151898,2.425693084
219.994,15.88917432,-3.633048871,39.56027221,-12.18749102,5.172442753
219.9945,14.9735911,-2.107076833,40.17066103,-10.35632458,3.951665122
219.995,14.05800787,0.02928402113,36.81352254,-7.609574907,1.815304268
219.9955,11.92164702,2.77603369,34.67716169,-6.083602869,0.899721045
219.996,8.259314126,4.912394544,32.23560643,-3.947242015,1.51010986
219.9965,3.68139801,6.133172175,25.82652386,0.3254796932,2.730887491
219.997,0.01906511792,5.217588952,16.36549722,5.513784624,3.646470714
219.9975,-0.8965181052,2.470839283,6.599276178,8.260534293,3.951665122
219.998,0.01906511792,-0.2759103866,-3.166944868,6.734562255,2.425693084
219.9985,0.934648341,-1.496688017,-12.93316591,3.682618178,0.899721045
219.999,1.545037156,-1.19149361,-18.42666525,2.461840547,0.2893322296
219.9995,0.01906511792,0.02928402113,-20.56302611,3.987812586,-1.236639809
220.0,-3.948462182,0.02928402113,-27.27730308,5.818979032,-5.814555924
220.0005,-7.305600667,-1.496688017,-40.0954682,4.293006993,-11.91844408
220.001,-6.390017444,-3.938243279,-46.80974517,-0.2849091222,-14.97038816
220.0015,-3.032878959,-4.853826502,-35.82274649,-4.862825238,-12.8340273
220.002,-1.812101328,-3.022660056,-15.67991558,-5.168019645,-6.730139148
220.0025,-5.474434221,-0.2759103866,-4.998111315,-3.031658792,-1.847028624
220.003,-10.35754474,1.250061652,-8.050055392,-2.726464384,-2.152223032
220.0035,-11.57832237,1.250061652,-11.71238828,-4.252436422,-7.950916778
220.004,-8.22118389,0.6396728365,-8.355249799,-5.168019645,-15.58077697
220.0045,-3.032878959,0.9448672442,-4.082528091,-4.862825238,-21.98985953
220.005,0.01906511792,1.55525606,-5.60850013,-4.55763083,-26.87297006
220.0055,0.934648341,2.165644875,-8.965638615,-3.031658792,-29.00933091
220.006,1.850231564,2.470839283,-7.439666576,2.156646139,-25.95738683
220.0065,3.986592418,2.470839283,-3.166944868,9.176117517,-21.07427631
220.007,5.817758864,3.386422506,-2.556556053,12.533256,-20.46388749
220.0075,4.902175641,5.52278336,-5.60850013,12.533256,-21.68466512
220.008,3.071009195,7.964338621,-6.524083353,14.05922804,-10.08727763
220.0085,3.68139801,7.659144214,-3.472139276,18.94233856,20.73735755
220.009,4.596981233,4.607200137,-0.7253896067,21.68908823,51.86718713
220.0095,1.850231564,1.55525606,-3.166944868,19.24753297,56.44510325
220.01,-5.779628628,2.165644875,-8.965638615,17.11117212,35.38668912
220.0105,-12.79910001,3.996811321,-10.79680506,18.33194975,16.15944143
220.011,-12.79910001,3.691616914,-4.387722499,19.55272738,15.54905261
220.0115,-7.610795075,0.9448672442,6.29408177,14.66961686,22.8737184
220.012,-2.117295736,-1.801882425,14.22913637,5.818979032,20.43216314
220.0125,0.6294539333,-3.022660056,13.31355315,-0.2849091222,10.66594209
220.013,1.850231564,-3.633048871,5.683692955,-2.116075568,3.036081899
220.0135,2.46062038,-4.243437687,-1.946167238,-2.726464384,-0.01586217811
220.014,1.850231564,-4.548632094,-5.303305722,-3.642047607,-4.593778294
220.0145,0.01906511792,-4.243437687,-7.134472168,-3.947242015,-9.476888817
220.015,-1.201712513,-4.548632094,-14.45913795,-3.336853199,-11.30805526
220.0155,-2.727684551,-4.853826502,-27.88769189,-2.421269976,-11.00286086
220.016,-3.948462182,-4.853826502,-40.40066261,-2.421269976,-10.39247204
220.0165,-3.032878959,-5.15902091,-42.23182905,-2.421269976,-6.42494474
220.017,0.01906511792,-5.769409725,-31.24483038,-2.726464384,0.5945266373
220.0175,2.46062038,-5.15902091,-13.23836032,-3.031658792,4.562053937
220.018,2.46062038,-3.633048871,2.631748878,-3.336853199,1.815304268
220.0185,0.934648341,-1.496688017,11.78758111,-2.726464384,-0.6262509935
220.019,1.545037156,-0.2759103866,16.97588604,-1.810881161,3.646470714
220.0195,5.512564457,0.02928402113,29.48885676,-3.031658792,10.66594209
220.02,10.09048057,0.9448672442,55.125187,-6.083602869,10.9711365
220.0205,13.14242465,0.9448672442,80.15112843,-7.609574907,3.036081899
220.021,13.44761906,0.3344784288,78.6251564,-6.693991684,-4.593778294
220.0215,12.22684143,0.02928402113,44.13818833,-3.642047607,-8.256111186
220.022,9.480091757,1.250061652,1.105776839,-1.505686753,-8.866500001
220.0225,6.42814768,3.386422506,-23.61497018,-1.505686753,-7.950916778
220.023,3.986592418,3.691616914,-31.85521919,-2.421269976,-7.645722371
220.0235,1.850231564,3.081228098,-39.79027379,-2.116075568,-9.782083225
220.024,-1.201712513,2.470839283,-48.33571721,-0.5901035299,-12.8340273
220.0245,-3.948462182,2.470839283,-46.19935635,0.02028528547,-12.22363849
220.025,-4.558850998,2.165644875,-33.99158005,-0.2849091222,-5.204167109
220.0255,-3.948462182,1.250061652,-20.86822052,-1.200492345,4.867248345
220.026,-3.338073367,0.3344784288,1.716165655,-1.200492345,14.32827498
220.0265,-1.812101328,0.3344784288,50.85246529,-0.8952979376,21.04255195
220.027,1.239842749,0.9448672442,112.8069301,-1.810881161,22.56852399
220.0275,4.291786826,0.9448672442,143.9367596,-3.031658792,16.46463584
220.028,2.765814787,0.6396728365,121.6575679,-3.336853199,5.172442753
220.0285,-1.812101328,-0.2759103866,70.6901018,-3.031658792,-3.983389478
220.029,-5.169239813,-1.496688017,26.43691268,-3.031658792,-8.256111186
220.0295,-5.474434221,-0.886299202,-4.692916907,-2.726464384,-11.30805526
220.03,-6.390017444,0.02928402113,-33.99158005,-1.200492345,-15.27558256
220.0305,-9.441961521,-1.496688017,-58.40713266,-1.200492345,-17.71713782
220.031,-11.57832237,-4.853826502,-65.12140963,-4.862825238,-16.19116579
220.0315,-9.441961521,-7.295381764,-55.04999418,-9.745935761,-13.74961052
220.032,-5.474434221,-6.074604133,-43.14741228,-10.96671339,-13.74961052
220.0325,-3.948462182,-3.633048871,-35.82274649,-7.304380499,-13.13922171
220.033,-3.643267774,-3.022660056,-29.10846952,-3.642047607,-10.08727763
220.0335,0.3242595256,-3.938243279,-20.86822052,-4.252436422,-6.119750332
220.034,8.259314126,-3.938243279,-14.45913795,-6.999186092,-2.45741744
220.0345,14.05800787,-3.327854464,-8.355249799,-7.914769315,2.120498676
220.035,13.44761906,-3.022660056,1.105776839,-5.778408461,7.919192422
220.0355,8.259314126,-2.717465648,12.39796992,-2.726464384,9.750358868
220.036,4.902175641,-1.496688017,18.50185808,-0.5901035299,5.172442753
220.0365,4.902175641,0.02928402113,18.50185808,0.02028528547,-0.01586217811
220.037,5.207370049,-0.2759103866,17.28108045,0.9358685086,-0.01586217811
220.0375,4.596981233,-1.19149361,15.449914,1.851451732,4.562053937
220.038,3.376203603,-1.19149361,9.956414663,3.682618178,5.782831568
220.0385,1.545037156,-0.5811047943,1.410971247,4.903395809,3.036081899
220.039,-0.8965181052,-0.886299202,-3.472139276,4.598201401,1.204915453
220.0395,-3.338073367,-1.801882425,-2.861750461,3.37742377,2.730887491
220.04,-4.558850998,-1.496688017,-0.420195199,3.37742377,3.646470714
220.0405,-4.25365659,-0.2759103866,-1.030584014,4.293006993,1.815304268
220.041,-3.643267774,0.02928402113,-5.60850013,4.293006993,-0.9314454012
220.0415,-3.948462182,-0.5811047943,-14.45913795,3.37742377,-3.067806255
220.042,-4.25365659,-1.19149361,-23.61497018,3.072229362,-3.067806255
220.0425,-3.032878959,0.02928402113,-26.05652545,3.987812586,0.2893322296
220.043,0.01906511792,2.470839283,-16.2903044,4.293006993,7.919192422
220.0435,3.376203603,4.302005729,0.8005824318,3.072229362,14.9386638
220.044,4.902175641,5.827977767,11.78758111,2.156646139,14.02308058
220.0445,2.765814787,7.353949806,7.514859401,4.293006993,5.477637161
220.045,-1.506906921,8.574727437,-6.829277761,7.34495107,-1.847028624
220.0455,-4.25365659,8.269533029,-15.67991558,7.650145478,-0.9314454012
220.046,-3.032878959,7.048755398,-9.57602743,4.598201401,3.036081899
220.0465,-0.5913236975,5.52278336,5.07330414,1.241062916,1.204915453
220.047,-0.8965181052,4.912394544,13.61874756,0.3254796932,-7.645722371
220.0475,-3.948462182,4.912394544,9.346025847,1.241062916,-15.27558256
220.048,-5.779628628,4.607200137,-0.420195199,1.546257324,-13.74961052
220.0485,-4.25365659,2.77603369,-4.692916907,1.241062916,-3.983389478
220.049,-0.5913236975,0.9448672442,0.1901936164,0.3254796932,4.867248345
220.0495,3.376203603,0.3344784288,6.29408177,-1.200492345,7.003609199
220.05,7.64892531,1.860450467,3.547332101,-3.336853199,1.51010986
220.0505,10.09048057,3.386422506,-8.660444207,-4.862825238,-7.035333555
220.051,9.174897349,1.860450467,-20.86822052,-5.168019645,-12.8340273
220.0515,6.122953272,-2.107076833,-20.56302611,-5.473214053,-11.61324967
220.052,3.986592418,-4.853826502,-7.744860984,-6.693991684,-5.814555924
220.0525,2.765814787,-4.548632094,6.599276178,-7.609574907,-0.9314454012
220.053,0.934648341,-2.717465648,13.00835874,-6.388797276,0.2893322296
220.0535,-1.812101328,-2.717465648,13.31355315,-3.336853199,3.036081899
220.054,-4.558850998,-4.548632094,11.4823867,-1.505686753,9.445164461
220.0545,-5.474434221,-5.769409725,5.07330414,-3.031658792,14.9386638
220.055,-6.084823036,-4.853826502,-9.881221838,-5.473214053,15.54905261
220.0555,-7.000406259,-3.022660056,-25.75133104,-4.862825238,13.41269176
220.056,-6.390017444,-2.717465648,-28.49808071,-2.116075568,11.88671972
220.0565,-4.25365659,-3.327854464,-19.34224848,0.02028528547,9.445164461
220.057,-3.643267774,-3.938243279,-15.98510999,0.6306741009,2.730887491
220.0575,-6.390017444,-3.938243279,-26.05652545,1.241062916,-5.814555924
220.058,-9.136767113,-3.022660056,-36.73832972,3.072229362,-10.39247204
220.0585,-10.05235034,-2.107076833,-36.1279409,4.293006993,-10.08727763
220.059,-10.05235034,-0.5811047943,-33.07599682,4.598201401,-10.39247204
220.0595,-11.27312797,1.860450467,-41.62144024,5.818979032,-12.52883289
220.06,-11.27312797,3.081228098,-55.04999418,7.34495107,-13.13922171
220.0605,-7.305600667,2.165644875,-53.21882773,7.039756663,-11.00286086
220.061,0.01906511792,-0.5811047943,-33.07599682,2.767034955,-11.61324967
220.0615,5.512564457,-2.41227124,-13.23836032,-1.810881161,-16.19116579
220.062,7.64892531,-1.801882425,-7.439666576,-3.336853199,-18.02233223
220.0625,7.038536495,-0.2759103866,-7.439666576,-1.505686753,-12.22363849
220.063,5.817758864,-0.2759103866,-0.1150007913,-0.2849091222,-2.762611847
220.0635,5.207370049,-1.801882425,11.78758111,-0.5901035299,3.341276307
220.064,6.42814768,-2.41227124,18.50185808,-1.505686753,6.088025976
220.0645,8.259314126,-0.886299202,18.50185808,-2.116075568,8.834775645
220.065,9.174897349,1.250061652,17.89146926,-2.726464384,11.58152531
220.0655,8.564508534,2.470839283,19.11224689,-3.947242015,11.27633091
220.066,7.64892531,3.081228098,18.50185808,-5.168019645,7.613998014
220.0665,8.869702941,3.386422506,15.75510841,-6.999186092,3.646470714
220.067,10.70086939,3.386422506,14.53433078,-9.440741353,1.815304268
220.0675,9.785286164,2.470839283,15.449914,-12.79787984,2.120498676
220.068,6.733342087,1.55525606,16.36549722,-14.62904628,3.341276307
220.0685,3.376203603,1.55525606,16.67069163,-13.71346306,5.477637161
220.069,1.239842749,1.55525606,17.58627486,-11.2719078,7.003609199
220.0695,-1.201712513,1.250061652,19.72263571,-8.219963722,7.308803607
220.07,-4.558850998,0.9448672442,19.11224689,-4.252436422,6.088025976
220.0705,-6.390017444,1.250061652,13.92394196,0.02028528547,2.425693084
220.071,-5.779628628,1.250061652,8.125248217,2.461840547,-2.762611847
220.0715,-3.948462182,0.9448672442,6.29408177,3.072229362,-6.730139148
220.072,-3.338073367,0.6396728365,10.56680348,3.072229362,-4.593778294
220.0725,-3.948462182,1.250061652,17.58627486,5.818979032,0.2893322296
220.073,-4.25365659,2.470839283,22.16419097,11.92286719,3.036081899
220.0735,-4.558850998,2.165644875,21.24860775,17.41636652,1.204915453
220.074,-4.864045405,0.02928402113,16.36549722,18.33194975,-0.3210565858
220.0745,-4.864045405,-2.41227124,12.39796992,14.97481126,-0.01586217811
220.075,-3.338073367,-3.633048871,11.78758111,9.786506332,1.51010986
220.0755,-1.506906921,-3.327854464,13.00835874,6.124173439,0.899721045
220.076,0.01906511792,-2.717465648,12.70316433,3.37742377,-2.152223032
220.0765,0.6294539333,-2.107076833,10.26160907,1.241062916,-8.561305594
220.077,0.934648341,-1.496688017,7.209664994,0.02028528547,-16.19116579
220.0775,0.01906511792,-0.886299202,4.157720917,0.3254796932,-19.24310986
220.078,-1.201712513,-0.5811047943,1.410971247,1.546257324,-14.05480493
220.0785,-1.506906921,-0.2759103866,0.1901936164,2.156646139,-7.645722371
220.079,0.01906511792,0.02928402113,2.936943286,2.461840547,-8.256111186
220.0795,0.01906511792,0.3344784288,8.430442624,4.598201401,-11.91844408
220.08,-4.25365659,1.55525606,11.17719229,8.870923109,-4.288583886
220.0805,-10.05235034,2.470839283,7.514859401,12.83845041,17.68541347
220.081,-11.57832237,1.250061652,-0.1150007913,14.66961686,38.7438276
220.0815,-7.915989482,-1.801882425,-8.355249799,13.75403363,42.40616049
220.082,-4.558850998,-4.243437687,-15.98510999,12.22806159,30.19838418
220.0825,-5.474434221,-3.633048871,-22.08899815,11.31247837,15.54905261
220.083,-9.136767113,-0.2759103866,-23.92016459,11.61767278,6.698414791
220.0835,-11.27312797,2.165644875,-20.2578317,13.14364482,2.730887491
220.084,-10.05235034,2.165644875,-17.81627644,14.36442245,0.899721045
220.0845,-5.779628628,0.9448672442,-23.61497018,13.44883922,-0.6262509935
220.085,-0.5913236975,0.02928402113,-32.1604136,8.870923109,-2.762611847
220.0855,4.596981233,-0.886299202,-29.41366393,2.461840547,-2.152223032
220.086,10.09048057,-1.496688017,-12.01758269,-3.031658792,1.51010986
220.0865,14.05800787,-1.496688017,9.346025847,-6.388797276,3.341276307
220.087,15.2787855,-0.5811047943,24.60574623,-6.693991684,-1.541834217
220.0875,13.44761906,0.02928402113,32.23560643,-4.862825238,-10.69766645
220.088,10.70086939,0.6396728365,33.76157846,-2.421269976,-17.71713782
220.0885,7.954119718,0.6396728365,27.96288472,-2.421269976,-23.51583157
220.089,4.902175641,0.02928402113,15.449914,-4.862825238,-29.00933091
220.0895,0.01906511792,-0.5811047943,1.716165655,-6.693991684,-22.29505394
220.09,-5.474434221,-2.41227124,-12.62797151,-5.778408461,6.088025976
220.0905,-9.441961521,-3.633048871,-32.77080242,-3.336853199,41.49057727
220.091,-11.88351678,-2.41227124,-55.04999418,-0.5901035299,53.39315917
220.0915,-14.93546086,0.6396728365,-64.81621522,2.461840547,34.7763003
220.092,-16.15623849,2.77603369,-54.74479977,6.734562255,12.49710854
220.0925,-11.88351678,0.9448672442,-35.51755208,7.955339886,9.750358868
220.093,-1.812101328,-3.022660056,-17.51108203,3.987812586,19.51657991
220.0935,7.038536495,-5.769409725,7.209664994,-2.421269976,22.8737184
220.094,10.39567498,-4.243437687,50.24207648,-4.862825238,17.07502465
220.0945,8.564508534,-0.886299202,97.54720967,-2.116075568,10.66594209
220.095,6.122953272,0.02928402113,118.9108182,0.02028528547,5.172442753
220.0955,5.817758864,-1.801882425,99.98876493,-1.200492345,-1.847028624
220.096,7.954119718,-4.243437687,60.61868634,-4.862825238,-6.42494474
220.0965,11.0060638,-5.15902091,27.04730149,-7.914769315,-2.45741744
220.097,12.53203583,-3.938243279,9.346025847,-8.830352538,4.562053937
220.0975,9.785286164,-2.107076833,0.8005824318,-7.609574907,4.867248345
220.098,3.986592418,-1.496688017,-5.913694538,-5.168019645,-0.01586217811
220.0985,0.01906511792,-2.717465648,-10.49161065,-3.947242015,-0.6262509935
220.099,0.934648341,-3.938243279,-10.49161065,-5.473214053,4.25685953
220.0995,3.376203603,-2.41227124,-4.692916907,-7.609574907,8.22438683
220.1,3.986592418,1.250061652,3.852526509,-6.083602869,7.613998014
220.1005,3.376203603,3.691616914,12.09277552,-1.810881161,4.867248345
220.101,3.986592418,3.081228098,16.06030282,0.3254796932,3.036081899
220.1015,4.291786826,2.165644875,13.92394196,0.02028528547,-0.01586217811
220.102,1.239842749,3.691616914,6.599276178,0.02028528547,-4.593778294
220.1025,-1.812101328,5.52278336,-1.030584014,1.546257324,-7.950916778
220.103,0.01906511792,4.302005729,-4.998111315,1.241062916,-7.035333555
220.1035,6.42814768,1.55525606,-4.387722499,-3.336853199,-4.593778294
220.104,10.39567498,0.9448672442,-4.082528091,-6.999186092,-4.898972701
220.1045,7.64892531,2.165644875,-8.355249799,-4.862825238,-7.340527963
220.105,3.071009195,2.470839283,-11.40719388,0.02028528547,-6.730139148
220.1055,3.68139801,1.860450467,-3.166944868,2.156646139,-1.541834217
220.106,6.122953272,2.77603369,13.92394196,0.02028528547,1.204915453
220.1065,3.986592418,5.217588952,24.60574623,-0.8952979376,-3.678195071
220.107,-1.812101328,6.133172175,20.33302452,2.156646139,-13.44441612
220.1075,-5.779628628,4.302005729,10.87199789,6.124173439,-19.24310986
220.108,-3.338073367,2.470839283,11.17719229,6.734562255,-17.71713782
220.1085,0.6294539333,2.165644875,17.58627486,5.208590216,-15.58077697
220.109,1.545037156,2.165644875,16.67069163,3.987812586,-16.49636019
220.1095,-0.5913236975,1.55525606,5.07330414,3.37742377,-17.41194342
220.11,-2.422490144,1.250061652,-5.303305722,2.156646139,-16.19116579
220.1105,-2.422490144,1.250061652,-8.965638615,0.3254796932,-14.97038816
220.111,-0.5913236975,0.02928402113,-13.54355473,0.3254796932,-13.44441612
220.1115,1.239842749,-2.107076833,-25.75133104,0.9358685086,-5.204167109
220.112,3.68139801,-3.633048871,-36.73832972,0.02028528547,10.66594209
220.1125,5.207370049,-2.717465648,-32.77080242,-2.421269976,23.17891281
220.113,5.207370049,-0.886299202,-15.37472118,-3.031658792,21.04255195
220.1135,3.071009195,-0.2759103866,-1.946167238,0.02028528547,8.834775645
220.114,0.6294539333,-0.2759103866,-3.166944868,2.767034955,-0.01586217811
220.1145,-0.5913236975,-0.886299202,-11.71238828,2.156646139,-2.45741744
220.115,-0.5913236975,-1.801882425,-15.67991558,-1.505686753,-3.373000663
220.1155,-1.201712513,-2.41227124,-14.45913795,-3.947242015,-6.119750332
220.116,-3.948462182,-1.496688017,-17.81627644,-2.116075568,-7.950916778
220.1165,-8.22118389,0.02928402113,-32.77080242,0.02028528547,-9.476888817
220.117,-11.57832237,-0.5811047943,-56.88116062,0.02028528547,-14.97038816
220.1175,-10.96793356,-4.548632094,-80.99151883,-3.031658792,-22.60024835
220.118,-7.610795075,-7.905770579,-93.19929514,-5.473214053,-25.65219243
220.1185,-4.864045405,-6.379798541,-87.09540699,-6.388797276,-20.7690819
220.119,-4.25365659,-2.41227124,-68.78374252,-5.778408461,-13.44441612
220.1195,-2.727684551,-0.2759103866,-48.33571721,-4.55763083,-7.645722371
220.12,2.155425972,-1.496688017,-25.14094222,-3.947242015,-0.01586217811
220.1205,9.480091757,-2.41227124,12.09277552,-4.862825238,10.05555328
220.121,12.53203583,0.02928402113,60.61868634,-5.778408461,16.15944143
220.1215,8.259314126,5.827977767,92.35890474,-3.336853199,11.88671972
220.122,0.934648341,10.40589388,83.20307251,2.156646139,0.899721045
220.1225,-3.032878959,10.71108829,44.13818833,7.34495107,-6.730139148
220.123,-3.338073367,8.269533029,6.904470586,8.565728701,-7.645722371
220.1235,-3.643267774,7.048755398,-12.3227771,7.039756663,-6.730139148
220.124,-6.084823036,7.964338621,-21.78380374,5.818979032,-8.256111186
220.1245,-7.915989482,8.269533029,-28.1928863,4.903395809,-9.476888817
220.125,-8.22118389,6.743560991,-30.02405275,3.682618178,-7.950916778
220.1255,-8.831572705,4.607200137,-30.63444156,3.37742377,-6.42494474
220.126,-9.441961521,3.996811321,-36.73832972,4.293006993,-8.256111186
220.1265,-6.390017444,3.996811321,-36.43313531,3.37742377,-10.69766645
220.127,2.765814787,2.77603369,-8.050055392,-1.505686753,-7.645722371
220.1275,13.44761906,0.9448672442,44.13818833,-7.304380499,1.815304268
220.128,17.41514636,0.9448672442,81.37190606,-8.830352538,12.49710854
220.1285,13.14242465,1.55525606,76.18360113,-5.473214053,17.38021906
220.129,7.64892531,0.9448672442,44.74857714,-3.336853199,16.46463584
220.1295,5.512564457,-0.886299202,23.99535742,-4.252436422,13.41269176
220.13,6.122953272,-2.107076833,24.30055182,-5.778408461,10.9711365
220.1305,6.42814768,-1.19149361,30.09924557,-4.862825238,7.308803607
220.131,6.42814768,-0.5811047943,29.18366235,-3.031658792,0.2893322296
220.1315,6.733342087,-1.801882425,25.21613505,-1.810881161,-9.171694409
220.132,7.64892531,-3.022660056,21.85899656,-1.200492345,-18.32752664
220.1325,7.038536495,-3.022660056,17.28108045,-0.2849091222,-23.21063716
220.133,4.596981233,-3.022660056,12.70316433,0.3254796932,-21.37947072
220.1335,2.155425972,-3.938243279,13.00835874,0.9358685086,-13.13922171
220.134,0.01906511792,-3.938243279,12.09277552,2.767034955,-2.762611847
220.1345,-1.506906921,-1.19149361,-4.082528091,5.513784624,3.951665122
220.135,-2.727684551,0.9448672442,-34.90716327,7.34495107,6.698414791
220.1355,-2.727684551,0.6396728365,-55.66038299,5.513784624,9.139970053
220.136,-0.2861292898,-2.41227124,-45.89416195,0.6306741009,14.63346939
220.1365,3.68139801,-5.15902091,-17.20588762,-5.473214053,18.9061911
220.137,6.122953272,-5.464215317,-0.7253896067,-10.66151898,15.85424702
220.1375,4.902175641,-4.853826502,-8.965638615,-13.40826865,6.088025976
220.138,1.850231564,-4.548632094,-24.53055341,-14.93424069,-3.373000663
220.1385,0.934648341,-4.243437687,-26.97210867,-16.15501832,-7.950916778
220.139,2.765814787,-3.633048871,-18.42666525,-17.68099036,-9.782083225
220.1395,3.68139801,-3.022660056,-13.54355473,-18.29137918,-11.00286086
220.14,1.850231564,-2.717465648,-17.20588762,-17.68099036,-10.39247204
220.1405,0.01906511792,-2.41227124,-22.08899815,-15.84982392,-7.340527963
220.141,0.01906511792,-0.886299202,-24.225359,-12.79787984,-4.593778294
220.1415,-1.201712513,0.9448672442,-27.58249748,-9.745935761,-4.898972701
220.142,-6.390017444,2.165644875,-32.1604136,-5.778408461,-5.814555924
220.1425,-11.88351678,2.470839283,-30.63444156,-1.810881161,-4.593778294
220.143,-12.4939056,2.470839283,-19.03705407,3.072229362,-0.6262509935
220.1435,-8.831572705,3.691616914,-3.166944868,9.176117517,1.815304268
220.144,-5.474434221,5.827977767,10.56680348,15.89039449,2.425693084
220.1445,-2.727684551,8.269533029,25.82652386,20.4683106,3.036081899
220.145,1.239842749,9.185116252,44.74857714,21.68908823,4.25685953
220.1455,6.733342087,8.269533029,59.39790871,20.16311619,6.088025976
220.146,7.64892531,6.438366583,59.0927143,17.41636652,7.003609199
220.1465,2.765814787,5.217588952,44.44338273,15.89039449,7.308803607
220.147,-2.422490144,4.912394544,25.52132946,14.66961686,6.393220384
220.1475,-3.948462182,5.217588952,9.04083144,13.14364482,5.172442753
220.148,-3.948462182,4.912394544,-2.556556053,10.70208956,4.867248345
220.1485,-5.474434221,3.996811321,-7.744860984,8.565728701,7.919192422
220.149,-8.831572705,3.386422506,-3.777333684,8.870923109,13.10749735
220.1495,-9.747155929,3.691616914,4.157720917,11.31247837,16.76983025
220.15,-7.915989482,3.691616914,7.209664994,12.533256,16.76983025
220.1505,-5.474434221,2.470839283,4.768109732,10.09170074,14.9386638
220.151,-5.169239813,0.3344784288,4.157720917,5.513784624,13.41269176
220.1515,-5.474434221,-0.5811047943,8.125248217,2.156646139,10.9711365
220.152,-4.25365659,-0.886299202,8.125248217,1.241062916,5.172442753
220.1525,-1.812101328,-1.19149361,-2.251361645,1.241062916,-2.762611847
220.153,0.01906511792,-3.022660056,-18.42666525,0.3254796932,-10.39247204
220.1535,1.850231564,-5.769409725,-31.55002478,-1.810881161,-15.58077697
220.154,4.596981233,-7.600576171,-36.1279409,-5.168019645,-16.8015546
220.1545,8.564508534,-8.516159395,-31.55002478,-8.219963722,-12.22363849
220.155,10.70086939,-8.516159395,-17.51108203,-9.745935761,-3.067806255
220.1555,7.343730903,-7.600576171,-0.1150007913,-9.135546946,3.646470714
220.156,0.6294539333,-5.769409725,8.125248217,-8.219963722,3.951665122
220.1565,-3.338073367,-3.938243279,5.683692955,-8.830352538,2.425693084
220.157,-3.032878959,-3.633048871,4.157720917,-10.05113017,5.172442753
220.1575,-2.117295736,-4.243437687,9.651220255,-9.440741353,9.139970053
220.158,-5.169239813,-4.243437687,6.599276178,-6.999186092,4.867248345
220.1585,-9.747155929,-2.41227124,-19.34224848,-5.168019645,-5.509361517
220.159,-9.747155929,-1.19149361,-54.43960536,-6.083602869,-10.39247204
220.1595,-4.558850998,-1.801882425,-67.56296489,-9.440741353,-4.898972701
220.16,0.6294539333,-3.022660056,-51.69285569,-11.88229661,-0.01586217811
220.1605,2.155425972,-3.327854464,-30.93963597,-11.88229661,-4.593778294
220.161,0.3242595256,-2.107076833,-23.92016459,-10.35632458,-11.30805526
220.1615,-1.506906921,-1.19149361,-22.39419255,-7.914769315,-9.782083225
220.162,-2.422490144,-0.886299202,-9.881221838,-6.083602869,-1.236639809
220.1625,-3.643267774,-0.2759103866,9.346025847,-4.55763083,3.341276307
220.163,-5.779628628,1.860450467,19.4174413,-2.421269976,2.120498676
220.1635,-8.22118389,4.912394544,16.36549722,1.851451732,1.51010986
220.164,-10.05235034,6.438366583,12.09277552,7.039756663,5.477637161
220.1645,-10.96793356,6.133172175,16.36549722,9.786506332,8.834775645
220.165,-11.88351678,4.607200137,26.13171827,10.09170074,8.529581238
220.1655,-13.71468323,3.691616914,32.54080083,10.39689515,6.393220384
220.166,-14.63026645,3.996811321,32.23560643,11.61767278,5.477637161
220.1665,-13.71468323,4.302005729,29.79405116,11.31247837,5.477637161
220.167,-10.66273915,3.996811321,30.40443998,8.260534293,5.477637161
220.1675,-7.305600667,3.691616914,32.23560643,5.513784624,4.25685953
220.168,-5.169239813,3.691616914,25.82652386,5.208590216,0.2893322296
220.1685,-1.812101328,3.996811321,9.956414663,5.513784624,-6.119750332
220.169,4.596981233,1.860450467,-4.082528091,1.241062916,-10.69766645
220.1695,13.44761906,-1.496688017,-6.218888945,-6.693991684,-8.866500001
220.17,18.9411184,-4.243437687,-1.64097283,-12.49268543,-2.762611847
220.1705,18.02553517,-3.022660056,-2.556556053,-11.57710221,1.204915453
220.171,14.05800787,0.02928402113,-8.660444207,-5.778408461,2.120498676
220.1715,11.61645261,0.3344784288,-10.79680506,-2.116075568,2.730887491
220.172,11.0060638,-1.801882425,-8.355249799,-2.726464384,5.172442753
220.1725,9.480091757,-3.327854464,-8.660444207,-3.947242015,7.613998014
220.173,6.733342087,-2.107076833,-11.10199947,-3.031658792,7.919192422
220.1735,4.902175641,-1.19149361,-6.218888945,-1.200492345,7.003609199
220.174,5.817758864,-2.717465648,5.07330414,-1.505686753,4.25685953
220.1745,7.64892531,-5.464215317,10.26160907,-4.252436422,-1.847028624
220.175,8.869702941,-5.464215317,3.547332101,-6.693991684,-10.69766645
220.1755,9.480091757,-3.938243279,-1.335778422,-6.388797276,-16.19116579
220.176,9.174897349,-3.022660056,4.768109732,-4.55763083,-14.05480493
220.1765,8.259314126,-3.633048871,12.39796992,-4.252436422,-6.730139148
220.177,6.733342087,-3.633048871,9.04083144,-6.388797276,-0.3210565858
220.1775,5.817758864,-3.327854464,2.021360063,-9.745935761,3.646470714
220.178,5.817758864,-4.243437687,7.514859401,-12.79787984,8.834775645
220.1785,4.596981233,-6.684992948,21.85899656,-14.93424069,14.32827498
220.179,0.934648341,-7.600576171,26.43691268,-15.2394351,15.85424702
220.1795,-3.643267774,-6.379798541,15.14471959,-13.40826865,13.41269176
220.18,-6.695211852,-4.548632094,3.242137693,-10.05113017,11.27633091
220.1805,-7.610795075,-3.327854464,3.547332101,-6.388797276,9.139970053
220.181,-7.610795075,-1.496688017,9.346025847,-2.421269976,2.425693084
220.1815,-8.22118389,1.250061652,9.04083144,1.241062916,-7.645722371
220.182,-9.136767113,3.996811321,3.242137693,5.513784624,-14.05480493
220.1825,-9.136767113,4.912394544,1.410971247,9.176117517,-15.27558256
220.183,-8.22118389,4.607200137,4.157720917,11.61767278,-20.46388749
220.1835,-7.305600667,5.217588952,5.378498547,12.22806159,-30.53530295
220.184,-7.610795075,6.438366583,2.936943286,11.92286719,-28.7041365
220.1845,-9.441961521,7.048755398,-1.030584014,11.00728396,-7.340527963
220.185,-12.18871119,6.438366583,-9.57602743,10.09170074,12.19191413
220.1855,-14.32507204,4.607200137,-26.36171985,8.870923109,7.003609199
220.186,-14.01987764,3.081228098,-47.11493958,5.818979032,-9.782083225
220.1865,-11.88351678,1.55525606,-58.10193825,1.546257324,-3.373000663
220.187,-9.136767113,0.02928402113,-50.16688365,-0.5901035299,31.41916182
220.1875,-7.610795075,-1.496688017,-28.49808071,-0.5901035299,60.10743614
220.188,-6.084823036,-2.41227124,-6.524083353,0.3254796932,55.22432562
220.1885,-4.25365659,-2.107076833,7.514859401,0.3254796932,31.72435622
220.189,-2.727684551,0.02928402113,15.449914,-0.5901035299,17.38021906
220.1895,-2.422490144,2.470839283,23.3849686,-0.8952979376,17.07502465
220.19,-1.506906921,2.77603369,32.23560643,-0.2849091222,16.46463584
220.1905,0.934648341,0.6396728365,36.20313373,-1.505686753,9.445164461
220.191,6.122953272,-1.496688017,27.65769031,-5.168019645,1.51010986
220.1915,9.480091757,-3.327854464,8.430442624,-8.830352538,-4.288583886
220.192,7.954119718,-4.548632094,-7.744860984,-10.05113017,-10.08727763
220.1925,2.155425972,-5.15902091,-11.71238828,-7.609574907,-14.05480493
220.193,-3.338073367,-4.853826502,-7.134472168,-2.726464384,-11.91844408
220.1935,-5.474434221,-3.633048871,-3.166944868,3.37742377,-6.119750332
220.194,-3.643267774,-3.327854464,-2.861750461,7.955339886,-3.373000663
220.1945,-0.5913236975,-3.938243279,-2.556556053,8.870923109,-4.898972701
220.195,0.934648341,-3.938243279,-2.251361645,6.734562255,-6.42494474
220.1955,2.155425972,-2.717465648,-4.082528091,4.903395809,-5.509361517
220.196,4.902175641,-1.801882425,-3.472139276,4.293006993,-2.45741744
220.1965,9.174897349,-3.327854464,6.29408177,3.37742377,1.51010986
220.197,11.92164702,-6.074604133,22.16419097,1.546257324,3.951665122
220.1975,11.61645261,-5.769409725,31.62521761,1.546257324,0.899721045
220.198,9.174897349,-1.801882425,28.57327353,4.293006993,-5.509361517
220.1985,8.259314126,0.9448672442,21.85899656,4.903395809,-9.782083225
220.199,10.09048057,0.02928402113,19.4174413,0.9358685086,-7.645722371
220.1995,11.61645261,-3.327854464,19.11224689,-4.55763083,-3.983389478
220.2,10.09048057,-4.548632094,14.83952519,-6.083602869,-4.288583886
220.2005,6.122953272,-2.41227124,8.430442624,-3.642047607,-6.730139148
220.201,3.071009195,-0.5811047943,4.768109732,-0.8952979376,-7.645722371
220.2015,1.850231564,-0.886299202,3.547332101,0.02028528547,-6.42494474
220.202,1.239842749,-1.19149361,0.8005824318,0.02028528547,-6.119750332
220.2025,0.01906511792,0.02928402113,-1.946167238,0.6306741009,-6.119750332
220.203,-2.117295736,2.470839283,-2.556556053,1.241062916,-4.593778294
220.2035,-5.474434221,3.386422506,-1.64097283,1.546257324,-2.45741744
220.204,-9.136767113,2.77603369,-2.556556053,3.072229362,-2.45741744
220.2045,-11.27312797,2.165644875,-4.082528091,4.903395809,-3.678195071
220.205,-10.96793356,1.860450467,-3.472139276,5.208590216,-3.983389478
220.2055,-9.441961521,1.860450467,-2.556556053,5.513784624,-3.067806255
220.206,-8.831572705,2.470839283,-3.777333684,7.34495107,-2.762611847
220.2065,-9.747155929,3.081228098,-4.998111315,8.565728701,-3.373000663
220.207,-10.35754474,4.302005729,-3.166944868,7.039756663,-2.762611847
220.2075,-9.441961521,5.52278336,-0.7253896067,3.987812586,-2.152223032
220.208,-7.000406259,6.438366583,-1.64097283,1.851451732,-2.45741744
220.2085,-2.422490144,5.52278336,-4.082528091,0.02028528547,-3.067806255
220.209,3.68139801,3.081228098,-1.64097283,-4.252436422,-2.152223032
220.2095,10.09048057,0.6396728365,4.768109732,-10.66151898,-0.01586217811
220.21,13.44761906,0.3344784288,9.651220255,-13.40826865,1.51010986
220.2105,11.92164702,0.9448672442,10.26160907,-11.88229661,3.036081899
220.211,7.954119718,0.9448672442,8.430442624,-9.745935761,5.477637161
220.2115,3.986592418,0.6396728365,6.904470586,-7.914769315,6.698414791
220.212,2.155425972,0.9448672442,5.988887363,-4.55763083,4.25685953
220.2125,3.376203603,1.250061652,5.988887363,-0.2849091222,0.2893322296
220.213,6.733342087,0.3344784288,5.378498547,0.02028528547,-0.3210565858
220.2135,9.174897349,-1.19149361,-4.387722499,-3.031658792,0.899721045
220.214,8.259314126,-1.801882425,-29.41366393,-1.505686753,-0.6262509935
220.2145,4.596981233,-0.2759103866,-60.23829911,6.429367847,-6.730139148
220.215,1.239842749,1.55525606,-77.02399153,15.28000567,-11.00286086
220.2155,0.01906511792,2.470839283,-70.61490897,18.02675534,-7.950916778
220.216,1.239842749,1.250061652,-49.25130043,14.97481126,-0.3210565858
220.2165,4.902175641,-0.5811047943,-28.49808071,11.31247837,4.867248345
220.217,8.259314126,-3.022660056,-16.90069321,8.870923109,3.646470714
220.2175,7.64892531,-3.938243279,-9.881221838,6.429367847,-0.9314454012
220.218,3.071009195,-2.107076833,5.07330414,4.598201401,-4.898972701
220.2185,-1.506906921,0.3344784288,35.59274491,3.987812586,-5.814555924
220.219,-3.948462182,0.9448672442,65.50179686,3.37742377,-3.678195071
220.2195,-4.864045405,-0.2759103866,62.44985279,1.546257324,-2.45741744
220.22,-6.084823036,-0.886299202,17.58627486,0.02028528547,-4.593778294
220.2205,-7.305600667,0.3344784288,-35.21235768,-0.8952979376,-8.561305594
220.221,-5.779628628,0.02928402113,-53.82921655,-2.421269976,-11.61324967
220.2215,-2.422490144,-1.801882425,-33.38119123,-5.473214053,-11.91844408
220.222,0.01906511792,-3.327854464,-8.355249799,-7.914769315,-9.782083225
220.2225,0.6294539333,-1.496688017,-2.251361645,-6.999186092,-7.340527963
220.223,-1.201712513,1.55525606,-6.218888945,-3.336853199,-6.42494474
220.2235,-5.169239813,3.081228098,-3.472139276,0.6306741009,-7.340527963
220.224,-7.915989482,2.470839283,5.683692955,3.37742377,-7.035333555
220.2245,-6.695211852,2.470839283,16.67069163,3.37742377,-2.45741744
220.225,-1.812101328,2.77603369,34.06677287,0.3254796932,4.867248345
220.2255,0.934648341,2.470839283,59.0927143,-2.421269976,9.139970053
220.226,-0.2861292898,1.860450467,77.70957317,-1.200492345,5.782831568
220.2265,-2.727684551,2.77603369,74.04724028,3.987812586,-0.9314454012
220.227,-0.5913236975,5.217588952,54.51479819,7.650145478,-4.288583886
220.2275,6.122953272,6.743560991,38.03430017,5.818979032,-3.983389478
220.228,11.61645261,5.827977767,31.93041202,1.241062916,-3.678195071
220.2285,11.3112582,3.996811321,27.65769031,0.02028528547,-5.509361517
220.229,5.512564457,3.081228098,19.72263571,2.767034955,-5.814555924
220.2295,0.01906511792,2.77603369,12.09277552,5.513784624,-2.45741744
220.23,-2.117295736,1.860450467,10.26160907,5.513784624,2.425693084
220.2305,-0.8965181052,0.02928402113,9.651220255,3.682618178,7.003609199
220.231,0.01906511792,-0.5811047943,3.852526509,2.461840547,10.05555328
220.2315,-0.8965181052,-0.2759103866,-5.913694538,1.851451732,12.19191413
220.232,-3.032878959,0.02928402113,-14.15394355,0.3254796932,12.80230295
220.2325,-2.117295736,-1.496688017,-18.12147085,-2.726464384,12.19191413
220.233,1.545037156,-3.022660056,-19.95263729,-6.999186092,10.05555328
220.2335,6.122953272,-3.327854464,-21.47860933,-9.745935761,6.698414791
220.234,8.564508534,-2.717465648,-19.95263729,-10.66151898,3.341276307
220.2345,7.954119718,-2.41227124,-13.84874914,-10.05113017,0.899721045
220.235,6.42814768,-2.717465648,-8.660444207,-9.135546946,-0.3210565858
220.2355,3.376203603,-2.717465648,-11.71238828,-6.999186092,-2.762611847
220.236,0.6294539333,-1.496688017,-20.2578317,-3.031658792,-5.509361517
220.2365,-0.2861292898,-0.5811047943,-24.225359,0.02028528547,-4.593778294
220.237,1.545037156,-0.2759103866,-17.81627644,0.9358685086,1.51010986
220.2375,3.68139801,-0.5811047943,-7.744860984,0.02028528547,8.529581238
220.238,3.071009195,-0.5811047943,-4.692916907,0.6306741009,11.27633091
220.2385,-0.2861292898,-0.5811047943,-10.18641625,3.072229362,10.66594209
220.239,-4.25365659,-1.801882425,-18.12147085,4.293006993,10.05555328
220.2395,-7.305600667,-2.41227124,-22.08899815,3.987812586,9.445164461
220.24,-9.441961521,-1.496688017,-22.08899815,3.987812586,7.003609199
220.2405,-11.27312797,0.02928402113,-19.95263729,6.429367847,3.646470714
220.241,-12.79910001,0.9448672442,-16.59549881,10.70208956,3.341276307
220.2415,-13.40948882,1.250061652,-13.54355473,13.75403363,4.562053937
220.242,-11.88351678,2.165644875,-12.62797151,14.36442245,2.120498676
220.2425,-6.695211852,3.996811321,-14.15394355,12.22806159,-4.593778294
220.243,0.01906511792,3.996811321,-15.67991558,8.565728701,-9.782083225
220.2435,4.902175641,1.55525606,-15.98510999,5.513784624,-9.782083225
220.244,4.291786826,0.02928402113,-16.2903044,5.208590216,-8.256111186
220.2445,0.934648341,0.6396728365,-17.20588762,6.429367847,-7.950916778
220.245,0.6294539333,3.386422506,-17.20588762,5.513784624,-7.035333555
220.2455,4.596981233,5.217588952,-14.76433236,1.546257324,-3.678195071
220.246,9.174897349,5.52278336,-10.49161065,-1.505686753,-0.3210565858
220.2465,12.22684143,5.52278336,-5.303305722,-1.810881161,-0.01586217811
220.247,14.05800787,5.827977767,0.4953880241,-1.200492345,-0.01586217811
220.2475,14.36320228,5.52278336,5.378498547,-1.505686753,1.51010986
220.248,11.61645261,5.217588952,7.820053809,-1.505686753,2.120498676
220.2485,6.733342087,5.52278336,10.26160907,-0.8952979376,-0.6262509935
220.249,3.68139801,5.52278336,18.19666367,-0.8952979376,-3.373000663
220.2495,4.291786826,3.691616914,27.96288472,-3.031658792,-1.541834217
220.25,4.291786826,0.02928402113,27.65769031,-4.252436422,-0.01586217811
220.2505,1.239842749,-1.496688017,12.70316433,-2.116075568,-3.983389478
220.251,-2.117295736,0.02928402113,-4.082528091,1.241062916,-8.256111186
220.2515,-1.506906921,1.55525606,-7.134472168,2.461840547,-4.898972701
220.252,0.934648341,0.6396728365,3.242137693,1.851451732,3.036081899
220.2525,0.3242595256,-1.801882425,13.61874756,1.546257324,5.172442753
220.253,-2.422490144,-3.938243279,13.00835874,2.461840547,-0.01586217811
220.2535,-3.948462182,-3.633048871,2.631748878,1.851451732,-3.678195071
220.254,-1.812101328,-3.327854464,-7.439666576,-0.5901035299,-1.236639809
220.2545,0.01906511792,-4.243437687,-10.49161065,-2.421269976,2.120498676
220.255,-0.5913236975,-4.853826502,-4.692916907,-2.116075568,3.036081899
220.2555,-2.727684551,-4.243437687,2.936943286,-1.810881161,4.25685953
220.256,-3.643267774,-3.327854464,4.768109732,-3.031658792,7.613998014
220.2565,-3.338073367,-3.327854464,0.1901936164,-3.947242015,9.750358868
220.257,-2.727684551,-4.548632094,-0.1150007913,-2.726464384,9.750358868
220.2575,-2.727684551,-4.853826502,7.820053809,0.3254796932,10.05555328
220.258,-3.643267774,-3.022660056,15.14471959,3.072229362,10.36074768
220.2585,-3.948462182,-0.886299202,13.00835874,3.987812586,7.308803607
220.259,-2.117295736,0.02928402113,6.29408177,1.546257324,2.120498676
220.2595,0.01906511792,-1.19149361,0.4953880241,-1.810881161,-1.847028624
220.26,-1.812101328,-2.107076833,-12.01758269,-3.642047607,-6.730139148
220.2605,-7.610795075,-1.801882425,-35.82274649,-2.116075568,-15.58077697
220.261,-10.66273915,-0.2759103866,-54.13441095,0.02028528547,-23.82102598
220.2615,-7.000406259,0.3344784288,-46.50455076,0.02028528547,-21.07427631
220.262,0.01906511792,0.02928402113,-20.2578317,-3.642047607,-7.950916778
220.2625,3.68139801,-0.886299202,-1.64097283,-6.999186092,2.730887491
220.263,2.765814787,-1.801882425,2.631748878,-6.388797276,4.562053937
220.2635,0.6294539333,-1.496688017,7.514859401,-3.336853199,2.120498676
220.264,0.01906511792,0.02928402113,16.06030282,-1.200492345,-1.541834217
220.2645,0.01906511792,2.77603369,12.09277552,-1.505686753,-9.171694409
220.265,0.934648341,4.607200137,-5.913694538,-3.031658792,-18.32752664
220.2655,3.376203603,3.386422506,-16.2903044,-4.862825238,-19.85349868
220.266,5.817758864,0.3344784288,-4.998111315,-6.388797276,-11.91844408
220.2665,5.512564457,-0.886299202,8.125248217,-6.388797276,-5.509361517
220.267,1.545037156,0.9448672442,0.1901936164,-3.947242015,-7.035333555
220.2675,-2.727684551,5.217588952,-20.2578317,0.9358685086,-8.561305594
220.268,-5.474434221,8.269533029,-26.97210867,6.734562255,-0.6262509935
220.2685,-6.695211852,7.964338621,-16.59549881,10.39689515,10.9711365
220.269,-7.610795075,5.827977767,-12.01758269,11.92286719,14.63346939
220.2695,-9.441961521,3.691616914,-30.63444156,11.61767278,8.22438683
220.27,-10.96793356,1.55525606,-59.32271589,10.39689515,1.204915453
220.2705,-10.35754474,-0.2759103866,-71.53049219,7.955339886,0.2893322296
220.271,-6.390017444,-1.496688017,-53.21882773,4.293006993,4.25685953
220.2715,-0.8965181052,-2.41227124,-15.06952677,1.241062916,6.698414791
220.272,2.155425972,-3.022660056,16.97588604,-1.200492345,2.425693084
220.2725,3.071009195,-4.243437687,25.52132946,-3.642047607,-8.256111186
220.273,3.376203603,-5.464215317,16.36549722,-6.693991684,-17.41194342
220.2735,4.902175641,-5.15902091,9.956414663,-10.05113017,-17.10674901
220.274,6.733342087,-3.938243279,16.97588604,-14.01865747,-9.171694409
220.2745,6.42814768,-3.022660056,27.65769031,-17.37579595,-3.373000663
220.275,3.376203603,-3.327854464,26.74210709,-18.90176799,-2.762611847
220.2755,-0.5913236975,-4.243437687,13.00835874,-17.68099036,2.120498676
220.276,-3.032878959,-5.15902091,1.105776839,-14.93424069,19.82177432
220.2765,-2.422490144,-6.379798541,2.32655447,-13.10307425,40.57499405
220.277,-0.2861292898,-7.295381764,13.00835874,-11.57710221,46.6788822
220.2775,0.01906511792,-6.074604133,20.02783012,-8.219963722,30.50357859
220.278,-1.201712513,-3.022660056,16.06030282,-3.947242015,4.25685953
220.2785,-1.506906921,-1.19149361,6.904470586,-2.421269976,-11.61324967
220.279,1.545037156,-1.496688017,3.242137693,-4.55763083,-6.730139148
220.2795,6.42814768,-3.022660056,7.820053809,-4.55763083,11.88671972
220.28,7.954119718,-2.107076833,13.31355315,0.9358685086,27.45163452
220.2805,6.733342087,0.3344784288,13.61874756,7.955339886,27.45163452
220.281,7.343730903,2.165644875,11.78758111,9.786506332,16.46463584
220.2815,11.92164702,1.250061652,13.00835874,5.818979032,7.308803607
220.282,15.58397991,-0.5811047943,16.06030282,1.241062916,5.782831568
220.2825,13.44761906,0.02928402113,16.67069163,1.241062916,6.088025976
220.283,5.817758864,3.081228098,15.75510841,4.598201401,3.341276307
220.2835,-0.5913236975,6.133172175,16.97588604,8.870923109,-0.01586217811
220.284,-1.812101328,7.353949806,18.80705249,11.61767278,-0.9314454012
220.2845,0.6294539333,8.574727437,16.97588604,12.22806159,-0.3210565858
220.285,2.46062038,10.10069948,12.09277552,10.09170074,-0.6262509935
220.2855,0.934648341,10.40589388,9.346025847,7.955339886,-1.847028624
220.286,-1.812101328,8.574727437,10.26160907,7.34495107,-3.373000663
220.2865,-3.643267774,6.743560991,11.4823867,8.565728701,-4.593778294
220.287,-3.338073367,5.827977767,10.26160907,9.176117517,-4.898972701
220.2875,-2.422490144,5.827977767,9.346025847,7.955339886,-3.983389478
220.288,-2.422490144,4.912394544,10.87199789,6.124173439,-3.067806255
220.2885,-1.812101328,3.081228098,12.70316433,4.598201401,-4.593778294
220.289,0.3242595256,2.165644875,12.39796992,2.461840547,-7.340527963
220.2895,3.376203603,1.860450467,10.56680348,0.02028528547,-8.256111186
220.29,4.291786826,0.6396728365,9.04083144,-2.116075568,-6.730139148
220.2905,3.376203603,-0.886299202,9.04083144,-2.421269976,-4.898972701
220.291,3.071009195,-2.41227124,10.56680348,-2.116075568,-3.067806255
220.2915,4.902175641,-2.717465648,13.00835874,-2.726464384,-0.6262509935
220.292,6.733342087,-2.41227124,14.83952519,-4.252436422,2.120498676
220.2925,6.122953272,-1.801882425,14.83952519,-4.862825238,2.730887491
220.293,3.071009195,-1.496688017,12.70316433,-3.336853199,0.899721045
220.2935,-0.2861292898,-1.496688017,10.56680348,-1.200492345,-0.6262509935
220.294,-3.032878959,-2.107076833,9.04083144,0.02028528547,-0.01586217811
220.2945,-4.558850998,-3.022660056,6.599276178,-0.2849091222,-0.3210565858
220.295,-5.474434221,-3.327854464,1.105776839,-1.200492345,-3.678195071
220.2955,-5.169239813,-3.327854464,-5.60850013,-2.116075568,-9.782083225
220.296,-4.558850998,-4.243437687,-10.79680506,-2.116075568,-14.35999934
220.2965,-3.948462182,-5.464215317,-12.01758269,-2.421269976,-15.27558256
220.297,-3.643267774,-6.074604133,-9.881221838,-3.031658792,-11.91844408
220.2975,-2.422490144,-5.769409725,-7.134472168,-4.55763083,-6.42494474
220.298,-0.5913236975,-5.464215317,-4.387722499,-5.473214053,-1.847028624
220.2985,0.934648341,-5.769409725,0.1901936164,-5.168019645,-0.01586217811
220.299,1.239842749,-6.074604133,7.820053809,-3.642047607,-0.01586217811
220.2995,0.01906511792,-4.853826502,13.92394196,-1.810881161,-0.6262509935
220.3,-1.812101328,-3.022660056,13.61874756,-0.5901035299,-1.236639809
220.3005,-3.948462182,-1.19149361,8.430442624,-0.2849091222,-2.152223032
220.301,-5.169239813,-0.886299202,3.852526509,-0.5901035299,-3.067806255
220.3015,-5.169239813,-1.496688017,2.631748878,-1.505686753,-3.067806255
220.302,-4.558850998,-1.801882425,2.021360063,-2.116075568,-2.45741744
220.3025,-4.25365659,-1.801882425,-0.1150007913,-2.116075568,-2.152223032
220.303,-4.25365659,-0.886299202,-1.64097283,-1.810881161,-2.762611847
220.3035,-3.032878959,-0.2759103866,-1.946167238,-1.810881161,-3.678195071
220.304,-0.8965181052,0.02928402113,-1.64097283,-3.031658792,-3.983389478
220.3045,0.934648341,0.6396728365,-2.861750461,-3.947242015,-3.678195071
220.305,1.239842749,1.250061652,-5.303305722,-3.336853199,-3.067806255
220.3055,0.01906511792,1.860450467,-7.744860984,-1.200492345,-3.067806255
220.306,-0.8965181052,2.470839283,-11.10199947,0.3254796932,-3.678195071
220.3065,-1.201712513,3.081228098,-14.15394355,0.6306741009,-3.983389478
220.307,-0.8965181052,3.386422506,-13.84874914,0.3254796932,-2.762611847
220.3075,0.01906511792,3.081228098,-9.881221838,-0.2849091222,-0.01586217811
220.308,1.239842749,1.250061652,-2.556556053,-1.810881161,3.951665122
220.3085,0.3242595256,0.02928402113,6.599276178,-2.726464384,5.477637161
220.309,-3.032878959,-0.5811047943,15.14471959,-2.116075568,3.951665122
220.3095,-7.305600667,-0.2759103866,17.58627486,-0.2849091222,1.815304268
220.31,-9.441961521,-0.2759103866,12.39796992,0.02028528547,1.51010986
220.3105,-8.526378298,-1.496688017,6.599276178,-0.2849091222,3.646470714
220.311,-6.695211852,-3.022660056,6.29408177,-0.5901035299,6.088025976
220.3115,-4.558850998,-3.327854464,7.514859401,0.02028528547,6.393220384
220.312,-2.422490144,-2.717465648,6.29408177,0.3254796932,3.646470714
220.3125,-0.2861292898,-1.801882425,8.430442624,-0.8952979376,-2.152223032
220.313,0.6294539333,-2.41227124,16.67069163,-2.726464384,-9.476888817
220.3135,0.6294539333,-3.022660056,22.16419097,-2.421269976,-13.13922171
220.314,0.6294539333,-2.107076833,14.22913637,0.3254796932,-11.61324967
220.3145,0.6294539333,0.02928402113,1.105776839,2.767034955,-10.39247204
220.315,2.46062038,0.9448672442,-2.556556053,2.767034955,-13.44441612
220.3155,5.817758864,-1.19149361,-0.420195199,0.02028528547,-15.27558256
220.316,8.869702941,-5.464215317,-7.744860984,-2.726464384,-4.593778294
220.3165,9.785286164,-6.379798541,-23.92016459,-0.8952979376,17.99060788
220.317,7.954119718,-3.022660056,-33.38119123,3.987812586,36.91266115
220.3175,3.986592418,0.02928402113,-33.68638564,8.260534293,37.82824438
220.318,-0.5913236975,-1.19149361,-38.56949616,7.039756663,25.31527366
220.3185,-7.000406259,-4.853826502,-50.47207806,2.461840547,15.85424702
220.319,-12.18871119,-5.769409725,-55.66038299,0.02028528547,17.68541347
220.3195,-12.79910001,-3.327854464,-49.86168925,0.9358685086,20.73735755
220.32,-10.05235034,0.02928402113,-41.01105142,3.987812586,14.32827498
220.3205,-9.441961521,2.470839283,-25.75133104,6.124173439,0.2893322296
220.321,-14.32507204,3.081228098,6.599276178,6.429367847,-11.91844408
220.3215,-21.34454342,2.165644875,38.33949458,6.124173439,-20.15869309
220.322,-26.22765394,0.02928402113,27.04730149,6.124173439,-27.48335887
220.3225,-28.05882039,-0.2759103866,-32.1604136,7.955339886,-33.58724703
220.323,-27.44843158,1.55525606,-89.84215666,11.61767278,-31.45088617
220.3235,-22.87051546,4.607200137,-102.3551274,13.14364482,-21.37947072
220.324,-15.54584967,5.827977767,-84.95904613,11.31247837,-14.35999934
220.3245,-11.27312797,4.912394544,-74.88763068,8.870923109,-17.71713782
220.325,-11.57832237,4.607200137,-72.14088101,8.870923109,-20.7690819
220.3255,-9.441961521,5.52278336,-48.94610602,8.260534293,-7.950916778
220.326,0.3242595256,4.607200137,3.242137693,2.767034955,16.46463584
220.3265,12.83723024,3.081228098,69.16412976,-5.473214053,33.25032826
220.327,16.19436873,3.691616914,135.3913162,-8.52515813,32.02955063
220.3275,9.480091757,7.048755398,187.5795599,-4.55763083,24.09449603
220.328,2.765814787,9.49031066,197.6509754,0.3254796932,21.04255195
220.3285,3.376203603,8.269533029,146.0731205,0.6306741009,19.21138551
220.329,7.954119718,5.217588952,60.00829753,-2.116075568,9.139970053
220.3295,12.22684143,2.77603369,-4.082528091,-4.862825238,-6.119750332
220.33,15.2787855,0.6396728365,-19.95263729,-6.693991684,-15.27558256
220.3305,18.33072958,-2.107076833,-8.660444207,-9.135546946,-14.05480493
220.331,19.55150721,-4.853826502,-0.7253896067,-10.35632458,-8.866500001
220.3315,17.41514636,-5.464215317,-0.7253896067,-8.52515813,-4.898972701
220.332,13.44761906,-4.548632094,-0.1150007913,-5.473214053,-1.847028624
220.3325,11.0060638,-3.938243279,2.32655447,-3.947242015,1.51010986
220.333,10.39567498,-4.548632094,0.1901936164,-4.55763083,2.425693084
220.3335,11.3112582,-4.243437687,-8.965638615,-5.168019645,-1.847028624
220.334,13.44761906,-3.327854464,-21.47860933,-6.083602869,-10.08727763
220.3345,16.49956313,-2.107076833,-29.41366393,-8.219963722,-14.97038816
220.335,18.02553517,-2.717465648,-26.05652545,-10.35632458,-11.61324967
220.3355,17.41514636,-4.548632094,-12.01758269,-10.66151898,-2.152223032
220.336,15.58397991,-5.464215317,1.716165655,-9.440741353,5.477637161
220.3365,13.14242465,-4.243437687,5.683692955,-7.914769315,5.782831568
220.337,10.39567498,-1.496688017,1.410971247,-6.388797276,0.5945266373
220.3375,7.954119718,-0.2759103866,-2.251361645,-4.252436422,-1.541834217
220.338,7.038536495,-1.19149361,-2.556556053,-1.810881161,0.899721045
220.3385,7.343730903,-3.022660056,-2.556556053,0.02028528547,3.951665122
220.339,6.733342087,-3.022660056,-4.387722499,1.241062916,3.036081899
220.3395,4.902175641,-1.496688017,-5.60850013,2.461840547,0.2893322296
220.34,3.376203603,0.02928402113,-5.60850013,2.767034955,-0.6262509935
220.3405,3.071009195,0.3344784288,-5.60850013,2.156646139,0.2893322296
220.341,2.155425972,0.9448672442,-5.913694538,1.851451732,1.51010986
220.3415,0.01906511792,1.860450467,-5.60850013,2.461840547,2.120498676
220.342,-3.338073367,2.470839283,-6.218888945,3.37742377,3.036081899
220.3425,-5.169239813,2.470839283,-8.965638615,3.37742377,3.951665122
220.343,-4.864045405,2.165644875,-11.10199947,1.546257324,3.951665122
220.3435,-3.643267774,2.165644875,-10.49161065,-1.505686753,3.341276307
220.344,-2.727684551,2.470839283,-9.270833022,-5.473214053,2.730887491
220.3445,-1.812101328,2.77603369,-9.270833022,-8.52515813,1.204915453
220.345,-1.812101328,3.691616914,-9.881221838,-9.440741353,0.2893322296
220.3455,-1.812101328,4.607200137,-8.660444207,-8.219963722,0.899721045
220.346,-1.812101328,4.302005729,-7.134472168,-5.168019645,2.120498676
220.3465,-2.422490144,2.470839283,-8.050055392,-2.116075568,2.120498676
220.347,-2.727684551,1.250061652,-10.18641625,0.02028528547,1.815304268
220.3475,-2.422490144,1.250061652,-9.881221838,0.3254796932,2.120498676
220.348,-1.506906921,1.860450467,-7.744860984,0.6306741009,3.036081899
220.3485,-1.201712513,1.860450467,-5.60850013,3.072229362,3.036081899
220.349,-2.117295736,1.860450467,-3.777333684,9.481311924,2.120498676
220.3495,-2.422490144,2.165644875,-2.251361645,16.5007833,2.730887491
220.35,-0.5913236975,2.77603369,-1.946167238,19.85792179,3.036081899
220.3505,0.934648341,3.081228098,-2.861750461,17.72156093,1.815304268
220.351,0.3242595256,2.77603369,-3.472139276,13.75403363,-0.01586217811
220.3515,-2.422490144,2.165644875,-2.556556053,10.70208956,-0.6262509935
220.352,-3.338073367,0.9448672442,-1.946167238,7.955339886,0.899721045
220.3525,-0.5913236975,-0.5811047943,-3.166944868,3.987812586,1.815304268
220.353,1.545037156,-2.717465648,-4.082528091,0.3254796932,1.51010986
220.3535,0.3242595256,-3.022660056,-2.556556053,-0.8952979376,1.51010986
220.354,-2.117295736,-1.801882425,-0.1150007913,-0.2849091222,2.120498676
220.3545,-3.032878959,-1.19149361,-0.1150007913,0.02028528547,2.120498676
220.355,-2.117295736,-2.107076833,-0.7253896067,-0.8952979376,1.51010986
220.3555,-3.032878959,-3.022660056,-1.335778422,-1.505686753,1.51010986
220.356,-6.390017444,-3.022660056,-2.251361645,-0.5901035299,2.425693084
220.3565,-7.915989482,-2.107076833,-4.387722499,0.6306741009,3.341276307
220.357,-5.779628628,-2.41227124,-5.60850013,0.9358685086,3.341276307
220.3575,-1.812101328,-3.022660056,-4.082528091,0.02028528547,3.036081899
220.358,0.3242595256,-2.107076833,-0.7253896067,-0.2849091222,3.036081899
220.3585,1.239842749,-0.2759103866,3.547332101,0.02028528547,4.562053937
220.359,1.239842749,0.9448672442,8.430442624,0.6306741009,7.308803607
220.3595,1.239842749,0.6396728365,10.87199789,1.241062916,9.139970053
220.36,0.6294539333,0.02928402113,9.346025847,0.9358685086,7.308803607
220.3605,0.934648341,-0.5811047943,7.209664994,0.6306741009,3.646470714
220.361,0.934648341,-0.2759103866,8.735637032,0.6306741009,3.036081899
220.3615,-0.2861292898,0.02928402113,10.87199789,0.9358685086,4.867248345
220.362,-4.558850998,-0.2759103866,5.07330414,1.241062916,2.120498676
220.3625,-8.831572705,-0.886299202,-10.79680506,0.9358685086,-5.814555924
220.363,-10.96793356,-1.801882425,-28.80327512,0.9358685086,-13.13922171
220.3635,-11.57832237,-1.801882425,-40.40066261,0.6306741009,-14.05480493
220.364,-10.96793356,0.02928402113,-44.36818991,0.02028528547,-11.61324967
220.3645,-9.747155929,2.470839283,-41.31624583,-1.505686753,-12.22363849
220.365,-7.000406259,4.607200137,-29.10846952,-4.862825238,-16.8015546
220.3655,-4.558850998,5.217588952,-9.270833022,-8.219963722,-20.7690819
220.366,-3.032878959,4.607200137,10.87199789,-10.05113017,-21.07427631
220.3665,-2.422490144,3.081228098,27.96288472,-10.05113017,-16.49636019
220.367,-3.338073367,2.77603369,40.78104984,-8.52515813,-9.782083225
220.3675,-6.084823036,4.302005729,46.27454918,-5.778408461,-9.782083225
220.368,-8.526378298,7.659144214,40.17066103,-0.2849091222,-18.32752664
220.3685,-8.831572705,9.795505068,27.04730149,5.818979032,-22.29505394
220.369,-8.526378298,8.879921844,16.06030282,9.786506332,-4.898972701
220.3695,-13.10429441,6.438366583,2.32655447,9.786506332,27.14644011
220.37,-21.95493224,4.302005729,-28.1928863,7.955339886,44.54252135
220.3705,-25.61726513,3.386422506,-68.47854812,5.513784624,34.16591148
220.371,-17.37701612,1.55525606,-84.34865732,2.156646139,15.85424702
220.3715,-3.948462182,-1.496688017,-55.35518859,-1.810881161,11.88671972
220.372,2.765814787,-3.327854464,-4.998111315,-4.55763083,16.15944143
220.3725,3.986592418,-2.41227124,23.99535742,-3.031658792,10.05555328
220.373,7.954119718,-0.5811047943,18.50185808,-1.200492345,-4.898972701
220.3735,17.10995195,-0.886299202,-4.082528091,-3.947242015,-11.30805526
220.374,23.51903451,-3.633048871,-26.66691426,-10.05113017,-6.119750332
220.3745,21.68786806,-5.769409725,-43.75780109,-13.40826865,-4.288583886
220.375,16.80475754,-5.15902091,-50.77727247,-10.96671339,-11.30805526
220.3755,16.49956313,-3.327854464,-39.79027379,-5.473214053,-16.49636019
220.376,18.02553517,-1.496688017,-18.12147085,-2.116075568,-11.91844408
220.3765,16.19436873,0.02928402113,-2.556556053,-0.8952979376,-3.678195071
220.377,12.53203583,1.250061652,0.8005824318,-0.2849091222,-0.3210565858
220.3775,12.53203583,2.470839283,3.547332101,0.02028528547,-0.6262509935
220.378,15.2787855,2.165644875,12.70316433,0.02028528547,-0.3210565858
220.3785,14.66839669,2.165644875,19.11224689,0.3254796932,-0.01586217811
220.379,8.564508534,2.77603369,14.53433078,2.461840547,-0.01586217811
220.3795,1.239842749,3.691616914,5.683692955,3.987812586,0.899721045
220.38,-2.422490144,3.081228098,2.021360063,3.682618178,2.730887491
220.3805,-4.864045405,0.6396728365,2.021360063,2.156646139,1.815304268
220.381,-6.695211852,-0.2759103866,0.8005824318,1.546257324,-0.9314454012
220.3815,-7.000406259,0.02928402113,0.8005824318,0.6306741009,-0.01586217811
220.382,-4.558850998,0.3344784288,7.820053809,-1.200492345,7.308803607
220.3825,-2.727684551,0.02928402113,20.02783012,-3.336853199,16.15944143
220.383,-4.25365659,0.02928402113,28.26807912,-3.642047607,18.9061911
220.3835,-7.305600667,0.6396728365,28.26807912,-1.200492345,15.54905261
220.384,-7.610795075,2.165644875,21.85899656,0.6306741009,10.05555328
220.3845,-4.864045405,1.860450467,14.53433078,0.6306741009,4.867248345
220.385,-3.032878959,0.6396728365,8.735637032,-1.200492345,1.204915453
220.3855,-3.643267774,-0.5811047943,5.988887363,-3.031658792,-0.01586217811
220.386,-6.084823036,-0.2759103866,5.988887363,-2.421269976,-0.6262509935
220.3865,-7.000406259,0.9448672442,6.599276178,0.3254796932,-1.236639809
220.387,-5.779628628,3.081228098,6.904470586,2.767034955,-2.762611847
220.3875,-2.727684551,4.302005729,7.820053809,2.461840547,-3.678195071
220.388,0.3242595256,3.386422506,10.56680348,0.02028528547,-3.678195071
220.3885,2.155425972,0.6396728365,13.00835874,-3.031658792,-3.678195071
220.389,2.765814787,-1.496688017,13.61874756,-3.947242015,-3.983389478
220.3895,2.765814787,-2.107076833,12.09277552,-4.55763083,-4.288583886
220.39,3.68139801,-2.41227124,10.87199789,-6.083602869,-4.898972701
220.3905,5.207370049,-3.327854464,10.56680348,-7.914769315,-6.119750332
220.391,6.42814768,-4.243437687,10.87199789,-8.52515813,-6.42494474
220.3915,7.038536495,-3.633048871,10.87199789,-8.52515813,-5.509361517
220.392,7.343730903,-2.717465648,9.956414663,-8.52515813,-4.288583886
220.3925,7.343730903,-2.41227124,8.125248217,-8.830352538,-3.373000663
220.393,6.42814768,-3.022660056,6.29408177,-7.914769315,-2.45741744
220.3935,4.291786826,-3.633048871,4.462915324,-6.388797276,-0.01586217811
220.394,2.765814787,-4.548632094,4.157720917,-6.083602869,2.730887491
220.3945,3.376203603,-6.074604133,5.378498547,-6.083602869,3.646470714
220.395,4.291786826,-7.600576171,7.514859401,-5.168019645,3.341276307
220.3955,3.071009195,-7.295381764,8.430442624,-2.421269976,3.341276307
220.396,0.934648341,-5.769409725,7.209664994,0.02028528547,3.951665122
220.3965,0.6294539333,-5.15902091,5.07330414,1.241062916,2.730887491
220.397,2.46062038,-5.769409725,3.852526509,0.6306741009,0.2893322296
220.3975,3.376203603,-5.769409725,3.852526509,0.02028528547,-0.3210565858
220.398,2.46062038,-4.853826502,3.547332101,-0.5901035299,0.5945266373
220.3985,1.239842749,-3.633048871,2.32655447,0.3254796932,1.204915453
220.399,0.3242595256,-3.633048871,1.716165655,2.767034955,-0.01586217811
220.3995,-0.2861292898,-3.938243279,2.936943286,5.818979032,-0.6262509935
220.4,-1.812101328,-2.717465648,3.547332101,7.34495107,-0.01586217811
220.4005,-2.727684551,-0.5811047943,1.410971247,7.039756663,1.204915453
220.401,-2.117295736,0.02928402113,-0.420195199,6.429367847,-0.01586217811
220.4015,-1.506906921,0.02928402113,-0.1150007913,6.124173439,-2.45741744
220.402,-2.117295736,0.02928402113,0.8005824318,6.429367847,-4.288583886
220.4025,-3.338073367,0.9448672442,-0.1150007913,7.039756663,-4.593778294
220.403,-3.948462182,2.165644875,-1.335778422,7.039756663,-4.288583886
220.4035,-4.25365659,2.165644875,-0.1150007913,6.124173439,-3.373000663
220.404,-4.864045405,1.55525606,2.32655447,5.818979032,-0.9314454012
220.4045,-5.474434221,2.470839283,2.936943286,7.650145478,0.5945266373
220.405,-6.084823036,4.607200137,1.105776839,10.70208956,0.2893322296
220.4055,-6.695211852,5.52278336,-0.1150007913,11.92286719,-0.3210565858
220.406,-7.610795075,4.912394544,-0.7253896067,9.481311924,-0.6262509935
220.4065,-7.610795075,3.996811321,-1.030584014,5.208590216,-0.3210565858
220.407,-7.305600667,4.302005729,-1.64097283,2.156646139,-0.6262509935
220.4075,-6.390017444,4.912394544,-1.030584014,0.02028528547,-1.541834217
220.408,-6.084823036,4.912394544,-0.1150007913,-2.421269976,-1.541834217
220.4085,-6.084823036,3.691616914,-0.1150007913,-5.168019645,-1.236639809
220.409,-6.390017444,2.165644875,-0.1150007913,-6.388797276,-1.541834217
220.4095,-6.084823036,0.9448672442,1.716165655,-5.473214053,-2.762611847
220.41,-6.084823036,0.02928402113,4.157720917,-4.252436422,-3.373000663
220.4105,-5.169239813,-0.5811047943,2.936943286,-1.810881161,-3.678195071
220.411,-4.25365659,-1.19149361,-1.946167238,0.9358685086,-3.373000663
220.4115,-3.643267774,-1.801882425,-7.439666576,3.37742377,-3.067806255
220.412,-3.032878959,-1.496688017,-10.49161065,3.682618178,-2.152223032
220.4125,-1.506906921,0.02928402113,-10.79680506,3.987812586,-2.152223032
220.413,-0.2861292898,0.9448672442,-8.965638615,8.260534293,-2.762611847
220.4135,0.01906511792,0.6396728365,-4.082528091,14.36442245,-1.236639809
220.414,0.01906511792,-1.19149361,3.242137693,16.80597771,2.120498676
220.4145,2.46062038,-2.717465648,12.39796992,14.05922804,5.172442753
220.415,5.817758864,-2.717465648,21.55380216,10.09170074,5.172442753
220.4155,6.733342087,-2.41227124,27.3524959,8.565728701,3.341276307
220.416,4.596981233,-2.41227124,27.04730149,7.34495107,2.730887491
220.4165,1.545037156,-1.801882425,21.55380216,4.598201401,3.341276307
220.417,0.934648341,-0.886299202,16.67069163,1.241062916,2.120498676
220.4175,2.155425972,0.02928402113,16.36549722,0.02028528547,0.2893322296
220.418,3.68139801,0.9448672442,19.72263571,0.02028528547,-0.01586217811
220.4185,5.207370049,0.9448672442,23.3849686,0.02028528547,0.899721045
220.419,6.733342087,0.9448672442,22.16419097,0.02028528547,1.815304268
220.4195,6.42814768,0.3344784288,11.17719229,0.9358685086,1.204915453
220.42,4.596981233,0.02928402113,-6.829277761,1.851451732,0.2893322296
220.4205,3.68139801,0.9448672442,-19.34224848,0.3254796932,-0.01586217811
220.421,6.733342087,2.470839283,-13.84874914,-2.726464384,1.51010986
220.4215,11.92164702,3.996811321,2.021360063,-3.947242015,3.951665122
220.422,13.75281346,5.217588952,6.904470586,-0.5901035299,4.562053937
220.4225,10.70086939,6.438366583,-8.660444207,4.293006993,-0.01586217811
220.423,4.596981233,7.048755398,-33.07599682,7.34495107,-7.645722371
220.4235,-1.506906921,5.52278336,-51.08246688,5.818979032,-11.91844408
220.424,-7.915989482,3.081228098,-58.40713266,2.156646139,-8.561305594
220.4245,-14.01987764,2.470839283,-55.66038299,0.6306741009,-1.847028624
220.425,-18.90298816,3.996811321,-43.14741228,2.156646139,1.204915453
220.4255,-20.12376579,4.607200137,-29.41366393,2.767034955,-0.01586217811
220.426,-18.29259934,1.860450467,-28.49808071,-0.8952979376,-3.373000663
220.4265,-13.40948882,-2.41227124,-39.17988498,-7.304380499,-6.42494474
220.427,-7.915989482,-5.15902091,-41.62144024,-10.05113017,-10.69766645
220.4275,-3.643267774,-4.548632094,-23.92016459,-7.304380499,-17.41194342
220.428,-2.727684551,-2.41227124,2.631748878,-3.947242015,-24.43141479
220.4285,-3.643267774,-1.19149361,19.11224689,-3.031658792,-26.87297006
220.429,-4.864045405,0.02928402113,21.85899656,-2.726464384,-21.37947072
220.4295,-5.474434221,0.9448672442,18.80705249,0.02028528547,-12.22363849
220.43,-5.474434221,1.250061652,13.00835874,2.767034955,-8.561305594
220.4305,-4.558850998,-0.5811047943,5.988887363,1.546257324,-12.22363849
220.431,-1.812101328,-2.717465648,4.768109732,-1.200492345,-11.30805526
220.4315,1.545037156,-3.633048871,14.53433078,-2.116075568,5.172442753
220.432,3.071009195,-3.633048871,28.57327353,-0.8952979376,28.97760655
220.4325,3.071009195,-5.15902091,36.50832813,-1.810881161,38.43863319
220.433,5.817758864,-6.990187356,36.20313373,-4.862825238,25.92566248
220.4335,11.0060638,-6.379798541,29.79405116,-6.388797276,6.393220384
220.434,13.14242465,-3.633048871,17.58627486,-3.336853199,-1.847028624
220.4345,9.174897349,-0.886299202,5.683692955,0.9358685086,2.120498676
220.435,2.765814787,-1.19149361,5.07330414,3.682618178,9.750358868
220.4355,0.01906511792,-3.022660056,17.58627486,3.987812586,14.32827498
220.436,2.155425972,-4.853826502,27.96288472,2.156646139,14.63346939
220.4365,6.733342087,-5.769409725,22.77457979,-1.505686753,11.88671972
220.437,12.53203583,-5.464215317,9.04083144,-5.473214053,7.003609199
220.4375,17.41514636,-3.633048871,0.8005824318,-5.473214053,2.425693084
220.438,18.9411184,-0.886299202,0.1901936164,-2.421269976,0.2893322296
220.4385,15.88917432,0.3344784288,0.4953880241,-0.8952979376,-0.3210565858
220.439,12.83723024,0.02928402113,0.4953880241,-4.55763083,-0.9314454012
220.4395,14.66839669,-1.801882425,3.242137693,-9.440741353,-0.3210565858
220.44,18.63592399,-3.022660056,3.242137693,-11.2719078,1.204915453
220.4405,18.9411184,-2.717465648,-5.913694538,-10.05113017,0.2893322296
220.441,14.66839669,-1.496688017,-20.56302611,-8.830352538,-4.593778294
220.4415,9.480091757,0.02928402113,-28.49808071,-8.52515813,-10.08727763
220.442,5.207370049,0.02928402113,-23.00458137,-7.914769315,-10.08727763
220.4425,1.239842749,-1.19149361,-9.57602743,-8.52515813,-4.898972701
220.443,-0.8965181052,-2.717465648,3.852526509,-10.35632458,0.899721045
220.4435,-1.506906921,-2.717465648,14.53433078,-11.88229661,4.867248345
220.444,-3.032878959,-0.886299202,18.50185808,-8.219963722,4.562053937
220.4445,-9.136767113,1.860450467,13.92394196,-0.5901035299,1.204915453
220.445,-16.15623849,4.912394544,5.378498547,5.513784624,-2.45741744
220.4455,-16.76662731,7.353949806,-1.030584014,7.039756663,-3.983389478
220.446,-8.831572705,8.574727437,-2.861750461,6.124173439,-3.067806255
220.4465,0.01906511792,7.964338621,-2.251361645,5.513784624,-2.762611847
220.447,4.596981233,7.048755398,-0.1150007913,5.818979032,-4.288583886
220.4475,4.902175641,6.438366583,2.32655447,5.208590216,-4.593778294
220.448,4.902175641,5.827977767,4.768109732,3.37742377,-2.45741744
220.4485,5.207370049,3.996811321,4.462915324,0.9358685086,-0.01586217811
220.449,4.596981233,1.55525606,1.716165655,-0.2849091222,0.5945266373
220.4495,3.68139801,1.250061652,0.4953880241,-0.2849091222,0.899721045
220.45,3.68139801,2.470839283,2.021360063,1.546257324,2.120498676
220.4505,2.765814787,3.081228098,2.021360063,3.37742377,1.815304268
220.451,0.3242595256,2.165644875,-3.777333684,3.072229362,-0.9314454012
220.4515,-2.117295736,0.3344784288,-12.3227771,1.241062916,-3.983389478
220.452,-3.338073367,-0.5811047943,-15.06952677,-0.2849091222,-3.678195071
220.4525,-2.727684551,-1.496688017,-9.270833022,-1.810881161,-1.236639809
220.453,-1.812101328,-2.717465648,-3.777333684,-4.252436422,0.2893322296
220.4535,0.01906511792,-3.022660056,-4.387722499,-7.914769315,0.5945266373
220.454,3.071009195,-1.801882425,-6.524083353,-10.66151898,0.899721045
220.4545,7.343730903,-0.886299202,-3.166944868,-11.2719078,1.815304268
220.455,10.39567498,-0.886299202,0.8005824318,-11.57710221,2.120498676
220.4555,11.3112582,-1.19149361,-5.303305722,-12.18749102,1.204915453
220.456,10.70086939,-0.5811047943,-23.30977578,-11.2719078,-0.01586217811
220.4565,9.174897349,0.3344784288,-38.87469057,-7.609574907,-0.6262509935
220.457,7.038536495,1.250061652,-41.31624583,-2.421269976,-2.45741744
220.4575,4.291786826,1.55525606,-33.99158005,1.241062916,-4.898972701
220.458,0.6294539333,2.470839283,-26.05652545,3.987812586,-6.730139148
220.4585,-1.812101328,3.691616914,-20.56302611,5.513784624,-7.340527963
220.459,-2.422490144,3.996811321,-13.84874914,5.513784624,-6.730139148
220.4595,-0.2861292898,3.081228098,-1.335778422,3.682618178,-3.983389478
220.46,1.850231564,1.250061652,20.94341334,1.546257324,1.815304268
220.4605,2.155425972,0.3344784288,51.1576597,2.156646139,10.66594209
220.461,0.01906511792,1.250061652,70.6901018,4.903395809,16.15944143
220.4615,-2.727684551,2.470839283,59.0927143,6.734562255,11.27633091
220.462,-5.169239813,2.77603369,18.50185808,5.818979032,-4.898972701
220.4625,-7.915989482,2.77603369,-21.47860933,4.598201401,-24.43141479
220.463,-9.747155929,2.470839283,-33.38119123,4.598201401,-32.97685821
220.4635,-9.441961521,2.165644875,-18.73185966,4.903395809,-26.26258124
220.464,-7.305600667,2.165644875,-2.251361645,4.293006993,-15.58077697
220.4645,-7.000406259,2.77603369,-3.472139276,3.987812586,-14.35999934
220.465,-9.747155929,3.996811321,-19.03705407,4.293006993,-16.8015546
220.4655,-10.96793356,3.691616914,-26.97210867,3.072229362,-0.6262509935
220.466,-6.390017444,1.250061652,-6.829277761,-0.5901035299,40.88018845
220.4665,1.850231564,-1.19149361,39.56027221,-4.55763083,81.47104468
220.467,7.954119718,-2.41227124,84.11865573,-5.168019645,86.04896079
220.4675,9.785286164,-1.19149361,95.71604323,-2.726464384,54.6139368
220.468,8.564508534,-0.2759103866,72.82646265,-0.2849091222,19.51657991
220.4685,7.343730903,0.3344784288,42.61221629,0.02028528547,6.393220384
220.469,5.817758864,0.6396728365,27.65769031,0.3254796932,9.139970053
220.4695,4.596981233,0.6396728365,23.99535742,0.9358685086,10.36074768
220.47,4.596981233,-0.2759103866,19.11224689,1.241062916,6.393220384
220.4705,4.291786826,-2.41227124,9.04083144,1.851451732,3.646470714
220.471,1.239842749,-3.327854464,-1.946167238,3.072229362,3.646470714
220.4715,-3.338073367,-2.717465648,-15.37472118,4.903395809,1.815304268
220.472,-7.610795075,-2.107076833,-30.63444156,5.818979032,-1.236639809
220.4725,-9.136767113,-2.41227124,-39.48507938,5.208590216,0.2893322296
220.473,-10.05235034,-3.633048871,-38.26430175,5.208590216,7.003609199
220.4735,-12.18871119,-4.548632094,-33.99158005,7.039756663,10.9711365
220.474,-15.54584967,-4.853826502,-37.34871853,8.870923109,7.613998014
220.4745,-17.68221053,-4.853826502,-45.89416195,8.565728701,0.899721045
220.475,-17.07182171,-5.464215317,-50.47207806,5.818979032,-3.678195071
220.4755,-14.32507204,-6.074604133,-44.97857872,3.37742377,-4.593778294
220.476,-11.88351678,-6.074604133,-30.32924715,3.072229362,-3.373000663
220.4765,-11.27312797,-5.15902091,-12.93316591,3.682618178,-3.067806255
220.477,-11.57832237,-3.633048871,-4.082528091,3.682618178,-7.035333555
220.4775,-8.831572705,-3.022660056,-14.15394355,2.767034955,-16.19116579
220.478,-2.117295736,-3.633048871,-38.26430175,1.546257324,-24.7366092
220.4785,3.986592418,-5.15902091,-52.91363332,0.02028528547,-25.95738683
220.479,5.207370049,-6.990187356,-42.23182905,-0.2849091222,-19.54830427
220.4795,2.765814787,-7.295381764,-18.12147085,0.02028528547,-11.30805526
220.48,0.934648341,-5.15902091,-2.861750461,2.461840547,-5.204167109
220.4805,1.239842749,-0.886299202,-3.166944868,6.124173439,-1.847028624
220.481,1.545037156,2.77603369,-7.439666576,8.870923109,-0.6262509935
220.4815,0.01906511792,4.912394544,-7.439666576,9.481311924,-2.762611847
220.482,-0.8965181052,4.912394544,-7.439666576,6.734562255,-6.119750332
220.4825,0.01906511792,3.996811321,-9.270833022,1.241062916,-6.42494474
220.483,3.071009195,2.470839283,-7.134472168,-6.083602869,-1.847028624
220.4835,6.733342087,0.3344784288,3.547332101,-13.71346306,3.036081899
220.484,9.785286164,-0.5811047943,18.80705249,-17.98618477,4.25685953
220.4845,10.70086939,0.3344784288,27.65769031,-17.07060155,0.5945266373
220.485,7.954119718,3.691616914,24.60574623,-13.40826865,-4.898972701
220.4855,3.68139801,5.827977767,14.53433078,-10.05113017,-11.30805526
220.486,1.239842749,5.827977767,6.599276178,-7.609574907,-15.27558256
220.4865,2.155425972,5.52278336,5.378498547,-3.947242015,-14.05480493
220.487,3.071009195,5.52278336,4.768109732,0.3254796932,-10.39247204
220.4875,2.46062038,4.912394544,-1.335778422,3.682618178,-9.171694409
220.488,1.545037156,3.691616914,-11.40719388,3.682618178,-11.30805526
220.4885,0.6294539333,3.691616914,-15.98510999,3.682618178,-11.61324967
220.489,-0.8965181052,5.217588952,-11.71238828,7.955339886,-7.340527963
220.4895,-2.422490144,5.827977767,-4.387722499,14.66961686,-2.762611847
220.49,0.01906511792,3.996811321,-1.335778422,17.41636652,-1.541834217
220.4905,5.512564457,1.860450467,-1.335778422,13.75403363,-1.236639809
220.491,9.480091757,1.250061652,0.4953880241,8.565728701,1.51010986
220.4915,7.954119718,1.860450467,7.820053809,6.734562255,5.477637161
220.492,4.902175641,1.55525606,18.80705249,6.124173439,7.003609199
220.4925,5.207370049,0.02928402113,27.96288472,3.682618178,6.393220384
220.493,7.038536495,0.02928402113,28.57327353,0.6306741009,5.477637161
220.4935,4.596981233,0.6396728365,16.97588604,0.9358685086,3.646470714
220.494,-2.117295736,0.6396728365,2.021360063,4.293006993,1.204915453
220.4945,-8.22118389,-1.19149361,-3.777333684,4.903395809,4.25685953
220.495,-9.441961521,-3.633048871,0.1901936164,1.546257324,13.71788617
220.4955,-8.526378298,-4.853826502,2.021360063,-1.200492345,18.60099669
220.496,-10.05235034,-5.15902091,-9.270833022,-0.5901035299,9.750358868
220.4965,-13.10429441,-4.548632094,-26.36171985,0.9358685086,-6.119750332
220.497,-12.4939056,-3.633048871,-32.77080242,0.02028528547,-14.97038816
220.4975,-5.779628628,-3.022660056,-22.69938696,-2.421269976,-11.30805526
220.498,2.765814787,-3.022660056,-3.777333684,-3.642047607,-3.678195071
220.4985,7.64892531,-3.327854464,13.31355315,-3.031658792,1.51010986
220.499,6.42814768,-2.107076833,25.21613505,-1.810881161,4.562053937
220.4995,1.545037156,0.02928402113,31.01482879,0.3254796932,7.003609199
220.5,-2.422490144,2.165644875,30.40443998,4.598201401,6.698414791
220.5005,-5.474434221,3.081228098,25.21613505,7.955339886,4.25685953
220.501,-7.305600667,2.77603369,20.63821893,7.650145478,4.25685953
220.5015,-7.915989482,2.77603369,19.11224689,5.513784624,7.003609199
220.502,-7.915989482,4.302005729,17.58627486,5.208590216,7.919192422
220.5025,-9.136767113,6.133172175,10.26160907,7.039756663,4.562053937
220.503,-11.57832237,5.827977767,-1.64097283,6.124173439,2.120498676
220.5035,-10.96793356,3.081228098,-13.54355473,0.6306741009,4.562053937
220.504,-4.558850998,0.6396728365,-19.64744288,-4.862825238,7.308803607
220.5045,3.68139801,0.9448672442,-19.64744288,-6.083602869,4.25685953
220.505,8.259314126,3.081228098,-17.51108203,-3.947242015,-3.983389478
220.5055,7.038536495,3.386422506,-16.59549881,-2.726464384,-13.44441612
220.506,4.291786826,1.250061652,-17.20588762,-3.031658792,-19.54830427
220.5065,2.46062038,0.02928402113,-16.90069321,-3.642047607,-21.07427631
220.507,0.01906511792,0.02928402113,-13.84874914,-4.55763083,-16.8015546
220.5075,-3.338073367,0.6396728365,-7.134472168,-6.083602869,-7.950916778
220.508,-5.474434221,0.02928402113,3.852526509,-6.999186092,0.899721045
220.5085,-5.169239813,0.02928402113,18.80705249,-5.168019645,7.003609199
220.509,-4.25365659,2.165644875,31.93041202,-1.505686753,8.529581238
220.5095,-3.948462182,4.302005729,34.67716169,0.3254796932,6.393220384
220.51,-4.25365659,4.302005729,24.30055182,1.241062916,1.815304268
220.5105,-4.864045405,2.77603369,11.17719229,2.767034955,-2.152223032
220.511,-6.084823036,1.250061652,6.599276178,3.072229362,-3.678195071
220.5115,-4.25365659,-1.19149361,8.430442624,-2.116075568,-3.373000663
220.512,4.291786826,-5.15902091,5.988887363,-11.88229661,-3.678195071
220.5125,18.33072958,-8.516159395,-1.946167238,-18.29137918,-5.814555924
220.513,27.79175622,-8.821353802,-6.218888945,-16.46021273,-7.035333555
220.5135,26.57097859,-7.295381764,-4.387722499,-10.05113017,-5.204167109
220.514,18.9411184,-6.379798541,-6.524083353,-6.693991684,-2.152223032
220.5145,13.44761906,-6.684992948,-17.81627644,-6.999186092,-0.01586217811
220.515,12.53203583,-6.074604133,-29.71885834,-6.693991684,0.2893322296
220.5155,11.3112582,-4.243437687,-33.68638564,-4.55763083,-0.01586217811
220.516,7.038536495,-2.717465648,-32.77080242,-2.116075568,-2.152223032
220.5165,2.155425972,-2.41227124,-31.55002478,-2.421269976,-3.983389478
220.517,0.6294539333,-2.717465648,-28.49808071,-3.947242015,-4.898972701
220.5175,1.850231564,-2.717465648,-25.44613663,-3.947242015,-5.814555924
220.518,0.01906511792,-2.107076833,-29.10846952,-0.5901035299,-6.730139148
220.5185,-7.000406259,-1.496688017,-28.49808071,2.767034955,-5.204167109
220.519,-13.71468323,-0.5811047943,2.936943286,3.37742377,1.815304268
220.5195,-14.01987764,-0.886299202,64.58621364,0.6306741009,12.49710854
220.52,-9.441961521,-2.107076833,110.3653748,-1.200492345,19.51657991
220.5205,-7.000406259,-3.938243279,97.24201527,-0.5901035299,17.99060788
220.521,-8.526378298,-4.548632094,41.08624425,0.02028528547,10.9711365
220.5215,-9.747155929,-3.633048871,-0.420195199,-0.2849091222,4.25685953
220.522,-7.305600667,-0.886299202,-0.1150007913,-0.8952979376,1.204915453
220.5225,-4.558850998,2.470839283,19.72263571,0.9358685086,1.204915453
220.523,-4.558850998,5.52278336,27.04730149,3.682618178,2.120498676
220.5235,-6.084823036,6.133172175,15.14471959,3.682618178,1.204915453
220.524,-6.695211852,4.302005729,-4.387722499,1.851451732,-1.541834217
220.5245,-7.915989482,2.470839283,-20.86822052,2.156646139,-2.45741744
220.525,-11.27312797,2.470839283,-27.88769189,4.903395809,-0.01586217811
220.5255,-14.01987764,3.691616914,-24.53055341,6.124173439,1.204915453
220.526,-13.10429441,3.691616914,-19.64744288,4.293006993,-2.152223032
220.5265,-9.747155929,3.081228098,-20.56302611,2.156646139,-7.340527963
220.527,-7.305600667,2.165644875,-21.47860933,0.9358685086,-5.814555924
220.5275,-5.169239813,1.860450467,-12.3227771,0.02028528547,3.036081899
220.528,-1.201712513,0.9448672442,2.021360063,-1.810881161,10.05555328
220.5285,3.071009195,0.02928402113,7.820053809,-3.642047607,7.919192422
220.529,4.596981233,-0.2759103866,2.32655447,-3.642047607,0.899721045
220.5295,4.291786826,-0.2759103866,-2.556556053,-2.421269976,-1.541834217
220.53,4.291786826,-0.886299202,-1.946167238,-1.810881161,0.899721045
220.5305,4.596981233,-2.41227124,-0.1150007913,-2.421269976,4.562053937
220.531,3.376203603,-2.41227124,1.716165655,-2.726464384,5.172442753
220.5315,2.155425972,-0.2759103866,7.820053809,-1.505686753,3.951665122
220.532,3.986592418,1.860450467,16.67069163,0.9358685086,2.120498676
220.5325,6.733342087,2.165644875,19.4174413,2.767034955,-0.6262509935
220.533,6.42814768,0.02928402113,14.22913637,2.767034955,-3.983389478
220.5335,2.46062038,-2.41227124,8.430442624,1.241062916,-5.509361517
220.534,0.01906511792,-3.022660056,5.988887363,0.3254796932,-4.898972701
220.5345,1.239842749,-2.41227124,4.768109732,0.6306741009,-3.983389478
220.535,3.68139801,-2.107076833,2.936943286,0.6306741009,-4.898972701
220.5355,3.68139801,-3.022660056,0.1901936164,-0.2849091222,-6.119750332
220.536,2.46062038,-3.938243279,-6.829277761,-0.8952979376,-6.42494474
220.5365,1.850231564,-5.15902091,-24.83574782,-1.505686753,-4.593778294
220.537,1.545037156,-5.769409725,-49.55649484,-2.421269976,-0.01586217811
220.5375,0.3242595256,-5.464215317,-67.56296489,-3.336853199,7.308803607
220.538,0.01906511792,-4.548632094,-69.69932575,-3.031658792,16.15944143
220.5385,1.545037156,-3.633048871,-58.40713266,-1.810881161,20.73735755
220.539,4.596981233,-2.41227124,-42.84221787,-1.505686753,17.68541347
220.5395,5.207370049,-0.886299202,-31.24483038,-1.505686753,9.750358868
220.54,2.765814787,0.6396728365,-23.00458137,0.6306741009,2.120498676
220.5405,0.6294539333,1.55525606,-8.965638615,3.37742377,-2.152223032
220.541,2.765814787,0.6396728365,21.24860775,2.156646139,-4.898972701
220.5415,7.343730903,-1.19149361,63.67063042,-2.421269976,-6.42494474
220.542,8.869702941,-2.107076833,95.41084882,-6.083602869,-5.509361517
220.5425,5.512564457,-0.886299202,95.41084882,-4.55763083,-2.152223032
220.543,1.545037156,1.250061652,68.85893535,-0.5901035299,-0.01586217811
220.5435,1.239842749,3.386422506,40.47585543,1.546257324,0.2893322296
220.544,3.376203603,3.996811321,24.30055182,1.546257324,-0.01586217811
220.5445,3.376203603,2.77603369,16.97588604,0.9358685086,0.5945266373
220.545,0.01906511792,1.55525606,9.956414663,0.3254796932,1.204915453
220.5455,-3.032878959,1.55525606,3.547332101,-0.8952979376,-0.3210565858
220.546,-4.558850998,1.860450467,0.8005824318,-2.421269976,-3.373000663
220.5465,-5.169239813,1.250061652,0.1901936164,-3.642047607,-4.593778294
220.547,-5.169239813,0.3344784288,-1.030584014,-4.55763083,-3.983389478
220.5475,-5.779628628,0.3344784288,-3.472139276,-5.473214053,-3.067806255
220.548,-6.695211852,1.55525606,-4.998111315,-4.862825238,-3.678195071
220.5485,-8.831572705,2.470839283,-6.218888945,-1.200492345,-4.288583886
220.549,-10.35754474,3.081228098,-7.439666576,2.461840547,-4.288583886
220.5495,-9.136767113,3.996811321,-7.439666576,4.903395809,-3.983389478
220.55,-5.779628628,5.217588952,-4.998111315,4.903395809,-3.983389478
220.5505,-2.727684551,4.912394544,-2.861750461,3.682618178,-3.678195071
220.551,-2.117295736,2.77603369,-2.251361645,2.156646139,-2.152223032
220.5515,-2.422490144,0.9448672442,-1.946167238,0.6306741009,-0.6262509935
220.552,-1.201712513,0.9448672442,-0.7253896067,-1.810881161,-0.6262509935
220.5525,0.01906511792,0.9448672442,0.8005824318,-4.862825238,-1.847028624
220.553,0.6294539333,0.02928402113,2.021360063,-6.999186092,-1.847028624
220.5535,0.6294539333,-1.19149361,2.021360063,-7.914769315,-0.3210565858
220.554,1.239842749,-1.801882425,1.105776839,-8.52515813,1.204915453
220.5545,2.155425972,-1.801882425,-0.1150007913,-9.745935761,1.51010986
220.555,1.850231564,-1.801882425,-1.64097283,-10.35632458,0.899721045
220.5555,1.239842749,-1.801882425,-5.60850013,-9.135546946,-0.3210565858
220.556,1.545037156,-1.496688017,-10.79680506,-6.693991684,-2.45741744
220.5565,3.68139801,-1.801882425,-14.45913795,-4.252436422,-4.288583886
220.557,4.902175641,-2.41227124,-14.45913795,-1.505686753,-4.593778294
220.5575,3.68139801,-2.41227124,-14.15394355,1.851451732,-3.373000663
220.558,0.934648341,-0.886299202,-16.59549881,5.513784624,-1.541834217
220.5585,-1.201712513,-0.5811047943,-19.03705407,6.429367847,-0.3210565858
220.559,-2.117295736,-1.19149361,-16.2903044,6.429367847,0.2893322296
220.5595,-2.727684551,-0.886299202,-12.01758269,9.176117517,-0.3210565858
220.56,-3.032878959,1.250061652,-15.98510999,15.89039449,-3.983389478
220.5605,-2.727684551,4.302005729,-27.58249748,21.68908823,-7.950916778
220.561,-1.201712513,4.302005729,-32.77080242,22.29947705,-8.866500001
220.5615,0.3242595256,1.250061652,-21.17341492,19.24753297,-5.814555924
220.562,2.765814787,-1.19149361,-1.335778422,15.89039449,-1.847028624
220.5625,5.207370049,-0.886299202,11.78758111,12.533256,-0.01586217811
220.563,6.733342087,0.6396728365,15.75510841,9.481311924,0.2893322296
220.5635,5.817758864,2.165644875,18.80705249,7.34495107,1.51010986
220.564,2.46062038,2.77603369,26.13171827,7.34495107,2.730887491
220.5645,-1.506906921,3.081228098,34.06677287,8.565728701,-0.01586217811
220.565,-5.779628628,3.996811321,36.50832813,9.481311924,-7.340527963
220.5655,-9.747155929,5.52278336,31.01482879,10.09170074,-16.49636019
220.566,-13.10429441,7.048755398,19.4174413,11.61767278,-21.07427631
220.5665,-14.32507204,7.659144214,6.29408177,12.22806159,-18.32752664
220.567,-11.88351678,6.438366583,-1.030584014,9.786506332,-13.13922171
220.5675,-6.695211852,3.996811321,-1.64097283,5.208590216,-12.22363849
220.568,-1.812101328,1.860450467,0.8005824318,0.9358685086,-12.52883289
220.5685,0.3242595256,0.9448672442,0.4953880241,-1.200492345,-1.236639809
220.569,0.01906511792,0.6396728365,-1.64097283,-3.031658792,25.62046807
220.5695,-1.201712513,0.02928402113,-1.946167238,-4.252436422,51.56199272
220.57,-3.032878959,-1.19149361,-0.1150007913,-3.642047607,54.6139368
220.5705,-5.169239813,-0.886299202,-1.030584014,-0.8952979376,34.47110589
220.571,-7.000406259,0.6396728365,-12.62797151,1.546257324,12.49710854
220.5715,-8.526378298,1.250061652,-34.29677445,1.851451732,4.562053937
220.572,-8.831572705,-0.5811047943,-56.88116062,0.3254796932,6.698414791
220.5725,-8.831572705,-3.938243279,-67.56296489,-0.8952979376,7.919192422
220.573,-7.305600667,-5.769409725,-61.45907674,-2.726464384,5.477637161
220.5735,-3.948462182,-5.464215317,-45.89416195,-5.473214053,2.730887491
220.574,0.934648341,-4.853826502,-32.46560801,-7.609574907,-0.01586217811
220.5745,6.42814768,-4.548632094,-23.30977578,-8.52515813,-4.593778294
220.575,10.09048057,-4.548632094,-12.3227771,-7.609574907,-7.645722371
220.5755,11.61645261,-3.633048871,-0.420195199,-6.693991684,-6.730139148
220.576,12.22684143,-2.107076833,5.988887363,-6.083602869,-5.204167109
220.5765,12.53203583,-0.886299202,6.904470586,-5.473214053,-4.898972701
220.577,13.14242465,0.02928402113,9.04083144,-4.55763083,-2.152223032
220.5775,14.36320228,0.02928402113,12.09277552,-4.862825238,3.951665122
220.578,14.9735911,-0.5811047943,6.29408177,-6.999186092,9.139970053
220.5785,13.44761906,-0.5811047943,-7.744860984,-8.219963722,11.27633091
220.579,9.785286164,-0.2759103866,-12.01758269,-7.609574907,14.63346939
220.5795,7.038536495,-0.5811047943,6.29408177,-6.083602869,21.95813518
220.58,6.42814768,-1.19149361,30.09924557,-5.473214053,25.01007925
220.5805,5.817758864,-1.496688017,31.01482879,-4.862825238,15.24385821
220.581,3.071009195,0.02928402113,7.820053809,-2.726464384,-1.847028624
220.5815,-1.506906921,2.77603369,-14.15394355,0.6306741009,-13.44441612
220.582,-5.779628628,3.996811321,-19.03705407,2.461840547,-14.35999934
220.5825,-8.526378298,3.691616914,-16.90069321,2.461840547,-9.782083225
220.583,-10.05235034,2.165644875,-21.47860933,1.851451732,-4.288583886
220.5835,-10.05235034,0.3344784288,-28.49808071,1.851451732,0.899721045
220.584,-9.136767113,-0.2759103866,-25.14094222,2.461840547,4.25685953
220.5845,-8.831572705,0.6396728365,-12.01758269,3.37742377,2.425693084
220.585,-9.136767113,3.386422506,-1.64097283,4.293006993,-3.678195071
220.5855,-6.695211852,5.52278336,-0.420195199,4.598201401,-11.61324967
220.586,-0.5913236975,5.52278336,-5.913694538,2.767034955,-20.46388749
220.5865,6.42814768,3.996811321,-15.67991558,0.02028528547,-29.92491413
220.587,10.70086939,3.691616914,-28.49808071,-0.8952979376,-35.72360788
220.5875,11.0060638,4.302005729,-38.26430175,-0.5901035299,-34.19763584
220.588,10.09048057,3.996811321,-36.1279409,-1.200492345,-30.23010854
220.5885,9.174897349,2.165644875,-21.47860933,-2.726464384,-25.65219243
220.589,6.733342087,0.9448672442,-5.303305722,-3.336853199,-13.13922171
220.5895,3.986592418,1.250061652,5.683692955,-2.116075568,13.41269176
220.59,3.376203603,0.9448672442,22.16419097,-2.116075568,40.88018845
220.5905,6.122953272,-0.5811047943,59.39790871,-5.168019645,48.81524305
220.591,8.564508534,-3.022660056,110.3653748,-8.219963722,35.38668912
220.5915,7.343730903,-3.022660056,142.715982,-7.609574907,20.43216314
220.592,2.46062038,-0.886299202,126.8458728,-3.642047607,15.85424702
220.5925,-2.422490144,0.3344784288,69.77451857,-0.2849091222,12.80230295
220.593,-5.474434221,-0.886299202,9.651220255,0.02028528547,1.815304268
220.5935,-4.864045405,-4.243437687,-20.86822052,-2.726464384,-11.30805526
220.594,-0.8965181052,-6.684992948,-19.64744288,-7.609574907,-15.27558256
220.5945,3.68139801,-6.379798541,-2.861750461,-11.57710221,-10.69766645
220.595,7.038536495,-4.853826502,15.75510841,-11.88229661,-5.814555924
220.5955,8.259314126,-4.243437687,30.09924557,-8.52515813,-3.678195071
220.596,8.259314126,-4.243437687,34.67716169,-5.168019645,-2.45741744
220.5965,7.64892531,-3.938243279,28.87846794,-5.168019645,-1.236639809
220.597,6.42814768,-2.41227124,20.33302452,-6.999186092,-2.152223032
220.5975,6.122953272,-1.19149361,17.28108045,-7.609574907,-3.067806255
220.598,6.733342087,-0.5811047943,19.11224689,-6.388797276,-2.762611847
220.5985,7.64892531,-0.5811047943,17.58627486,-5.168019645,-2.152223032
220.599,7.64892531,-0.886299202,10.87199789,-5.778408461,-2.762611847
220.5995,5.207370049,-1.496688017,3.547332101,-6.388797276,-2.762611847
220.6,0.934648341,-1.801882425,-4.082528091,-4.55763083,-0.3210565858
220.6005,-4.558850998,-0.5811047943,-12.62797151,0.02028528547,2.120498676
220.601,-9.747155929,1.250061652,-16.90069321,4.293006993,4.25685953
220.6015,-12.18871119,2.165644875,-11.71238828,6.734562255,7.003609199
220.602,-11.88351678,1.860450467,-1.335778422,6.734562255,9.139970053
220.6025,-10.96793356,2.165644875,4.157720917,5.818979032,7.919192422
220.603,-10.96793356,3.386422506,4.768109732,5.818979032,5.477637161
220.6035,-11.57832237,4.912394544,5.378498547,7.039756663,5.172442753
220.604,-13.10429441,5.827977767,6.29408177,8.260534293,4.867248345
220.6045,-16.4614329,5.52278336,2.021360063,7.955339886,-0.6262509935
220.605,-20.12376579,4.302005729,-4.387722499,7.039756663,-9.476888817
220.6055,-20.12376579,2.165644875,-3.777333684,6.124173439,-11.61324967
220.606,-16.4614329,0.9448672442,2.936943286,6.734562255,-4.898972701
220.6065,-14.01987764,2.470839283,6.599276178,8.565728701,0.2893322296
220.607,-16.4614329,5.52278336,2.631748878,11.00728396,-1.847028624
220.6075,-18.90298816,5.827977767,-2.861750461,11.92286719,-7.645722371
220.608,-14.93546086,2.470839283,-6.524083353,10.09170074,-9.171694409
220.6085,-5.169239813,-1.19149361,-7.744860984,5.513784624,-6.42494474
220.609,5.207370049,-2.41227124,-1.64097283,-0.2849091222,-0.9314454012
220.6095,14.36320228,-1.19149361,15.14471959,-5.473214053,5.477637161
220.61,22.29825688,-0.886299202,28.26807912,-8.52515813,8.834775645
220.6105,27.1813674,-1.801882425,12.39796992,-7.914769315,1.204915453
220.611,26.26578418,-2.107076833,-29.41366393,-5.168019645,-15.27558256
220.6115,22.9086457,-1.19149361,-61.15388233,-3.031658792,-25.95738683
220.612,22.9086457,-1.496688017,-54.43960536,-4.252436422,-21.07427631
220.6125,25.04500655,-2.717465648,-23.61497018,-6.693991684,-9.171694409
220.613,23.51903451,-3.327854464,-2.556556053,-6.083602869,-4.898972701
220.6135,17.10995195,-2.41227124,-1.335778422,-1.810881161,-8.561305594
220.614,11.3112582,-0.886299202,-4.387722499,2.156646139,-9.476888817
220.6145,9.174897349,-0.2759103866,-1.946167238,4.293006993,-4.593778294
220.615,6.122953272,-0.2759103866,0.4953880241,4.598201401,-0.01586217811
220.6155,0.6294539333,-0.5811047943,-0.1150007913,3.987812586,2.425693084
220.616,-2.117295736,-1.801882425,-0.420195199,1.546257324,6.393220384
220.6165,-0.5913236975,-4.243437687,2.936943286,-1.505686753,12.49710854
220.617,0.6294539333,-4.853826502,8.125248217,-3.336853199,16.15944143
220.6175,-1.201712513,-3.938243279,14.53433078,-2.116075568,14.9386638
220.618,-2.727684551,-3.327854464,23.99535742,-1.200492345,11.88671972
220.6185,1.239842749,-5.15902091,28.87846794,-3.947242015,8.834775645
220.619,6.733342087,-7.295381764,16.97588604,-7.609574907,4.867248345
220.6195,6.733342087,-6.379798541,-6.524083353,-8.219963722,-0.01586217811
220.62,3.376203603,-2.717465648,-20.56302611,-4.55763083,-1.847028624
220.6205,2.46062038,0.02928402113,-13.23836032,-1.810881161,0.899721045
220.621,3.376203603,0.02928402113,1.716165655,-2.116075568,4.867248345
220.6215,0.6294539333,-0.5811047943,4.768109732,-3.031658792,4.562053937
220.622,-4.558850998,-1.19149361,-4.387722499,-2.116075568,0.2893322296
220.6225,-5.474434221,-1.19149361,-12.93316591,-1.200492345,-4.288583886
220.623,-3.032878959,-0.886299202,-16.59549881,-2.116075568,-7.035333555
220.6235,-4.558850998,0.3344784288,-20.56302611,-3.336853199,-7.340527963
220.624,-10.96793356,1.250061652,-23.00458137,-4.252436422,-4.288583886
220.6245,-11.27312797,-0.5811047943,-17.51108203,-8.52515813,0.2893322296
220.625,-2.117295736,-4.548632094,-9.57602743,-17.37579595,3.646470714
220.6255,5.817758864,-6.074604133,-14.15394355,-25.00565615,3.951665122
220.626,3.071009195,-3.327854464,-31.85521919,-25.00565615,1.815304268
220.6265,-6.390017444,0.02928402113,-48.33571721,-18.59657358,-0.9314454012
220.627,-10.96793356,0.9448672442,-55.04999418,-12.49268543,-4.288583886
220.6275,-8.831572705,0.6396728365,-58.10193825,-9.440741353,-6.119750332
220.628,-5.169239813,2.165644875,-58.71232707,-5.778408461,-3.983389478
220.6285,-2.422490144,5.52278336,-46.50455076,-0.2849091222,2.120498676
220.629,0.01906511792,6.743560991,-22.69938696,3.682618178,7.308803607
220.6295,-1.201712513,6.133172175,-7.134472168,5.513784624,5.172442753
220.63,-8.831572705,6.743560991,-6.829277761,10.09170074,-1.541834217
220.6305,-16.76662731,8.574727437,1.716165655,18.94233856,-5.814555924
220.631,-14.32507204,8.269533029,40.78104984,25.65661553,-1.847028624
220.6315,-2.727684551,4.607200137,91.44332152,24.74103231,4.25685953
220.632,5.817758864,1.55525606,115.5536797,19.24753297,4.867248345
220.6325,4.902175641,0.9448672442,102.4303202,16.80597771,-1.541834217
220.633,-0.2861292898,1.860450467,73.43685146,18.63714416,-7.950916778
220.6335,-2.727684551,1.860450467,45.66416036,19.55272738,-8.256111186
220.634,-2.422490144,1.250061652,17.89146926,16.19558889,-4.898972701
220.6345,-4.25365659,0.9448672442,-9.57602743,11.61767278,-3.983389478
220.635,-7.000406259,0.3344784288,-29.41366393,9.481311924,-8.561305594
220.6355,-7.305600667,-0.5811047943,-37.95910735,8.565728701,-14.05480493
220.636,-4.558850998,-1.801882425,-38.26430175,6.429367847,-15.27558256
220.6365,-0.8965181052,-3.327854464,-30.02405275,2.156646139,-10.39247204
220.637,3.68139801,-5.464215317,-9.270833022,-0.5901035299,-3.678195071
220.6375,8.564508534,-6.684992948,17.28108045,-1.505686753,-1.541834217
220.638,9.785286164,-4.853826502,34.06677287,-0.2849091222,-7.340527963
220.6385,5.817758864,-1.801882425,35.2875505,1.546257324,-15.88597138
220.639,0.3242595256,0.02928402113,26.74210709,3.682618178,-18.02233223
220.6395,-2.117295736,-0.2759103866,13.31355315,5.208590216,-13.13922171
220.64,-1.506906921,-0.886299202,-5.913694538,5.208590216,-8.561305594
220.6405,-1.201712513,0.02928402113,-27.88769189,3.682618178,-7.645722371
220.641,-1.506906921,1.55525606,-41.62144024,1.546257324,-0.9314454012
220.6415,-0.2861292898,0.9448672442,-43.75780109,0.02028528547,18.60099669
220.642,2.155425972,-1.19149361,-40.0954682,-1.505686753,42.10096608
220.6425,3.986592418,-3.938243279,-31.55002478,-3.336853199,50.03602068
220.643,4.902175641,-4.853826502,-12.3227771,-5.778408461,39.65941082
220.6435,6.733342087,-4.243437687,15.75510841,-7.914769315,26.8412457
220.644,10.70086939,-2.41227124,40.78104984,-9.440741353,23.48410721
220.6445,12.53203583,-0.886299202,52.68363174,-9.135546946,22.56852399
220.645,8.564508534,0.02928402113,54.81999259,-6.693991684,14.63346939
220.6455,1.850231564,1.55525606,53.59921496,-2.116075568,3.341276307
220.646,-2.117295736,3.996811321,46.27454918,1.851451732,-1.236639809
220.6465,-2.422490144,6.438366583,30.09924557,4.293006993,0.2893322296
220.647,-2.727684551,6.743560991,11.4823867,3.987812586,2.425693084
220.6475,-5.169239813,4.302005729,-1.64097283,2.156646139,2.425693084
220.648,-7.000406259,2.470839283,-9.270833022,0.3254796932,1.815304268
220.6485,-7.000406259,2.165644875,-16.59549881,-0.2849091222,-0.01586217811
220.649,-6.390017444,2.165644875,-23.30977578,0.02028528547,-4.898972701
220.6495,-7.000406259,1.55525606,-27.27730308,1.241062916,-13.44441612
220.65,-8.22118389,0.9448672442,-29.10846952,1.851451732,-22.90544276
220.6505,-7.915989482,0.6396728365,-32.46560801,0.9358685086,-29.92491413
220.651,-4.864045405,0.02928402113,-35.82274649,-1.200492345,-31.14569176
220.6515,-1.506906921,-0.5811047943,-33.38119123,-2.421269976,-26.56777565
220.652,0.01906511792,-0.5811047943,-23.30977578,-0.8952979376,-21.98985953
220.6525,-0.2861292898,0.02928402113,-10.18641625,1.241062916,-21.98985953
220.653,-0.5913236975,-0.5811047943,0.1901936164,2.461840547,-18.02233223
220.6535,2.765814787,-3.633048871,6.904470586,0.02028528547,1.815304268
220.654,8.869702941,-5.769409725,11.4823867,-4.252436422,32.94513385
220.6545,12.53203583,-5.15902091,14.53433078,-7.914769315,51.25679832
220.655,9.785286164,-3.022660056,16.97588604,-7.609574907,44.84771575
220.6555,2.765814787,-1.801882425,18.80705249,-4.252436422,27.14644011
220.656,-1.506906921,-2.717465648,16.67069163,-1.200492345,17.99060788
220.6565,-1.201712513,-3.327854464,6.29408177,-0.8952979376,17.68541347
220.657,-0.2861292898,-2.41227124,-12.01758269,-1.200492345,14.63346939
220.6575,-1.812101328,-0.5811047943,-32.1604136,0.3254796932,6.698414791
220.658,-4.558850998,0.6396728365,-44.0629955,3.987812586,1.51010986
220.6585,-5.169239813,1.250061652,-44.0629955,6.124173439,2.120498676
220.659,-3.338073367,0.9448672442,-37.04352412,5.208590216,3.036081899
220.6595,-1.201712513,0.6396728365,-30.32924715,3.072229362,0.5945266373
220.66,0.01906511792,0.3344784288,-25.75133104,2.156646139,-1.541834217
220.6605,0.934648341,0.3344784288,-21.78380374,1.851451732,-2.762611847
220.661,0.6294539333,0.02928402113,-19.95263729,0.9358685086,-3.983389478
220.6615,0.01906511792,0.02928402113,-23.30977578,-0.5901035299,-5.204167109
220.662,0.6294539333,1.250061652,-27.88769189,-1.810881161,-4.593778294
220.6625,3.071009195,2.470839283,-24.83574782,-2.116075568,-2.762611847
220.663,5.817758864,2.77603369,-11.71238828,-2.421269976,-0.9314454012
220.6635,6.122953272,2.470839283,2.021360063,-2.421269976,-0.01586217811
220.664,3.986592418,3.386422506,9.04083144,-1.505686753,0.5945266373
220.6645,2.155425972,5.827977767,12.70316433,0.9358685086,2.730887491
220.665,1.850231564,7.353949806,20.63821893,3.682618178,5.782831568
220.6655,1.545037156,7.048755398,28.57327353,5.818979032,6.698414791
220.666,0.01906511792,6.133172175,25.52132946,7.039756663,1.815304268
220.6665,-1.201712513,6.133172175,11.17719229,7.650145478,-8.561305594
220.667,-1.812101328,6.133172175,-4.082528091,7.039756663,-18.32752664
220.6675,-0.5913236975,4.912394544,-11.40719388,4.903395809,-20.46388749
220.668,-0.2861292898,3.081228098,-9.881221838,2.156646139,-16.19116579
220.6685,-2.727684551,1.860450467,-4.998111315,0.9358685086,-12.22363849
220.669,-7.305600667,0.6396728365,-3.777333684,0.6306741009,-10.69766645
220.6695,-10.05235034,-0.5811047943,-9.57602743,-0.2849091222,-9.171694409
220.67,-8.22118389,-2.107076833,-18.42666525,-3.336853199,-6.42494474
220.6705,-4.558850998,-2.41227124,-20.2578317,-4.862825238,-4.898972701
220.671,-3.643267774,-1.496688017,-13.84874914,-2.726464384,-5.204167109
220.6715,-6.390017444,-0.886299202,-12.62797151,0.3254796932,-4.593778294
220.672,-8.831572705,-1.801882425,-25.75133104,0.9358685086,-2.152223032
220.6725,-7.305600667,-3.938243279,-40.40066261,-2.116075568,0.899721045
220.673,-2.422490144,-6.379798541,-37.65391294,-5.168019645,3.646470714
220.6735,2.155425972,-7.905770579,-19.03705407,-6.693991684,5.172442753
220.674,6.733342087,-8.821353802,-3.777333684,-7.304380499,3.646470714
220.6745,10.09048057,-8.210964987,0.1901936164,-6.999186092,-0.01586217811
220.675,12.22684143,-6.990187356,2.936943286,-3.947242015,-1.847028624
220.6755,11.3112582,-4.548632094,9.346025847,0.6306741009,-0.3210565858
220.676,8.259314126,-2.107076833,10.56680348,3.682618178,-0.6262509935
220.6765,6.733342087,-0.5811047943,5.378498547,2.461840547,-6.42494474
220.677,8.259314126,-1.19149361,7.820053809,-0.5901035299,-12.52883289
220.6775,11.0060638,-3.327854464,26.13171827,-3.336853199,-9.782083225
220.678,11.61645261,-5.769409725,46.88493799,-4.252436422,-0.01586217811
220.6785,8.869702941,-6.379798541,51.46285411,-4.55763083,7.919192422
220.679,3.071009195,-4.853826502,39.2550778,-3.031658792,8.22438683
220.6795,-4.25365659,-2.717465648,22.16419097,0.02028528547,5.477637161
220.68,-11.88351678,-1.19149361,5.683692955,3.37742377,5.477637161
220.6805,-17.68221053,-0.2759103866,-8.660444207,6.429367847,7.308803607
220.681,-19.81857138,0.6396728365,-19.03705407,8.870923109,6.698414791
220.6815,-18.29259934,2.470839283,-21.47860933,10.39689515,3.341276307
220.682,-14.01987764,3.996811321,-18.42666525,10.09170074,-0.6262509935
220.6825,-7.305600667,4.607200137,-13.23836032,7.650145478,-3.373000663
220.683,0.3242595256,3.996811321,-5.303305722,4.598201401,-4.288583886
220.6835,7.038536495,3.386422506,5.07330414,2.156646139,-3.983389478
220.684,11.0060638,2.77603369,14.22913637,0.6306741009,-3.983389478
220.6845,14.36320228,2.77603369,19.11224689,-1.505686753,-3.373000663
220.685,18.9411184,2.77603369,22.46938538,-4.252436422,-0.6262509935
220.6855,23.82422892,2.470839283,23.07977419,-6.388797276,1.815304268
220.686,24.43461773,2.470839283,14.53433078,-7.609574907,-0.3210565858
220.6865,19.85670162,3.081228098,-2.251361645,-7.609574907,-8.866500001
220.687,13.75281346,3.691616914,-12.93316591,-5.473214053,-16.8015546
220.6875,10.70086939,3.996811321,-5.303305722,-2.116075568,-17.71713782
220.688,11.0060638,3.996811321,13.31355315,0.9358685086,-12.22363849
220.6885,10.70086939,4.607200137,26.43691268,3.072229362,-6.42494474
220.689,8.259314126,4.912394544,29.48885676,3.987812586,-3.067806255
220.6895,5.512564457,3.691616914,29.79405116,4.598201401,-0.6262509935
220.69,3.68139801,1.55525606,30.40443998,5.208590216,0.2893322296
220.6905,2.46062038,0.3344784288,27.96288472,5.208590216,-0.6262509935
220.691,0.6294539333,0.02928402113,21.55380216,3.987812586,-2.45741744
220.6915,0.01906511792,-1.496688017,13.31355315,0.02028528547,-2.152223032
220.692,0.3242595256,-4.243437687,4.768109732,-4.862825238,0.5945266373
220.6925,0.01906511792,-5.464215317,-5.913694538,-8.52515813,3.341276307
220.693,-3.032878959,-3.327854464,-19.34224848,-9.135546946,3.951665122
220.6935,-5.779628628,-1.496688017,-30.32924715,-10.66151898,3.951665122
220.694,-3.948462182,-3.327854464,-34.90716327,-15.84982392,4.867248345
220.6945,0.3242595256,-6.990187356,-32.77080242,-22.56410088,6.698414791
220.695,2.46062038,-8.516159395,-26.05652545,-24.39526733,8.834775645
220.6955,0.6294539333,-6.684992948,-17.81627644,-20.42774003,9.750358868
220.696,-2.117295736,-4.243437687,-10.79680506,-14.01865747,9.445164461
220.6965,-3.338073367,-2.41227124,-4.998111315,-8.52515813,8.22438683
220.697,-2.727684551,-0.5811047943,0.1901936164,-3.642047607,5.172442753
220.6975,-2.422490144,0.6396728365,1.410971247,-0.5901035299,-0.01586217811
220.698,-2.727684551,0.9448672442,-5.60850013,0.02028528547,-6.42494474
220.6985,-3.643267774,0.02928402113,-17.51108203,0.9358685086,-10.39247204
220.699,-5.474434221,0.6396728365,-21.47860933,6.734562255,-8.866500001
220.6995,-6.695211852,3.386422506,-13.84874914,15.28000567,-4.898972701
220.7,-7.000406259,5.52278336,-4.082528091,20.77350501,-3.373000663
220.7005,-7.305600667,3.691616914,-0.1150007913,19.85792179,-5.509361517
220.701,-8.831572705,0.6396728365,1.105776839,16.19558889,-7.645722371
220.7015,-10.05235034,0.02928402113,2.32655447,13.75403363,-7.340527963
220.702,-9.136767113,2.165644875,0.4953880241,11.92286719,-5.204167109
220.7025,-6.390017444,3.691616914,-1.64097283,9.176117517,-2.45741744
220.703,-3.948462182,3.081228098,11.17719229,6.734562255,1.815304268
220.7035,-2.727684551,1.250061652,48.10571563,5.513784624,7.613998014
220.704,-0.8965181052,1.250061652,89.30696067,4.903395809,11.27633091
220.7045,-0.2861292898,3.386422506,102.1251258,3.987812586,11.27633091
220.705,-3.338073367,5.217588952,79.84593403,4.903395809,8.834775645
220.7055,-7.915989482,5.52278336,48.71610444,7.34495107,7.003609199
220.706,-9.136767113,4.912394544,33.45638406,7.955339886,6.088025976
220.7065,-5.474434221,4.607200137,31.3200232,6.429367847,5.477637161
220.707,-3.643267774,6.133172175,22.77457979,5.208590216,3.951665122
220.7075,-7.305600667,7.048755398,1.105776839,5.818979032,1.204915453
220.708,-11.88351678,5.52278336,-21.78380374,6.124173439,-2.762611847
220.7085,-11.57832237,2.165644875,-32.46560801,3.682618178,-6.730139148
220.709,-6.390017444,0.3344784288,-28.49808071,0.3254796932,-7.645722371
220.7095,-1.812101328,0.9448672442,-17.20588762,0.02028528547,-5.509361517
220.71,-0.5913236975,2.77603369,-5.303305722,0.9358685086,-3.983389478
220.7105,-0.5913236975,2.470839283,3.242137693,1.851451732,-4.288583886
220.711,0.01906511792,0.3344784288,7.820053809,2.461840547,-4.288583886
220.7115,1.239842749,-2.41227124,6.904470586,2.461840547,-2.152223032
220.712,2.46062038,-5.15902091,2.32655447,0.02028528547,0.2893322296
220.7125,1.545037156,-6.684992948,-1.64097283,-5.778408461,2.120498676
220.713,-1.201712513,-6.990187356,-3.166944868,-10.66151898,2.730887491
220.7135,-5.169239813,-6.379798541,-2.861750461,-11.2719078,3.341276307
220.714,-6.695211852,-6.074604133,-2.251361645,-10.35632458,3.646470714
220.7145,-5.474434221,-6.379798541,-0.1150007913,-11.57710221,4.25685953
220.715,-4.864045405,-6.684992948,5.378498547,-13.40826865,5.477637161
220.7155,-5.169239813,-6.074604133,13.31355315,-13.10307425,7.308803607
220.716,-3.338073367,-5.769409725,19.4174413,-12.18749102,8.529581238
220.7165,1.850231564,-6.074604133,22.16419097,-13.71346306,8.834775645
220.717,5.207370049,-5.769409725,22.77457979,-15.2394351,7.919192422
220.7175,0.6294539333,-3.633048871,22.16419097,-11.57710221,6.088025976
220.718,-7.305600667,0.02928402113,22.16419097,-2.421269976,4.25685953
220.7185,-10.66273915,3.081228098,23.99535742,4.293006993,2.425693084
220.719,-7.000406259,5.217588952,24.60574623,6.734562255,0.2893322296
220.7195,-3.643267774,6.438366583,14.83952519,8.565728701,-2.152223032
220.72,-5.474434221,6.438366583,-7.134472168,12.533256,-3.678195071
220.7205,-9.136767113,3.996811321,-31.24483038,14.97481126,-0.6262509935
220.721,-10.35754474,0.9448672442,-44.0629955,11.92286719,5.172442753
220.7215,-10.35754474,0.02928402113,-49.55649484,7.650145478,6.393220384
220.722,-12.79910001,1.55525606,-59.01752148,6.429367847,-0.01586217811
220.7225,-15.24065527,2.470839283,-70.00452015,5.818979032,-7.340527963
220.723,-12.4939056,1.55525606,-63.59543759,2.461840547,-8.561305594
220.7235,-5.474434221,0.3344784288,-33.68638564,-2.116075568,-5.204167109
220.724,0.01906511792,0.9448672442,-0.1150007913,-3.642047607,-5.509361517
220.7245,0.934648341,2.470839283,10.26160907,-2.421269976,-14.66519375
220.725,1.239842749,2.165644875,-8.355249799,-2.116075568,-28.7041365
220.7255,2.765814787,0.9448672442,-41.92663465,-4.252436422,-38.77555196
220.726,3.986592418,1.250061652,-71.8356866,-5.778408461,-37.55477433
220.7265,2.46062038,2.470839283,-83.7382685,-5.778408461,-25.04180361
220.727,0.934648341,2.470839283,-73.66685305,-6.083602869,-11.91844408
220.7275,1.239842749,0.6396728365,-52.60843892,-7.609574907,-8.561305594
220.728,1.239842749,-0.2759103866,-40.40066261,-7.609574907,-10.39247204
220.7285,-0.5913236975,0.02928402113,-40.70585702,-6.388797276,-0.6262509935
220.729,-1.812101328,-0.2759103866,-30.63444156,-6.083602869,25.01007925
220.7295,1.239842749,-3.022660056,11.4823867,-8.219963722,48.81524305
220.73,7.343730903,-5.769409725,73.13165706,-10.35632458,51.25679832
220.7305,10.70086939,-4.853826502,112.1965412,-11.57710221,35.69188352
220.731,9.785286164,-2.107076833,103.6510978,-11.57710221,20.12696873
220.7315,7.343730903,-0.5811047943,62.7550472,-10.66151898,10.36074768
220.732,5.817758864,-1.496688017,23.99535742,-8.52515813,1.204915453
220.7325,4.902175641,-3.022660056,5.683692955,-7.609574907,-9.171694409
220.733,4.902175641,-4.243437687,3.242137693,-9.745935761,-14.35999934
220.7335,6.122953272,-4.853826502,2.32655447,-12.49268543,-12.52883289
220.734,6.733342087,-4.548632094,-4.692916907,-11.88229661,-11.61324967
220.7345,4.291786826,-2.107076833,-15.67991558,-6.999186092,-14.05480493
220.735,-0.2861292898,0.02928402113,-19.34224848,-0.8952979376,-14.66519375
220.7355,-3.338073367,0.02928402113,-8.355249799,3.37742377,-10.69766645
220.736,-2.422490144,-1.801882425,13.31355315,5.513784624,-3.983389478
220.7365,0.934648341,-3.327854464,32.23560643,4.598201401,5.477637161
220.737,4.902175641,-3.938243279,38.94988339,1.546257324,18.60099669
220.7375,7.64892531,-3.633048871,36.20313373,0.02028528547,29.28280096
220.738,7.343730903,-2.717465648,32.54080083,2.461840547,28.36721774
220.7385,3.986592418,-1.19149361,29.79405116,7.34495107,18.60099669
220.739,-0.2861292898,0.3344784288,24.60574623,9.786506332,11.27633091
220.7395,-2.117295736,0.6396728365,17.58627486,8.870923109,9.750358868
220.74,-1.201712513,0.02928402113,15.449914,7.955339886,7.308803607
220.7405,0.3242595256,0.02928402113,19.72263571,7.650145478,-1.541834217
220.741,1.545037156,1.250061652,22.77457979,6.124173439,-11.91844408
220.7415,1.239842749,2.470839283,17.89146926,2.767034955,-19.85349868
220.742,-1.201712513,2.470839283,7.514859401,0.6306741009,-24.43141479
220.7425,-6.695211852,1.860450467,-2.556556053,1.241062916,-25.65219243
220.743,-13.10429441,2.165644875,-16.90069321,2.156646139,-23.21063716
220.7435,-17.98740494,3.081228098,-44.36818991,2.767034955,-22.60024835
220.744,-21.03934901,4.302005729,-82.21229646,4.293006993,-26.87297006
220.7445,-23.17570987,4.912394544,-115.1732925,6.429367847,-24.12622039
220.745,-23.17570987,4.912394544,-131.9589849,6.734562255,-2.152223032
220.7455,-21.03934901,4.302005729,-132.8745681,4.598201401,29.58799537
220.746,-18.90298816,3.081228098,-117.0044589,3.37742377,47.89965983
220.7465,-17.07182171,1.860450467,-76.71879712,4.598201401,44.54252135
220.747,-12.4939056,0.9448672442,-13.84874914,4.598201401,37.52304997
220.7475,-2.117295736,0.02928402113,51.46285411,0.9358685086,38.7438276
220.748,11.3112582,-0.2759103866,98.4627929,-3.336853199,36.60746675
220.7485,20.77228484,-0.2759103866,124.0991231,-5.168019645,19.82177432
220.749,23.51903451,0.3344784288,134.7809274,-4.55763083,0.5945266373
220.7495,22.60345129,2.165644875,129.5926225,-3.642047607,-2.762611847
220.75,21.38267366,3.386422506,105.7874587,-2.726464384,6.393220384
220.7505,19.2463128,3.081228098,71.30049061,-0.8952979376,11.27633091
220.751,15.2787855,1.860450467,38.94988339,0.02028528547,6.088025976
220.7515,12.22684143,0.6396728365,16.06030282,-0.2849091222,0.5945266373
220.752,12.22684143,0.02928402113,2.936943286,-1.200492345,1.815304268
220.7525,13.75281346,-1.19149361,-0.1150007913,-1.505686753,4.867248345
220.753,14.66839669,-2.41227124,3.242137693,-1.505686753,4.562053937
220.7535,13.14242465,-3.022660056,4.157720917,-1.810881161,0.899721045
220.754,10.70086939,-2.107076833,-3.472139276,-1.200492345,-3.067806255
220.7545,7.64892531,-0.2759103866,-12.01758269,1.546257324,-6.730139148
220.755,4.596981233,0.3344784288,-10.79680506,4.903395809,-7.950916778
220.7555,2.765814787,0.3344784288,-4.387722499,6.429367847,-5.509361517
220.756,3.071009195,-0.2759103866,-3.777333684,5.513784624,-2.152223032
220.7565,4.596981233,-1.496688017,-8.050055392,3.37742377,-1.236639809
220.757,6.42814768,-2.41227124,-8.965638615,0.3254796932,-3.067806255
220.7575,7.64892531,-2.41227124,-7.134472168,-2.421269976,-5.509361517
220.758,7.038536495,-1.496688017,-9.881221838,-3.031658792,-7.645722371
220.7585,4.291786826,-0.5811047943,-19.03705407,0.3254796932,-9.171694409
220.759,1.545037156,-0.5811047943,-25.75133104,3.987812586,-8.256111186
220.7595,1.850231564,-1.496688017,-26.66691426,3.37742377,-4.898972701
220.76,5.817758864,-3.022660056,-25.44613663,-0.5901035299,-2.152223032
220.7605,9.785286164,-4.243437687,-24.225359,-3.642047607,-1.236639809
220.761,10.09048057,-3.327854464,-19.95263729,-2.726464384,-1.847028624
220.7615,6.733342087,-0.886299202,-13.84874914,0.6306741009,-1.847028624
220.762,3.071009195,0.9448672442,-10.79680506,3.987812586,-2.152223032
220.7625,0.934648341,1.250061652,-11.10199947,6.124173439,-2.45741744
220.763,0.01906511792,1.55525606,-10.49161065,7.039756663,-2.45741744
220.7635,-0.5913236975,2.77603369,-8.050055392,7.650145478,-2.152223032
220.764,-0.2861292898,4.302005729,-4.998111315,7.34495107,-2.762611847
220.7645,2.155425972,4.607200137,-0.1150007913,6.734562255,-3.373000663
220.765,3.986592418,4.302005729,8.735637032,6.124173439,-3.678195071
220.7655,3.071009195,4.302005729,18.19666367,6.429367847,-4.288583886
220.766,0.934648341,3.996811321,24.30055182,7.650145478,-4.898972701
220.7665,2.155425972,2.77603369,27.3524959,7.955339886,-4.288583886
220.767,5.817758864,2.165644875,28.87846794,6.429367847,-2.762611847
220.7675,5.512564457,3.386422506,23.99535742,4.903395809,-5.204167109
220.768,-1.812101328,4.912394544,9.346025847,5.513784624,-11.00286086
220.7685,-12.4939056,3.081228098,-10.79680506,8.260534293,-13.13922171
220.769,-18.29259934,-0.2759103866,-30.93963597,10.70208956,-7.035333555
220.7695,-17.07182171,-1.496688017,-50.77727247,11.31247837,-3.067806255
220.77,-13.10429441,-0.886299202,-68.47854812,10.70208956,-11.30805526
220.7705,-10.05235034,-1.496688017,-72.44607542,9.481311924,-24.12622039
220.771,-7.305600667,-4.548632094,-53.52402214,6.429367847,-24.7366092
220.7715,-3.643267774,-5.769409725,-23.00458137,1.851451732,-12.22363849
220.772,0.01906511792,-4.243437687,-2.861750461,-1.200492345,-2.762611847
220.7725,2.765814787,-3.327854464,-1.335778422,-1.810881161,-3.373000663
220.773,4.596981233,-5.464215317,-10.18641625,-2.116075568,-3.373000663
220.7735,6.42814768,-7.295381764,-20.56302611,-5.778408461,7.308803607
220.774,7.64892531,-6.684992948,-29.41366393,-10.96671339,21.34774636
220.7745,8.259314126,-5.464215317,-32.46560801,-14.93424069,25.92566248
220.775,7.343730903,-6.684992948,-26.05652545,-16.46021273,20.73735755
220.7755,5.817758864,-8.210964987,-14.45913795,-17.68099036,14.32827498
220.776,4.596981233,-6.684992948,-6.218888945,-17.37579595,10.36074768
220.7765,4.291786826,-3.633048871,-1.64097283,-14.93424069,6.393220384
220.777,5.512564457,-2.717465648,6.29408177,-12.49268543,2.730887491
220.7775,7.64892531,-3.938243279,16.67069163,-13.10307425,1.204915453
220.778,8.869702941,-3.938243279,19.11224689,-14.32385188,-0.3210565858
220.7785,7.64892531,-1.801882425,10.87199789,-10.66151898,-5.204167109
220.779,5.207370049,0.02928402113,-0.420195199,-2.421269976,-10.08727763
220.7795,3.376203603,0.9448672442,-8.965638615,3.072229362,-9.782083225
220.78,2.155425972,1.55525606,-13.84874914,3.37742377,-4.898972701
220.7805,0.6294539333,1.860450467,-12.93316591,3.987812586,-0.3210565858
220.781,-0.5913236975,2.470839283,-2.861750461,9.176117517,1.204915453
220.7815,-0.8965181052,3.386422506,10.26160907,14.97481126,1.51010986
220.782,-1.506906921,5.217588952,17.28108045,15.89039449,0.899721045
220.7825,-3.948462182,7.048755398,15.14471959,12.533256,-1.236639809
220.783,-8.526378298,7.353949806,9.956414663,11.31247837,-3.678195071
220.7835,-12.4939056,5.827977767,7.209664994,12.533256,-3.373000663
220.784,-13.10429441,4.302005729,5.683692955,12.22806159,-0.01586217811
220.7845,-10.66273915,3.691616914,4.768109732,8.260534293,2.730887491
220.785,-7.305600667,3.081228098,5.988887363,3.682618178,3.341276307
220.7855,-4.558850998,2.470839283,9.346025847,1.546257324,2.425693084
220.786,-3.032878959,2.77603369,12.09277552,2.156646139,2.425693084
220.7865,-3.338073367,3.996811321,13.00835874,3.682618178,2.425693084
220.787,-4.864045405,5.217588952,11.17719229,4.903395809,-0.01586217811
220.7875,-6.084823036,4.912394544,7.209664994,5.513784624,-4.288583886
220.788,-4.864045405,3.996811321,6.29408177,4.293006993,-6.119750332
220.7885,-2.117295736,3.386422506,13.00835874,2.461840547,-2.45741744
220.789,-0.5913236975,3.081228098,23.3849686,1.851451732,2.425693084
220.7895,-0.5913236975,2.470839283,27.3524959,3.37742377,3.341276307
220.79,-0.8965181052,0.9448672442,22.46938538,3.987812586,0.5945266373
220.7905,-0.8965181052,0.02928402113,15.75510841,2.461840547,-0.3210565858
220.791,-0.8965181052,-0.5811047943,12.09277552,0.02028528547,1.204915453
220.7915,-2.117295736,-0.2759103866,6.29408177,-0.8952979376,1.815304268
220.792,-3.032878959,-0.2759103866,-3.472139276,0.02028528547,-0.9314454012
220.7925,-1.506906921,-1.19149361,-9.881221838,0.02028528547,-4.593778294
220.793,0.934648341,-1.19149361,-7.439666576,-1.505686753,-6.119750332
220.7935,2.46062038,-0.2759103866,-4.387722499,-3.336853199,-7.645722371
220.794,1.850231564,0.6396728365,-8.660444207,-3.336853199,-11.00286086
220.7945,0.01906511792,0.3344784288,-16.2903044,-1.810881161,-13.74961052
220.795,-2.117295736,-0.5811047943,-16.59549881,-0.2849091222,-11.30805526
220.7955,-3.948462182,-1.19149361,-8.355249799,-0.5901035299,-3.983389478
220.796,-5.169239813,-0.886299202,1.716165655,-1.200492345,2.425693084
220.7965,-6.084823036,-0.2759103866,7.209664994,-0.8952979376,3.646470714
220.797,-9.441961521,0.3344784288,1.716165655,0.9358685086,-0.9314454012
220.7975,-15.54584967,1.860450467,-15.67991558,3.987812586,-9.476888817
220.798,-20.12376579,1.860450467,-33.38119123,5.208590216,-16.49636019
220.7985,-18.59779375,0.02928402113,-35.51755208,2.767034955,-17.71713782
220.799,-11.88351678,-3.022660056,-22.39419255,-1.200492345,-13.44441612
220.7995,-6.084823036,-4.243437687,-9.881221838,-3.642047607,-7.340527963
220.8,-3.032878959,-3.327854464,-7.134472168,-2.421269976,-1.541834217
220.8005,-0.2861292898,-1.801882425,-4.692916907,-0.8952979376,4.562053937
220.801,4.596981233,-1.496688017,4.157720917,-2.421269976,10.05555328
220.8015,9.480091757,-1.496688017,10.26160907,-5.168019645,10.36074768
220.802,9.785286164,-0.2759103866,3.547332101,-5.778408461,4.562053937
220.8025,6.733342087,1.250061652,-7.744860984,-4.55763083,-1.541834217
220.803,4.291786826,1.860450467,-9.881221838,-4.55763083,-3.067806255
220.8035,3.986592418,1.860450467,-3.777333684,-6.388797276,-1.541834217
220.804,3.376203603,1.860450467,0.1901936164,-7.609574907,-0.9314454012
220.8045,2.46062038,2.165644875,-0.7253896067,-6.999186092,-1.541834217
220.805,2.765814787,1.860450467,-1.030584014,-7.609574907,-1.236639809
220.8055,3.68139801,1.860450467,2.021360063,-9.135546946,-0.3210565858
220.806,2.155425972,1.55525606,4.462915324,-9.440741353,-0.6262509935
220.8065,-1.506906921,1.250061652,5.378498547,-7.304380499,-1.541834217
220.807,-3.948462182,0.02928402113,7.209664994,-5.778408461,-1.236639809
220.8075,-2.422490144,-0.886299202,10.87199789,-6.693991684,-0.01586217811
220.808,0.01906511792,-0.5811047943,13.92394196,-6.999186092,-0.01586217811
220.8085,0.01906511792,-0.2759103866,14.53433078,-3.947242015,0.2893322296
220.809,0.01906511792,-1.801882425,14.22913637,-0.8952979376,1.815304268
220.8095,2.46062038,-4.243437687,14.83952519,-1.505686753,4.25685953
220.81,7.64892531,-4.853826502,16.97588604,-3.947242015,4.25685953
220.8105,11.0060638,-3.327854464,19.72263571,-3.947242015,2.425693084
220.811,10.70086939,-2.107076833,18.19666367,-1.200492345,1.815304268
220.8115,7.64892531,-3.633048871,7.820053809,0.02028528547,2.425693084
220.812,4.902175641,-5.464215317,-6.829277761,-0.5901035299,3.036081899
220.8125,2.155425972,-5.15902091,-15.98510999,-0.8952979376,3.036081899
220.813,0.01906511792,-3.633048871,-16.90069321,0.9358685086,5.477637161
220.8135,-1.812101328,-2.717465648,-17.81627644,3.37742377,9.750358868
220.814,-2.117295736,-3.022660056,-24.53055341,4.293006993,12.80230295
220.8145,-1.812101328,-3.022660056,-31.55002478,3.682618178,13.10749735
220.815,-1.506906921,-2.107076833,-33.68638564,3.072229362,14.02308058
220.8155,-0.8965181052,-2.107076833,-33.68638564,1.241062916,16.15944143
220.816,0.01906511792,-3.327854464,-30.93963597,-1.810881161,14.9386638
220.8165,0.3242595256,-3.633048871,-15.37472118,-6.083602869,7.003609199
220.817,-0.5913236975,-2.41227124,18.19666367,-8.219963722,-4.593778294
220.8175,-3.338073367,-0.886299202,54.81999259,-8.219963722,-14.97038816
220.818,-6.084823036,-0.886299202,68.55374094,-5.778408461,-21.68466512
220.8185,-7.000406259,-0.886299202,55.73557582,-2.726464384,-25.04180361
220.819,-6.695211852,0.9448672442,35.89793932,0.02028528547,-24.7366092
220.8195,-7.000406259,4.607200137,27.3524959,3.072229362,-20.46388749
220.82,-7.610795075,7.048755398,30.09924557,5.513784624,-14.66519375
