"type","name","time_units","begin_time","frequency","count","units"
"signal","Ultium EMG-Ultium EMG.EMG 1","s",241.92000,2000,22000,"uV"

"time","value"
241.92000,-4.71442236
241.92050,-4.104033544
241.92100,-2.883255914
241.92150,-1.052089467
241.92200,0.7790769788
241.92250,1.99985461
241.92300,1.99985461
241.92350,1.694660202
241.92400,2.305049017
241.92450,3.525826648
241.92500,3.831021056
241.92550,3.831021056
241.92600,3.525826648
241.92650,3.525826648
241.92700,3.22063224
241.92750,2.610243425
241.92800,2.610243425
241.92850,3.22063224
241.92900,3.525826648
241.92950,2.915437833
241.93000,1.99985461
241.93050,1.389465794
241.93100,1.389465794
241.93150,0.7790769788
241.93200,-0.441700652
241.93250,-2.272867098
241.93300,-3.188450321
241.93350,-3.798839137
241.93400,-3.798839137
241.93450,-4.409227952
241.93500,-5.630005583
241.93550,-6.240394398
241.93600,-5.935199991
241.93650,-4.71442236
241.93700,-3.493644729
241.93750,-3.798839137
241.93800,-4.104033544
241.93850,-3.798839137
241.93900,-1.967672691
241.93950,-0.1365062443
241.94000,-0.1365062443
241.94050,-0.1365062443
241.94100,0.1686881634
241.94150,2.610243425
241.94200,3.831021056
241.94250,3.831021056
241.94300,3.831021056
241.94350,5.356993094
241.94400,6.577770725
241.94450,5.96738191
241.94500,5.356993094
241.94550,6.272576317
241.94600,7.493353948
241.94650,6.882965133
241.94700,5.662187502
241.94750,5.96738191
241.94800,6.577770725
241.94850,5.051798687
241.94900,1.694660202
241.94950,-0.1365062443
241.95000,-0.7468950597
241.95050,-2.578061506
241.95100,-5.630005583
241.95150,-6.545588806
241.95200,-4.71442236
241.95250,-3.493644729
241.95300,-4.71442236
241.95350,-4.409227952
241.95400,-0.7468950597
241.95450,2.915437833
241.95500,3.831021056
241.95550,-0.1365062443
241.95600,-8.68194966
241.95650,-19.97414274
241.95700,-27.60400294
241.95750,-28.21439175
241.95800,-27.29880853
241.95850,-33.09750228
241.95900,-39.50658484
241.95950,-27.60400294
241.96000,9.629714802
241.96050,52.66212629
241.96100,72.19456838
241.96150,62.73354174
241.96200,41.98032202
241.96250,27.02579604
241.96300,20.61671348
241.96350,18.78554703
241.96400,18.17515822
241.96450,15.73360296
241.96500,8.103742764
241.96550,-1.967672691
241.96600,-8.071560845
241.96650,-6.240394398
241.96700,-1.052089467
241.96750,1.084271386
241.96800,1.99985461
241.96850,6.272576317
241.96900,13.90243651
241.96950,19.09074144
241.97000,17.5647694
241.97050,10.85049243
241.97100,3.22063224
241.97150,-0.7468950597
241.97200,-3.188450321
241.97250,-5.019616768
241.97300,-7.155977621
241.97350,-8.987144068
241.97400,-9.597532883
241.97450,-11.12350492
241.97500,-12.95467137
241.97550,-13.87025459
241.97600,-12.95467137
241.97650,-11.73389374
241.97700,-11.73389374
241.97750,-11.12350492
241.97800,-8.68194966
241.97850,-5.630005583
241.97900,-5.019616768
241.97950,-6.240394398
241.98000,-6.545588806
241.98050,-5.324811175
241.98100,-2.883255914
241.98150,-0.441700652
241.98200,0.4738825711
241.98250,-0.1365062443
241.98300,-3.798839137
241.98350,-6.850783214
241.98400,-6.545588806
241.98450,-3.493644729
241.98500,-1.357283875
241.98550,-0.1365062443
241.98600,1.084271386
241.98650,2.915437833
241.98700,2.610243425
241.98750,0.4738825711
241.98800,-0.1365062443
241.98850,0.7790769788
241.98900,0.7790769788
241.98950,-1.357283875
241.99000,-4.104033544
241.99050,-5.019616768
241.99100,-4.71442236
241.99150,-4.71442236
241.99200,-5.324811175
241.99250,-6.545588806
241.99300,-8.68194966
241.99350,-8.68194966
241.99400,-4.409227952
241.99450,3.22063224
241.99500,8.714131579
241.99550,7.798548356
241.99600,3.525826648
241.99650,1.389465794
241.99700,1.99985461
241.99750,1.99985461
241.99800,0.4738825711
241.99850,0.1686881634
241.99900,1.389465794
241.99950,-0.441700652
242.00000,-8.376755252
242.00050,-16.00661544
242.00100,-16.00661544
242.00150,-9.292338475
242.00200,-3.798839137
242.00250,-4.104033544
242.00300,-5.630005583
242.00350,-3.798839137
242.00400,-1.967672691
242.00450,-3.188450321
242.00500,-4.409227952
242.00550,-2.883255914
242.00600,-1.662478283
242.00650,-5.019616768
242.00700,-6.850783214
242.00750,3.525826648
242.00800,23.36346315
242.00850,36.18162827
242.00900,32.21410097
242.00950,18.78554703
242.01000,9.019325987
242.01050,5.96738191
242.01100,4.441409871
242.01150,1.99985461
242.01200,0.4738825711
242.01250,0.4738825711
242.01300,-0.1365062443
242.01350,-1.967672691
242.01400,-2.883255914
242.01450,-3.493644729
242.01500,-5.019616768
242.01550,-7.155977621
242.01600,-7.461172029
242.01650,-6.545588806
242.01700,-5.630005583
242.01750,-6.240394398
242.01800,-6.240394398
242.01850,-5.019616768
242.01900,-3.798839137
242.01950,-3.798839137
242.02000,-4.409227952
242.02050,-4.409227952
242.02100,-3.493644729
242.02150,-2.578061506
242.02200,-1.662478283
242.02250,-1.052089467
242.02300,-0.1365062443
242.02350,0.7790769788
242.02400,1.694660202
242.02450,3.22063224
242.02500,5.96738191
242.02550,8.103742764
242.02600,9.629714802
242.02650,10.24010362
242.02700,10.54529803
242.02750,10.24010362
242.02800,9.019325987
242.02850,7.493353948
242.02900,6.577770725
242.02950,5.356993094
242.03000,3.831021056
242.03050,1.99985461
242.03100,0.7790769788
242.03150,-0.1365062443
242.03200,-2.578061506
242.03250,-4.409227952
242.03300,-4.71442236
242.03350,-3.798839137
242.03400,-4.104033544
242.03450,-5.630005583
242.03500,-6.545588806
242.03550,-6.545588806
242.03600,-6.545588806
242.03650,-7.155977621
242.03700,-7.155977621
242.03750,-6.850783214
242.03800,-7.766366437
242.03850,-9.292338475
242.03900,-9.292338475
242.03950,-7.766366437
242.04000,-5.630005583
242.04050,-5.019616768
242.04100,-4.409227952
242.04150,-2.883255914
242.04200,-0.7468950597
242.04250,1.694660202
242.04300,3.831021056
242.04350,4.746604279
242.04400,3.831021056
242.04450,2.915437833
242.04500,3.22063224
242.04550,3.831021056
242.04600,4.136215463
242.04650,5.356993094
242.04700,7.493353948
242.04750,8.408937171
242.04800,6.272576317
242.04850,2.610243425
242.04900,0.7790769788
242.04950,-0.1365062443
242.05000,-1.662478283
242.05050,-3.188450321
242.05100,-2.883255914
242.05150,-2.272867098
242.05200,-3.188450321
242.05250,-1.967672691
242.05300,5.051798687
242.05350,15.12321414
242.05400,19.39593585
242.05450,14.81801973
242.05500,5.662187502
242.05550,-2.272867098
242.05600,-7.766366437
242.05650,-9.597532883
242.05700,-9.292338475
242.05750,-11.42869933
242.05800,-18.1429763
242.05850,-26.68841971
242.05900,-31.87672465
242.05950,-32.48711346
242.06000,-30.35075261
242.06050,-23.02608682
242.06100,-12.64947696
242.06150,-7.155977621
242.06200,-10.2079217
242.06250,-11.12350492
242.06300,0.1686881634
242.06350,16.64918618
242.06400,18.78554703
242.06450,7.188159541
242.06500,2.305049017
242.06550,16.03879736
242.06600,36.79201709
242.06650,50.22057103
242.06700,55.40887596
242.06750,56.32445918
242.06800,48.9997934
242.06850,30.99332334
242.06900,12.98685329
242.06950,5.662187502
242.07000,5.051798687
242.07050,2.610243425
242.07100,-0.441700652
242.07150,0.7790769788
242.07200,6.577770725
242.07250,10.54529803
242.07300,12.98685329
242.07350,15.73360296
242.07400,14.81801973
242.07450,5.96738191
242.07500,-5.935199991
242.07550,-11.73389374
242.07600,-11.12350492
242.07650,-9.292338475
242.07700,-8.68194966
242.07750,-6.545588806
242.07800,-4.104033544
242.07850,-5.019616768
242.07900,-7.766366437
242.07950,-7.766366437
242.08000,-5.019616768
242.08050,-2.578061506
242.08100,0.7790769788
242.08150,7.188159541
242.08200,10.54529803
242.08250,3.831021056
242.08300,-8.376755252
242.08350,-14.48064341
242.08400,-9.292338475
242.08450,-1.052089467
242.08500,0.4738825711
242.08550,-1.357283875
242.08600,-1.967672691
242.08650,-0.7468950597
242.08700,-0.441700652
242.08750,-1.662478283
242.08800,-2.272867098
242.08850,-2.883255914
242.08900,-4.409227952
242.08950,-6.545588806
242.09000,-6.850783214
242.09050,-6.240394398
242.09100,-5.935199991
242.09150,-7.155977621
242.09200,-8.071560845
242.09250,-8.376755252
242.09300,-9.292338475
242.09350,-10.2079217
242.09400,-11.12350492
242.09450,-11.73389374
242.09500,-12.34428255
242.09550,-12.64947696
242.09600,-12.34428255
242.09650,-10.81831051
242.09700,-9.902727291
242.09750,-9.292338475
242.09800,-8.68194966
242.09850,-7.155977621
242.09900,-5.630005583
242.09950,-4.71442236
242.10000,-4.409227952
242.10050,-3.798839137
242.10100,-2.578061506
242.10150,-0.7468950597
242.10200,0.7790769788
242.10250,1.694660202
242.10300,1.99985461
242.10350,1.389465794
242.10400,0.7790769788
242.10450,0.7790769788
242.10500,1.99985461
242.10550,2.610243425
242.10600,2.915437833
242.10650,2.610243425
242.10700,2.610243425
242.10750,2.610243425
242.10800,2.610243425
242.10850,1.99985461
242.10900,0.7790769788
242.10950,-0.7468950597
242.11000,-1.357283875
242.11050,-0.7468950597
242.11100,-0.7468950597
242.11150,-2.578061506
242.11200,-5.630005583
242.11250,-6.850783214
242.11300,-6.545588806
242.11350,-6.240394398
242.11400,-8.071560845
242.11450,-9.902727291
242.11500,-10.2079217
242.11550,-9.597532883
242.11600,-8.987144068
242.11650,-8.68194966
242.11700,-8.071560845
242.11750,-6.850783214
242.11800,-5.935199991
242.11850,-4.71442236
242.11900,-2.578061506
242.11950,-0.1365062443
242.12000,1.084271386
242.12050,1.99985461
242.12100,3.525826648
242.12150,6.577770725
242.12200,8.714131579
242.12250,9.629714802
242.12300,9.324520394
242.12350,9.629714802
242.12400,9.93490921
242.12450,10.54529803
242.12500,10.24010362
242.12550,8.714131579
242.12600,6.272576317
242.12650,4.746604279
242.12700,5.051798687
242.12750,5.356993094
242.12800,3.831021056
242.12850,0.7790769788
242.12900,-0.7468950597
242.12950,-1.052089467
242.13000,-1.052089467
242.13050,-2.272867098
242.13100,-2.883255914
242.13150,-2.883255914
242.13200,-3.493644729
242.13250,-4.71442236
242.13300,-5.630005583
242.13350,-5.324811175
242.13400,-5.019616768
242.13450,-5.935199991
242.13500,-7.461172029
242.13550,-8.071560845
242.13600,-8.376755252
242.13650,-8.68194966
242.13700,-8.376755252
242.13750,-7.766366437
242.13800,-7.155977621
242.13850,-6.850783214
242.13900,-5.630005583
242.13950,-3.188450321
242.14000,-1.967672691
242.14050,-1.662478283
242.14100,-0.7468950597
242.14150,1.389465794
242.14200,3.831021056
242.14250,4.441409871
242.14300,5.051798687
242.14350,5.96738191
242.14400,6.577770725
242.14450,6.272576317
242.14500,5.96738191
242.14550,6.882965133
242.14600,8.103742764
242.14650,7.798548356
242.14700,7.493353948
242.14750,8.103742764
242.14800,9.324520394
242.14850,9.324520394
242.14900,7.493353948
242.14950,5.96738191
242.15000,5.662187502
242.15050,5.051798687
242.15100,3.525826648
242.15150,1.694660202
242.15200,0.7790769788
242.15250,0.4738825711
242.15300,-0.1365062443
242.15350,-1.662478283
242.15400,-2.883255914
242.15450,-3.188450321
242.15500,-3.798839137
242.15550,-5.019616768
242.15600,-5.935199991
242.15650,-5.019616768
242.15700,-3.188450321
242.15750,-2.272867098
242.15800,-2.272867098
242.15850,-1.662478283
242.15900,0.1686881634
242.15950,1.99985461
242.16000,2.610243425
242.16050,2.305049017
242.16100,3.22063224
242.16150,4.746604279
242.16200,5.96738191
242.16250,5.96738191
242.16300,5.356993094
242.16350,4.746604279
242.16400,4.746604279
242.16450,6.577770725
242.16500,9.019325987
242.16550,10.54529803
242.16600,10.54529803
242.16650,9.629714802
242.16700,9.019325987
242.16750,8.714131579
242.16800,7.188159541
242.16850,5.356993094
242.16900,4.136215463
242.16950,3.22063224
242.17000,1.99985461
242.17050,0.4738825711
242.17100,-0.1365062443
242.17150,-0.1365062443
242.17200,-1.052089467
242.17250,-3.188450321
242.17300,-5.019616768
242.17350,-5.019616768
242.17400,-5.324811175
242.17450,-6.240394398
242.17500,-7.461172029
242.17550,-6.240394398
242.17600,-4.409227952
242.17650,-3.493644729
242.17700,-4.409227952
242.17750,-4.409227952
242.17800,-3.493644729
242.17850,-2.272867098
242.17900,-1.357283875
242.17950,-0.441700652
242.18000,1.084271386
242.18050,1.694660202
242.18100,1.694660202
242.18150,1.694660202
242.18200,2.610243425
242.18250,3.831021056
242.18300,3.525826648
242.18350,2.915437833
242.18400,2.305049017
242.18450,2.610243425
242.18500,2.305049017
242.18550,1.694660202
242.18600,1.084271386
242.18650,1.389465794
242.18700,2.915437833
242.18750,5.662187502
242.18800,7.798548356
242.18850,8.103742764
242.18900,6.272576317
242.18950,4.746604279
242.19000,4.746604279
242.19050,5.051798687
242.19100,3.525826648
242.19150,1.389465794
242.19200,0.1686881634
242.19250,-0.1365062443
242.19300,-1.052089467
242.19350,-2.578061506
242.19400,-3.798839137
242.19450,-4.104033544
242.19500,-4.409227952
242.19550,-5.019616768
242.19600,-5.324811175
242.19650,-5.935199991
242.19700,-7.155977621
242.19750,-7.766366437
242.19800,-7.461172029
242.19850,-5.935199991
242.19900,-4.409227952
242.19950,-3.188450321
242.20000,-1.967672691
242.20050,-0.441700652
242.20100,0.7790769788
242.20150,1.99985461
242.20200,3.831021056
242.20250,5.662187502
242.20300,7.188159541
242.20350,8.103742764
242.20400,8.103742764
242.20450,6.882965133
242.20500,5.051798687
242.20550,3.525826648
242.20600,2.610243425
242.20650,2.610243425
242.20700,2.610243425
242.20750,1.99985461
242.20800,0.4738825711
242.20850,-0.7468950597
242.20900,-2.578061506
242.20950,-3.798839137
242.21000,-3.493644729
242.21050,-1.967672691
242.21100,-1.662478283
242.21150,-4.71442236
242.21200,-8.987144068
242.21250,-11.42869933
242.21300,-12.03908814
242.21350,-13.56506018
242.21400,-16.92219867
242.21450,-17.53258748
242.21500,-15.09103222
242.21550,-14.175449
242.21600,-16.31180985
242.21650,-15.70142104
242.21700,-7.461172029
242.21750,3.22063224
242.21800,6.272576317
242.21850,-0.441700652
242.21900,-8.987144068
242.21950,-12.34428255
242.22000,-11.73389374
242.22050,-9.597532883
242.22100,-7.155977621
242.22150,-4.71442236
242.22200,-2.578061506
242.22250,2.915437833
242.22300,15.42840855
242.22350,30.07774012
242.22400,36.79201709
242.22450,32.51929538
242.22500,23.05826874
242.22550,16.03879736
242.22600,12.98685329
242.22650,11.46088125
242.22700,9.324520394
242.22750,5.051798687
242.22800,-0.7468950597
242.22850,-5.630005583
242.22900,-7.461172029
242.22950,-7.461172029
242.23000,-8.68194966
242.23050,-8.987144068
242.23100,-8.071560845
242.23150,-8.376755252
242.23200,-9.597532883
242.23250,-5.324811175
242.23300,7.493353948
242.23350,19.70113026
242.23400,18.17515822
242.23450,3.831021056
242.23500,-8.68194966
242.23550,-13.56506018
242.23600,-15.70142104
242.23650,-19.36375393
242.23700,-21.19492038
242.23750,-18.1429763
242.23800,-13.56506018
242.23850,-10.51311611
242.23900,-7.766366437
242.23950,-6.240394398
242.24000,-8.68194966
242.24050,-11.12350492
242.24100,-5.324811175
242.24150,9.019325987
242.24200,19.70113026
242.24250,18.48035263
242.24300,10.54529803
242.24350,5.96738191
242.24400,5.96738191
242.24450,5.051798687
242.24500,2.305049017
242.24550,1.389465794
242.24600,3.22063224
242.24650,4.136215463
242.24700,3.831021056
242.24750,3.831021056
242.24800,4.136215463
242.24850,4.136215463
242.24900,3.831021056
242.24950,3.831021056
242.25000,3.22063224
242.25050,1.99985461
242.25100,1.084271386
242.25150,2.305049017
242.25200,3.22063224
242.25250,1.084271386
242.25300,-2.272867098
242.25350,-4.71442236
242.25400,-5.935199991
242.25450,-7.766366437
242.25500,-10.2079217
242.25550,-13.25986578
242.25600,-16.00661544
242.25650,-17.53258748
242.25700,-15.70142104
242.25750,-9.292338475
242.25800,-1.967672691
242.25850,2.305049017
242.25900,3.22063224
242.25950,2.610243425
242.26000,2.305049017
242.26050,2.305049017
242.26100,2.915437833
242.26150,4.441409871
242.26200,5.96738191
242.26250,7.188159541
242.26300,7.188159541
242.26350,7.188159541
242.26400,7.188159541
242.26450,7.188159541
242.26500,6.577770725
242.26550,5.96738191
242.26600,5.662187502
242.26650,5.051798687
242.26700,4.136215463
242.26750,3.22063224
242.26800,3.22063224
242.26850,3.22063224
242.26900,2.305049017
242.26950,1.084271386
242.27000,0.1686881634
242.27050,-0.1365062443
242.27100,-0.441700652
242.27150,-1.357283875
242.27200,-1.967672691
242.27250,-2.272867098
242.27300,-3.188450321
242.27350,-4.71442236
242.27400,-5.935199991
242.27450,-5.935199991
242.27500,-6.240394398
242.27550,-6.850783214
242.27600,-6.240394398
242.27650,-4.409227952
242.27700,-1.967672691
242.27750,-1.357283875
242.27800,-2.272867098
242.27850,-4.409227952
242.27900,-7.155977621
242.27950,-8.987144068
242.28000,-8.071560845
242.28050,-4.104033544
242.28100,-0.1365062443
242.28150,1.389465794
242.28200,2.305049017
242.28250,4.136215463
242.28300,5.96738191
242.28350,6.272576317
242.28400,5.356993094
242.28450,4.746604279
242.28500,4.441409871
242.28550,3.831021056
242.28600,2.915437833
242.28650,2.610243425
242.28700,3.22063224
242.28750,3.22063224
242.28800,2.305049017
242.28850,1.99985461
242.28900,3.525826648
242.28950,4.136215463
242.29000,2.610243425
242.29050,0.4738825711
242.29100,-0.441700652
242.29150,-0.441700652
242.29200,-0.441700652
242.29250,-1.967672691
242.29300,-3.798839137
242.29350,-5.630005583
242.29400,-6.545588806
242.29450,-6.240394398
242.29500,-5.019616768
242.29550,-4.409227952
242.29600,-5.019616768
242.29650,-5.630005583
242.29700,-5.630005583
242.29750,-5.019616768
242.29800,-4.104033544
242.29850,-3.188450321
242.29900,-1.662478283
242.29950,-0.441700652
242.30000,-0.1365062443
242.30050,0.7790769788
242.30100,2.610243425
242.30150,4.746604279
242.30200,5.356993094
242.30250,5.051798687
242.30300,5.051798687
242.30350,6.272576317
242.30400,6.882965133
242.30450,5.96738191
242.30500,4.746604279
242.30550,5.051798687
242.30600,6.272576317
242.30650,6.577770725
242.30700,5.051798687
242.30750,3.525826648
242.30800,3.525826648
242.30850,3.22063224
242.30900,1.694660202
242.30950,-0.1365062443
242.31000,-0.441700652
242.31050,-0.1365062443
242.31100,-0.7468950597
242.31150,-3.798839137
242.31200,-5.935199991
242.31250,-5.935199991
242.31300,-4.71442236
242.31350,-5.019616768
242.31400,-6.545588806
242.31450,-7.155977621
242.31500,-6.850783214
242.31550,-5.935199991
242.31600,-5.324811175
242.31650,-4.71442236
242.31700,-4.104033544
242.31750,-3.798839137
242.31800,-3.493644729
242.31850,-3.188450321
242.31900,-3.493644729
242.31950,-4.409227952
242.32000,-4.409227952
242.32050,-3.188450321
242.32100,-1.357283875
242.32150,-0.7468950597
242.32200,-0.1365062443
242.32250,1.694660202
242.32300,3.831021056
242.32350,4.441409871
242.32400,3.831021056
242.32450,4.746604279
242.32500,7.493353948
242.32550,8.714131579
242.32600,7.188159541
242.32650,5.051798687
242.32700,5.356993094
242.32750,6.272576317
242.32800,5.662187502
242.32850,2.915437833
242.32900,0.7790769788
242.32950,0.4738825711
242.33000,1.084271386
242.33050,1.084271386
242.33100,-1.052089467
242.33150,-5.630005583
242.33200,-12.34428255
242.33250,-18.44817071
242.33300,-22.41569801
242.33350,-24.85725327
242.33400,-25.46764208
242.33450,-24.55205886
242.33500,-22.1105036
242.33550,-20.88972597
242.33600,-19.97414274
242.33650,-13.25986578
242.33700,3.22063224
242.33750,23.36346315
242.33800,34.35046183
242.33850,30.38293453
242.33900,18.78554703
242.33950,9.324520394
242.34000,5.356993094
242.34050,4.441409871
242.34100,4.441409871
242.34150,5.051798687
242.34200,6.272576317
242.34250,6.272576317
242.34300,5.96738191
242.34350,6.272576317
242.34400,6.882965133
242.34450,6.882965133
242.34500,6.882965133
242.34550,8.103742764
242.34600,9.019325987
242.34650,8.408937171
242.34700,7.188159541
242.34750,6.272576317
242.34800,6.272576317
242.34850,5.96738191
242.34900,4.441409871
242.34950,2.610243425
242.35000,1.084271386
242.35050,-0.1365062443
242.35100,-1.052089467
242.35150,-2.578061506
242.35200,-3.798839137
242.35250,-4.71442236
242.35300,-5.019616768
242.35350,-5.630005583
242.35400,-5.935199991
242.35450,-5.935199991
242.35500,-5.935199991
242.35550,-6.240394398
242.35600,-6.240394398
242.35650,-6.240394398
242.35700,-6.545588806
242.35750,-6.850783214
242.35800,-5.935199991
242.35850,-4.104033544
242.35900,-2.883255914
242.35950,-3.188450321
242.36000,-3.188450321
242.36050,-1.357283875
242.36100,0.7790769788
242.36150,1.389465794
242.36200,0.7790769788
242.36250,0.7790769788
242.36300,2.610243425
242.36350,3.831021056
242.36400,4.136215463
242.36450,4.136215463
242.36500,4.441409871
242.36550,4.441409871
242.36600,4.441409871
242.36650,5.051798687
242.36700,5.662187502
242.36750,5.662187502
242.36800,5.051798687
242.36850,4.441409871
242.36900,2.915437833
242.36950,0.1686881634
242.37000,-2.578061506
242.37050,-4.409227952
242.37100,-4.71442236
242.37150,-4.71442236
242.37200,-5.630005583
242.37250,-8.68194966
242.37300,-13.25986578
242.37350,-13.56506018
242.37400,-5.019616768
242.37450,7.188159541
242.37500,13.29204769
242.37550,7.798548356
242.37600,-1.052089467
242.37650,-3.798839137
242.37700,-1.662478283
242.37750,-2.883255914
242.37800,-8.68194966
242.37850,-12.34428255
242.37900,-10.51311611
242.37950,-7.461172029
242.38000,-6.850783214
242.38050,-6.240394398
242.38100,-3.493644729
242.38150,-1.967672691
242.38200,-1.662478283
242.38250,2.915437833
242.38300,16.34399177
242.38350,30.07774012
242.38400,32.51929538
242.38450,22.44787993
242.38500,11.46088125
242.38550,7.493353948
242.38600,7.188159541
242.38650,6.577770725
242.38700,5.051798687
242.38750,4.746604279
242.38800,4.136215463
242.38850,1.694660202
242.38900,-1.052089467
242.38950,-2.272867098
242.39000,-3.188450321
242.39050,-4.71442236
242.39100,-5.324811175
242.39150,-2.578061506
242.39200,0.7790769788
242.39250,2.610243425
242.39300,1.99985461
242.39350,0.1686881634
242.39400,-2.578061506
242.39450,-6.850783214
242.39500,-8.987144068
242.39550,-8.376755252
242.39600,-7.766366437
242.39650,-9.902727291
242.39700,-12.64947696
242.39750,-13.25986578
242.39800,-11.73389374
242.39850,-11.42869933
242.39900,-10.2079217
242.39950,-3.188450321
242.40000,6.577770725
242.40050,12.07127006
242.40100,9.93490921
242.40150,5.662187502
242.40200,4.441409871
242.40250,5.96738191
242.40300,6.272576317
242.40350,5.662187502
242.40400,5.051798687
242.40450,4.441409871
242.40500,3.525826648
242.40550,1.99985461
242.40600,1.389465794
242.40650,1.694660202
242.40700,1.694660202
242.40750,1.084271386
242.40800,0.7790769788
242.40850,1.084271386
242.40900,1.389465794
242.40950,0.7790769788
242.41000,0.1686881634
242.41050,-0.1365062443
242.41100,-1.357283875
242.41150,-2.578061506
242.41200,-3.493644729
242.41250,-2.883255914
242.41300,-1.967672691
242.41350,-1.967672691
242.41400,-3.798839137
242.41450,-5.324811175
242.41500,-5.630005583
242.41550,-5.324811175
242.41600,-5.935199991
242.41650,-6.240394398
242.41700,-5.019616768
242.41750,-2.883255914
242.41800,-2.272867098
242.41850,-3.493644729
242.41900,-3.493644729
242.41950,-1.357283875
242.42000,0.1686881634
242.42050,-0.1365062443
242.42100,-0.441700652
242.42150,0.4738825711
242.42200,2.610243425
242.42250,3.525826648
242.42300,3.525826648
242.42350,3.831021056
242.42400,4.136215463
242.42450,3.831021056
242.42500,3.831021056
242.42550,4.136215463
242.42600,3.831021056
242.42650,1.99985461
242.42700,0.4738825711
242.42750,0.4738825711
242.42800,0.4738825711
242.42850,-0.441700652
242.42900,-1.967672691
242.42950,-1.357283875
242.43000,0.4738825711
242.43050,0.1686881634
242.43100,-2.272867098
242.43150,-5.019616768
242.43200,-5.324811175
242.43250,-5.324811175
242.43300,-5.935199991
242.43350,-7.461172029
242.43400,-8.376755252
242.43450,-8.987144068
242.43500,-9.292338475
242.43550,-8.376755252
242.43600,-6.545588806
242.43650,-4.71442236
242.43700,-4.71442236
242.43750,-5.630005583
242.43800,-5.935199991
242.43850,-6.240394398
242.43900,-6.240394398
242.43950,-5.630005583
242.44000,-4.71442236
242.44050,-3.493644729
242.44100,-1.662478283
242.44150,0.7790769788
242.44200,3.831021056
242.44250,5.96738191
242.44300,6.882965133
242.44350,7.493353948
242.44400,8.103742764
242.44450,9.019325987
242.44500,10.54529803
242.44550,11.46088125
242.44600,10.54529803
242.44650,8.103742764
242.44700,6.882965133
242.44750,8.103742764
242.44800,8.714131579
242.44850,5.96738191
242.44900,2.610243425
242.44950,1.389465794
242.45000,1.694660202
242.45050,0.7790769788
242.45100,-1.967672691
242.45150,-3.798839137
242.45200,-4.409227952
242.45250,-5.324811175
242.45300,-7.766366437
242.45350,-9.902727291
242.45400,-10.2079217
242.45450,-10.2079217
242.45500,-11.12350492
242.45550,-12.03908814
242.45600,-11.73389374
242.45650,-10.51311611
242.45700,-9.902727291
242.45750,-9.292338475
242.45800,-8.376755252
242.45850,-7.461172029
242.45900,-7.155977621
242.45950,-6.545588806
242.46000,-5.324811175
242.46050,-3.493644729
242.46100,-1.357283875
242.46150,0.1686881634
242.46200,1.99985461
242.46250,3.831021056
242.46300,5.662187502
242.46350,6.577770725
242.46400,5.662187502
242.46450,2.610243425
242.46500,-0.441700652
242.46550,-2.578061506
242.46600,-3.493644729
242.46650,-3.188450321
242.46700,-1.662478283
242.46750,-0.7468950597
242.46800,-1.662478283
242.46850,-1.357283875
242.46900,4.136215463
242.46950,16.34399177
242.47000,28.24657367
242.47050,32.21410097
242.47100,25.19462959
242.47150,12.37646447
242.47200,0.4738825711
242.47250,-5.935199991
242.47300,-9.902727291
242.47350,-14.78583781
242.47400,-20.27933715
242.47450,-21.80530919
242.47500,-16.92219867
242.47550,-9.597532883
242.47600,-5.935199991
242.47650,-3.188450321
242.47700,5.051798687
242.47750,20.31151907
242.47800,31.90890656
242.47850,31.29851775
242.47900,20.61671348
242.47950,9.324520394
242.48000,2.610243425
242.48050,-0.1365062443
242.48100,-0.7468950597
242.48150,-0.441700652
242.48200,-0.1365062443
242.48250,-0.1365062443
242.48300,-1.052089467
242.48350,-0.441700652
242.48400,1.084271386
242.48450,2.305049017
242.48500,0.1686881634
242.48550,-3.188450321
242.48600,-6.545588806
242.48650,-8.987144068
242.48700,-11.12350492
242.48750,-10.81831051
242.48800,-4.71442236
242.48850,5.356993094
242.48900,12.98685329
242.48950,14.81801973
242.49000,17.86996381
242.49050,28.85696249
242.49100,40.45434998
242.49150,39.53876676
242.49200,23.97385196
242.49250,7.493353948
242.49300,-0.1365062443
242.49350,-2.272867098
242.49400,-6.545588806
242.49450,-11.73389374
242.49500,-12.34428255
242.49550,-9.597532883
242.49600,-7.766366437
242.49650,-7.766366437
242.49700,-6.545588806
242.49750,-4.409227952
242.49800,-3.798839137
242.49850,-5.019616768
242.49900,-4.71442236
242.49950,-2.578061506
242.50000,-0.441700652
242.50050,0.4738825711
242.50100,2.305049017
242.50150,4.441409871
242.50200,5.356993094
242.50250,4.441409871
242.50300,4.136215463
242.50350,5.356993094
242.50400,7.493353948
242.50450,8.408937171
242.50500,8.714131579
242.50550,8.408937171
242.50600,7.493353948
242.50650,5.96738191
242.50700,4.746604279
242.50750,3.525826648
242.50800,1.694660202
242.50850,0.1686881634
242.50900,-0.7468950597
242.50950,-1.662478283
242.51000,-2.883255914
242.51050,-4.409227952
242.51100,-4.71442236
242.51150,-4.409227952
242.51200,-4.71442236
242.51250,-6.545588806
242.51300,-9.292338475
242.51350,-12.03908814
242.51400,-14.78583781
242.51450,-16.00661544
242.51500,-14.78583781
242.51550,-11.73389374
242.51600,-9.597532883
242.51650,-9.292338475
242.51700,-9.902727291
242.51750,-9.292338475
242.51800,-7.766366437
242.51850,-6.545588806
242.51900,-5.935199991
242.51950,-5.324811175
242.52000,-4.104033544
242.52050,-4.104033544
242.52100,-4.71442236
242.52150,-3.188450321
242.52200,1.99985461
242.52250,9.019325987
242.52300,13.5972421
242.52350,14.51282533
242.52400,13.90243651
242.52450,13.29204769
242.52500,12.37646447
242.52550,10.85049243
242.52600,9.019325987
242.52650,7.798548356
242.52700,6.882965133
242.52750,5.051798687
242.52800,3.525826648
242.52850,2.610243425
242.52900,1.99985461
242.52950,0.4738825711
242.53000,-0.7468950597
242.53050,-1.052089467
242.53100,-0.7468950597
242.53150,-1.967672691
242.53200,-5.019616768
242.53250,-7.766366437
242.53300,-8.376755252
242.53350,-8.071560845
242.53400,-8.68194966
242.53450,-10.2079217
242.53500,-10.81831051
242.53550,-10.2079217
242.53600,-9.902727291
242.53650,-10.2079217
242.53700,-10.2079217
242.53750,-9.292338475
242.53800,-8.071560845
242.53850,-6.545588806
242.53900,-5.630005583
242.53950,-4.409227952
242.54000,-3.798839137
242.54050,-3.188450321
242.54100,-1.662478283
242.54150,0.1686881634
242.54200,1.694660202
242.54250,2.305049017
242.54300,2.915437833
242.54350,4.746604279
242.54400,6.882965133
242.54450,8.103742764
242.54500,8.408937171
242.54550,8.408937171
242.54600,7.798548356
242.54650,6.882965133
242.54700,5.662187502
242.54750,5.051798687
242.54800,3.525826648
242.54850,1.694660202
242.54900,-0.1365062443
242.54950,-1.052089467
242.55000,-1.052089467
242.55050,-1.357283875
242.55100,-3.188450321
242.55150,-6.850783214
242.55200,-12.03908814
242.55250,-16.92219867
242.55300,-19.05855952
242.55350,-18.1429763
242.55400,-16.31180985
242.55450,-16.00661544
242.55500,-16.61700426
242.55550,-15.39622663
242.55600,-8.376755252
242.55650,4.441409871
242.55700,17.5647694
242.55750,22.75307433
242.55800,17.86996381
242.55850,9.019325987
242.55900,2.915437833
242.55950,1.389465794
242.56000,0.1686881634
242.56050,-2.272867098
242.56100,-3.798839137
242.56150,-2.272867098
242.56200,0.1686881634
242.56250,0.4738825711
242.56300,-0.7468950597
242.56350,-1.052089467
242.56400,0.4738825711
242.56450,1.99985461
242.56500,1.694660202
242.56550,0.4738825711
242.56600,0.4738825711
242.56650,1.389465794
242.56700,1.389465794
242.56750,0.1686881634
242.56800,-1.662478283
242.56850,-3.188450321
242.56900,-2.578061506
242.56950,-0.7468950597
242.57000,-0.441700652
242.57050,-2.883255914
242.57100,-6.545588806
242.57150,-9.292338475
242.57200,-10.2079217
242.57250,-10.2079217
242.57300,-9.292338475
242.57350,-7.155977621
242.57400,-4.409227952
242.57450,-2.578061506
242.57500,-2.578061506
242.57550,-2.883255914
242.57600,-2.883255914
242.57650,-2.883255914
242.57700,-3.493644729
242.57750,-3.798839137
242.57800,-3.493644729
242.57850,-1.967672691
242.57900,-0.1365062443
242.57950,1.694660202
242.58000,2.305049017
242.58050,1.389465794
242.58100,0.4738825711
242.58150,0.7790769788
242.58200,1.389465794
242.58250,-0.1365062443
242.58300,-2.883255914
242.58350,-4.71442236
242.58400,-4.71442236
242.58450,-4.409227952
242.58500,-4.409227952
242.58550,-3.188450321
242.58600,-1.052089467
242.58650,-0.441700652
242.58700,1.084271386
242.58750,9.324520394
242.58800,23.05826874
242.58850,30.68812893
242.58900,25.19462959
242.58950,13.90243651
242.59000,7.493353948
242.59050,6.577770725
242.59100,4.441409871
242.59150,-0.7468950597
242.59200,-4.71442236
242.59250,-5.935199991
242.59300,-8.376755252
242.59350,-12.64947696
242.59400,-16.00661544
242.59450,-17.22739308
242.59500,-18.44817071
242.59550,-17.53258748
242.59600,-7.766366437
242.59650,7.493353948
242.59700,16.03879736
242.59750,10.54529803
242.59800,-1.052089467
242.59850,-6.850783214
242.59900,-5.019616768
242.59950,-1.967672691
242.60000,-0.7468950597
242.60050,-0.1365062443
242.60100,0.7790769788
242.60150,1.99985461
242.60200,3.525826648
242.60250,4.441409871
242.60300,3.525826648
242.60350,0.7790769788
242.60400,-1.052089467
242.60450,-0.7468950597
242.60500,0.1686881634
242.60550,1.389465794
242.60600,2.915437833
242.60650,3.525826648
242.60700,2.305049017
242.60750,1.084271386
242.60800,4.441409871
242.60850,12.07127006
242.60900,16.64918618
242.60950,13.90243651
242.61000,8.408937171
242.61050,5.662187502
242.61100,3.525826648
242.61150,-0.441700652
242.61200,-1.662478283
242.61250,5.662187502
242.61300,18.17515822
242.61350,23.36346315
242.61400,17.5647694
242.61450,7.493353948
242.61500,0.7790769788
242.61550,-1.357283875
242.61600,-3.188450321
242.61650,-5.019616768
242.61700,-5.630005583
242.61750,-5.324811175
242.61800,-4.104033544
242.61850,-2.578061506
242.61900,-1.967672691
242.61950,-3.188450321
242.62000,-6.240394398
242.62050,-8.071560845
242.62100,-6.545588806
242.62150,-2.578061506
242.62200,0.7790769788
242.62250,2.915437833
242.62300,3.831021056
242.62350,4.441409871
242.62400,5.051798687
242.62450,5.356993094
242.62500,4.136215463
242.62550,2.305049017
242.62600,1.99985461
242.62650,3.22063224
242.62700,4.136215463
242.62750,3.525826648
242.62800,1.694660202
242.62850,0.4738825711
242.62900,0.1686881634
242.62950,-0.1365062443
242.63000,-0.7468950597
242.63050,-1.052089467
242.63100,-1.357283875
242.63150,-2.272867098
242.63200,-3.798839137
242.63250,-5.324811175
242.63300,-6.545588806
242.63350,-7.461172029
242.63400,-8.071560845
242.63450,-8.987144068
242.63500,-10.2079217
242.63550,-12.34428255
242.63600,-14.48064341
242.63650,-15.70142104
242.63700,-15.09103222
242.63750,-12.64947696
242.63800,-9.902727291
242.63850,-9.292338475
242.63900,-11.12350492
242.63950,-9.597532883
242.64000,0.1686881634
242.64050,15.73360296
242.64100,27.33099045
242.64150,26.72060163
242.64200,16.03879736
242.64250,4.746604279
242.64300,-0.7468950597
242.64350,-2.272867098
242.64400,-3.493644729
242.64450,-5.019616768
242.64500,-4.409227952
242.64550,-0.441700652
242.64600,5.662187502
242.64650,10.54529803
242.64700,11.15568684
242.64750,7.798548356
242.64800,4.746604279
242.64850,5.356993094
242.64900,8.714131579
242.64950,10.54529803
242.65000,8.714131579
242.65050,5.051798687
242.65100,2.610243425
242.65150,1.694660202
242.65200,1.084271386
242.65250,-0.1365062443
242.65300,-1.662478283
242.65350,-2.578061506
242.65400,-2.578061506
242.65450,-2.883255914
242.65500,-3.493644729
242.65550,-4.104033544
242.65600,-4.409227952
242.65650,-4.71442236
242.65700,-5.019616768
242.65750,-5.019616768
242.65800,-3.798839137
242.65850,-1.967672691
242.65900,-0.1365062443
242.65950,0.4738825711
242.66000,1.694660202
242.66050,2.915437833
242.66100,3.525826648
242.66150,4.136215463
242.66200,5.051798687
242.66250,6.882965133
242.66300,8.408937171
242.66350,9.324520394
242.66400,9.324520394
242.66450,8.714131579
242.66500,8.103742764
242.66550,7.798548356
242.66600,7.798548356
242.66650,7.188159541
242.66700,6.577770725
242.66750,6.577770725
242.66800,6.882965133
242.66850,5.662187502
242.66900,2.305049017
242.66950,-1.357283875
242.67000,-3.798839137
242.67050,-4.409227952
242.67100,-5.019616768
242.67150,-5.935199991
242.67200,-6.545588806
242.67250,-5.935199991
242.67300,-4.71442236
242.67350,-4.409227952
242.67400,-5.324811175
242.67450,-6.850783214
242.67500,-8.071560845
242.67550,-8.68194966
242.67600,-8.987144068
242.67650,-9.292338475
242.67700,-8.376755252
242.67750,-6.240394398
242.67800,-3.188450321
242.67850,-2.272867098
242.67900,-2.883255914
242.67950,-3.188450321
242.68000,-1.357283875
242.68050,1.084271386
242.68100,2.610243425
242.68150,3.22063224
242.68200,4.441409871
242.68250,5.96738191
242.68300,6.577770725
242.68350,5.96738191
242.68400,5.662187502
242.68450,5.96738191
242.68500,6.272576317
242.68550,5.96738191
242.68600,5.051798687
242.68650,3.525826648
242.68700,0.7790769788
242.68750,-1.357283875
242.68800,-2.272867098
242.68850,-2.272867098
242.68900,-2.883255914
242.68950,-3.798839137
242.69000,-3.798839137
242.69050,-2.883255914
242.69100,-3.798839137
242.69150,-5.935199991
242.69200,-7.155977621
242.69250,-8.071560845
242.69300,-10.81831051
242.69350,-16.00661544
242.69400,-20.27933715
242.69450,-21.80530919
242.69500,-21.80530919
242.69550,-20.27933715
242.69600,-16.00661544
242.69650,-11.12350492
242.69700,-9.902727291
242.69750,-10.81831051
242.69800,-6.240394398
242.69850,8.103742764
242.69900,24.58424078
242.69950,30.38293453
242.70000,23.05826874
242.70050,11.46088125
242.70100,4.441409871
242.70150,3.22063224
242.70200,3.22063224
242.70250,1.694660202
242.70300,-0.1365062443
242.70350,-0.441700652
242.70400,0.1686881634
242.70450,-0.441700652
242.70500,-4.71442236
242.70550,-8.68194966
242.70600,-5.019616768
242.70650,6.577770725
242.70700,20.31151907
242.70750,27.63618486
242.70800,26.11021282
242.70850,18.78554703
242.70900,9.93490921
242.70950,2.610243425
242.71000,-0.1365062443
242.71050,-0.1365062443
242.71100,-1.357283875
242.71150,-5.324811175
242.71200,-8.68194966
242.71250,-8.68194966
242.71300,-6.850783214
242.71350,-6.240394398
242.71400,-6.850783214
242.71450,-8.071560845
242.71500,-11.42869933
242.71550,-17.53258748
242.71600,-22.72089241
242.71650,-23.94167005
242.71700,-22.1105036
242.71750,-19.36375393
242.71800,-17.53258748
242.71850,-15.09103222
242.71900,-10.51311611
242.71950,-1.967672691
242.72000,11.46088125
242.72050,25.499824
242.72100,32.51929538
242.72150,30.68812893
242.72200,24.58424078
242.72250,16.95438059
242.72300,8.103742764
242.72350,-0.7468950597
242.72400,-4.71442236
242.72450,-3.493644729
242.72500,-3.798839137
242.72550,-7.461172029
242.72600,-5.019616768
242.72650,10.24010362
242.72700,29.1621569
242.72750,34.35046183
242.72800,23.05826874
242.72850,8.408937171
242.72900,0.7790769788
242.72950,-0.441700652
242.73000,-1.662478283
242.73050,-3.493644729
242.73100,-4.409227952
242.73150,-4.71442236
242.73200,-5.324811175
242.73250,-6.545588806
242.73300,-7.766366437
242.73350,-9.292338475
242.73400,-9.597532883
242.73450,-8.071560845
242.73500,-6.240394398
242.73550,-6.850783214
242.73600,-8.987144068
242.73650,-8.071560845
242.73700,-4.71442236
242.73750,-3.493644729
242.73800,-6.850783214
242.73850,-10.51311611
242.73900,-10.51311611
242.73950,-8.376755252
242.74000,-6.850783214
242.74050,-6.240394398
242.74100,-4.409227952
242.74150,-1.357283875
242.74200,-0.1365062443
242.74250,-0.441700652
242.74300,-0.7468950597
242.74350,0.1686881634
242.74400,2.305049017
242.74450,3.525826648
242.74500,3.831021056
242.74550,4.136215463
242.74600,4.746604279
242.74650,4.441409871
242.74700,3.525826648
242.74750,2.305049017
242.74800,1.99985461
242.74850,2.305049017
242.74900,2.610243425
242.74950,2.305049017
242.75000,1.99985461
242.75050,1.389465794
242.75100,0.4738825711
242.75150,-0.7468950597
242.75200,-2.272867098
242.75250,-2.883255914
242.75300,-4.104033544
242.75350,-5.324811175
242.75400,-6.545588806
242.75450,-6.545588806
242.75500,-6.240394398
242.75550,-5.935199991
242.75600,-6.545588806
242.75650,-6.545588806
242.75700,-6.240394398
242.75750,-5.935199991
242.75800,-5.935199991
242.75850,-5.630005583
242.75900,-4.104033544
242.75950,-2.883255914
242.76000,-2.272867098
242.76050,-1.967672691
242.76100,-0.7468950597
242.76150,1.389465794
242.76200,3.525826648
242.76250,5.051798687
242.76300,5.662187502
242.76350,6.577770725
242.76400,7.188159541
242.76450,8.408937171
242.76500,9.629714802
242.76550,9.93490921
242.76600,8.714131579
242.76650,7.188159541
242.76700,7.493353948
242.76750,8.408937171
242.76800,7.493353948
242.76850,4.441409871
242.76900,1.084271386
242.76950,-0.1365062443
242.77000,-0.441700652
242.77050,-1.052089467
242.77100,-1.967672691
242.77150,-2.578061506
242.77200,-3.188450321
242.77250,-3.493644729
242.77300,-2.578061506
242.77350,-1.052089467
242.77400,-1.052089467
242.77450,-2.578061506
242.77500,-4.71442236
242.77550,-6.545588806
242.77600,-8.071560845
242.77650,-8.987144068
242.77700,-9.292338475
242.77750,-9.597532883
242.77800,-9.597532883
242.77850,-7.155977621
242.77900,-1.052089467
242.77950,5.662187502
242.78000,9.324520394
242.78050,8.103742764
242.78100,6.272576317
242.78150,7.188159541
242.78200,9.019325987
242.78250,9.324520394
242.78300,8.103742764
242.78350,7.798548356
242.78400,9.019325987
242.78450,9.629714802
242.78500,9.019325987
242.78550,7.493353948
242.78600,5.96738191
242.78650,3.831021056
242.78700,1.389465794
242.78750,-0.441700652
242.78800,-0.7468950597
242.78850,-0.7468950597
242.78900,-1.357283875
242.78950,-2.578061506
242.79000,-2.272867098
242.79050,1.389465794
242.79100,6.272576317
242.79150,8.103742764
242.79200,5.662187502
242.79250,1.389465794
242.79300,-1.052089467
242.79350,-2.883255914
242.79400,-5.019616768
242.79450,-6.850783214
242.79500,-7.155977621
242.79550,-5.630005583
242.79600,-3.493644729
242.79650,-2.272867098
242.79700,-2.883255914
242.79750,-4.104033544
242.79800,-3.493644729
242.79850,0.1686881634
242.79900,2.610243425
242.79950,-0.1365062443
242.80000,-5.935199991
242.80050,-8.987144068
242.80100,-7.155977621
242.80150,-4.409227952
242.80200,-2.883255914
242.80250,-1.052089467
242.80300,2.305049017
242.80350,4.441409871
242.80400,5.96738191
242.80450,12.68165888
242.80500,26.11021282
242.80550,36.48682268
242.80600,33.74007301
242.80650,20.00632466
242.80700,6.577770725
242.80750,-0.441700652
242.80800,-3.798839137
242.80850,-6.850783214
242.80900,-11.42869933
242.80950,-16.00661544
242.81000,-19.05855952
242.81050,-18.1429763
242.81100,-12.95467137
242.81150,-5.630005583
242.81200,4.441409871
242.81250,18.78554703
242.81300,30.68812893
242.81350,29.77254571
242.81400,14.20763092
242.81450,-1.967672691
242.81500,-7.155977621
242.81550,-5.630005583
242.81600,-7.155977621
242.81650,-11.12350492
242.81700,-10.51311611
242.81750,-7.461172029
242.81800,-11.12350492
242.81850,-20.58453156
242.81900,-25.46764208
242.81950,-22.41569801
242.82000,-18.1429763
242.82050,-15.39622663
242.82100,-8.68194966
242.82150,3.22063224
242.82200,12.07127006
242.82250,11.46088125
242.82300,7.188159541
242.82350,7.798548356
242.82400,10.85049243
242.82450,9.324520394
242.82500,3.831021056
242.82550,0.4738825711
242.82600,0.7790769788
242.82650,1.389465794
242.82700,1.084271386
242.82750,0.7790769788
242.82800,0.7790769788
242.82850,0.4738825711
242.82900,-0.1365062443
242.82950,-0.441700652
242.83000,-0.441700652
242.83050,-1.662478283
242.83100,-3.493644729
242.83150,-4.104033544
242.83200,-4.104033544
242.83250,-5.324811175
242.83300,-6.850783214
242.83350,-7.766366437
242.83400,-7.461172029
242.83450,-7.155977621
242.83500,-7.155977621
242.83550,-7.766366437
242.83600,-9.292338475
242.83650,-10.81831051
242.83700,-11.42869933
242.83750,-8.987144068
242.83800,-5.630005583
242.83850,-3.493644729
242.83900,-2.883255914
242.83950,-2.578061506
242.84000,-1.052089467
242.84050,0.7790769788
242.84100,2.915437833
242.84150,4.136215463
242.84200,4.746604279
242.84250,4.136215463
242.84300,4.136215463
242.84350,5.356993094
242.84400,7.188159541
242.84450,7.798548356
242.84500,7.798548356
242.84550,7.798548356
242.84600,8.714131579
242.84650,8.714131579
242.84700,7.798548356
242.84750,6.577770725
242.84800,5.356993094
242.84850,4.136215463
242.84900,3.22063224
242.84950,3.22063224
242.85000,3.22063224
242.85050,1.694660202
242.85100,-0.7468950597
242.85150,-2.883255914
242.85200,-3.798839137
242.85250,-4.104033544
242.85300,-5.324811175
242.85350,-6.240394398
242.85400,-6.240394398
242.85450,-6.545588806
242.85500,-7.766366437
242.85550,-8.987144068
242.85600,-8.071560845
242.85650,-6.240394398
242.85700,-6.240394398
242.85750,-7.155977621
242.85800,-7.461172029
242.85850,-6.545588806
242.85900,-5.630005583
242.85950,-5.630005583
242.86000,-4.71442236
242.86050,-2.578061506
242.86100,-0.7468950597
242.86150,0.1686881634
242.86200,1.389465794
242.86250,3.22063224
242.86300,4.746604279
242.86350,6.272576317
242.86400,8.714131579
242.86450,11.76607566
242.86500,14.20763092
242.86550,14.20763092
242.86600,12.98685329
242.86650,12.07127006
242.86700,11.76607566
242.86750,11.46088125
242.86800,10.24010362
242.86850,8.103742764
242.86900,5.356993094
242.86950,3.525826648
242.87000,2.915437833
242.87050,3.22063224
242.87100,2.610243425
242.87150,-0.1365062443
242.87200,-4.71442236
242.87250,-8.376755252
242.87300,-9.292338475
242.87350,-8.987144068
242.87400,-8.376755252
242.87450,-8.376755252
242.87500,-8.071560845
242.87550,-6.850783214
242.87600,-5.630005583
242.87650,-5.019616768
242.87700,-5.324811175
242.87750,-5.935199991
242.87800,-6.240394398
242.87850,-5.935199991
242.87900,-4.71442236
242.87950,-3.188450321
242.88000,-1.662478283
242.88050,-0.441700652
242.88100,0.7790769788
242.88150,2.610243425
242.88200,4.136215463
242.88250,5.356993094
242.88300,6.272576317
242.88350,7.188159541
242.88400,8.408937171
242.88450,8.714131579
242.88500,8.103742764
242.88550,7.188159541
242.88600,6.272576317
242.88650,5.96738191
242.88700,5.051798687
242.88750,3.525826648
242.88800,1.99985461
242.88850,0.1686881634
242.88900,-2.272867098
242.88950,-5.935199991
242.89000,-8.071560845
242.89050,-7.766366437
242.89100,-5.935199991
242.89150,-5.324811175
242.89200,-5.630005583
242.89250,-5.324811175
242.89300,-4.104033544
242.89350,-4.104033544
242.89400,-5.935199991
242.89450,-7.155977621
242.89500,-7.461172029
242.89550,-7.155977621
242.89600,-7.461172029
242.89650,-6.240394398
242.89700,-4.71442236
242.89750,-5.019616768
242.89800,-6.850783214
242.89850,-8.376755252
242.89900,-8.68194966
242.89950,-10.51311611
242.90000,-12.64947696
242.90050,-11.42869933
242.90100,-8.68194966
242.90150,-10.2079217
242.90200,-16.92219867
242.90250,-22.1105036
242.90300,-17.83778189
242.90350,-4.104033544
242.90400,13.5972421
242.90450,30.38293453
242.90500,38.01279472
242.90550,31.90890656
242.90600,19.70113026
242.90650,15.42840855
242.90700,23.97385196
242.90750,33.74007301
242.90800,31.90890656
242.90850,20.31151907
242.90900,9.629714802
242.90950,4.746604279
242.91000,1.694660202
242.91050,-0.441700652
242.91100,-1.357283875
242.91150,-0.1365062443
242.91200,0.1686881634
242.91250,-0.441700652
242.91300,-1.662478283
242.91350,-3.493644729
242.91400,-5.935199991
242.91450,-8.071560845
242.91500,-8.376755252
242.91550,-8.071560845
242.91600,-8.376755252
242.91650,-8.987144068
242.91700,-8.071560845
242.91750,-7.155977621
242.91800,-8.376755252
242.91850,-12.34428255
242.91900,-16.92219867
242.91950,-18.44817071
242.92000,-14.78583781
242.92050,-8.376755252
242.92100,-6.240394398
242.92150,-10.51311611
242.92200,-13.87025459
242.92250,-7.155977621
242.92300,7.188159541
242.92350,16.34399177
242.92400,11.76607566
242.92450,-0.7468950597
242.92500,-11.12350492
242.92550,-13.25986578
242.92600,-7.766366437
242.92650,-0.1365062443
242.92700,5.96738191
242.92750,8.408937171
242.92800,10.54529803
242.92850,16.34399177
242.92900,23.36346315
242.92950,24.58424078
242.93000,17.25957499
242.93050,6.577770725
242.93100,-0.1365062443
242.93150,-1.357283875
242.93200,-0.1365062443
242.93250,1.084271386
242.93300,0.4738825711
242.93350,-1.357283875
242.93400,-3.188450321
242.93450,-3.798839137
242.93500,-3.493644729
242.93550,-3.493644729
242.93600,-4.104033544
242.93650,-4.71442236
242.93700,-4.71442236
242.93750,-4.409227952
242.93800,-4.104033544
242.93850,-3.493644729
242.93900,-3.188450321
242.93950,-4.104033544
242.94000,-5.019616768
242.94050,-4.71442236
242.94100,-2.883255914
242.94150,-1.052089467
242.94200,-0.441700652
242.94250,-0.1365062443
242.94300,1.084271386
242.94350,1.99985461
242.94400,2.305049017
242.94450,2.915437833
242.94500,3.525826648
242.94550,2.610243425
242.94600,-0.1365062443
242.94650,-3.493644729
242.94700,-4.71442236
242.94750,-3.798839137
242.94800,-2.883255914
242.94850,-3.493644729
242.94900,-4.409227952
242.94950,-4.409227952
242.95000,-3.493644729
242.95050,-1.967672691
242.95100,-0.7468950597
242.95150,-0.7468950597
242.95200,-2.272867098
242.95250,-4.104033544
242.95300,-4.71442236
242.95350,-5.019616768
242.95400,-5.019616768
242.95450,-5.019616768
242.95500,-5.019616768
242.95550,-4.409227952
242.95600,-4.104033544
242.95650,-4.104033544
242.95700,-3.798839137
242.95750,-2.883255914
242.95800,-1.662478283
242.95850,-0.441700652
242.95900,0.7790769788
242.95950,1.99985461
242.96000,3.22063224
242.96050,3.525826648
242.96100,3.525826648
242.96150,3.831021056
242.96200,4.136215463
242.96250,5.356993094
242.96300,7.493353948
242.96350,9.324520394
242.96400,11.15568684
242.96450,13.29204769
242.96500,16.03879736
242.96550,17.5647694
242.96600,16.34399177
242.96650,13.5972421
242.96700,11.76607566
242.96750,11.15568684
242.96800,10.54529803
242.96850,8.714131579
242.96900,5.662187502
242.96950,1.389465794
242.97000,-3.188450321
242.97050,-7.155977621
242.97100,-8.68194966
242.97150,-7.766366437
242.97200,-6.545588806
242.97250,-5.935199991
242.97300,-5.935199991
242.97350,-6.240394398
242.97400,-5.935199991
242.97450,-5.019616768
242.97500,-4.71442236
242.97550,-4.71442236
242.97600,-5.019616768
242.97650,-4.409227952
242.97700,-3.188450321
242.97750,-2.272867098
242.97800,-1.662478283
242.97850,-0.1365062443
242.97900,1.694660202
242.97950,2.305049017
242.98000,1.694660202
242.98050,2.305049017
242.98100,4.746604279
242.98150,6.882965133
242.98200,7.493353948
242.98250,7.493353948
242.98300,7.493353948
242.98350,7.188159541
242.98400,6.272576317
242.98450,6.272576317
242.98500,6.882965133
242.98550,7.188159541
242.98600,6.272576317
242.98650,5.662187502
242.98700,6.272576317
242.98750,6.272576317
242.98800,4.136215463
242.98850,1.084271386
242.98900,-0.1365062443
242.98950,-0.441700652
242.99000,-2.578061506
242.99050,-6.850783214
242.99100,-9.597532883
242.99150,-8.987144068
242.99200,-6.545588806
242.99250,-5.935199991
242.99300,-9.597532883
242.99350,-15.09103222
242.99400,-19.05855952
242.99450,-20.27933715
242.99500,-20.27933715
242.99550,-19.36375393
242.99600,-17.83778189
242.99650,-16.00661544
242.99700,-12.95467137
242.99750,-4.409227952
242.99800,13.29204769
242.99850,36.18162827
242.99900,48.08421017
242.99950,39.84396116
243.00000,18.78554703
243.00050,2.610243425
243.00100,0.1686881634
243.00150,4.441409871
243.00200,5.96738191
243.00250,3.831021056
243.00300,3.525826648
243.00350,5.051798687
243.00400,4.746604279
243.00450,1.694660202
243.00500,-0.1365062443
243.00550,2.610243425
243.00600,7.188159541
243.00650,9.019325987
243.00700,7.493353948
243.00750,5.051798687
243.00800,2.915437833
243.00850,0.4738825711
243.00900,-1.967672691
243.00950,-5.324811175
243.01000,-9.292338475
243.01050,-12.64947696
243.01100,-13.25986578
243.01150,-12.34428255
243.01200,-13.87025459
243.01250,-19.05855952
243.01300,-22.72089241
243.01350,-21.50011478
243.01400,-20.88972597
243.01450,-24.24686445
243.01500,-23.94167005
243.01550,-8.68194966
243.01600,15.12321414
243.01650,28.85696249
243.01700,24.58424078
243.01750,12.98685329
243.01800,5.96738191
243.01850,4.136215463
243.01900,1.694660202
243.01950,-1.662478283
243.02000,-3.188450321
243.02050,-4.104033544
243.02100,-5.324811175
243.02150,-6.240394398
243.02200,-7.766366437
243.02250,-12.03908814
243.02300,-15.39622663
243.02350,-9.597532883
243.02400,5.356993094
243.02450,19.09074144
243.02500,20.61671348
243.02550,12.68165888
243.02600,4.136215463
243.02650,0.1686881634
243.02700,2.610243425
243.02750,10.54529803
243.02800,18.78554703
243.02850,20.00632466
243.02900,13.5972421
243.02950,6.577770725
243.03000,2.915437833
243.03050,-0.1365062443
243.03100,-4.409227952
243.03150,-6.545588806
243.03200,-5.935199991
243.03250,-8.376755252
243.03300,-16.00661544
243.03350,-23.33128123
243.03400,-25.16244768
243.03450,-23.33128123
243.03500,-20.58453156
243.03550,-13.56506018
243.03600,-0.1365062443
243.03650,11.76607566
243.03700,13.90243651
243.03750,7.493353948
243.03800,0.7790769788
243.03850,-1.662478283
243.03900,-2.883255914
243.03950,-3.188450321
243.04000,-1.357283875
243.04050,1.389465794
243.04100,2.610243425
243.04150,2.305049017
243.04200,2.610243425
243.04250,3.525826648
243.04300,4.136215463
243.04350,4.136215463
243.04400,3.831021056
243.04450,3.22063224
243.04500,1.694660202
243.04550,0.7790769788
243.04600,2.610243425
243.04650,4.746604279
243.04700,4.136215463
243.04750,0.7790769788
243.04800,-1.967672691
243.04850,-2.578061506
243.04900,-2.272867098
243.04950,-2.883255914
243.05000,-3.493644729
243.05050,-3.493644729
243.05100,-1.662478283
243.05150,0.1686881634
243.05200,1.694660202
243.05250,1.694660202
243.05300,-0.1365062443
243.05350,-2.272867098
243.05400,-5.019616768
243.05450,-6.850783214
243.05500,-8.376755252
243.05550,-8.987144068
243.05600,-8.68194966
243.05650,-6.850783214
243.05700,-3.493644729
243.05750,-0.1365062443
243.05800,1.694660202
243.05850,0.7790769788
243.05900,-1.052089467
243.05950,-3.188450321
243.06000,-3.493644729
243.06050,-2.883255914
243.06100,-1.357283875
243.06150,0.1686881634
243.06200,1.99985461
243.06250,3.525826648
243.06300,5.662187502
243.06350,8.103742764
243.06400,10.24010362
243.06450,10.24010362
243.06500,9.324520394
243.06550,8.714131579
243.06600,9.324520394
243.06650,8.714131579
243.06700,5.96738191
243.06750,1.99985461
243.06800,0.4738825711
243.06850,0.4738825711
243.06900,0.1686881634
243.06950,-1.052089467
243.07000,-1.967672691
243.07050,-1.662478283
243.07100,-1.662478283
243.07150,-3.493644729
243.07200,-5.630005583
243.07250,-6.240394398
243.07300,-5.324811175
243.07350,-4.71442236
243.07400,-4.71442236
243.07450,-4.409227952
243.07500,-3.493644729
243.07550,-3.493644729
243.07600,-4.71442236
243.07650,-5.935199991
243.07700,-5.935199991
243.07750,-4.409227952
243.07800,-2.883255914
243.07850,-1.662478283
243.07900,-0.441700652
243.07950,0.4738825711
243.08000,1.694660202
243.08050,3.22063224
243.08100,5.051798687
243.08150,6.882965133
243.08200,7.188159541
243.08250,5.356993094
243.08300,0.7790769788
243.08350,-3.493644729
243.08400,-4.409227952
243.08450,-1.357283875
243.08500,1.694660202
243.08550,1.99985461
243.08600,0.4738825711
243.08650,1.389465794
243.08700,6.577770725
243.08750,13.5972421
243.08800,18.78554703
243.08850,19.70113026
243.08900,14.20763092
243.08950,4.441409871
243.09000,-5.324811175
243.09050,-11.73389374
243.09100,-14.48064341
243.09150,-16.61700426
243.09200,-18.75336511
243.09250,-19.05855952
243.09300,-17.83778189
243.09350,-17.53258748
243.09400,-16.61700426
243.09450,-9.292338475
243.09500,5.051798687
243.09550,18.48035263
243.09600,20.92190789
243.09650,12.68165888
243.09700,2.915437833
243.09750,-1.357283875
243.09800,-1.357283875
243.09850,0.1686881634
243.09900,1.084271386
243.09950,0.7790769788
243.10000,0.4738825711
243.10050,1.084271386
243.10100,3.22063224
243.10150,4.746604279
243.10200,5.662187502
243.10250,6.882965133
243.10300,7.798548356
243.10350,5.356993094
243.10400,0.1686881634
243.10450,-3.798839137
243.10500,-6.240394398
243.10550,-10.2079217
243.10600,-15.39622663
243.10650,-16.31180985
243.10700,-12.95467137
243.10750,-15.70142104
243.10800,-26.0780309
243.10850,-27.60400294
243.10900,-5.324811175
243.10950,29.4673513
243.11000,47.77901576
243.11050,36.79201709
243.11100,12.07127006
243.11150,-3.798839137
243.11200,-5.935199991
243.11250,-1.662478283
243.11300,1.694660202
243.11350,3.525826648
243.11400,1.694660202
243.11450,-3.493644729
243.11500,-8.071560845
243.11550,-8.376755252
243.11600,-6.850783214
243.11650,-7.155977621
243.11700,-7.766366437
243.11750,-6.850783214
243.11800,-4.71442236
243.11850,-3.798839137
243.11900,-3.798839137
243.11950,-2.578061506
243.12000,-0.441700652
243.12050,1.389465794
243.12100,3.831021056
243.12150,6.882965133
243.12200,8.103742764
243.12250,6.272576317
243.12300,3.22063224
243.12350,1.99985461
243.12400,1.99985461
243.12450,1.084271386
243.12500,-0.7468950597
243.12550,-1.357283875
243.12600,-0.1365062443
243.12650,1.389465794
243.12700,2.610243425
243.12750,3.22063224
243.12800,2.915437833
243.12850,1.389465794
243.12900,-0.441700652
243.12950,-2.883255914
243.13000,-5.630005583
243.13050,-8.987144068
243.13100,-11.42869933
243.13150,-11.73389374
243.13200,-12.03908814
243.13250,-14.175449
243.13300,-14.78583781
243.13350,-7.766366437
243.13400,6.272576317
243.13450,17.25957499
243.13500,16.03879736
243.13550,6.577770725
243.13600,0.1686881634
243.13650,0.1686881634
243.13700,0.4738825711
243.13750,-3.493644729
243.13800,-8.987144068
243.13850,-9.597532883
243.13900,-6.545588806
243.13950,-4.71442236
243.14000,-4.71442236
243.14050,-3.798839137
243.14100,-2.272867098
243.14150,-2.883255914
243.14200,-2.272867098
243.14250,7.493353948
243.14300,27.94137926
243.14350,46.55823813
243.14400,49.91537662
243.14450,39.53876676
243.14500,25.80501841
243.14550,17.25957499
243.14600,13.5972421
243.14650,11.46088125
243.14700,8.103742764
243.14750,1.389465794
243.14800,-8.376755252
243.14850,-16.61700426
243.14900,-18.75336511
243.14950,-16.00661544
243.15000,-12.64947696
243.15050,-11.12350492
243.15100,-10.51311611
243.15150,-10.2079217
243.15200,-9.902727291
243.15250,-5.935199991
243.15300,3.22063224
243.15350,12.37646447
243.15400,12.98685329
243.15450,4.441409871
243.15500,-4.71442236
243.15550,-8.071560845
243.15600,-7.766366437
243.15650,-7.461172029
243.15700,-8.071560845
243.15750,-8.071560845
243.15800,-6.850783214
243.15850,-6.240394398
243.15900,-5.630005583
243.15950,-4.104033544
243.16000,-1.662478283
243.16050,-0.1365062443
243.16100,0.1686881634
243.16150,1.084271386
243.16200,1.99985461
243.16250,2.610243425
243.16300,3.525826648
243.16350,5.051798687
243.16400,6.577770725
243.16450,6.882965133
243.16500,5.662187502
243.16550,4.746604279
243.16600,4.746604279
243.16650,2.305049017
243.16700,-4.104033544
243.16750,-11.73389374
243.16800,-14.175449
243.16850,-11.12350492
243.16900,-7.155977621
243.16950,-5.630005583
243.17000,-6.240394398
243.17050,-8.071560845
243.17100,-11.12350492
243.17150,-12.03908814
243.17200,-7.155977621
243.17250,2.305049017
243.17300,6.577770725
243.17350,0.1686881634
243.17400,-10.81831051
243.17450,-17.22739308
243.17500,-18.75336511
243.17550,-18.44817071
243.17600,-13.87025459
243.17650,-0.441700652
243.17700,16.03879736
243.17750,23.36346315
243.17800,16.64918618
243.17850,5.96738191
243.17900,0.4738825711
243.17950,-0.1365062443
243.18000,-0.1365062443
243.18050,0.4738825711
243.18100,3.22063224
243.18150,4.746604279
243.18200,2.915437833
243.18250,0.7790769788
243.18300,1.99985461
243.18350,5.356993094
243.18400,5.96738191
243.18450,4.746604279
243.18500,5.051798687
243.18550,6.577770725
243.18600,7.493353948
243.18650,6.882965133
243.18700,6.577770725
243.18750,6.577770725
243.18800,5.96738191
243.18850,4.746604279
243.18900,3.22063224
243.18950,1.99985461
243.19000,-0.1365062443
243.19050,-2.883255914
243.19100,-5.324811175
243.19150,-6.545588806
243.19200,-6.850783214
243.19250,-6.850783214
243.19300,-6.850783214
243.19350,-6.545588806
243.19400,-5.630005583
243.19450,-4.71442236
243.19500,-5.935199991
243.19550,-7.461172029
243.19600,-5.630005583
243.19650,-0.441700652
243.19700,2.610243425
243.19750,-1.967672691
243.19800,-11.12350492
243.19850,-16.00661544
243.19900,-12.95467137
243.19950,-7.461172029
243.20000,-5.324811175
243.20050,-5.019616768
243.20100,-2.578061506
243.20150,2.610243425
243.20200,7.798548356
243.20250,10.54529803
243.20300,11.15568684
243.20350,11.46088125
243.20400,12.07127006
243.20450,13.29204769
243.20500,14.20763092
243.20550,14.20763092
243.20600,13.90243651
243.20650,13.29204769
243.20700,11.15568684
243.20750,9.019325987
243.20800,8.103742764
243.20850,8.103742764
243.20900,6.577770725
243.20950,3.22063224
243.21000,0.1686881634
243.21050,-1.357283875
243.21100,-2.883255914
243.21150,-4.104033544
243.21200,-3.798839137
243.21250,-2.883255914
243.21300,-3.798839137
243.21350,-6.850783214
243.21400,-9.902727291
243.21450,-11.73389374
243.21500,-14.78583781
243.21550,-17.53258748
243.21600,-17.53258748
243.21650,-16.61700426
243.21700,-18.75336511
243.21750,-18.75336511
243.21800,-5.630005583
243.21850,20.31151907
243.21900,41.3699332
243.21950,41.67512761
243.22000,26.11021282
243.22050,10.54529803
243.22100,2.305049017
243.22150,-0.7468950597
243.22200,-1.052089467
243.22250,4.441409871
243.22300,13.90243651
243.22350,20.00632466
243.22400,19.09074144
243.22450,12.98685329
243.22500,5.662187502
243.22550,-0.441700652
243.22600,-4.104033544
243.22650,-5.324811175
243.22700,-6.850783214
243.22750,-10.2079217
243.22800,-14.48064341
243.22850,-17.83778189
243.22900,-19.05855952
243.22950,-15.70142104
243.23000,-3.493644729
243.23050,12.68165888
243.23100,22.44787993
243.23150,17.5647694
243.23200,5.96738191
243.23250,-0.441700652
243.23300,-0.1365062443
243.23350,1.389465794
243.23400,-0.7468950597
243.23450,-4.71442236
243.23500,-8.987144068
243.23550,-12.03908814
243.23600,-13.25986578
243.23650,-14.48064341
243.23700,-19.66894834
243.23750,-27.60400294
243.23800,-26.38322531
243.23850,-6.545588806
243.23900,21.83749111
243.23950,37.4024059
243.24000,30.38293453
243.24050,13.5972421
243.24100,3.525826648
243.24150,0.7790769788
243.24200,-0.7468950597
243.24250,-1.662478283
243.24300,1.694660202
243.24350,4.746604279
243.24400,-1.662478283
243.24450,-14.175449
243.24500,-16.00661544
243.24550,-1.357283875
243.24600,16.95438059
243.24650,23.05826874
243.24700,14.81801973
243.24750,2.305049017
243.24800,-4.71442236
243.24850,-2.272867098
243.24900,8.408937171
243.24950,20.00632466
243.25000,19.09074144
243.25050,2.610243425
243.25100,-16.00661544
243.25150,-22.41569801
243.25200,-16.31180985
243.25250,-10.51311611
243.25300,-11.42869933
243.25350,-14.78583781
243.25400,-14.48064341
243.25450,-12.34428255
243.25500,-11.73389374
243.25550,-10.81831051
243.25600,-8.68194966
243.25650,-7.155977621
243.25700,-7.461172029
243.25750,-6.850783214
243.25800,-4.104033544
243.25850,-1.357283875
243.25900,-2.272867098
243.25950,-4.104033544
243.26000,-3.493644729
243.26050,-1.662478283
243.26100,-2.272867098
243.26150,-4.409227952
243.26200,-5.019616768
243.26250,-4.409227952
243.26300,-4.104033544
243.26350,-4.409227952
243.26400,-2.272867098
243.26450,1.694660202
243.26500,5.051798687
243.26550,5.96738191
243.26600,5.356993094
243.26650,5.051798687
243.26700,3.831021056
243.26750,1.389465794
243.26800,-0.7468950597
243.26850,-1.357283875
243.26900,0.1686881634
243.26950,1.694660202
243.27000,1.99985461
243.27050,0.1686881634
243.27100,-2.272867098
243.27150,-4.409227952
243.27200,-4.104033544
243.27250,-2.272867098
243.27300,-2.578061506
243.27350,-5.935199991
243.27400,-8.987144068
243.27450,-9.292338475
243.27500,-9.292338475
243.27550,-11.73389374
243.27600,-14.78583781
243.27650,-13.87025459
243.27700,-7.461172029
243.27750,-0.1365062443
243.27800,2.610243425
243.27850,1.99985461
243.27900,0.7790769788
243.27950,1.084271386
243.28000,2.915437833
243.28050,5.356993094
243.28100,6.882965133
243.28150,6.882965133
243.28200,5.662187502
243.28250,4.746604279
243.28300,4.441409871
243.28350,4.136215463
243.28400,3.831021056
243.28450,3.525826648
243.28500,4.441409871
243.28550,5.96738191
243.28600,6.577770725
243.28650,6.577770725
243.28700,5.662187502
243.28750,5.051798687
243.28800,5.356993094
243.28850,5.662187502
243.28900,4.136215463
243.28950,0.1686881634
243.29000,-2.578061506
243.29050,-3.188450321
243.29100,-2.883255914
243.29150,-4.409227952
243.29200,-7.155977621
243.29250,-7.766366437
243.29300,-5.935199991
243.29350,-4.104033544
243.29400,-4.409227952
243.29450,-4.409227952
243.29500,-3.188450321
243.29550,-2.578061506
243.29600,-3.493644729
243.29650,-4.71442236
243.29700,-4.71442236
243.29750,-3.493644729
243.29800,-1.967672691
243.29850,-0.1365062443
243.29900,1.694660202
243.29950,3.22063224
243.30000,4.746604279
243.30050,7.188159541
243.30100,8.408937171
243.30150,6.882965133
243.30200,3.22063224
243.30250,1.694660202
243.30300,3.22063224
243.30350,4.136215463
243.30400,2.915437833
243.30450,1.694660202
243.30500,2.610243425
243.30550,3.22063224
243.30600,3.525826648
243.30650,6.272576317
243.30700,13.5972421
243.30750,20.61671348
243.30800,21.22710229
243.30850,15.73360296
243.30900,9.324520394
243.30950,5.662187502
243.31000,4.136215463
243.31050,2.915437833
243.31100,1.084271386
243.31150,-0.441700652
243.31200,-1.357283875
243.31250,-1.357283875
243.31300,-1.052089467
243.31350,-1.662478283
243.31400,-2.272867098
243.31450,-2.883255914
243.31500,-4.409227952
243.31550,-7.155977621
243.31600,-10.51311611
243.31650,-12.34428255
243.31700,-12.03908814
243.31750,-10.81831051
243.31800,-10.51311611
243.31850,-12.64947696
243.31900,-17.53258748
243.31950,-19.05855952
243.32000,-11.42869933
243.32050,3.525826648
243.32100,15.42840855
243.32150,14.51282533
243.32200,7.188159541
243.32250,5.96738191
243.32300,14.20763092
243.32350,22.14268552
243.32400,23.05826874
243.32450,19.39593585
243.32500,16.64918618
243.32550,15.12321414
243.32600,12.98685329
243.32650,10.54529803
243.32700,9.324520394
243.32750,8.103742764
243.32800,5.356993094
243.32850,1.99985461
243.32900,0.4738825711
243.32950,0.4738825711
243.33000,0.7790769788
243.33050,0.1686881634
243.33100,-1.052089467
243.33150,-2.578061506
243.33200,-4.104033544
243.33250,-7.155977621
243.33300,-11.73389374
243.33350,-16.61700426
243.33400,-20.58453156
243.33450,-22.1105036
243.33500,-21.19492038
243.33550,-20.58453156
243.33600,-23.94167005
243.33650,-32.18191905
243.33700,-39.50658484
243.33750,-34.92866872
243.33800,-15.39622663
243.33850,8.408937171
243.33900,23.66865756
243.33950,24.27904637
243.34000,16.34399177
243.34050,7.188159541
243.34100,2.915437833
243.34150,5.662187502
243.34200,15.42840855
243.34250,24.88943519
243.34300,26.41540723
243.34350,19.09074144
243.34400,9.629714802
243.34450,5.051798687
243.34500,4.441409871
243.34550,5.051798687
243.34600,5.051798687
243.34650,5.051798687
243.34700,4.441409871
243.34750,2.305049017
243.34800,-0.1365062443
243.34850,-2.883255914
243.34900,-5.630005583
243.34950,-6.850783214
243.35000,-6.545588806
243.35050,-5.630005583
243.35100,-5.935199991
243.35150,-7.766366437
243.35200,-8.987144068
243.35250,-8.376755252
243.35300,-7.155977621
243.35350,-6.545588806
243.35400,-6.545588806
243.35450,-7.155977621
243.35500,-7.461172029
243.35550,-7.766366437
243.35600,-8.071560845
243.35650,-9.597532883
243.35700,-10.51311611
243.35750,-7.766366437
243.35800,-1.052089467
243.35850,4.441409871
243.35900,2.610243425
243.35950,-5.935199991
243.36000,-13.56506018
243.36050,-14.48064341
243.36100,-10.51311611
243.36150,-5.935199991
243.36200,-1.662478283
243.36250,2.610243425
243.36300,5.051798687
243.36350,2.915437833
243.36400,-0.1365062443
243.36450,1.389465794
243.36500,6.882965133
243.36550,10.24010362
243.36600,9.324520394
243.36650,7.493353948
243.36700,7.493353948
243.36750,6.882965133
243.36800,3.525826648
243.36850,-0.1365062443
243.36900,-1.052089467
243.36950,-1.357283875
243.37000,-2.578061506
243.37050,-2.578061506
243.37100,-0.7468950597
243.37150,-1.357283875
243.37200,-7.461172029
243.37250,-14.175449
243.37300,-16.92219867
243.37350,-17.22739308
243.37400,-18.44817071
243.37450,-19.66894834
243.37500,-17.83778189
243.37550,-16.61700426
243.37600,-17.83778189
243.37650,-13.56506018
243.37700,4.746604279
243.37750,29.77254571
243.37800,40.75954439
243.37850,30.07774012
243.37900,12.68165888
243.37950,4.746604279
243.38000,6.272576317
243.38050,7.493353948
243.38100,5.96738191
243.38150,5.356993094
243.38200,5.356993094
243.38250,3.22063224
243.38300,-0.1365062443
243.38350,-0.441700652
243.38400,0.7790769788
243.38450,0.1686881634
243.38500,-2.883255914
243.38550,-5.019616768
243.38600,-5.630005583
243.38650,-7.155977621
243.38700,-8.68194966
243.38750,-4.71442236
243.38800,6.882965133
243.38850,20.00632466
243.38900,24.88943519
243.38950,18.48035263
243.39000,8.103742764
243.39050,3.831021056
243.39100,8.408937171
243.39150,16.34399177
243.39200,18.78554703
243.39250,12.98685329
243.39300,4.441409871
243.39350,-1.052089467
243.39400,-3.493644729
243.39450,-5.019616768
243.39500,-6.850783214
243.39550,-7.461172029
243.39600,-7.461172029
243.39650,-8.376755252
243.39700,-9.597532883
243.39750,-9.597532883
243.39800,-8.68194966
243.39850,-8.071560845
243.39900,-8.376755252
243.39950,-7.155977621
243.40000,-4.104033544
243.40050,-1.357283875
243.40100,-0.441700652
243.40150,-0.7468950597
243.40200,-1.967672691
243.40250,-3.798839137
243.40300,-5.019616768
243.40350,-4.409227952
243.40400,-3.188450321
243.40450,-5.630005583
243.40500,-9.902727291
243.40550,-8.376755252
243.40600,2.305049017
243.40650,15.73360296
243.40700,20.92190789
243.40750,13.5972421
243.40800,2.915437833
243.40850,-0.1365062443
243.40900,6.882965133
243.40950,17.25957499
243.41000,18.78554703
243.41050,9.019325987
243.41100,-4.104033544
243.41150,-11.12350492
243.41200,-11.42869933
243.41250,-11.73389374
243.41300,-14.175449
243.41350,-13.56506018
243.41400,-8.376755252
243.41450,-3.188450321
243.41500,-2.578061506
243.41550,-4.409227952
243.41600,-4.409227952
243.41650,-2.883255914
243.41700,-2.883255914
243.41750,-4.409227952
243.41800,-4.104033544
243.41850,-2.578061506
243.41900,-1.052089467
243.41950,-0.441700652
243.42000,0.7790769788
243.42050,3.831021056
243.42100,5.96738191
243.42150,6.577770725
243.42200,6.577770725
243.42250,6.577770725
243.42300,6.577770725
243.42350,5.662187502
243.42400,4.441409871
243.42450,2.915437833
243.42500,1.389465794
243.42550,0.1686881634
243.42600,-0.1365062443
243.42650,0.4738825711
243.42700,0.4738825711
243.42750,0.1686881634
243.42800,0.4738825711
243.42850,2.610243425
243.42900,6.272576317
243.42950,8.714131579
243.43000,8.103742764
243.43050,5.051798687
243.43100,1.084271386
243.43150,-1.662478283
243.43200,-2.578061506
243.43250,-1.052089467
243.43300,-0.1365062443
243.43350,-3.188450321
243.43400,-10.51311611
243.43450,-15.09103222
243.43500,-12.95467137
243.43550,-8.071560845
243.43600,-8.68194966
243.43650,-14.78583781
243.43700,-18.44817071
243.43750,-14.48064341
243.43800,-7.461172029
243.43850,-2.272867098
243.43900,1.389465794
243.43950,6.272576317
243.44000,9.629714802
243.44050,9.629714802
243.44100,9.324520394
243.44150,12.07127006
243.44200,13.5972421
243.44250,7.493353948
243.44300,-3.798839137
243.44350,-10.51311611
243.44400,-7.461172029
243.44450,-0.7468950597
243.44500,1.694660202
243.44550,0.4738825711
243.44600,1.084271386
243.44650,3.525826648
243.44700,2.610243425
243.44750,-3.493644729
243.44800,-7.461172029
243.44850,-1.967672691
243.44900,9.324520394
243.44950,15.42840855
243.45000,11.15568684
243.45050,2.915437833
243.45100,0.1686881634
243.45150,1.694660202
243.45200,1.694660202
243.45250,-0.1365062443
243.45300,1.99985461
243.45350,11.46088125
243.45400,20.00632466
243.45450,20.61671348
243.45500,13.29204769
243.45550,5.356993094
243.45600,0.4738825711
243.45650,-1.967672691
243.45700,-3.493644729
243.45750,-3.493644729
243.45800,-2.578061506
243.45850,-2.883255914
243.45900,-3.493644729
243.45950,-2.578061506
243.46000,0.1686881634
243.46050,2.915437833
243.46100,3.22063224
243.46150,3.22063224
243.46200,4.746604279
243.46250,6.272576317
243.46300,6.882965133
243.46350,6.882965133
243.46400,7.188159541
243.46450,6.882965133
243.46500,4.136215463
243.46550,0.4738825711
243.46600,-0.441700652
243.46650,0.4738825711
243.46700,2.305049017
243.46750,2.610243425
243.46800,1.99985461
243.46850,1.389465794
243.46900,0.1686881634
243.46950,-2.883255914
243.47000,-7.461172029
243.47050,-12.03908814
243.47100,-15.09103222
243.47150,-15.70142104
243.47200,-14.78583781
243.47250,-14.175449
243.47300,-16.31180985
243.47350,-17.53258748
243.47400,-11.73389374
243.47450,1.084271386
243.47500,12.37646447
243.47550,12.98685329
243.47600,4.441409871
243.47650,-2.883255914
243.47700,-5.324811175
243.47750,-5.019616768
243.47800,-5.630005583
243.47850,-5.935199991
243.47900,-5.019616768
243.47950,-5.019616768
243.48000,-7.461172029
243.48050,-8.376755252
243.48100,-5.324811175
243.48150,-1.357283875
243.48200,-0.7468950597
243.48250,-2.883255914
243.48300,-2.883255914
243.48350,-0.1365062443
243.48400,3.525826648
243.48450,7.798548356
243.48500,14.51282533
243.48550,21.5322967
243.48600,23.36346315
243.48650,17.86996381
243.48700,10.54529803
243.48750,6.272576317
243.48800,4.441409871
243.48850,2.305049017
243.48900,-0.441700652
243.48950,-2.272867098
243.49000,-3.493644729
243.49050,-5.324811175
243.49100,-6.850783214
243.49150,-7.155977621
243.49200,-7.461172029
243.49250,-8.987144068
243.49300,-10.51311611
243.49350,-10.2079217
243.49400,-9.597532883
243.49450,-10.2079217
243.49500,-11.12350492
243.49550,-11.42869933
243.49600,-10.51311611
243.49650,-9.292338475
243.49700,-7.155977621
243.49750,-4.71442236
243.49800,-5.324811175
243.49850,-9.292338475
243.49900,-12.64947696
243.49950,-12.34428255
243.50000,-9.902727291
243.50050,-8.376755252
243.50100,-6.850783214
243.50150,-3.798839137
243.50200,-1.357283875
243.50250,-1.357283875
243.50300,0.4738825711
243.50350,9.324520394
243.50400,20.00632466
243.50450,23.05826874
243.50500,17.25957499
243.50550,10.54529803
243.50600,9.93490921
243.50650,12.68165888
243.50700,12.37646447
243.50750,7.798548356
243.50800,2.305049017
243.50850,-1.052089467
243.50900,-2.578061506
243.50950,-1.052089467
243.51000,1.389465794
243.51050,-0.1365062443
243.51100,-8.68194966
243.51150,-17.53258748
243.51200,-16.31180985
243.51250,-2.883255914
243.51300,12.98685329
243.51350,19.39593585
243.51400,13.5972421
243.51450,1.389465794
243.51500,-8.987144068
243.51550,-15.70142104
243.51600,-21.19492038
243.51650,-26.68841971
243.51700,-28.21439175
243.51750,-20.88972597
243.51800,-6.850783214
243.51850,4.441409871
243.51900,7.493353948
243.51950,3.831021056
243.52000,0.1686881634
243.52050,-1.052089467
243.52100,-2.578061506
243.52150,-5.324811175
243.52200,-6.545588806
243.52250,-4.409227952
243.52300,-0.1365062443
243.52350,4.746604279
243.52400,5.051798687
243.52450,-1.662478283
243.52500,-12.34428255
243.52550,-14.78583781
243.52600,0.1686881634
243.52650,27.33099045
243.52700,46.25304373
243.52750,44.72707169
243.52800,28.55176808
243.52850,13.90243651
243.52900,8.103742764
243.52950,6.577770725
243.53000,3.525826648
243.53050,-1.052089467
243.53100,-5.630005583
243.53150,-9.292338475
243.53200,-11.42869933
243.53250,-12.34428255
243.53300,-11.42869933
243.53350,-11.12350492
243.53400,-12.34428255
243.53450,-12.64947696
243.53500,-7.766366437
243.53550,3.22063224
243.53600,15.42840855
243.53650,21.22710229
243.53700,17.25957499
243.53750,7.798548356
243.53800,0.4738825711
243.53850,-1.357283875
243.53900,-0.441700652
243.53950,-0.1365062443
243.54000,-0.1365062443
243.54050,0.7790769788
243.54100,3.831021056
243.54150,6.577770725
243.54200,7.798548356
243.54250,7.798548356
243.54300,6.272576317
243.54350,3.525826648
243.54400,0.1686881634
243.54450,-1.662478283
243.54500,-2.272867098
243.54550,-2.578061506
243.54600,-3.493644729
243.54650,-4.409227952
243.54700,-4.409227952
243.54750,-5.019616768
243.54800,-5.324811175
243.54850,-0.441700652
243.54900,11.46088125
243.54950,23.97385196
243.55000,26.72060163
243.55050,18.17515822
243.55100,7.493353948
243.55150,1.389465794
243.55200,-1.052089467
243.55250,-4.104033544
243.55300,-5.630005583
243.55350,-4.71442236
243.55400,-3.798839137
243.55450,-5.324811175
243.55500,-6.240394398
243.55550,-6.545588806
243.55600,-8.987144068
243.55650,-13.25986578
243.55700,-14.175449
243.55750,-11.12350492
243.55800,-9.292338475
243.55850,-10.51311611
243.55900,-9.902727291
243.55950,-6.850783214
243.56000,-8.376755252
243.56050,-14.48064341
243.56100,-12.03908814
243.56150,5.356993094
243.56200,23.66865756
243.56250,23.05826874
243.56300,6.882965133
243.56350,-5.935199991
243.56400,-9.902727291
243.56450,-12.64947696
243.56500,-14.48064341
243.56550,-7.461172029
243.56600,4.441409871
243.56650,5.96738191
243.56700,-5.019616768
243.56750,-9.597532883
243.56800,5.96738191
243.56850,27.94137926
243.56900,33.4348786
243.56950,21.83749111
243.57000,12.07127006
243.57050,16.03879736
243.57100,24.58424078
243.57150,25.19462959
243.57200,16.34399177
243.57250,5.662187502
243.57300,-1.052089467
243.57350,-4.71442236
243.57400,-7.155977621
243.57450,-9.902727291
243.57500,-12.03908814
243.57550,-12.95467137
243.57600,-13.56506018
243.57650,-14.175449
243.57700,-13.56506018
243.57750,-9.902727291
243.57800,-5.630005583
243.57850,-5.935199991
243.57900,-11.73389374
243.57950,-18.1429763
243.58000,-21.50011478
243.58050,-20.88972597
243.58100,-17.22739308
243.58150,-11.12350492
243.58200,-6.240394398
243.58250,-7.155977621
243.58300,-11.42869933
243.58350,-8.68194966
243.58400,7.188159541
243.58450,27.94137926
243.58500,39.23357235
243.58550,34.96085064
243.58600,20.92190789
243.58650,7.188159541
243.58700,-1.662478283
243.58750,-8.071560845
243.58800,-12.95467137
243.58850,-15.09103222
243.58900,-12.34428255
243.58950,-4.409227952
243.59000,3.525826648
243.59050,8.408937171
243.59100,9.019325987
243.59150,7.188159541
243.59200,3.831021056
243.59250,-0.441700652
243.59300,-4.71442236
243.59350,-6.850783214
243.59400,-8.376755252
243.59450,-11.12350492
243.59500,-14.175449
243.59550,-16.31180985
243.59600,-17.83778189
243.59650,-18.75336511
243.59700,-17.53258748
243.59750,-15.39622663
243.59800,-16.00661544
243.59850,-14.48064341
243.59900,-0.7468950597
243.59950,24.58424078
243.60000,44.11668287
243.60050,40.75954439
243.60100,23.05826874
243.60150,11.46088125
243.60200,11.15568684
243.60250,8.408937171
243.60300,-2.272867098
243.60350,-11.42869933
243.60400,-9.902727291
243.60450,-3.493644729
243.60500,-1.662478283
243.60550,-2.883255914
243.60600,-2.578061506
243.60650,-3.188450321
243.60700,-8.376755252
243.60750,-12.34428255
243.60800,-6.240394398
243.60850,9.019325987
243.60900,22.14268552
243.60950,23.97385196
243.61000,14.81801973
243.61050,3.22063224
243.61100,-2.883255914
243.61150,-3.493644729
243.61200,-3.798839137
243.61250,-7.461172029
243.61300,-11.42869933
243.61350,-12.64947696
243.61400,-14.175449
243.61450,-20.27933715
243.61500,-27.90919735
243.61550,-31.26633583
243.61600,-29.43516938
243.61650,-26.68841971
243.61700,-20.58453156
243.61750,-7.766366437
243.61800,5.662187502
243.61850,9.324520394
243.61900,3.525826648
243.61950,3.22063224
243.62000,15.73360296
243.62050,29.4673513
243.62100,29.4673513
243.62150,18.17515822
243.62200,9.93490921
243.62250,9.324520394
243.62300,10.24010362
243.62350,9.019325987
243.62400,7.798548356
243.62450,8.408937171
243.62500,8.103742764
243.62550,6.577770725
243.62600,6.577770725
243.62650,7.798548356
243.62700,5.662187502
243.62750,-1.052089467
243.62800,-7.766366437
243.62850,-8.376755252
243.62900,-5.324811175
243.62950,-4.409227952
243.63000,-5.630005583
243.63050,-5.630005583
243.63100,-4.104033544
243.63150,-3.798839137
243.63200,-4.71442236
243.63250,-4.409227952
243.63300,-3.493644729
243.63350,-4.409227952
243.63400,-6.850783214
243.63450,-7.461172029
243.63500,-4.71442236
243.63550,-2.272867098
243.63600,-2.272867098
243.63650,-2.883255914
243.63700,-2.883255914
243.63750,-4.409227952
243.63800,-9.292338475
243.63850,-12.95467137
243.63900,-11.73389374
243.63950,-8.987144068
243.64000,-8.071560845
243.64050,-7.461172029
243.64100,-4.104033544
243.64150,-1.052089467
243.64200,-1.967672691
243.64250,-1.967672691
243.64300,6.882965133
243.64350,22.75307433
243.64400,33.74007301
243.64450,34.35046183
243.64500,28.55176808
243.64550,22.14268552
243.64600,16.95438059
243.64650,13.29204769
243.64700,11.76607566
243.64750,10.24010362
243.64800,6.882965133
243.64850,2.305049017
243.64900,-1.357283875
243.64950,-6.545588806
243.65000,-13.56506018
243.65050,-20.27933715
243.65100,-24.55205886
243.65150,-29.43516938
243.65200,-35.23386313
243.65250,-33.70789109
243.65300,-18.44817071
243.65350,2.610243425
243.65400,15.12321414
243.65450,17.86996381
243.65500,23.97385196
243.65550,39.23357235
243.65600,51.44134866
243.65650,47.16862695
243.65700,30.07774012
243.65750,13.90243651
243.65800,5.96738191
243.65850,2.915437833
243.65900,1.084271386
243.65950,0.4738825711
243.66000,1.694660202
243.66050,2.610243425
243.66100,2.915437833
243.66150,4.136215463
243.66200,5.662187502
243.66250,5.051798687
243.66300,2.915437833
243.66350,1.694660202
243.66400,3.22063224
243.66450,4.441409871
243.66500,2.915437833
243.66550,-0.1365062443
243.66600,-4.104033544
243.66650,-7.766366437
243.66700,-10.81831051
243.66750,-11.42869933
243.66800,-7.766366437
243.66850,-1.662478283
243.66900,2.305049017
243.66950,2.305049017
243.67000,-0.1365062443
243.67050,-3.493644729
243.67100,-5.019616768
243.67150,-5.935199991
243.67200,-7.155977621
243.67250,-8.68194966
243.67300,-9.292338475
243.67350,-8.987144068
243.67400,-8.987144068
243.67450,-9.597532883
243.67500,-9.597532883
243.67550,-8.987144068
243.67600,-9.292338475
243.67650,-10.2079217
243.67700,-9.597532883
243.67750,-6.545588806
243.67800,-3.493644729
243.67850,-3.188450321
243.67900,-4.104033544
243.67950,-2.883255914
243.68000,-0.441700652
243.68050,0.4738825711
243.68100,-0.441700652
243.68150,-2.272867098
243.68200,-3.798839137
243.68250,-4.71442236
243.68300,-5.019616768
243.68350,-4.71442236
243.68400,-5.630005583
243.68450,-7.766366437
243.68500,-8.376755252
243.68550,-7.155977621
243.68600,-9.292338475
243.68650,-14.78583781
243.68700,-12.95467137
243.68750,4.746604279
243.68800,29.77254571
243.68850,42.28551643
243.68900,34.65565623
243.68950,18.78554703
243.69000,7.798548356
243.69050,3.22063224
243.69100,0.7790769788
243.69150,-1.967672691
243.69200,-6.545588806
243.69250,-12.03908814
243.69300,-15.39622663
243.69350,-12.03908814
243.69400,-4.409227952
243.69450,-1.662478283
243.69500,-7.155977621
243.69550,-14.48064341
243.69600,-16.00661544
243.69650,-13.25986578
243.69700,-11.12350492
243.69750,-9.597532883
243.69800,-6.545588806
243.69850,-2.578061506
243.69900,-0.441700652
243.69950,0.1686881634
243.70000,1.084271386
243.70050,1.389465794
243.70100,0.1686881634
243.70150,-1.662478283
243.70200,-3.798839137
243.70250,-5.935199991
243.70300,-6.850783214
243.70350,-5.324811175
243.70400,-1.662478283
243.70450,-0.1365062443
243.70500,0.1686881634
243.70550,4.136215463
243.70600,12.98685329
243.70650,20.61671348
243.70700,19.39593585
243.70750,9.629714802
243.70800,-0.441700652
243.70850,-7.461172029
243.70900,-12.03908814
243.70950,-16.31180985
243.71000,-19.36375393
243.71050,-17.83778189
243.71100,-9.292338475
243.71150,6.577770725
243.71200,25.19462959
243.71250,36.48682268
243.71300,33.74007301
243.71350,20.00632466
243.71400,6.272576317
243.71450,-0.441700652
243.71500,-2.272867098
243.71550,-4.104033544
243.71600,-5.324811175
243.71650,-4.71442236
243.71700,-2.883255914
243.71750,-2.883255914
243.71800,-5.019616768
243.71850,-6.240394398
243.71900,-4.71442236
243.71950,-1.967672691
243.72000,-0.1365062443
243.72050,2.305049017
243.72100,6.577770725
243.72150,9.019325987
243.72200,4.441409871
243.72250,-6.240394398
243.72300,-14.175449
243.72350,-14.48064341
243.72400,-11.42869933
243.72450,-9.597532883
243.72500,-6.240394398
243.72550,0.7790769788
243.72600,4.746604279
243.72650,0.7790769788
243.72700,-0.1365062443
243.72750,14.81801973
243.72800,39.53876676
243.72850,48.08421017
243.72900,29.77254571
243.72950,3.22063224
243.73000,-9.597532883
243.73050,-8.68194966
243.73100,-6.240394398
243.73150,-7.461172029
243.73200,-9.597532883
243.73250,-11.73389374
243.73300,-14.78583781
243.73350,-15.09103222
243.73400,-11.12350492
243.73450,-6.240394398
243.73500,-4.71442236
243.73550,-5.324811175
243.73600,-6.240394398
243.73650,-10.81831051
243.73700,-20.58453156
243.73750,-30.35075261
243.73800,-34.0130855
243.73850,-30.96114142
243.73900,-19.05855952
243.73950,2.305049017
243.74000,25.499824
243.74050,35.57123946
243.74100,31.60371216
243.74150,30.68812893
243.74200,43.20109965
243.74250,54.79848714
243.74300,45.94784932
243.74350,21.22710229
243.74400,1.694660202
243.74450,-1.967672691
243.74500,0.7790769788
243.74550,2.305049017
243.74600,1.99985461
243.74650,2.915437833
243.74700,3.22063224
243.74750,1.99985461
243.74800,0.7790769788
243.74850,-0.1365062443
243.74900,-2.272867098
243.74950,-4.409227952
243.75000,-4.409227952
243.75050,-3.798839137
243.75100,-5.935199991
243.75150,-9.292338475
243.75200,-10.2079217
243.75250,-9.292338475
243.75300,-9.292338475
243.75350,-11.12350492
243.75400,-11.42869933
243.75450,-10.51311611
243.75500,-10.2079217
243.75550,-11.42869933
243.75600,-12.03908814
243.75650,-11.12350492
243.75700,-10.2079217
243.75750,-9.902727291
243.75800,-9.292338475
243.75850,-6.850783214
243.75900,-4.104033544
243.75950,-2.883255914
243.76000,-1.967672691
243.76050,-0.441700652
243.76100,0.7790769788
243.76150,1.694660202
243.76200,2.610243425
243.76250,3.525826648
243.76300,4.441409871
243.76350,4.746604279
243.76400,4.136215463
243.76450,3.525826648
243.76500,2.610243425
243.76550,2.610243425
243.76600,2.915437833
243.76650,3.525826648
243.76700,2.610243425
243.76750,1.084271386
243.76800,0.1686881634
243.76850,-0.1365062443
243.76900,-0.441700652
243.76950,-1.357283875
243.77000,-2.272867098
243.77050,-3.188450321
243.77100,-4.71442236
243.77150,-5.935199991
243.77200,-5.935199991
243.77250,-6.240394398
243.77300,-7.766366437
243.77350,-9.292338475
243.77400,-8.68194966
243.77450,-6.850783214
243.77500,-5.935199991
243.77550,-6.240394398
243.77600,-5.630005583
243.77650,-4.409227952
243.77700,-4.104033544
243.77750,-4.104033544
243.77800,-3.188450321
243.77850,-0.7468950597
243.77900,-0.1365062443
243.77950,0.1686881634
243.78000,1.389465794
243.78050,3.525826648
243.78100,4.441409871
243.78150,4.441409871
243.78200,6.272576317
243.78250,9.019325987
243.78300,7.493353948
243.78350,1.99985461
243.78400,-1.967672691
243.78450,-2.883255914
243.78500,-3.188450321
243.78550,-4.409227952
243.78600,-4.409227952
243.78650,-3.493644729
243.78700,-5.324811175
243.78750,-6.850783214
243.78800,2.305049017
243.78850,23.66865756
243.78900,41.3699332
243.78950,39.84396116
243.79000,22.75307433
243.79050,8.103742764
243.79100,2.915437833
243.79150,2.305049017
243.79200,-0.1365062443
243.79250,-3.798839137
243.79300,-6.850783214
243.79350,-10.2079217
243.79400,-14.78583781
243.79450,-16.92219867
243.79500,-15.39622663
243.79550,-13.25986578
243.79600,-13.87025459
243.79650,-15.09103222
243.79700,-12.64947696
243.79750,-3.798839137
243.79800,10.54529803
243.79850,25.499824
243.79900,32.21410097
243.79950,25.19462959
243.80000,11.15568684
243.80050,1.99985461
243.80100,2.915437833
243.80150,6.577770725
243.80200,5.051798687
243.80250,0.4738825711
243.80300,-1.052089467
243.80350,-0.1365062443
243.80400,1.99985461
243.80450,4.746604279
243.80500,8.408937171
243.80550,9.019325987
243.80600,2.610243425
243.80650,-5.935199991
243.80700,-8.987144068
243.80750,-5.935199991
243.80800,-5.324811175
243.80850,-10.2079217
243.80900,-13.87025459
243.80950,-13.56506018
243.81000,-14.175449
243.81050,-16.61700426
243.81100,-11.42869933
243.81150,6.272576317
243.81200,25.499824
243.81250,28.55176808
243.81300,15.42840855
243.81350,1.694660202
243.81400,-4.409227952
243.81450,-8.071560845
243.81500,-15.09103222
243.81550,-21.19492038
243.81600,-21.80530919
243.81650,-18.44817071
243.81700,-15.70142104
243.81750,-13.56506018
243.81800,-9.902727291
243.81850,-3.188450321
243.81900,7.798548356
243.81950,23.97385196
243.82000,38.62318353
243.82050,42.59071083
243.82100,34.35046183
243.82150,22.44787993
243.82200,14.51282533
243.82250,9.019325987
243.82300,2.610243425
243.82350,-2.272867098
243.82400,-2.883255914
243.82450,-1.052089467
243.82500,-1.357283875
243.82550,-2.883255914
243.82600,-2.272867098
243.82650,0.1686881634
243.82700,1.389465794
243.82750,-0.1365062443
243.82800,-2.272867098
243.82850,-4.104033544
243.82900,-6.545588806
243.82950,-9.292338475
243.83000,-11.42869933
243.83050,-12.03908814
243.83100,-12.34428255
243.83150,-13.56506018
243.83200,-14.78583781
243.83250,-15.70142104
243.83300,-16.61700426
243.83350,-18.44817071
243.83400,-20.27933715
243.83450,-19.66894834
243.83500,-17.53258748
243.83550,-16.00661544
243.83600,-16.00661544
243.83650,-12.34428255
243.83700,-2.272867098
243.83750,7.798548356
243.83800,8.408937171
243.83850,-0.441700652
243.83900,-9.902727291
243.83950,-14.48064341
243.84000,-16.61700426
243.84050,-16.92219867
243.84100,-13.56506018
243.84150,-8.987144068
243.84200,-10.51311611
243.84250,-14.78583781
243.84300,-5.935199991
243.84350,20.31151907
243.84400,45.94784932
243.84450,47.16862695
243.84500,27.94137926
243.84550,9.629714802
243.84600,4.441409871
243.84650,5.662187502
243.84700,5.662187502
243.84750,5.662187502
243.84800,6.882965133
243.84850,6.882965133
243.84900,2.915437833
243.84950,-0.7468950597
243.85000,-1.967672691
243.85050,-2.883255914
243.85100,-4.409227952
243.85150,-5.019616768
243.85200,-4.71442236
243.85250,-5.324811175
243.85300,-7.155977621
243.85350,-7.766366437
243.85400,-6.240394398
243.85450,-5.630005583
243.85500,-6.850783214
243.85550,-6.850783214
243.85600,-4.71442236
243.85650,-3.493644729
243.85700,-3.798839137
243.85750,-3.798839137
243.85800,-2.578061506
243.85850,-0.7468950597
243.85900,-0.1365062443
243.85950,0.1686881634
243.86000,2.305049017
243.86050,4.441409871
243.86100,5.662187502
243.86150,6.577770725
243.86200,8.103742764
243.86250,9.324520394
243.86300,9.324520394
243.86350,8.714131579
243.86400,8.408937171
243.86450,8.408937171
243.86500,8.714131579
243.86550,8.103742764
243.86600,6.272576317
243.86650,3.831021056
243.86700,2.305049017
243.86750,2.305049017
243.86800,2.610243425
243.86850,1.99985461
243.86900,1.389465794
243.86950,1.084271386
243.87000,-0.441700652
243.87050,-3.493644729
243.87100,-4.409227952
243.87150,-1.967672691
243.87200,-0.1365062443
243.87250,-2.272867098
243.87300,-5.324811175
243.87350,-5.324811175
243.87400,-4.104033544
243.87450,-6.240394398
243.87500,-11.42869933
243.87550,-14.78583781
243.87600,-15.70142104
243.87650,-16.31180985
243.87700,-16.61700426
243.87750,-14.175449
243.87800,-11.12350492
243.87850,-11.42869933
243.87900,-10.81831051
243.87950,0.1686881634
243.88000,20.92190789
243.88050,35.57123946
243.88100,32.21410097
243.88150,17.5647694
243.88200,6.577770725
243.88250,1.694660202
243.88300,-2.272867098
243.88350,-7.155977621
243.88400,-6.240394398
243.88450,3.831021056
243.88500,17.86996381
243.88550,25.499824
243.88600,23.05826874
243.88650,13.5972421
243.88700,5.96738191
243.88750,8.714131579
243.88800,21.5322967
243.88850,34.04526742
243.88900,34.96085064
243.88950,24.27904637
243.89000,11.15568684
243.89050,3.525826648
243.89100,0.7790769788
243.89150,-0.7468950597
243.89200,-1.967672691
243.89250,-1.052089467
243.89300,0.4738825711
243.89350,-0.1365062443
243.89400,-1.967672691
243.89450,-2.883255914
243.89500,-1.052089467
243.89550,-0.1365062443
243.89600,-1.662478283
243.89650,-5.324811175
243.89700,-8.376755252
243.89750,-10.51311611
243.89800,-12.03908814
243.89850,-12.03908814
243.89900,-8.987144068
243.89950,-5.019616768
243.90000,-1.967672691
243.90050,1.694660202
243.90100,8.714131579
243.90150,15.73360296
243.90200,17.5647694
243.90250,15.12321414
243.90300,12.68165888
243.90350,12.07127006
243.90400,9.629714802
243.90450,4.746604279
243.90500,2.915437833
243.90550,4.441409871
243.90600,1.99985461
243.90650,-8.376755252
243.90700,-20.58453156
243.90750,-24.24686445
243.90800,-18.75336511
243.90850,-12.03908814
243.90900,-9.597532883
243.90950,-10.2079217
243.91000,-9.902727291
243.91050,-8.376755252
243.91100,-7.461172029
243.91150,-7.766366437
243.91200,-8.987144068
243.91250,-8.68194966
243.91300,-6.850783214
243.91350,-6.240394398
243.91400,-8.68194966
243.91450,-11.73389374
243.91500,-13.87025459
243.91550,-16.61700426
243.91600,-20.27933715
243.91650,-22.1105036
243.91700,-20.58453156
243.91750,-20.88972597
243.91800,-26.0780309
243.91850,-26.99361412
243.91900,-14.175449
243.91950,5.051798687
243.92000,13.90243651
243.92050,11.46088125
243.92100,15.42840855
243.92150,31.90890656
243.92200,43.50629406
243.92250,33.4348786
243.92300,9.629714802
243.92350,-7.461172029
243.92400,-12.34428255
243.92450,-10.81831051
243.92500,-5.324811175
243.92550,5.051798687
243.92600,13.29204769
243.92650,9.93490921
243.92700,1.389465794
243.92750,4.441409871
243.92800,20.61671348
243.92850,31.29851775
243.92900,24.27904637
243.92950,8.103742764
243.93000,-1.357283875
243.93050,-5.019616768
243.93100,-11.12350492
243.93150,-18.1429763
243.93200,-16.00661544
243.93250,-5.935199991
243.93300,-0.441700652
243.93350,-5.324811175
243.93400,-10.81831051
243.93450,-6.545588806
243.93500,1.694660202
243.93550,3.22063224
243.93600,-2.272867098
243.93650,-6.545588806
243.93700,-5.324811175
243.93750,-3.798839137
243.93800,-5.935199991
243.93850,-7.766366437
243.93900,-6.545588806
243.93950,-4.409227952
243.94000,-4.409227952
243.94050,-4.71442236
243.94100,-2.272867098
243.94150,0.7790769788
243.94200,1.99985461
243.94250,1.694660202
243.94300,1.99985461
243.94350,2.915437833
243.94400,3.525826648
243.94450,2.915437833
243.94500,2.610243425
243.94550,2.915437833
243.94600,3.525826648
243.94650,3.831021056
243.94700,3.525826648
243.94750,2.305049017
243.94800,-0.1365062443
243.94850,-1.662478283
243.94900,-2.578061506
243.94950,-2.578061506
243.95000,-2.883255914
243.95050,-2.883255914
243.95100,-1.967672691
243.95150,-1.052089467
243.95200,-1.357283875
243.95250,-2.272867098
243.95300,-3.188450321
243.95350,-3.798839137
243.95400,-3.798839137
243.95450,-2.272867098
243.95500,-0.7468950597
243.95550,-1.662478283
243.95600,-5.630005583
243.95650,-8.376755252
243.95700,-7.155977621
243.95750,-2.883255914
243.95800,0.1686881634
243.95850,0.4738825711
243.95900,-0.1365062443
243.95950,0.7790769788
243.96000,2.610243425
243.96050,2.915437833
243.96100,1.389465794
243.96150,-0.441700652
243.96200,-0.7468950597
243.96250,1.084271386
243.96300,3.22063224
243.96350,3.525826648
243.96400,2.610243425
243.96450,2.610243425
243.96500,3.831021056
243.96550,5.051798687
243.96600,5.356993094
243.96650,4.746604279
243.96700,5.051798687
243.96750,5.356993094
243.96800,3.831021056
243.96850,0.4738825711
243.96900,-2.272867098
243.96950,-3.798839137
243.97000,-5.019616768
243.97050,-6.850783214
243.97100,-8.376755252
243.97150,-8.68194966
243.97200,-8.68194966
243.97250,-8.987144068
243.97300,-9.597532883
243.97350,-9.902727291
243.97400,-9.597532883
243.97450,-9.597532883
243.97500,-8.68194966
243.97550,-7.155977621
243.97600,-5.019616768
243.97650,-3.188450321
243.97700,-0.7468950597
243.97750,1.99985461
243.97800,3.22063224
243.97850,2.915437833
243.97900,3.831021056
243.97950,6.272576317
243.98000,9.019325987
243.98050,9.324520394
243.98100,9.324520394
243.98150,10.85049243
243.98200,10.54529803
243.98250,7.188159541
243.98300,2.610243425
243.98350,0.7790769788
243.98400,1.389465794
243.98450,1.389465794
243.98500,0.4738825711
243.98550,0.7790769788
243.98600,0.7790769788
243.98650,0.4738825711
243.98700,4.746604279
243.98750,15.73360296
243.98800,26.11021282
243.98850,25.80501841
243.98900,15.73360296
243.98950,6.272576317
243.99000,1.084271386
243.99050,-1.662478283
243.99100,-4.104033544
243.99150,-2.883255914
243.99200,-1.052089467
243.99250,-4.104033544
243.99300,-11.12350492
243.99350,-15.70142104
243.99400,-16.31180985
243.99450,-16.92219867
243.99500,-17.53258748
243.99550,-14.78583781
243.99600,-10.81831051
243.99650,-11.73389374
243.99700,-10.81831051
243.99750,4.136215463
243.99800,29.77254571
243.99850,42.28551643
243.99900,29.4673513
243.99950,6.577770725
244.00000,-3.493644729
244.00050,-0.1365062443
244.00100,5.356993094
244.00150,5.662187502
244.00200,4.441409871
244.00250,4.136215463
244.00300,2.610243425
244.00350,0.1686881634
244.00400,-0.7468950597
244.00450,-1.357283875
244.00500,-1.662478283
244.00550,-0.441700652
244.00600,2.305049017
244.00650,3.22063224
244.00700,1.389465794
244.00750,0.7790769788
244.00800,4.441409871
244.00850,9.019325987
244.00900,9.019325987
244.00950,5.662187502
244.01000,2.610243425
244.01050,0.4738825711
244.01100,-1.357283875
244.01150,-3.798839137
244.01200,-5.019616768
244.01250,-7.155977621
244.01300,-10.51311611
244.01350,-13.56506018
244.01400,-14.78583781
244.01450,-13.25986578
244.01500,-11.42869933
244.01550,-10.81831051
244.01600,-12.34428255
244.01650,-13.56506018
244.01700,-11.12350492
244.01750,-5.630005583
244.01800,-2.578061506
244.01850,-4.409227952
244.01900,-6.545588806
244.01950,-5.630005583
244.02000,-4.71442236
244.02050,-6.240394398
244.02100,-5.019616768
244.02150,4.136215463
244.02200,16.95438059
244.02250,23.05826874
244.02300,20.61671348
244.02350,15.42840855
244.02400,8.714131579
244.02450,-1.357283875
244.02500,-9.292338475
244.02550,-5.324811175
244.02600,5.96738191
244.02650,11.15568684
244.02700,6.577770725
244.02750,5.96738191
244.02800,17.86996381
244.02850,30.38293453
244.02900,28.85696249
244.02950,14.81801973
244.03000,2.305049017
244.03050,-2.272867098
244.03100,-4.409227952
244.03150,-8.071560845
244.03200,-11.73389374
244.03250,-12.34428255
244.03300,-11.73389374
244.03350,-12.03908814
244.03400,-13.56506018
244.03450,-14.48064341
244.03500,-13.87025459
244.03550,-12.64947696
244.03600,-12.64947696
244.03650,-12.34428255
244.03700,-11.12350492
244.03750,-10.51311611
244.03800,-12.34428255
244.03850,-13.25986578
244.03900,-6.240394398
244.03950,9.019325987
244.04000,22.14268552
244.04050,23.05826874
244.04100,13.90243651
244.04150,5.356993094
244.04200,2.915437833
244.04250,2.610243425
244.04300,1.99985461
244.04350,1.99985461
244.04400,3.525826648
244.04450,4.136215463
244.04500,3.22063224
244.04550,1.694660202
244.04600,1.389465794
244.04650,0.4738825711
244.04700,-1.662478283
244.04750,-4.409227952
244.04800,-6.545588806
244.04850,-7.766366437
244.04900,-8.376755252
244.04950,-7.766366437
244.05000,-6.545588806
244.05050,-6.545588806
244.05100,-6.850783214
244.05150,-5.630005583
244.05200,-4.409227952
244.05250,-5.019616768
244.05300,-7.461172029
244.05350,-8.071560845
244.05400,-6.240394398
244.05450,-3.798839137
244.05500,-3.493644729
244.05550,-4.71442236
244.05600,-6.240394398
244.05650,-6.240394398
244.05700,-4.71442236
244.05750,-2.272867098
244.05800,-0.1365062443
244.05850,0.7790769788
244.05900,1.694660202
244.05950,2.915437833
244.06000,3.831021056
244.06050,3.831021056
244.06100,3.525826648
244.06150,4.136215463
244.06200,5.051798687
244.06250,5.356993094
244.06300,4.746604279
244.06350,4.746604279
244.06400,5.356993094
244.06450,4.441409871
244.06500,3.525826648
244.06550,3.525826648
244.06600,5.356993094
244.06650,6.272576317
244.06700,4.746604279
244.06750,2.305049017
244.06800,1.694660202
244.06850,1.99985461
244.06900,1.99985461
244.06950,0.4738825711
244.07000,-1.052089467
244.07050,-3.188450321
244.07100,-5.019616768
244.07150,-5.630005583
244.07200,-5.630005583
244.07250,-7.155977621
244.07300,-9.902727291
244.07350,-12.95467137
244.07400,-14.78583781
244.07450,-15.70142104
244.07500,-16.31180985
244.07550,-16.00661544
244.07600,-15.09103222
244.07650,-13.87025459
244.07700,-12.34428255
244.07750,-5.630005583
244.07800,7.188159541
244.07850,21.22710229
244.07900,27.33099045
244.07950,23.05826874
244.08000,14.81801973
244.08050,9.324520394
244.08100,8.103742764
244.08150,8.408937171
244.08200,8.714131579
244.08250,8.408937171
244.08300,8.103742764
244.08350,8.714131579
244.08400,9.019325987
244.08450,6.577770725
244.08500,1.694660202
244.08550,-2.272867098
244.08600,-3.798839137
244.08650,-2.578061506
244.08700,-1.662478283
244.08750,-0.441700652
244.08800,2.305049017
244.08850,5.96738191
244.08900,6.882965133
244.08950,5.051798687
244.09000,2.915437833
244.09050,1.084271386
244.09100,-0.1365062443
244.09150,-0.1365062443
244.09200,1.694660202
244.09250,1.084271386
244.09300,-5.630005583
244.09350,-16.00661544
244.09400,-21.50011478
244.09450,-17.83778189
244.09500,-11.73389374
244.09550,-8.376755252
244.09600,-7.155977621
244.09650,-5.935199991
244.09700,-4.71442236
244.09750,-4.104033544
244.09800,-2.272867098
244.09850,1.389465794
244.09900,5.662187502
244.09950,7.798548356
244.10000,9.019325987
244.10050,9.93490921
244.10100,10.24010362
244.10150,9.93490921
244.10200,10.54529803
244.10250,10.85049243
244.10300,7.188159541
244.10350,0.4738825711
244.10400,-4.104033544
244.10450,-2.883255914
244.10500,1.389465794
244.10550,5.662187502
244.10600,9.324520394
244.10650,11.76607566
244.10700,9.93490921
244.10750,5.051798687
244.10800,1.99985461
244.10850,3.525826648
244.10900,4.746604279
244.10950,0.1686881634
244.11000,-7.155977621
244.11050,-10.2079217
244.11100,-8.376755252
244.11150,-6.545588806
244.11200,-6.850783214
244.11250,-8.071560845
244.11300,-8.376755252
244.11350,-7.461172029
244.11400,-5.935199991
244.11450,-5.019616768
244.11500,-5.630005583
244.11550,-6.850783214
244.11600,-6.240394398
244.11650,-4.104033544
244.11700,-3.188450321
244.11750,-2.883255914
244.11800,-1.967672691
244.11850,-0.7468950597
244.11900,-1.662478283
244.11950,-4.104033544
244.12000,-5.019616768
244.12050,-5.630005583
244.12100,-9.902727291
244.12150,-16.00661544
244.12200,-18.44817071
244.12250,-17.83778189
244.12300,-19.05855952
244.12350,-18.75336511
244.12400,-7.155977621
244.12450,15.73360296
244.12500,36.18162827
244.12550,44.42187728
244.12600,45.0322661
244.12650,44.11668287
244.12700,38.01279472
244.12750,21.83749111
244.12800,3.525826648
244.12850,-4.71442236
244.12900,-3.493644729
244.12950,-1.967672691
244.13000,-4.104033544
244.13050,-6.545588806
244.13100,-6.850783214
244.13150,-3.493644729
244.13200,5.356993094
244.13250,18.17515822
244.13300,25.499824
244.13350,20.31151907
244.13400,6.577770725
244.13450,-4.104033544
244.13500,-6.850783214
244.13550,-6.240394398
244.13600,-6.545588806
244.13650,-6.545588806
244.13700,-5.630005583
244.13750,-5.019616768
244.13800,-5.630005583
244.13850,-5.324811175
244.13900,-4.409227952
244.13950,-3.493644729
244.14000,-3.798839137
244.14050,-3.798839137
244.14100,-2.883255914
244.14150,-2.883255914
244.14200,-4.104033544
244.14250,-3.798839137
244.14300,-1.357283875
244.14350,0.1686881634
244.14400,0.7790769788
244.14450,1.694660202
244.14500,2.305049017
244.14550,1.084271386
244.14600,-1.967672691
244.14650,-5.019616768
244.14700,-6.850783214
244.14750,-10.81831051
244.14800,-16.92219867
244.14850,-19.66894834
244.14900,-17.83778189
244.14950,-18.1429763
244.15000,-24.55205886
244.15050,-28.51958616
244.15100,-22.41569801
244.15150,-11.73389374
244.15200,-7.461172029
244.15250,-7.766366437
244.15300,-2.578061506
244.15350,8.103742764
244.15400,13.29204769
244.15450,9.324520394
244.15500,7.493353948
244.15550,15.73360296
244.15600,24.88943519
244.15650,23.97385196
244.15700,14.51282533
244.15750,6.577770725
244.15800,4.136215463
244.15850,2.915437833
244.15900,1.389465794
244.15950,0.7790769788
244.16000,1.99985461
244.16050,2.610243425
244.16100,1.99985461
244.16150,2.305049017
244.16200,4.136215463
244.16250,5.051798687
244.16300,4.441409871
244.16350,3.525826648
244.16400,3.525826648
244.16450,3.525826648
244.16500,2.610243425
244.16550,1.389465794
244.16600,0.4738825711
244.16650,0.4738825711
244.16700,0.4738825711
244.16750,-0.1365062443
244.16800,-1.357283875
244.16850,-2.883255914
244.16900,-3.493644729
244.16950,-3.798839137
244.17000,-4.71442236
244.17050,-6.545588806
244.17100,-9.597532883
244.17150,-12.03908814
244.17200,-12.64947696
244.17250,-11.73389374
244.17300,-10.81831051
244.17350,-10.81831051
244.17400,-11.12350492
244.17450,-10.81831051
244.17500,-10.51311611
244.17550,-10.81831051
244.17600,-10.81831051
244.17650,-8.68194966
244.17700,-6.240394398
244.17750,-4.71442236
244.17800,-4.409227952
244.17850,-3.188450321
244.17900,-0.1365062443
244.17950,2.610243425
244.18000,3.525826648
244.18050,3.525826648
244.18100,5.051798687
244.18150,8.103742764
244.18200,10.54529803
244.18250,11.46088125
244.18300,11.46088125
244.18350,10.54529803
244.18400,8.714131579
244.18450,5.662187502
244.18500,4.441409871
244.18550,6.882965133
244.18600,10.85049243
244.18650,10.85049243
244.18700,5.662187502
244.18750,1.084271386
244.18800,1.084271386
244.18850,4.746604279
244.18900,7.798548356
244.18950,9.324520394
244.19000,9.324520394
244.19050,4.441409871
244.19100,-8.071560845
244.19150,-21.80530919
244.19200,-25.46764208
244.19250,-17.53258748
244.19300,-8.071560845
244.19350,-4.104033544
244.19400,-2.883255914
244.19450,-0.1365062443
244.19500,-0.441700652
244.19550,-7.155977621
244.19600,-14.48064341
244.19650,-13.87025459
244.19700,-7.461172029
244.19750,-3.188450321
244.19800,-3.188450321
244.19850,-4.409227952
244.19900,-8.071560845
244.19950,-17.22739308
244.20000,-24.24686445
244.20050,-15.39622663
244.20100,7.798548356
244.20150,30.99332334
244.20200,41.67512761
244.20250,43.81148846
244.20300,44.11668287
244.20350,39.84396116
244.20400,28.55176808
244.20450,14.51282533
244.20500,5.356993094
244.20550,1.99985461
244.20600,0.7790769788
244.20650,1.084271386
244.20700,0.7790769788
244.20750,-1.662478283
244.20800,-5.324811175
244.20850,-2.272867098
244.20900,8.714131579
244.20950,18.17515822
244.21000,14.81801973
244.21050,3.22063224
244.21100,-5.019616768
244.21150,-6.240394398
244.21200,-6.240394398
244.21250,-6.850783214
244.21300,-3.188450321
244.21350,6.577770725
244.21400,15.42840855
244.21450,14.81801973
244.21500,5.356993094
244.21550,-4.409227952
244.21600,-8.071560845
244.21650,-5.324811175
244.21700,-2.272867098
244.21750,-1.967672691
244.21800,-2.883255914
244.21850,-2.272867098
244.21900,-0.1365062443
244.21950,0.1686881634
244.22000,-1.052089467
244.22050,-1.967672691
244.22100,-0.7468950597
244.22150,0.7790769788
244.22200,1.694660202
244.22250,2.610243425
244.22300,4.136215463
244.22350,4.441409871
244.22400,2.915437833
244.22450,1.694660202
244.22500,1.99985461
244.22550,2.305049017
244.22600,0.1686881634
244.22650,-2.883255914
244.22700,-4.104033544
244.22750,-2.883255914
244.22800,-1.357283875
244.22850,-2.272867098
244.22900,-5.935199991
244.22950,-11.12350492
244.23000,-15.39622663
244.23050,-17.83778189
244.23100,-19.05855952
244.23150,-20.27933715
244.23200,-22.1105036
244.23250,-23.94167005
244.23300,-26.68841971
244.23350,-27.90919735
244.23400,-21.80530919
244.23450,-6.545588806
244.23500,5.662187502
244.23550,2.610243425
244.23600,-10.2079217
244.23650,-11.73389374
244.23700,6.882965133
244.23750,31.60371216
244.23800,39.84396116
244.23850,29.4673513
244.23900,14.81801973
244.23950,8.103742764
244.24000,7.188159541
244.24050,5.96738191
244.24100,2.305049017
244.24150,-1.357283875
244.24200,-4.104033544
244.24250,-6.545588806
244.24300,-9.597532883
244.24350,-11.73389374
244.24400,-10.2079217
244.24450,-8.071560845
244.24500,-9.902727291
244.24550,-15.09103222
244.24600,-10.81831051
244.24650,10.85049243
244.24700,38.62318353
244.24750,49.91537662
244.24800,37.4024059
244.24850,16.03879736
244.24900,3.525826648
244.24950,1.389465794
244.25000,-0.1365062443
244.25050,-4.104033544
244.25100,-8.987144068
244.25150,-11.73389374
244.25200,-13.25986578
244.25250,-13.56506018
244.25300,-12.64947696
244.25350,-12.03908814
244.25400,-12.64947696
244.25450,-12.64947696
244.25500,-11.42869933
244.25550,-10.51311611
244.25600,-11.73389374
244.25650,-12.03908814
244.25700,-9.292338475
244.25750,-4.104033544
244.25800,-0.441700652
244.25850,1.99985461
244.25900,4.746604279
244.25950,6.272576317
244.26000,5.662187502
244.26050,4.441409871
244.26100,4.441409871
244.26150,5.662187502
244.26200,6.272576317
244.26250,5.662187502
244.26300,5.96738191
244.26350,6.882965133
244.26400,6.272576317
244.26450,4.136215463
244.26500,2.915437833
244.26550,2.915437833
244.26600,2.610243425
244.26650,1.084271386
244.26700,-0.441700652
244.26750,-1.052089467
244.26800,-0.7468950597
244.26850,-1.662478283
244.26900,-3.798839137
244.26950,-5.324811175
244.27000,-5.935199991
244.27050,-5.935199991
244.27100,-5.935199991
244.27150,-5.324811175
244.27200,-4.409227952
244.27250,-3.493644729
244.27300,-2.883255914
244.27350,-2.883255914
244.27400,-2.883255914
244.27450,-3.188450321
244.27500,-3.798839137
244.27550,-3.493644729
244.27600,-1.967672691
244.27650,-0.441700652
244.27700,0.4738825711
244.27750,1.694660202
244.27800,3.831021056
244.27850,5.356993094
244.27900,5.051798687
244.27950,4.441409871
244.28000,4.746604279
244.28050,5.051798687
244.28100,4.136215463
244.28150,4.746604279
244.28200,7.188159541
244.28250,6.882965133
244.28300,-0.1365062443
244.28350,-10.81831051
244.28400,-16.00661544
244.28450,-11.73389374
244.28500,-4.104033544
244.28550,-0.1365062443
244.28600,0.1686881634
244.28650,0.1686881634
244.28700,1.084271386
244.28750,1.389465794
244.28800,0.7790769788
244.28850,0.4738825711
244.28900,0.1686881634
244.28950,-0.7468950597
244.29000,-2.578061506
244.29050,-4.409227952
244.29100,-6.850783214
244.29150,-9.292338475
244.29200,-10.2079217
244.29250,-8.071560845
244.29300,-4.409227952
244.29350,-1.052089467
244.29400,0.7790769788
244.29450,0.1686881634
244.29500,-2.578061506
244.29550,-5.935199991
244.29600,-6.850783214
244.29650,-5.019616768
244.29700,-2.883255914
244.29750,-2.578061506
244.29800,-2.578061506
244.29850,-1.967672691
244.29900,-1.052089467
244.29950,-0.7468950597
244.30000,0.4738825711
244.30050,2.610243425
244.30100,2.305049017
244.30150,-1.662478283
244.30200,-5.630005583
244.30250,-4.409227952
244.30300,0.1686881634
244.30350,3.831021056
244.30400,4.746604279
244.30450,6.577770725
244.30500,11.46088125
244.30550,15.42840855
244.30600,13.29204769
244.30650,6.882965133
244.30700,1.694660202
244.30750,-0.7468950597
244.30800,-5.019616768
244.30850,-13.25986578
244.30900,-17.83778189
244.30950,-10.51311611
244.31000,6.882965133
244.31050,23.05826874
244.31100,26.41540723
244.31150,17.5647694
244.31200,5.662187502
244.31250,-0.441700652
244.31300,0.4738825711
244.31350,5.356993094
244.31400,9.324520394
244.31450,8.103742764
244.31500,0.7790769788
244.31550,-8.68194966
244.31600,-15.09103222
244.31650,-15.70142104
244.31700,-13.56506018
244.31750,-13.56506018
244.31800,-14.175449
244.31850,-10.51311611
244.31900,1.084271386
244.31950,15.42840855
244.32000,21.83749111
244.32050,15.73360296
244.32100,5.051798687
244.32150,2.610243425
244.32200,10.54529803
244.32250,20.00632466
244.32300,23.05826874
244.32350,19.09074144
244.32400,12.07127006
244.32450,3.831021056
244.32500,-5.324811175
244.32550,-13.56506018
244.32600,-17.22739308
244.32650,-16.61700426
244.32700,-13.87025459
244.32750,-12.03908814
244.32800,-13.25986578
244.32850,-14.78583781
244.32900,-11.12350492
244.32950,0.1686881634
244.33000,13.29204769
244.33050,18.17515822
244.33100,11.76607566
244.33150,2.305049017
244.33200,-2.883255914
244.33250,-5.019616768
244.33300,-7.155977621
244.33350,-7.766366437
244.33400,-5.019616768
244.33450,-2.272867098
244.33500,-3.188450321
244.33550,-5.935199991
244.33600,-6.240394398
244.33650,-4.409227952
244.33700,-3.493644729
244.33750,-3.798839137
244.33800,-3.798839137
244.33850,-2.578061506
244.33900,-0.441700652
244.33950,2.305049017
244.34000,5.96738191
244.34050,7.493353948
244.34100,5.356993094
244.34150,2.305049017
244.34200,1.389465794
244.34250,0.4738825711
244.34300,-0.441700652
244.34350,-0.7468950597
244.34400,-0.441700652
244.34450,-4.104033544
244.34500,-11.73389374
244.34550,-12.34428255
244.34600,-0.1365062443
244.34650,15.73360296
244.34700,19.39593585
244.34750,10.24010362
244.34800,0.4738825711
244.34850,-1.967672691
244.34900,-1.357283875
244.34950,-2.883255914
244.35000,-4.71442236
244.35050,-4.71442236
244.35100,-5.324811175
244.35150,-8.987144068
244.35200,-13.87025459
244.35250,-17.53258748
244.35300,-19.36375393
244.35350,-19.97414274
244.35400,-19.36375393
244.35450,-19.66894834
244.35500,-21.80530919
244.35550,-18.75336511
244.35600,-2.578061506
244.35650,21.83749111
244.35700,37.4024059
244.35750,33.1296842
244.35800,17.25957499
244.35850,5.356993094
244.35900,1.99985461
244.35950,1.389465794
244.36000,-0.1365062443
244.36050,-0.1365062443
244.36100,1.389465794
244.36150,2.610243425
244.36200,3.22063224
244.36250,8.103742764
244.36300,16.95438059
244.36350,23.05826874
244.36400,21.83749111
244.36450,16.64918618
244.36500,13.29204769
244.36550,10.24010362
244.36600,5.051798687
244.36650,-0.441700652
244.36700,-2.883255914
244.36750,-3.798839137
244.36800,-6.240394398
244.36850,-9.597532883
244.36900,-9.597532883
244.36950,-7.766366437
244.37000,-10.2079217
244.37050,-15.09103222
244.37100,-10.51311611
244.37150,5.96738191
244.37200,21.5322967
244.37250,21.5322967
244.37300,8.103742764
244.37350,-2.578061506
244.37400,-3.798839137
244.37450,-0.1365062443
244.37500,2.915437833
244.37550,4.441409871
244.37600,5.96738191
244.37650,5.96738191
244.37700,4.746604279
244.37750,4.441409871
244.37800,4.746604279
244.37850,4.136215463
244.37900,2.610243425
244.37950,1.99985461
244.38000,1.99985461
244.38050,1.99985461
244.38100,1.99985461
244.38150,3.22063224
244.38200,4.136215463
244.38250,1.99985461
244.38300,-2.883255914
244.38350,-7.155977621
244.38400,-8.68194966
244.38450,-7.766366437
244.38500,-6.240394398
244.38550,-5.324811175
244.38600,-5.019616768
244.38650,-5.324811175
244.38700,-1.662478283
244.38750,8.103742764
244.38800,20.92190789
244.38850,27.33099045
244.38900,22.44787993
244.38950,10.85049243
244.39000,0.4738825711
244.39050,-5.935199991
244.39100,-10.81831051
244.39150,-14.48064341
244.39200,-15.39622663
244.39250,-12.95467137
244.39300,-10.2079217
244.39350,-9.902727291
244.39400,-9.902727291
244.39450,-7.461172029
244.39500,-4.409227952
244.39550,-3.493644729
244.39600,-4.71442236
244.39650,-5.019616768
244.39700,-3.798839137
244.39750,-3.493644729
244.39800,-4.409227952
244.39850,-4.104033544
244.39900,-3.188450321
244.39950,-2.578061506
244.40000,-1.662478283
244.40050,0.4738825711
244.40100,2.305049017
244.40150,-0.441700652
244.40200,-6.545588806
244.40250,-9.902727291
244.40300,-8.376755252
244.40350,-5.630005583
244.40400,-1.662478283
244.40450,7.493353948
244.40500,19.70113026
244.40550,25.499824
244.40600,20.92190789
244.40650,15.42840855
244.40700,16.95438059
244.40750,21.22710229
244.40800,19.09074144
244.40850,9.324520394
244.40900,-0.1365062443
244.40950,-4.104033544
244.41000,-5.935199991
244.41050,-6.850783214
244.41100,-6.240394398
244.41150,-5.019616768
244.41200,-5.630005583
244.41250,-8.071560845
244.41300,-10.2079217
244.41350,-10.51311611
244.41400,-10.81831051
244.41450,-12.64947696
244.41500,-15.39622663
244.41550,-16.92219867
244.41600,-17.53258748
244.41650,-17.83778189
244.41700,-17.53258748
244.41750,-15.70142104
244.41800,-13.25986578
244.41850,-11.12350492
244.41900,-7.461172029
244.41950,0.7790769788
244.42000,14.51282533
244.42050,25.80501841
244.42100,27.33099045
244.42150,20.31151907
244.42200,12.37646447
244.42250,9.93490921
244.42300,10.24010362
244.42350,8.103742764
244.42400,3.831021056
244.42450,1.084271386
244.42500,0.1686881634
244.42550,-0.7468950597
244.42600,-1.662478283
244.42650,-0.1365062443
244.42700,3.22063224
244.42750,5.662187502
244.42800,4.136215463
244.42850,0.7790769788
244.42900,-1.662478283
244.42950,-3.493644729
244.43000,-5.324811175
244.43050,-6.850783214
244.43100,-7.766366437
244.43150,-8.68194966
244.43200,-9.597532883
244.43250,-9.902727291
244.43300,-8.987144068
244.43350,-8.68194966
244.43400,-9.902727291
244.43450,-10.81831051
244.43500,-9.902727291
244.43550,-7.461172029
244.43600,-5.935199991
244.43650,-5.324811175
244.43700,-4.409227952
244.43750,-2.578061506
244.43800,-1.662478283
244.43850,-1.662478283
244.43900,-1.662478283
244.43950,-0.1365062443
244.44000,2.305049017
244.44050,3.22063224
244.44100,2.915437833
244.44150,2.305049017
244.44200,2.305049017
244.44250,2.915437833
244.44300,4.136215463
244.44350,5.356993094
244.44400,5.662187502
244.44450,5.356993094
244.44500,4.746604279
244.44550,5.051798687
244.44600,4.746604279
244.44650,3.525826648
244.44700,1.99985461
244.44750,1.084271386
244.44800,0.7790769788
244.44850,0.1686881634
244.44900,-0.1365062443
244.44950,-0.7468950597
244.45000,-1.967672691
244.45050,-3.493644729
244.45100,-4.409227952
244.45150,-3.798839137
244.45200,-2.883255914
244.45250,-3.188450321
244.45300,-4.71442236
244.45350,-4.409227952
244.45400,-3.188450321
244.45450,-2.883255914
244.45500,-4.409227952
244.45550,-4.71442236
244.45600,-2.883255914
244.45650,-0.441700652
244.45700,-0.1365062443
244.45750,-1.662478283
244.45800,-3.493644729
244.45850,-5.324811175
244.45900,-6.850783214
244.45950,-6.850783214
244.46000,-5.630005583
244.46050,-5.019616768
244.46100,-5.935199991
244.46150,-3.798839137
244.46200,5.662187502
244.46250,19.39593585
244.46300,26.41540723
244.46350,22.44787993
244.46400,13.5972421
244.46450,8.714131579
244.46500,7.798548356
244.46550,4.746604279
244.46600,-1.662478283
244.46650,-5.324811175
244.46700,-3.493644729
244.46750,-0.7468950597
244.46800,-1.357283875
244.46850,-2.272867098
244.46900,-0.1365062443
244.46950,1.99985461
244.47000,-2.883255914
244.47050,-14.78583781
244.47100,-23.94167005
244.47150,-24.55205886
244.47200,-19.36375393
244.47250,-16.92219867
244.47300,-20.88972597
244.47350,-26.99361412
244.47400,-29.43516938
244.47450,-25.46764208
244.47500,-17.83778189
244.47550,-12.64947696
244.47600,-11.73389374
244.47650,-12.64947696
244.47700,-11.12350492
244.47750,-8.68194966
244.47800,-5.935199991
244.47850,0.1686881634
244.47900,13.5972421
244.47950,28.55176808
244.48000,35.26604505
244.48050,30.99332334
244.48100,22.44787993
244.48150,16.64918618
244.48200,13.90243651
244.48250,12.68165888
244.48300,12.98685329
244.48350,13.29204769
244.48400,10.85049243
244.48450,6.882965133
244.48500,5.051798687
244.48550,4.746604279
244.48600,1.084271386
244.48650,-5.935199991
244.48700,-11.12350492
244.48750,-11.73389374
244.48800,-12.03908814
244.48850,-14.175449
244.48900,-16.61700426
244.48950,-18.44817071
244.49000,-20.88972597
244.49050,-18.1429763
244.49100,-0.1365062443
244.49150,28.24657367
244.49200,47.77901576
244.49250,43.81148846
244.49300,27.94137926
244.49350,20.61671348
244.49400,23.97385196
244.49450,23.97385196
244.49500,14.20763092
244.49550,2.610243425
244.49600,-1.662478283
244.49650,-0.7468950597
244.49700,1.084271386
244.49750,2.915437833
244.49800,3.831021056
244.49850,3.525826648
244.49900,2.915437833
244.49950,4.136215463
244.50000,5.356993094
244.50050,3.525826648
244.50100,0.7790769788
244.50150,0.4738825711
244.50200,1.389465794
244.50250,0.4738825711
244.50300,-0.7468950597
244.50350,0.1686881634
244.50400,2.305049017
244.50450,-0.1365062443
244.50500,-5.630005583
244.50550,-5.630005583
244.50600,1.99985461
244.50650,10.54529803
244.50700,12.68165888
244.50750,9.324520394
244.50800,5.051798687
244.50850,2.305049017
244.50900,0.7790769788
244.50950,1.694660202
244.51000,3.831021056
244.51050,3.831021056
244.51100,-0.1365062443
244.51150,-6.850783214
244.51200,-12.64947696
244.51250,-15.70142104
244.51300,-16.92219867
244.51350,-17.22739308
244.51400,-17.22739308
244.51450,-14.78583781
244.51500,-8.071560845
244.51550,1.694660202
244.51600,8.103742764
244.51650,7.188159541
244.51700,0.4738825711
244.51750,-5.324811175
244.51800,-8.376755252
244.51850,-7.766366437
244.51900,-4.71442236
244.51950,-1.052089467
244.52000,1.99985461
244.52050,5.662187502
244.52100,12.98685329
244.52150,22.14268552
244.52200,25.499824
244.52250,19.70113026
244.52300,10.24010362
244.52350,4.441409871
244.52400,2.305049017
244.52450,0.1686881634
244.52500,-1.052089467
244.52550,0.7790769788
244.52600,4.746604279
244.52650,5.662187502
244.52700,3.22063224
244.52750,0.7790769788
244.52800,-0.1365062443
244.52850,-1.662478283
244.52900,-4.104033544
244.52950,-5.935199991
244.53000,-6.850783214
244.53050,-7.461172029
244.53100,-7.155977621
244.53150,-4.71442236
244.53200,-3.188450321
244.53250,-4.409227952
244.53300,-6.545588806
244.53350,-6.545588806
244.53400,-6.240394398
244.53450,-7.155977621
244.53500,-7.461172029
244.53550,-5.019616768
244.53600,-4.104033544
244.53650,-9.597532883
244.53700,-17.22739308
244.53750,-18.1429763
244.53800,-10.81831051
244.53850,-3.493644729
244.53900,-0.441700652
244.53950,0.1686881634
244.54000,2.305049017
244.54050,3.831021056
244.54100,3.525826648
244.54150,3.525826648
244.54200,5.356993094
244.54250,5.96738191
244.54300,4.746604279
244.54350,3.831021056
244.54400,5.356993094
244.54450,7.493353948
244.54500,8.408937171
244.54550,9.019325987
244.54600,8.714131579
244.54650,5.662187502
244.54700,-0.441700652
244.54750,-6.545588806
244.54800,-8.071560845
244.54850,-5.630005583
244.54900,-3.493644729
244.54950,-3.493644729
244.55000,-5.324811175
244.55050,-6.850783214
244.55100,-6.850783214
244.55150,-6.850783214
244.55200,-7.461172029
244.55250,-8.987144068
244.55300,-10.51311611
244.55350,-10.51311611
244.55400,-10.2079217
244.55450,-9.292338475
244.55500,-7.766366437
244.55550,-5.935199991
244.55600,-5.935199991
244.55650,-7.461172029
244.55700,-6.850783214
244.55750,-3.798839137
244.55800,-0.7468950597
244.55850,0.4738825711
244.55900,2.915437833
244.55950,6.272576317
244.56000,6.272576317
244.56050,1.389465794
244.56100,-3.493644729
244.56150,-5.324811175
244.56200,-5.019616768
244.56250,-4.104033544
244.56300,-2.272867098
244.56350,-2.578061506
244.56400,-8.987144068
244.56450,-15.09103222
244.56500,-3.798839137
244.56550,27.94137926
244.56600,57.85043122
244.56650,59.98679207
244.56700,37.70760031
244.56750,15.42840855
244.56800,7.798548356
244.56850,7.798548356
244.56900,4.136215463
244.56950,-1.357283875
244.57000,-3.188450321
244.57050,-2.578061506
244.57100,-4.104033544
244.57150,-7.461172029
244.57200,-8.68194966
244.57250,-7.766366437
244.57300,-8.68194966
244.57350,-12.03908814
244.57400,-14.175449
244.57450,-13.56506018
244.57500,-14.175449
244.57550,-20.27933715
244.57600,-30.96114142
244.57650,-40.11697365
244.57700,-43.77930655
244.57750,-43.47411214
