time,Brachiarod, EXt Carp,EXT DIG,Flex CarpU,Flex Carp R
241.92,1.641887955,-5.414951053,-0.4299565394,-0.06421131716,-4.71442236
241.9205,1.641887955,-3.583784607,-0.4299565394,-0.6746001326,-4.104033544
241.921,2.252276771,-1.142229345,-0.1247621317,-2.810960986,-2.883255914
241.9215,2.862665586,0.07854828584,-0.4299565394,-4.031738617,-1.052089467
241.922,2.557471179,0.9941315089,-1.65073417,-3.421349802,0.7790769788
241.9225,1.947082363,1.909714732,-2.566317393,-2.810960986,1.99985461
241.923,1.336693548,3.130492363,-1.955928578,-3.421349802,1.99985461
241.9235,0.7263047324,4.351269994,-0.7351509471,-4.336933025,1.694660202
241.924,0.7263047324,5.877242032,-0.1247621317,-3.72654421,2.305049017
241.9245,1.03149914,6.792825255,-0.7351509471,-2.505766579,3.525826648
241.925,1.336693548,5.877242032,-1.65073417,-1.895377763,3.831021056
241.9255,1.641887955,4.961658809,-2.261122986,-2.200572171,3.831021056
241.926,1.336693548,6.18243644,-2.566317393,-2.505766579,3.525826648
241.9265,1.03149914,8.623991701,-2.261122986,-2.200572171,3.525826648
241.927,0.4211103247,9.539574925,-1.345539762,-1.284988948,3.22063224
241.9275,0.115915917,7.403214071,-0.1247621317,-0.06421131716,2.610243425
241.928,-1.104861714,4.961658809,0.4856266837,1.461760721,2.610243425
241.9285,-1.715250529,4.656464401,0.180432276,2.98773276,3.22063224
241.929,-2.020444937,5.572047624,0.180432276,3.292927168,3.525826648
241.9295,-2.020444937,5.266853217,0.180432276,2.682538352,2.915437833
241.93,-2.630833752,2.825297955,-0.1247621317,2.98773276,1.99985461
241.9305,-2.630833752,0.9941315089,-1.345539762,4.208510391,1.389465794
241.931,-2.325639345,0.07854828584,-1.65073417,4.818899206,1.389465794
241.9315,-2.020444937,-0.2266461219,-0.1247621317,4.818899206,0.7790769788
241.932,-2.93602816,-1.75261816,1.401209907,5.429288021,-0.441700652
241.9325,-4.462000199,-3.278590199,1.706404315,6.650065652,-2.272867098
241.933,-4.156805791,-4.194173422,0.4856266837,6.650065652,-3.188450321
241.9335,-2.325639345,-5.109756645,0.180432276,5.429288021,-3.798839137
241.934,0.115915917,-6.330534276,1.096015499,4.208510391,-3.798839137
241.9345,1.641887955,-7.551311907,2.31679313,4.818899206,-4.409227952
241.935,2.252276771,-8.46689513,2.621987538,5.429288021,-5.630005583
241.9355,2.252276771,-9.382478353,2.011598722,4.208510391,-6.240394398
241.936,2.252276771,-10.60325598,0.7908210914,2.072149537,-5.935199991
241.9365,2.252276771,-11.2136448,-0.4299565394,1.461760721,-4.71442236
241.937,2.252276771,-9.992867168,-1.955928578,2.682538352,-3.493644729
241.9375,2.252276771,-8.46689513,-1.955928578,3.292927168,-3.798839137
241.938,2.557471179,-7.246117499,-1.040345355,2.377343944,-4.104033544
241.9385,3.473054402,-6.635728684,-1.040345355,0.5461774982,-3.798839137
241.939,3.778248809,-5.414951053,-2.261122986,-0.06421131716,-1.967672691
241.9395,3.167859994,-4.194173422,-3.787095024,-0.3694057249,-0.1365062443
241.94,2.252276771,-3.583784607,-3.481900616,-0.9797945403,-0.1365062443
241.9405,2.557471179,-3.278590199,-2.566317393,-1.590183356,-0.1365062443
241.941,3.473054402,-1.447423753,-2.871511801,-2.200572171,0.1686881634
241.9415,4.083443217,0.9941315089,-4.092289432,-2.505766579,2.610243425
241.942,3.473054402,2.825297955,-4.702678247,-3.116155394,3.831021056
241.9425,2.862665586,3.740881178,-3.481900616,-3.72654421,3.831021056
241.943,2.862665586,4.656464401,-2.566317393,-3.421349802,3.831021056
241.9435,3.778248809,5.572047624,-2.871511801,-3.116155394,5.356993094
241.944,4.693832032,5.877242032,-4.092289432,-3.421349802,6.577770725
241.9445,6.219804071,6.18243644,-4.092289432,-3.116155394,5.96738191
241.945,8.661359333,6.792825255,-3.481900616,-1.590183356,5.356993094
241.9455,8.96655374,7.403214071,-3.176706209,-0.06421131716,6.272576317
241.946,6.524998479,7.098019663,-3.176706209,0.2409830905,7.493353948
241.9465,3.778248809,7.098019663,-2.871511801,-0.06421131716,6.882965133
241.947,4.083443217,7.403214071,-1.345539762,-0.06421131716,5.662187502
241.9475,5.609415256,7.403214071,0.180432276,0.5461774982,5.96738191
241.948,4.693832032,6.487630848,1.096015499,1.766955129,6.577770725
241.9485,1.641887955,6.487630848,0.4856266837,2.377343944,5.051798687
241.949,0.115915917,8.013602886,-0.4299565394,1.766955129,1.694660202
241.9495,0.4211103247,8.013602886,-1.65073417,1.156566314,-0.1365062443
241.95,1.336693548,4.961658809,-1.65073417,1.461760721,-0.7468950597
241.9505,0.115915917,1.909714732,-1.345539762,2.072149537,-2.578061506
241.951,-1.104861714,0.9941315089,-0.7351509471,2.682538352,-5.630005583
241.9515,-0.4944728984,0.07854828584,-0.1247621317,2.682538352,-6.545588806
241.952,1.03149914,-3.278590199,1.096015499,2.682538352,-4.71442236
241.9525,1.641887955,-6.025339868,2.621987538,2.682538352,-3.493644729
241.953,1.336693548,-4.194173422,2.927181945,2.377343944,-4.71442236
241.9535,1.641887955,-0.2266461219,1.706404315,1.461760721,-4.409227952
241.954,2.862665586,-1.447423753,0.7908210914,1.156566314,-0.7468950597
241.9545,3.778248809,-7.246117499,0.7908210914,1.766955129,2.915437833
241.955,3.778248809,-10.60325598,1.706404315,2.98773276,3.831021056
241.9555,3.167859994,-9.077283945,2.621987538,2.98773276,-0.1365062443
241.956,2.862665586,-8.772089538,3.842765168,1.766955129,-8.68194966
241.9565,3.778248809,-12.73961684,4.147959576,0.2409830905,-19.97414274
241.957,5.304220848,-16.09675532,2.31679313,-0.3694057249,-27.60400294
241.9575,4.99902644,-14.26558888,0.180432276,-0.06421131716,-28.21439175
241.958,2.557471179,-9.077283945,0.180432276,-0.06421131716,-27.29880853
241.9585,0.4211103247,-5.414951053,2.011598722,-0.6746001326,-33.09750228
241.959,1.03149914,-4.194173422,3.232376353,-2.200572171,-39.50658484
241.9595,2.557471179,-5.414951053,1.706404315,-3.116155394,-27.60400294
241.96,0.4211103247,-12.12922802,0.4856266837,-2.200572171,9.629714802
241.9605,-5.377583422,-24.33700433,1.401209907,-0.6746001326,52.66212629
241.961,-10.87108276,-34.10322538,3.537570761,-0.06421131716,72.19456838
241.9615,-12.09186039,-32.27205893,3.842765168,-0.6746001326,62.73354174
241.962,-9.955499537,-20.67467144,2.31679313,-1.284988948,41.98032202
241.9625,-8.429527499,-8.772089538,1.401209907,-0.9797945403,27.02579604
241.963,-8.124333091,-2.057812568,1.401209907,-0.6746001326,20.61671348
241.9635,-7.513944276,0.07854828584,1.706404315,-1.895377763,18.78554703
241.964,-5.682777829,0.6889371012,1.096015499,-2.505766579,18.17515822
241.9645,-4.462000199,0.6889371012,-0.1247621317,-1.284988948,15.73360296
241.965,-3.851611383,1.604520324,-1.65073417,-0.06421131716,8.103742764
241.9655,-3.241222568,5.572047624,-2.871511801,-0.6746001326,-1.967672691
241.966,-2.020444937,10.76035256,-2.566317393,-1.895377763,-8.071560845
241.9665,-1.410056122,12.28632459,-1.345539762,-1.590183356,-6.240394398
241.967,-1.410056122,9.539574925,-0.1247621317,-0.06421131716,-1.052089467
241.9675,-1.410056122,5.877242032,-0.1247621317,0.2409830905,1.084271386
241.968,-1.104861714,5.266853217,0.180432276,-0.06421131716,1.99985461
241.9685,-0.7996673061,7.403214071,1.401209907,0.2409830905,6.272576317
241.969,-1.715250529,9.539574925,2.621987538,2.682538352,13.90243651
241.9695,-3.241222568,10.14996374,3.232376353,4.818899206,19.09074144
241.97,-5.072389014,9.234380517,3.537570761,4.513704798,17.5647694
241.9705,-5.377583422,7.098019663,4.453153984,2.98773276,10.85049243
241.971,-4.156805791,5.266853217,5.673931615,2.682538352,3.22063224
241.9715,-3.241222568,4.656464401,5.368737207,4.208510391,-0.7468950597
241.972,-3.546416975,4.046075586,3.842765168,5.734482429,-3.188450321
241.9725,-4.156805791,1.299325917,3.232376353,6.039676837,-5.019616768
241.973,-3.851611383,-2.057812568,4.453153984,5.734482429,-7.155977621
241.9735,-3.546416975,-3.888979014,5.673931615,5.734482429,-8.987144068
241.974,-3.241222568,-2.973395791,4.758348392,5.734482429,-9.597532883
241.9745,-3.241222568,-2.973395791,2.011598722,4.208510391,-11.12350492
241.975,-2.020444937,-5.109756645,0.180432276,1.766955129,-12.95467137
241.9755,-0.1892784907,-7.246117499,-0.1247621317,0.2409830905,-13.87025459
241.976,0.4211103247,-6.635728684,-0.1247621317,-0.06421131716,-12.95467137
241.9765,0.4211103247,-3.888979014,-0.1247621317,-0.3694057249,-11.73389374
241.977,0.4211103247,-2.057812568,-0.1247621317,-1.284988948,-11.73389374
241.9775,1.03149914,-0.5318405296,-0.1247621317,-2.200572171,-11.12350492
241.978,1.641887955,1.604520324,0.180432276,-2.505766579,-8.68194966
241.9785,1.641887955,4.656464401,0.180432276,-3.421349802,-5.630005583
241.979,1.336693548,4.656464401,-0.1247621317,-4.94732184,-5.019616768
241.9795,1.336693548,2.21490914,-0.1247621317,-5.862905063,-6.240394398
241.98,0.7263047324,-0.5318405296,-0.4299565394,-5.862905063,-6.545588806
241.9805,0.7263047324,-0.8370349373,-0.7351509471,-5.557710656,-5.324811175
241.981,1.947082363,0.07854828584,-1.65073417,-6.473293879,-2.883255914
241.9815,3.167859994,0.3837426935,-2.871511801,-7.999265917,-0.441700652
241.982,2.862665586,0.6889371012,-3.481900616,-8.914849141,0.4738825711
241.9825,1.03149914,1.299325917,-2.871511801,-8.609654733,-0.1365062443
241.983,-0.1892784907,2.21490914,-1.345539762,-7.388877102,-3.798839137
241.9835,0.115915917,1.604520324,-0.1247621317,-5.557710656,-6.850783214
241.984,0.7263047324,-1.142229345,-0.4299565394,-2.505766579,-6.545588806
241.9845,-0.1892784907,-6.025339868,-1.345539762,0.2409830905,-3.493644729
241.985,-2.020444937,-9.077283945,-0.7351509471,0.2409830905,-1.357283875
241.9855,-2.020444937,-8.772089538,0.7908210914,-1.895377763,-0.1365062443
241.986,-0.1892784907,-4.804562237,1.096015499,-4.642127433,1.084271386
241.9865,0.115915917,0.3837426935,-0.4299565394,-5.252516248,2.915437833
241.987,-1.104861714,6.18243644,-3.176706209,-3.72654421,2.610243425
241.9875,-3.546416975,10.14996374,-3.481900616,-1.590183356,0.4738825711
241.988,-5.072389014,12.28632459,-1.65073417,-0.06421131716,-0.1365062443
241.9885,-6.90355546,12.591519,0.4856266837,1.156566314,0.7790769788
241.989,-8.734721906,11.98113019,1.401209907,2.98773276,0.7790769788
241.9895,-10.26069394,11.06554696,0.7908210914,4.513704798,-1.357283875
241.99,-9.039916314,8.623991701,0.180432276,4.818899206,-4.104033544
241.9905,-6.598361052,4.656464401,-0.1247621317,3.903315983,-5.019616768
241.991,-4.462000199,1.299325917,-1.040345355,3.292927168,-4.71442236
241.9915,-3.546416975,0.6889371012,-1.65073417,4.208510391,-4.71442236
241.992,-2.93602816,2.21490914,-1.345539762,5.734482429,-5.324811175
241.9925,-1.715250529,3.740881178,-0.4299565394,6.650065652,-6.545588806
241.993,-0.7996673061,3.435686771,-0.1247621317,6.039676837,-8.68194966
241.9935,-0.4944728984,0.3837426935,0.4856266837,5.429288021,-8.68194966
241.994,-0.7996673061,-4.804562237,1.096015499,6.039676837,-4.409227952
241.9945,-0.7996673061,-10.60325598,1.401209907,7.565648875,3.22063224
241.995,-0.7996673061,-13.96039447,1.096015499,6.95526006,8.714131579
241.9955,-1.410056122,-13.04481125,0.7908210914,5.124093614,7.798548356
241.996,-2.325639345,-10.60325598,0.4856266837,3.598121575,3.525826648
241.9965,-2.325639345,-10.29806158,-0.1247621317,2.682538352,1.389465794
241.997,-1.104861714,-11.51883921,-1.345539762,1.156566314,1.99985461
241.9975,0.115915917,-11.82403361,-2.871511801,-0.06421131716,1.99985461
241.998,0.115915917,-9.687672761,-2.871511801,-0.06421131716,0.4738825711
241.9985,-0.1892784907,-6.940923091,-1.955928578,0.5461774982,0.1686881634
241.999,-0.1892784907,-5.109756645,-1.65073417,0.5461774982,1.389465794
241.9995,0.115915917,-2.363006976,-1.955928578,-0.3694057249,-0.441700652
242.0,0.4211103247,2.21490914,-2.261122986,-0.6746001326,-8.376755252
242.0005,-0.4944728984,6.792825255,-1.345539762,-0.06421131716,-16.00661544
242.001,-2.020444937,8.013602886,-0.1247621317,-0.06421131716,-16.00661544
242.0015,-1.410056122,5.877242032,0.4856266837,-1.590183356,-9.292338475
242.002,0.4211103247,4.046075586,-0.1247621317,-3.116155394,-3.798839137
242.0025,2.862665586,4.961658809,-1.65073417,-2.200572171,-4.104033544
242.003,4.083443217,8.318797294,-2.261122986,-0.9797945403,-5.630005583
242.0035,4.083443217,11.06554696,-1.65073417,-1.284988948,-3.798839137
242.004,3.473054402,11.98113019,-0.7351509471,-2.200572171,-1.967672691
242.0045,2.252276771,11.98113019,-0.1247621317,-1.590183356,-3.188450321
242.005,1.03149914,12.591519,0.180432276,-0.06421131716,-4.409227952
242.0055,1.03149914,12.89671341,0.7908210914,0.5461774982,-2.883255914
242.006,2.557471179,12.89671341,0.180432276,-0.06421131716,-1.662478283
242.0065,5.609415256,12.28632459,-1.65073417,-0.3694057249,-5.019616768
242.007,8.356164925,12.591519,-3.787095024,-0.06421131716,-6.850783214
242.0075,9.576942556,12.591519,-5.007872655,1.766955129,3.525826648
242.008,7.74577611,8.013602886,-4.39748384,3.598121575,23.36346315
242.0085,3.167859994,-1.75261816,-2.566317393,4.818899206,36.18162827
242.009,-0.1892784907,-9.687672761,-0.4299565394,5.124093614,32.21410097
242.0095,-0.4944728984,-8.772089538,0.4856266837,4.818899206,18.78554703
242.01,1.641887955,-1.142229345,-0.1247621317,3.903315983,9.019325987
242.0105,3.473054402,4.046075586,-2.261122986,3.598121575,5.96738191
242.011,3.167859994,2.520103547,-3.176706209,2.98773276,4.441409871
242.0115,1.641887955,-0.5318405296,-1.955928578,2.682538352,1.99985461
242.012,0.7263047324,-0.5318405296,-0.4299565394,2.682538352,0.4738825711
242.0125,1.03149914,0.3837426935,-0.4299565394,3.292927168,0.4738825711
242.013,1.336693548,-0.8370349373,-1.955928578,3.292927168,-0.1365062443
242.0135,1.336693548,-3.888979014,-2.566317393,2.682538352,-1.967672691
242.014,1.03149914,-5.109756645,-1.955928578,2.072149537,-2.883255914
242.0145,0.4211103247,-4.49936783,-1.345539762,2.377343944,-3.493644729
242.015,0.7263047324,-5.72014546,-1.955928578,3.292927168,-5.019616768
242.0155,1.336693548,-8.161700722,-2.566317393,2.98773276,-7.155977621
242.016,1.947082363,-7.551311907,-2.566317393,1.156566314,-7.461172029
242.0165,1.641887955,-4.194173422,-2.566317393,-0.6746001326,-6.545588806
242.017,1.641887955,-1.75261816,-2.566317393,-1.590183356,-5.630005583
242.0175,2.557471179,-2.057812568,-2.566317393,-2.200572171,-6.240394398
242.018,3.778248809,-2.668201383,-2.261122986,-3.116155394,-6.240394398
242.0185,4.388637625,-2.057812568,-2.871511801,-4.031738617,-5.019616768
242.019,4.693832032,-1.75261816,-4.092289432,-4.336933025,-3.798839137
242.0195,5.914609663,-3.888979014,-4.702678247,-4.031738617,-3.798839137
242.02,7.135387294,-6.025339868,-4.39748384,-3.72654421,-4.409227952
242.0205,7.135387294,-6.025339868,-3.787095024,-3.72654421,-4.409227952
242.021,6.219804071,-4.49936783,-3.787095024,-4.031738617,-3.493644729
242.0215,5.914609663,-2.668201383,-3.787095024,-4.642127433,-2.578061506
242.022,6.219804071,-0.5318405296,-2.871511801,-4.94732184,-1.662478283
242.0225,5.914609663,1.604520324,-1.345539762,-4.94732184,-1.052089467
242.023,4.083443217,3.435686771,-0.7351509471,-4.336933025,-0.1365062443
242.0235,2.862665586,3.435686771,-0.7351509471,-4.031738617,0.7790769788
242.024,3.473054402,2.21490914,-0.7351509471,-4.336933025,1.694660202
242.0245,4.388637625,0.6889371012,-0.1247621317,-4.031738617,3.22063224
242.025,3.167859994,0.3837426935,-0.1247621317,-3.116155394,5.96738191
242.0255,0.4211103247,1.299325917,-0.4299565394,-2.810960986,8.103742764
242.026,-1.715250529,3.435686771,-0.1247621317,-3.72654421,9.629714802
242.0265,-3.241222568,5.877242032,2.31679313,-4.031738617,10.24010362
242.027,-4.156805791,7.708408478,4.147959576,-2.810960986,10.54529803
242.0275,-4.462000199,8.929186109,4.147959576,-0.9797945403,10.24010362
242.028,-4.767194606,9.234380517,3.232376353,-0.6746001326,9.019325987
242.0285,-5.072389014,9.539574925,3.537570761,-0.6746001326,7.493353948
242.029,-5.682777829,8.623991701,4.758348392,-0.06421131716,6.577770725
242.0295,-5.377583422,6.792825255,3.537570761,1.156566314,5.356993094
242.03,-4.767194606,5.572047624,-0.1247621317,1.156566314,3.831021056
242.0305,-4.767194606,4.961658809,-3.481900616,-0.06421131716,1.99985461
242.031,-4.767194606,3.740881178,-2.871511801,0.2409830905,0.7790769788
242.0315,-3.851611383,1.909714732,-0.7351509471,2.072149537,-0.1365062443
242.032,-2.020444937,0.3837426935,-0.1247621317,3.598121575,-2.578061506
242.0325,-0.1892784907,-0.2266461219,-1.345539762,3.598121575,-4.409227952
242.033,-0.1892784907,-1.142229345,-2.566317393,3.292927168,-4.71442236
242.0335,-0.4944728984,-2.973395791,-2.871511801,4.208510391,-3.798839137
242.034,-1.104861714,-5.414951053,-2.871511801,5.124093614,-4.104033544
242.0345,-1.104861714,-7.551311907,-2.871511801,4.208510391,-5.630005583
242.035,-0.7996673061,-8.46689513,-2.261122986,2.682538352,-6.545588806
242.0355,0.115915917,-8.772089538,-1.345539762,1.766955129,-6.545588806
242.036,1.641887955,-9.077283945,-1.040345355,1.461760721,-6.545588806
242.0365,2.862665586,-10.60325598,-1.040345355,0.5461774982,-7.155977621
242.037,3.778248809,-11.51883921,-1.345539762,-0.6746001326,-7.155977621
242.0375,4.693832032,-10.60325598,-1.955928578,-1.895377763,-6.850783214
242.038,5.609415256,-8.46689513,-2.566317393,-2.810960986,-7.766366437
242.0385,5.609415256,-7.551311907,-2.566317393,-3.421349802,-9.292338475
242.039,4.693832032,-8.46689513,-1.040345355,-4.031738617,-9.292338475
242.0395,4.388637625,-9.382478353,-0.4299565394,-4.031738617,-7.766366437
242.04,5.609415256,-8.772089538,-1.040345355,-4.336933025,-5.630005583
242.0405,5.914609663,-7.246117499,-2.261122986,-5.252516248,-5.019616768
242.041,4.693832032,-6.025339868,-1.65073417,-5.557710656,-4.409227952
242.0415,3.778248809,-4.804562237,-0.1247621317,-4.94732184,-2.883255914
242.042,4.083443217,-2.668201383,-0.1247621317,-3.72654421,-0.7468950597
242.0425,4.083443217,-0.8370349373,-1.65073417,-3.72654421,1.694660202
242.043,1.947082363,0.07854828584,-2.261122986,-4.031738617,3.831021056
242.0435,-0.4944728984,0.3837426935,-0.1247621317,-4.642127433,4.746604279
242.044,-1.410056122,3.130492363,1.096015499,-4.336933025,3.831021056
242.0445,-0.7996673061,7.403214071,-0.1247621317,-3.116155394,2.915437833
242.045,0.115915917,11.37074137,-1.345539762,-1.895377763,3.22063224
242.0455,-0.7996673061,13.20190782,-0.7351509471,-0.6746001326,3.831021056
242.046,-2.630833752,12.591519,1.096015499,0.5461774982,4.136215463
242.0465,-4.462000199,10.76035256,2.621987538,1.766955129,5.356993094
242.047,-5.072389014,9.539574925,3.537570761,2.682538352,7.493353948
242.0475,-4.156805791,10.14996374,4.453153984,2.98773276,8.408937171
242.048,-2.93602816,10.45515815,3.842765168,3.903315983,6.272576317
242.0485,-2.020444937,9.844769332,0.4856266837,4.513704798,2.610243425
242.049,-2.630833752,8.318797294,-3.481900616,4.513704798,0.7790769788
242.0495,-2.93602816,7.403214071,-5.313067063,4.208510391,-0.1365062443
242.05,-2.325639345,6.487630848,-4.39748384,3.903315983,-1.662478283
242.0505,-1.715250529,4.656464401,-2.566317393,4.513704798,-3.188450321
242.051,-1.410056122,2.520103547,-1.345539762,5.124093614,-2.883255914
242.0515,-1.715250529,0.6889371012,-0.1247621317,5.429288021,-2.272867098
242.052,-1.410056122,-0.2266461219,0.7908210914,5.429288021,-3.188450321
242.0525,-0.7996673061,-3.278590199,1.096015499,6.344871245,-1.967672691
242.053,0.115915917,-6.635728684,0.180432276,7.870843283,5.051798687
242.0535,0.7263047324,-8.46689513,-0.4299565394,7.870843283,15.12321414
242.054,0.7263047324,-9.382478353,-0.1247621317,6.95526006,19.39593585
242.0545,0.4211103247,-9.992867168,0.7908210914,4.818899206,14.81801973
242.055,0.4211103247,-9.992867168,0.4856266837,2.682538352,5.662187502
242.0555,1.641887955,-6.940923091,-1.040345355,0.5461774982,-2.272867098
242.056,2.252276771,-1.142229345,-1.65073417,-0.06421131716,-7.766366437
242.0565,0.115915917,6.18243644,-0.1247621317,0.5461774982,-9.597532883
242.057,-2.93602816,14.11749104,2.927181945,2.072149537,-9.292338475
242.0575,-4.156805791,21.13696242,5.063542799,1.461760721,-11.42869933
242.058,-2.325639345,25.40968413,5.368737207,-0.9797945403,-18.1429763
242.0585,-0.1892784907,25.40968413,4.453153984,-3.421349802,-26.68841971
242.059,0.115915917,22.35774005,3.537570761,-4.336933025,-31.87672465
242.0595,0.7263047324,18.08501834,2.927181945,-4.94732184,-32.48711346
242.06,2.557471179,12.89671341,2.011598722,-5.557710656,-30.35075261
242.0605,4.388637625,6.18243644,0.4856266837,-5.862905063,-23.02608682
242.061,3.473054402,2.520103547,-0.4299565394,-5.252516248,-12.64947696
242.0615,0.7263047324,4.961658809,-1.345539762,-4.94732184,-7.155977621
242.062,-1.104861714,8.318797294,-2.566317393,-5.252516248,-10.2079217
242.0625,-2.020444937,4.961658809,-2.871511801,-4.336933025,-11.12350492
242.063,-2.630833752,-4.194173422,-1.65073417,-2.505766579,0.1686881634
242.0635,-3.241222568,-10.60325598,0.7908210914,-1.284988948,16.64918618
242.064,-2.020444937,-10.29806158,3.537570761,-1.284988948,18.78554703
242.0645,0.4211103247,-9.382478353,5.979126022,-0.6746001326,7.188159541
242.065,0.4211103247,-14.87597769,9.336264507,1.461760721,2.305049017
242.0655,-3.241222568,-23.1162267,13.91418062,3.903315983,16.03879736
242.066,-9.039916314,-26.77855959,18.49209674,4.513704798,36.79201709
242.0665,-13.31263802,-25.25258755,20.62845759,4.208510391,50.22057103
242.067,-13.92302684,-22.50583788,19.71287437,3.598121575,55.40887596
242.0675,-12.3970548,-17.92792177,18.18690233,1.766955129,56.32445918
242.068,-9.345110722,-9.077283945,16.9661247,-0.06421131716,48.9997934
242.0685,-5.987972237,1.299325917,15.13495825,-0.6746001326,30.99332334
242.069,-3.241222568,7.403214071,12.08301418,0.2409830905,12.98685329
242.0695,-2.020444937,8.929186109,7.199903653,-0.06421131716,5.662187502
242.07,-1.104861714,10.45515815,1.401209907,-2.505766579,5.051798687
242.0705,-0.1892784907,12.591519,-5.007872655,-4.031738617,2.610243425
242.071,0.4211103247,11.06554696,-11.41695522,-2.505766579,-0.441700652
242.0715,1.947082363,4.961658809,-16.30006574,-0.3694057249,0.7790769788
242.072,3.778248809,-0.2266461219,-18.43642659,-0.3694057249,6.577770725
242.0725,4.693832032,-0.5318405296,-15.99487133,-0.06421131716,10.54529803
242.073,2.557471179,0.6889371012,-10.19617759,2.377343944,12.98685329
242.0735,-0.1892784907,0.3837426935,-4.702678247,5.734482429,15.73360296
242.074,-0.4944728984,-1.142229345,-2.261122986,5.429288021,14.81801973
242.0745,2.252276771,-2.057812568,-1.345539762,2.072149537,5.96738191
242.075,4.388637625,-3.278590199,0.4856266837,-0.06421131716,-5.935199991
242.0755,3.167859994,-5.72014546,2.927181945,-0.06421131716,-11.73389374
242.076,1.336693548,-7.551311907,3.537570761,-0.06421131716,-11.12350492
242.0765,2.252276771,-5.72014546,2.011598722,-1.284988948,-9.292338475
242.077,2.862665586,-1.75261816,2.927181945,-2.505766579,-8.68194966
242.0775,0.4211103247,0.07854828584,7.810292469,-3.421349802,-6.545588806
242.078,-2.325639345,-1.142229345,11.47262536,-4.94732184,-4.104033544
242.0785,0.115915917,-2.057812568,9.336264507,-7.999265917,-5.019616768
242.079,5.914609663,-0.8370349373,2.927181945,-10.44082118,-7.766366437
242.0795,7.74577611,1.604520324,-1.345539762,-9.830432364,-7.766366437
242.08,2.252276771,2.520103547,-2.566317393,-6.473293879,-5.019616768
242.0805,-5.682777829,0.07854828584,-2.566317393,-2.810960986,-2.578061506
242.081,-11.17627717,-4.194173422,-3.787095024,-0.3694057249,0.7790769788
242.0815,-14.83861006,-6.025339868,-5.007872655,0.8513719059,7.188159541
242.082,-18.80613736,-1.142229345,-5.007872655,2.98773276,10.54529803
242.0825,-21.55288703,7.403214071,-4.39748384,5.429288021,3.831021056
242.083,-20.02691499,12.28632459,-3.787095024,6.344871245,-8.376755252
242.0835,-15.14380447,8.318797294,-2.871511801,5.124093614,-14.48064341
242.084,-11.17627717,0.9941315089,-2.566317393,2.682538352,-9.292338475
242.0845,-9.650305129,-1.142229345,-3.176706209,1.156566314,-1.052089467
242.085,-8.124333091,1.909714732,-4.39748384,0.5461774982,0.4738825711
242.0855,-5.377583422,6.792825255,-3.787095024,-0.06421131716,-1.357283875
242.086,-2.93602816,10.45515815,-1.65073417,-0.6746001326,-1.967672691
242.0865,-2.020444937,12.89671341,-0.1247621317,-1.895377763,-0.7468950597
242.087,-1.104861714,14.42268545,-0.7351509471,-2.810960986,-0.441700652
242.0875,0.115915917,14.42268545,-1.345539762,-3.116155394,-1.662478283
242.088,2.557471179,12.591519,-1.040345355,-3.116155394,-2.272867098
242.0885,3.473054402,11.06554696,-1.040345355,-2.810960986,-2.883255914
242.089,3.778248809,11.67593578,-2.261122986,-2.505766579,-4.409227952
242.0895,4.693832032,12.28632459,-3.481900616,-2.505766579,-6.545588806
242.09,5.609415256,11.67593578,-3.481900616,-1.895377763,-6.850783214
242.0905,5.304220848,9.844769332,-2.566317393,-0.6746001326,-6.240394398
242.091,4.083443217,7.403214071,-1.65073417,-0.06421131716,-5.935199991
242.0915,3.778248809,5.572047624,-1.040345355,-0.06421131716,-7.155977621
242.092,5.609415256,3.740881178,-0.1247621317,-0.6746001326,-8.071560845
242.0925,7.74577611,2.21490914,-0.4299565394,0.2409830905,-8.376755252
242.093,7.74577611,0.3837426935,-1.345539762,1.766955129,-9.292338475
242.0935,5.304220848,-1.447423753,-1.65073417,2.072149537,-10.2079217
242.094,3.778248809,-3.888979014,-0.7351509471,0.8513719059,-11.12350492
242.0945,4.388637625,-5.414951053,-0.1247621317,0.5461774982,-11.73389374
242.095,6.219804071,-6.330534276,-0.7351509471,1.766955129,-12.34428255
242.0955,7.440581702,-7.551311907,-2.261122986,2.072149537,-12.64947696
242.096,8.050970517,-8.772089538,-2.871511801,1.461760721,-12.34428255
242.0965,8.356164925,-9.687672761,-1.955928578,0.5461774982,-10.81831051
242.097,7.74577611,-9.687672761,-0.1247621317,0.2409830905,-9.902727291
242.0975,6.219804071,-9.077283945,0.4856266837,-0.06421131716,-9.292338475
242.098,4.693832032,-9.077283945,0.7908210914,-0.9797945403,-8.68194966
242.0985,4.388637625,-9.077283945,-0.1247621317,-2.505766579,-7.155977621
242.099,4.693832032,-7.551311907,-0.7351509471,-2.810960986,-5.630005583
242.0995,4.693832032,-5.109756645,-0.7351509471,-3.116155394,-4.71442236
242.1,3.473054402,-3.583784607,-0.1247621317,-3.116155394,-4.409227952
242.1005,2.557471179,-4.194173422,-0.1247621317,-3.116155394,-3.798839137
242.101,2.557471179,-4.194173422,-0.1247621317,-3.116155394,-2.578061506
242.1015,2.862665586,-1.75261816,0.180432276,-3.72654421,-0.7468950597
242.102,3.473054402,1.604520324,1.706404315,-4.642127433,0.7790769788
242.1025,3.778248809,3.740881178,2.927181945,-4.642127433,1.694660202
242.103,4.083443217,4.351269994,2.011598722,-3.72654421,1.99985461
242.1035,3.778248809,5.572047624,0.7908210914,-3.116155394,1.389465794
242.104,3.473054402,8.013602886,0.7908210914,-3.421349802,0.7790769788
242.1045,3.778248809,10.14996374,1.401209907,-3.116155394,0.7790769788
242.105,4.083443217,10.45515815,1.096015499,-2.200572171,1.99985461
242.1055,3.778248809,9.844769332,-0.1247621317,-1.895377763,2.610243425
242.106,3.167859994,9.539574925,-0.1247621317,-1.590183356,2.915437833
242.1065,2.557471179,9.539574925,1.706404315,-0.6746001326,2.610243425
242.107,2.557471179,8.623991701,3.842765168,0.8513719059,2.610243425
242.1075,2.862665586,7.708408478,4.453153984,2.072149537,2.610243425
242.108,2.557471179,7.403214071,4.147959576,2.072149537,2.610243425
242.1085,1.947082363,7.403214071,4.147959576,2.072149537,1.99985461
242.109,1.336693548,6.18243644,3.842765168,3.598121575,0.7790769788
242.1095,1.03149914,4.351269994,2.927181945,4.818899206,-0.7468950597
242.11,1.03149914,3.435686771,2.011598722,5.124093614,-1.357283875
242.1105,0.7263047324,3.740881178,1.401209907,4.818899206,-0.7468950597
242.111,1.03149914,3.740881178,1.401209907,5.429288021,-0.7468950597
242.1115,1.641887955,2.825297955,1.706404315,6.039676837,-2.578061506
242.112,2.557471179,0.6889371012,2.011598722,5.734482429,-5.630005583
242.1125,1.947082363,-1.142229345,2.011598722,4.818899206,-6.850783214
242.113,1.03149914,-3.278590199,1.401209907,3.903315983,-6.545588806
242.1135,0.7263047324,-5.414951053,0.4856266837,3.292927168,-6.240394398
242.114,1.336693548,-7.551311907,0.7908210914,2.682538352,-8.071560845
242.1145,1.947082363,-9.382478353,2.31679313,2.377343944,-9.902727291
242.115,1.641887955,-10.60325598,2.621987538,2.377343944,-10.2079217
242.1155,0.7263047324,-10.90845039,1.706404315,2.072149537,-9.597532883
242.116,0.115915917,-10.60325598,0.4856266837,0.8513719059,-8.987144068
242.1165,0.115915917,-9.992867168,0.7908210914,-0.06421131716,-8.68194966
242.117,0.115915917,-9.992867168,1.706404315,-0.3694057249,-8.071560845
242.1175,-0.7996673061,-10.90845039,2.31679313,-0.06421131716,-6.850783214
242.118,-0.4944728984,-11.51883921,2.621987538,-0.06421131716,-5.935199991
242.1185,0.4211103247,-11.82403361,3.232376353,-1.590183356,-4.71442236
242.119,0.4211103247,-11.51883921,3.232376353,-2.505766579,-2.578061506
242.1195,-1.715250529,-10.60325598,2.621987538,-2.505766579,-0.1365062443
242.12,-4.767194606,-9.382478353,1.706404315,-2.505766579,1.084271386
242.1205,-5.987972237,-8.772089538,2.31679313,-3.421349802,1.99985461
242.121,-5.072389014,-8.46689513,3.232376353,-4.336933025,3.525826648
242.1215,-3.851611383,-8.772089538,3.842765168,-4.336933025,6.577770725
242.122,-3.546416975,-8.46689513,3.842765168,-4.336933025,8.714131579
242.1225,-4.156805791,-6.940923091,4.147959576,-4.642127433,9.629714802
242.123,-4.767194606,-4.49936783,3.842765168,-5.557710656,9.324520394
242.1235,-4.462000199,-2.057812568,2.621987538,-5.862905063,9.629714802
242.124,-3.546416975,-0.2266461219,0.7908210914,-6.168099471,9.93490921
242.1245,-2.630833752,0.9941315089,0.4856266837,-6.168099471,10.54529803
242.125,-2.630833752,2.520103547,1.706404315,-5.252516248,10.24010362
242.1255,-2.630833752,3.130492363,2.927181945,-3.72654421,8.714131579
242.126,-1.410056122,2.21490914,2.621987538,-2.505766579,6.272576317
242.1265,0.115915917,1.604520324,1.401209907,-2.505766579,4.746604279
242.127,1.03149914,2.825297955,0.180432276,-2.200572171,5.051798687
242.1275,1.03149914,4.656464401,-0.4299565394,-1.590183356,5.356993094
242.128,0.7263047324,4.656464401,-0.7351509471,-0.3694057249,3.831021056
242.1285,1.03149914,2.825297955,-1.040345355,-0.06421131716,0.7790769788
242.129,1.336693548,1.604520324,-1.345539762,-0.06421131716,-0.7468950597
242.1295,1.641887955,1.909714732,-2.261122986,0.8513719059,-1.052089467
242.13,2.252276771,1.909714732,-2.871511801,2.072149537,-1.052089467
242.1305,4.083443217,0.07854828584,-2.566317393,2.98773276,-2.272867098
242.131,5.914609663,-2.668201383,-1.040345355,3.292927168,-2.883255914
242.1315,5.914609663,-4.804562237,-0.4299565394,2.98773276,-2.883255914
242.132,3.778248809,-5.72014546,-0.7351509471,2.377343944,-3.493644729
242.1325,1.336693548,-6.635728684,-1.345539762,1.461760721,-4.71442236
242.133,0.7263047324,-7.246117499,-0.7351509471,1.461760721,-5.630005583
242.1335,0.7263047324,-8.772089538,-0.1247621317,2.072149537,-5.324811175
242.134,0.115915917,-11.2136448,-0.4299565394,2.682538352,-5.019616768
242.1345,-0.1892784907,-13.35000565,-1.345539762,2.377343944,-5.935199991
242.135,0.115915917,-13.35000565,-1.955928578,1.766955129,-7.461172029
242.1355,1.03149914,-11.82403361,-1.955928578,1.156566314,-8.071560845
242.136,2.252276771,-11.51883921,-1.955928578,1.156566314,-8.376755252
242.1365,2.557471179,-13.04481125,-2.261122986,1.461760721,-8.68194966
242.137,1.641887955,-13.65520006,-2.871511801,1.461760721,-8.376755252
242.1375,1.641887955,-12.12922802,-3.176706209,1.156566314,-7.766366437
242.138,2.252276771,-10.60325598,-4.39748384,-0.06421131716,-7.155977621
242.1385,2.862665586,-10.29806158,-5.923455878,-1.590183356,-6.850783214
242.139,2.557471179,-10.29806158,-6.839039101,-2.200572171,-5.630005583
242.1395,2.252276771,-9.382478353,-6.839039101,-1.590183356,-3.188450321
242.14,2.252276771,-8.161700722,-5.61826147,-0.9797945403,-1.967672691
242.1405,3.167859994,-7.856506314,-5.313067063,-0.9797945403,-1.662478283
242.141,3.473054402,-7.551311907,-5.313067063,-0.6746001326,-0.7468950597
242.1415,2.557471179,-6.025339868,-5.007872655,-0.6746001326,1.389465794
242.142,0.7263047324,-4.49936783,-4.092289432,-1.590183356,3.831021056
242.1425,0.4211103247,-4.194173422,-3.176706209,-2.505766579,4.441409871
242.143,0.7263047324,-3.888979014,-3.176706209,-2.505766579,5.051798687
242.1435,0.4211103247,-1.447423753,-2.871511801,-1.590183356,5.96738191
242.144,-0.4944728984,1.604520324,-2.566317393,-1.284988948,6.577770725
242.1445,-1.410056122,4.046075586,-1.955928578,-1.590183356,6.272576317
242.145,-1.410056122,5.266853217,-1.65073417,-0.6746001326,5.96738191
242.1455,-1.715250529,7.098019663,-1.040345355,0.8513719059,6.882965133
242.146,-3.241222568,8.929186109,-0.1247621317,1.461760721,8.103742764
242.1465,-5.072389014,9.844769332,0.180432276,0.5461774982,7.798548356
242.147,-5.682777829,10.14996374,-0.4299565394,0.5461774982,7.493353948
242.1475,-5.072389014,11.06554696,-1.345539762,2.377343944,8.103742764
242.148,-5.072389014,11.98113019,-1.040345355,3.903315983,9.324520394
242.1485,-5.682777829,11.98113019,-0.1247621317,3.903315983,9.324520394
242.149,-6.293166645,11.06554696,1.401209907,2.98773276,7.493353948
242.1495,-5.987972237,10.14996374,2.31679313,3.598121575,5.96738191
242.15,-5.987972237,9.539574925,2.621987538,5.124093614,5.662187502
242.1505,-5.987972237,8.318797294,2.31679313,5.734482429,5.051798687
242.151,-5.682777829,7.403214071,1.706404315,5.734482429,3.525826648
242.1515,-4.462000199,7.403214071,0.7908210914,6.039676837,1.694660202
242.152,-3.851611383,6.792825255,-0.1247621317,6.039676837,0.7790769788
242.1525,-5.072389014,5.266853217,-0.1247621317,5.124093614,0.4738825711
242.153,-5.682777829,3.740881178,-0.1247621317,4.513704798,-0.1365062443
242.1535,-4.767194606,2.825297955,0.180432276,5.429288021,-1.662478283
242.154,-2.630833752,1.604520324,0.7908210914,6.039676837,-2.883255914
242.1545,-1.410056122,0.07854828584,0.180432276,5.429288021,-3.188450321
242.155,-1.104861714,-1.142229345,-1.345539762,4.513704798,-3.798839137
242.1555,0.115915917,-0.5318405296,-3.176706209,4.513704798,-5.019616768
242.156,2.862665586,0.07854828584,-3.481900616,4.513704798,-5.935199991
242.1565,4.99902644,-2.057812568,-2.871511801,2.98773276,-5.019616768
242.157,4.99902644,-4.49936783,-2.566317393,1.461760721,-3.188450321
242.1575,3.778248809,-3.888979014,-2.871511801,0.8513719059,-2.272867098
242.158,2.862665586,-1.142229345,-2.566317393,1.461760721,-2.272867098
242.1585,2.252276771,-0.5318405296,-1.65073417,1.461760721,-1.662478283
242.159,1.947082363,-2.363006976,-1.345539762,0.2409830905,0.1686881634
242.1595,1.641887955,-2.363006976,-2.261122986,-0.06421131716,1.99985461
242.16,1.336693548,0.3837426935,-2.871511801,-0.06421131716,2.610243425
242.1605,1.03149914,3.130492363,-3.176706209,-0.9797945403,2.305049017
242.161,0.4211103247,2.825297955,-3.481900616,-2.200572171,3.22063224
242.1615,-0.1892784907,2.825297955,-4.092289432,-2.810960986,4.746604279
242.162,-0.7996673061,5.572047624,-4.702678247,-2.200572171,5.96738191
242.1625,-0.4944728984,8.929186109,-4.39748384,-1.590183356,5.96738191
242.163,0.115915917,10.45515815,-3.787095024,-2.200572171,5.356993094
242.1635,1.03149914,10.76035256,-3.787095024,-3.116155394,4.746604279
242.164,1.947082363,11.98113019,-4.39748384,-3.116155394,4.746604279
242.1645,1.947082363,12.89671341,-4.092289432,-2.200572171,6.577770725
242.165,0.4211103247,13.20190782,-2.566317393,-1.590183356,9.019325987
242.1655,-0.4944728984,12.591519,-1.040345355,-1.895377763,10.54529803
242.166,-1.104861714,12.28632459,-0.7351509471,-2.200572171,10.54529803
242.1665,-1.104861714,11.67593578,-1.040345355,-2.200572171,9.629714802
242.167,-1.715250529,10.45515815,-1.65073417,-1.590183356,9.019325987
242.1675,-2.630833752,9.844769332,-1.955928578,-0.6746001326,8.714131579
242.168,-2.325639345,11.06554696,-1.65073417,-0.3694057249,7.188159541
242.1685,-1.410056122,11.67593578,-1.040345355,-0.6746001326,5.356993094
242.169,-1.715250529,10.14996374,-0.1247621317,-0.3694057249,4.136215463
242.1695,-2.630833752,6.792825255,0.180432276,0.5461774982,3.22063224
242.17,-3.241222568,4.046075586,-0.1247621317,2.072149537,1.99985461
242.1705,-2.020444937,1.909714732,-0.4299565394,2.98773276,0.4738825711
242.171,-0.1892784907,0.07854828584,-0.1247621317,3.903315983,-0.1365062443
242.1715,0.7263047324,-1.447423753,0.4856266837,4.513704798,-0.1365062443
242.172,1.641887955,-2.363006976,0.180432276,4.208510391,-1.052089467
242.1725,2.252276771,-3.278590199,-1.040345355,3.598121575,-3.188450321
242.173,2.862665586,-4.804562237,-1.65073417,3.598121575,-5.019616768
242.1735,2.557471179,-6.940923091,-1.345539762,4.208510391,-5.019616768
242.174,2.557471179,-8.46689513,-0.7351509471,4.818899206,-5.324811175
242.1745,2.862665586,-9.077283945,-1.040345355,3.903315983,-6.240394398
242.175,2.862665586,-9.687672761,-2.261122986,2.377343944,-7.461172029
242.1755,1.947082363,-10.60325598,-2.871511801,1.461760721,-6.240394398
242.176,0.115915917,-11.2136448,-1.955928578,1.156566314,-4.409227952
242.1765,-0.7996673061,-11.82403361,-0.1247621317,1.156566314,-3.493644729
242.177,-1.104861714,-12.73961684,0.180432276,0.2409830905,-4.409227952
242.1775,-1.104861714,-13.04481125,-0.1247621317,-0.6746001326,-4.409227952
242.178,-1.410056122,-11.82403361,-1.345539762,-1.895377763,-3.493644729
242.1785,-2.020444937,-9.077283945,-1.955928578,-2.200572171,-2.272867098
242.179,-2.630833752,-7.551311907,-1.040345355,-2.505766579,-1.357283875
242.1795,-2.325639345,-7.246117499,-0.1247621317,-3.116155394,-0.441700652
242.18,-1.715250529,-6.940923091,1.096015499,-3.72654421,1.084271386
242.1805,-0.7996673061,-5.109756645,1.401209907,-4.336933025,1.694660202
242.181,-0.4944728984,-2.668201383,1.401209907,-5.252516248,1.694660202
242.1815,-1.715250529,-0.8370349373,2.31679313,-6.168099471,1.694660202
242.182,-3.241222568,0.3837426935,3.232376353,-6.778488287,2.610243425
242.1825,-3.546416975,1.604520324,3.537570761,-7.388877102,3.831021056
242.183,-1.715250529,2.520103547,2.011598722,-7.083682694,3.525826648
242.1835,0.4211103247,3.130492363,0.180432276,-6.473293879,2.915437833
242.184,1.03149914,4.351269994,-0.1247621317,-5.252516248,2.305049017
242.1845,0.115915917,6.487630848,0.7908210914,-4.031738617,2.610243425
242.185,-0.1892784907,8.623991701,1.096015499,-2.505766579,2.305049017
242.1855,0.7263047324,9.539574925,0.4856266837,-0.9797945403,1.694660202
242.186,1.947082363,8.929186109,-0.1247621317,-0.3694057249,1.084271386
242.1865,1.947082363,8.318797294,0.180432276,-0.9797945403,1.389465794
242.187,0.115915917,8.318797294,0.180432276,-1.284988948,2.915437833
242.1875,-0.4944728984,8.623991701,-0.1247621317,-0.06421131716,5.662187502
242.188,0.115915917,8.013602886,-1.040345355,1.766955129,7.798548356
242.1885,0.7263047324,6.792825255,-1.65073417,2.682538352,8.103742764
242.189,0.4211103247,5.266853217,-1.65073417,2.072149537,6.272576317
242.1895,-0.4944728984,4.351269994,-0.7351509471,1.461760721,4.746604279
242.19,-1.410056122,4.656464401,1.706404315,1.461760721,4.746604279
242.1905,-1.410056122,4.961658809,5.063542799,1.461760721,5.051798687
242.191,-0.4944728984,4.961658809,5.673931615,0.8513719059,3.525826648
242.1915,0.7263047324,4.351269994,3.232376353,0.2409830905,1.389465794
242.192,1.03149914,2.520103547,1.096015499,-0.06421131716,0.1686881634
242.1925,-0.1892784907,0.3837426935,2.011598722,0.2409830905,-0.1365062443
242.193,-2.020444937,-1.142229345,3.842765168,0.2409830905,-1.052089467
242.1935,-2.325639345,-2.973395791,3.842765168,0.2409830905,-2.578061506
242.194,-1.410056122,-4.49936783,2.31679313,0.2409830905,-3.798839137
242.1945,-0.7996673061,-4.804562237,1.096015499,0.2409830905,-4.104033544
242.195,-1.104861714,-4.194173422,1.096015499,-0.06421131716,-4.409227952
242.1955,-0.7996673061,-3.583784607,0.7908210914,-0.9797945403,-5.019616768
242.196,0.4211103247,-4.804562237,0.7908210914,-0.6746001326,-5.324811175
242.1965,1.641887955,-6.025339868,1.706404315,0.2409830905,-5.935199991
242.197,1.336693548,-5.414951053,2.621987538,0.5461774982,-7.155977621
242.1975,1.336693548,-3.278590199,1.706404315,-0.3694057249,-7.766366437
242.198,2.862665586,-2.057812568,-0.4299565394,-1.590183356,-7.461172029
242.1985,4.99902644,-2.363006976,-1.345539762,-1.590183356,-5.935199991
242.199,4.99902644,-2.973395791,-0.4299565394,-0.9797945403,-4.409227952
242.1995,3.167859994,-2.057812568,0.7908210914,-1.284988948,-3.188450321
242.2,1.336693548,-0.8370349373,1.096015499,-2.810960986,-1.967672691
242.2005,0.4211103247,-0.5318405296,1.096015499,-4.031738617,-0.441700652
242.201,0.4211103247,-0.2266461219,1.401209907,-4.031738617,0.7790769788
242.2015,0.115915917,0.3837426935,1.706404315,-4.336933025,1.99985461
242.202,-1.410056122,1.909714732,2.011598722,-5.252516248,3.831021056
242.2025,-2.93602816,3.130492363,2.927181945,-6.168099471,5.662187502
242.203,-3.241222568,4.656464401,3.842765168,-6.168099471,7.188159541
242.2035,-2.325639345,6.487630848,3.842765168,-5.252516248,8.103742764
242.204,-0.7996673061,7.403214071,2.927181945,-3.72654421,8.103742764
242.2045,0.115915917,6.487630848,2.621987538,-2.505766579,6.882965133
242.205,0.7263047324,5.877242032,2.927181945,-1.895377763,5.051798687
242.2055,2.252276771,7.098019663,2.011598722,-1.895377763,3.525826648
242.206,3.778248809,8.013602886,0.180432276,-1.590183356,2.610243425
242.2065,4.388637625,5.877242032,-0.1247621317,-0.6746001326,2.610243425
242.207,4.083443217,2.21490914,-0.1247621317,0.2409830905,2.610243425
242.2075,4.083443217,0.9941315089,-0.1247621317,0.5461774982,1.99985461
242.208,4.388637625,3.130492363,-0.4299565394,0.5461774982,0.4738825711
242.2085,4.388637625,4.351269994,-0.1247621317,1.156566314,-0.7468950597
242.209,3.473054402,2.520103547,0.180432276,1.766955129,-2.578061506
242.2095,2.252276771,-0.8370349373,0.180432276,2.072149537,-3.798839137
242.21,1.641887955,-2.668201383,-0.1247621317,2.377343944,-3.493644729
242.2105,1.336693548,-2.363006976,-0.1247621317,2.98773276,-1.967672691
242.211,0.7263047324,-2.057812568,1.096015499,3.598121575,-1.662478283
242.2115,0.7263047324,-2.668201383,1.706404315,3.903315983,-4.71442236
242.212,1.641887955,-3.278590199,1.096015499,2.98773276,-8.987144068
242.2125,2.862665586,-3.583784607,1.096015499,2.682538352,-11.42869933
242.213,4.388637625,-4.49936783,2.011598722,2.98773276,-12.03908814
242.2135,5.609415256,-6.025339868,2.31679313,3.598121575,-13.56506018
242.214,6.524998479,-8.161700722,1.096015499,3.903315983,-16.92219867
242.2145,6.524998479,-9.687672761,-0.4299565394,3.598121575,-17.53258748
242.215,5.609415256,-9.992867168,-0.7351509471,3.292927168,-15.09103222
242.2155,5.304220848,-9.077283945,-0.4299565394,2.377343944,-14.175449
242.216,5.304220848,-8.46689513,-0.4299565394,1.461760721,-16.31180985
242.2165,4.693832032,-9.687672761,-1.040345355,0.8513719059,-15.70142104
242.217,3.167859994,-11.51883921,-0.4299565394,1.156566314,-7.461172029
242.2175,2.862665586,-12.43442243,0.180432276,1.156566314,3.22063224
242.218,3.473054402,-11.82403361,-0.1247621317,0.2409830905,6.272576317
242.2185,4.693832032,-10.60325598,-0.7351509471,-0.3694057249,-0.441700652
242.219,4.99902644,-9.077283945,-0.7351509471,-0.6746001326,-8.987144068
242.2195,4.99902644,-7.246117499,-0.1247621317,-0.6746001326,-12.34428255
242.22,4.693832032,-5.72014546,0.180432276,-1.895377763,-11.73389374
242.2205,4.083443217,-4.194173422,-0.1247621317,-4.031738617,-9.597532883
242.221,3.473054402,-2.363006976,-0.4299565394,-4.94732184,-7.155977621
242.2215,3.167859994,0.07854828584,-0.1247621317,-4.031738617,-4.71442236
242.222,2.557471179,0.3837426935,0.4856266837,-2.505766579,-2.578061506
242.2225,0.115915917,-2.668201383,1.401209907,-1.895377763,2.915437833
242.223,-3.241222568,-7.551311907,2.927181945,-1.895377763,15.42840855
242.2235,-5.377583422,-8.772089538,5.063542799,-1.284988948,30.07774012
242.224,-5.987972237,-4.804562237,6.589514838,-0.9797945403,36.79201709
242.2245,-5.987972237,-0.2266461219,6.589514838,-0.9797945403,32.51929538
242.225,-6.293166645,2.21490914,5.368737207,-1.284988948,23.05826874
242.2255,-6.293166645,3.435686771,4.147959576,-0.9797945403,16.03879736
242.226,-5.987972237,5.877242032,2.621987538,-0.9797945403,12.98685329
242.2265,-5.987972237,9.234380517,1.096015499,-1.590183356,11.46088125
242.227,-5.987972237,12.28632459,0.4856266837,-1.590183356,9.324520394
242.2275,-5.072389014,13.50710222,0.4856266837,-0.3694057249,5.051798687
242.228,-3.241222568,12.591519,0.180432276,1.156566314,-0.7468950597
242.2285,-1.715250529,11.67593578,-0.7351509471,1.766955129,-5.630005583
242.229,-0.7996673061,14.11749104,-1.955928578,1.156566314,-7.461172029
242.2295,0.115915917,20.83176801,-1.955928578,1.156566314,-7.461172029
242.23,0.115915917,26.32526735,-1.345539762,2.377343944,-8.68194966
242.2305,-0.7996673061,26.93565616,-1.345539762,2.98773276,-8.987144068
242.231,-1.715250529,24.4941009,-1.345539762,2.682538352,-8.071560845
242.2315,-0.4944728984,20.83176801,-1.040345355,1.766955129,-8.376755252
242.232,2.252276771,13.50710222,-1.040345355,1.766955129,-9.597532883
242.2325,4.083443217,0.07854828584,-2.261122986,1.766955129,-5.324811175
242.233,2.557471179,-13.65520006,-3.787095024,1.766955129,7.493353948
242.2335,0.7263047324,-18.84350499,-3.787095024,2.072149537,19.70113026
242.234,0.4211103247,-14.87597769,-2.871511801,2.682538352,18.17515822
242.2345,1.336693548,-9.382478353,-2.261122986,3.598121575,3.831021056
242.235,2.252276771,-8.161700722,-2.566317393,4.208510391,-8.68194966
242.2355,3.167859994,-9.382478353,-2.261122986,3.292927168,-13.56506018
242.236,4.388637625,-11.51883921,-1.345539762,1.461760721,-15.70142104
242.2365,4.693832032,-17.31753295,-1.345539762,-0.06421131716,-19.36375393
242.237,2.862665586,-26.16817078,-1.65073417,-0.3694057249,-21.19492038
242.2375,0.7263047324,-31.35647571,-1.040345355,0.2409830905,-18.1429763
242.238,0.115915917,-28.60972604,-0.1247621317,0.8513719059,-13.56506018
242.2385,0.115915917,-21.59025466,-1.040345355,-0.06421131716,-10.51311611
242.239,0.115915917,-15.48636651,-4.39748384,-0.9797945403,-7.766366437
242.2395,-0.1892784907,-10.90845039,-8.059816732,-1.284988948,-6.240394398
242.24,-0.1892784907,-5.414951053,-9.58578877,-1.284988948,-8.68194966
242.2405,-0.7996673061,0.07854828584,-8.670205547,-2.200572171,-11.12350492
242.241,-2.93602816,2.825297955,-6.228650286,-3.116155394,-5.324811175
242.2415,-5.682777829,3.740881178,-3.787095024,-3.116155394,9.019325987
242.242,-5.987972237,4.961658809,-1.65073417,-2.200572171,19.70113026
242.2425,-3.241222568,7.403214071,-1.040345355,-1.895377763,18.48035263
242.243,-0.1892784907,9.539574925,-2.261122986,-2.505766579,10.54529803
242.2435,0.115915917,11.06554696,-4.39748384,-3.421349802,5.96738191
242.244,-1.104861714,12.591519,-5.61826147,-3.421349802,5.96738191
242.2445,-1.715250529,13.50710222,-5.007872655,-2.810960986,5.051798687
242.245,-1.715250529,13.81229663,-3.787095024,-2.200572171,2.305049017
242.2455,-1.715250529,14.11749104,-3.176706209,-1.895377763,1.389465794
242.246,-2.325639345,14.42268545,-4.092289432,-1.590183356,3.22063224
242.2465,-2.020444937,13.50710222,-5.007872655,-1.895377763,4.136215463
242.247,-0.4944728984,11.67593578,-4.39748384,-2.200572171,3.831021056
242.2475,0.115915917,11.06554696,-2.566317393,-1.895377763,3.831021056
242.248,-0.4944728984,12.89671341,-1.040345355,-1.895377763,4.136215463
242.2485,-1.410056122,15.33826867,-1.345539762,-1.284988948,4.136215463
242.249,-0.4944728984,15.94865749,-2.261122986,-0.3694057249,3.831021056
242.2495,0.115915917,13.81229663,-2.261122986,0.8513719059,3.831021056
242.25,0.115915917,10.76035256,-1.345539762,2.072149537,3.22063224
242.2505,-0.7996673061,7.708408478,-0.7351509471,2.682538352,1.99985461
242.251,-0.7996673061,4.046075586,-0.7351509471,2.682538352,1.084271386
242.2515,-0.7996673061,0.07854828584,-1.040345355,2.682538352,2.305049017
242.252,-1.715250529,-3.278590199,-0.7351509471,2.98773276,3.22063224
242.2525,-2.93602816,-5.72014546,-0.7351509471,2.682538352,1.084271386
242.253,-2.325639345,-7.551311907,-0.4299565394,2.377343944,-2.272867098
242.2535,-1.104861714,-7.856506314,-0.1247621317,2.377343944,-4.71442236
242.254,-0.4944728984,-6.330534276,0.180432276,3.292927168,-5.935199991
242.2545,-0.7996673061,-2.973395791,0.7908210914,4.513704798,-7.766366437
242.255,-0.1892784907,0.07854828584,1.401209907,4.513704798,-10.2079217
242.2555,0.7263047324,0.6889371012,1.706404315,3.598121575,-13.25986578
242.256,0.7263047324,-2.363006976,1.096015499,2.072149537,-16.00661544
242.2565,0.4211103247,-8.46689513,-0.1247621317,1.766955129,-17.53258748
242.257,1.336693548,-13.65520006,-0.7351509471,2.377343944,-15.70142104
242.2575,3.473054402,-15.48636651,-0.4299565394,2.377343944,-9.292338475
242.258,4.693832032,-13.65520006,-0.4299565394,0.8513719059,-1.967672691
242.2585,3.473054402,-9.992867168,-1.040345355,-0.3694057249,2.305049017
242.259,1.641887955,-6.635728684,-1.040345355,-0.6746001326,3.22063224
242.2595,-0.1892784907,-3.888979014,-0.1247621317,-0.06421131716,2.610243425
242.26,-2.630833752,-2.057812568,0.180432276,-0.06421131716,2.305049017
242.2605,-4.462000199,-0.8370349373,-0.1247621317,-1.284988948,2.305049017
242.261,-5.072389014,0.3837426935,0.180432276,-1.895377763,2.915437833
242.2615,-4.767194606,2.21490914,1.706404315,-1.590183356,4.441409871
242.262,-4.462000199,4.046075586,2.927181945,-0.9797945403,5.96738191
242.2625,-4.767194606,5.877242032,2.31679313,-1.284988948,7.188159541
242.263,-3.241222568,7.403214071,0.4856266837,-2.200572171,7.188159541
242.2635,-1.104861714,8.318797294,-0.7351509471,-2.810960986,7.188159541
242.264,-0.1892784907,8.623991701,-1.040345355,-3.116155394,7.188159541
242.2645,-0.7996673061,8.929186109,-1.345539762,-2.810960986,7.188159541
242.265,-0.7996673061,9.844769332,-1.040345355,-1.895377763,6.577770725
242.2655,0.115915917,11.67593578,-0.1247621317,-1.895377763,5.96738191
242.266,0.7263047324,11.98113019,0.4856266837,-2.200572171,5.662187502
242.2665,0.7263047324,11.37074137,0.7908210914,-2.810960986,5.051798687
242.267,1.336693548,11.06554696,0.4856266837,-2.505766579,4.136215463
242.2675,2.252276771,12.28632459,0.4856266837,-2.200572171,3.22063224
242.268,2.252276771,13.50710222,0.7908210914,-2.505766579,3.22063224
242.2685,2.252276771,13.20190782,0.180432276,-2.200572171,3.22063224
242.269,3.167859994,11.98113019,-0.1247621317,-1.284988948,2.305049017
242.2695,5.304220848,11.37074137,-0.1247621317,-0.06421131716,1.084271386
242.27,5.304220848,11.06554696,1.096015499,0.2409830905,0.1686881634
242.2705,3.473054402,10.14996374,1.706404315,0.2409830905,-0.1365062443
242.271,2.252276771,8.623991701,1.401209907,1.461760721,-0.441700652
242.2715,2.557471179,6.792825255,0.7908210914,2.377343944,-1.357283875
242.272,2.252276771,4.656464401,0.7908210914,1.766955129,-1.967672691
242.2725,0.115915917,2.21490914,1.096015499,0.2409830905,-2.272867098
242.273,-1.410056122,0.07854828584,1.096015499,0.2409830905,-3.188450321
242.2735,-0.1892784907,-0.8370349373,0.7908210914,1.766955129,-4.71442236
242.274,1.336693548,-2.057812568,0.4856266837,2.682538352,-5.935199991
242.2745,1.03149914,-3.278590199,0.180432276,1.766955129,-5.935199991
242.275,0.115915917,-4.194173422,0.7908210914,1.156566314,-6.240394398
242.2755,0.115915917,-4.49936783,1.706404315,2.072149537,-6.850783214
242.276,1.336693548,-5.109756645,2.011598722,2.682538352,-6.240394398
242.2765,1.336693548,-7.246117499,2.011598722,1.766955129,-4.409227952
242.277,-0.1892784907,-8.772089538,2.31679313,0.2409830905,-1.967672691
242.2775,-1.410056122,-6.940923091,2.621987538,0.2409830905,-1.357283875
242.278,-0.7996673061,-2.363006976,2.927181945,0.5461774982,-2.272867098
242.2785,-0.1892784907,1.299325917,2.927181945,-0.3694057249,-4.409227952
242.279,-1.104861714,2.21490914,3.232376353,-1.590183356,-7.155977621
242.2795,-1.715250529,0.9941315089,3.537570761,-1.590183356,-8.987144068
242.28,-1.104861714,0.3837426935,3.537570761,-0.9797945403,-8.071560845
242.2805,-0.4944728984,0.3837426935,2.927181945,-1.590183356,-4.104033544
242.281,-0.4944728984,-0.2266461219,2.011598722,-3.421349802,-0.1365062443
242.2815,-1.104861714,-1.75261816,2.011598722,-4.031738617,1.389465794
242.282,-1.410056122,-2.057812568,2.621987538,-2.810960986,2.305049017
242.2825,-1.715250529,-1.142229345,2.31679313,-1.895377763,4.136215463
242.283,-2.020444937,0.07854828584,1.706404315,-2.200572171,5.96738191
242.2835,-1.715250529,0.6889371012,0.7908210914,-3.116155394,6.272576317
242.284,-1.104861714,1.299325917,0.7908210914,-3.116155394,5.356993094
242.2845,-0.4944728984,3.130492363,1.096015499,-2.200572171,4.746604279
242.285,-0.4944728984,4.961658809,0.4856266837,-1.895377763,4.441409871
242.2855,-0.7996673061,5.877242032,-0.4299565394,-1.895377763,3.831021056
242.286,-0.4944728984,5.572047624,-1.65073417,-2.200572171,2.915437833
242.2865,0.115915917,5.266853217,-1.955928578,-2.505766579,2.610243425
242.287,0.4211103247,5.266853217,-1.040345355,-2.505766579,3.22063224
242.2875,0.115915917,5.877242032,0.4856266837,-1.590183356,3.22063224
242.288,-0.4944728984,5.572047624,2.011598722,-0.06421131716,2.305049017
242.2885,-0.7996673061,4.046075586,2.621987538,1.461760721,1.99985461
242.289,-1.104861714,1.299325917,2.011598722,2.98773276,3.525826648
242.2895,-1.104861714,-0.8370349373,1.706404315,3.598121575,4.136215463
242.29,-1.104861714,-2.363006976,2.011598722,3.292927168,2.610243425
242.2905,-0.7996673061,-2.363006976,2.011598722,2.682538352,0.4738825711
242.291,-1.104861714,-2.363006976,2.011598722,2.682538352,-0.441700652
242.2915,-1.715250529,-3.888979014,2.31679313,3.292927168,-0.441700652
242.292,-2.020444937,-6.635728684,3.232376353,4.513704798,-0.441700652
242.2925,-0.7996673061,-9.077283945,2.927181945,5.429288021,-1.967672691
242.293,0.4211103247,-10.60325598,1.706404315,6.344871245,-3.798839137
242.2935,0.7263047324,-12.43442243,-0.1247621317,7.260454468,-5.630005583
242.294,0.4211103247,-14.26558888,-0.1247621317,7.870843283,-6.545588806
242.2945,0.4211103247,-15.79156091,-0.1247621317,7.565648875,-6.240394398
242.295,1.641887955,-16.09675532,-0.1247621317,6.650065652,-5.019616768
242.2955,1.641887955,-16.40194973,-0.1247621317,5.429288021,-4.409227952
242.296,0.7263047324,-17.62272736,-0.4299565394,4.208510391,-5.019616768
242.2965,-0.1892784907,-18.84350499,-0.4299565394,2.682538352,-5.630005583
242.297,0.4211103247,-18.53831058,-0.7351509471,2.072149537,-5.630005583
242.2975,1.641887955,-17.31753295,-1.345539762,1.461760721,-5.019616768
242.298,1.03149914,-16.40194973,-1.040345355,1.156566314,-4.104033544
242.2985,-1.104861714,-15.79156091,-0.1247621317,0.5461774982,-3.188450321
242.299,-2.93602816,-14.57078328,0.4856266837,-0.3694057249,-1.662478283
242.2995,-3.241222568,-13.04481125,0.7908210914,-0.9797945403,-0.441700652
242.3,-2.93602816,-12.43442243,0.4856266837,-0.9797945403,-0.1365062443
242.3005,-3.241222568,-12.43442243,-0.1247621317,-1.284988948,0.7790769788
242.301,-3.241222568,-11.82403361,-0.1247621317,-2.505766579,2.610243425
242.3015,-2.020444937,-9.687672761,0.4856266837,-4.031738617,4.746604279
242.302,-0.4944728984,-7.246117499,0.4856266837,-4.94732184,5.356993094
242.3025,-0.1892784907,-5.414951053,0.7908210914,-4.336933025,5.051798687
242.303,-0.4944728984,-4.804562237,0.7908210914,-2.505766579,5.051798687
242.3035,-0.4944728984,-4.49936783,1.096015499,-1.590183356,6.272576317
242.304,-0.1892784907,-3.278590199,0.7908210914,-1.895377763,6.882965133
242.3045,0.115915917,-1.75261816,0.4856266837,-2.505766579,5.96738191
242.305,0.115915917,-0.5318405296,0.180432276,-2.505766579,4.746604279
242.3055,0.4211103247,0.07854828584,-0.1247621317,-2.810960986,5.051798687
242.306,1.03149914,0.9941315089,-0.1247621317,-3.421349802,6.272576317
242.3065,0.7263047324,2.825297955,-0.7351509471,-2.810960986,6.577770725
242.307,-0.4944728984,3.740881178,-0.1247621317,-1.284988948,5.051798687
242.3075,-1.410056122,2.825297955,1.401209907,0.8513719059,3.525826648
242.308,-1.410056122,1.299325917,2.31679313,1.766955129,3.525826648
242.3085,-0.1892784907,1.604520324,1.096015499,0.8513719059,3.22063224
242.309,1.03149914,2.825297955,-0.7351509471,0.2409830905,1.694660202
242.3095,1.947082363,2.520103547,-1.345539762,1.156566314,-0.1365062443
242.31,1.336693548,-0.2266461219,-0.7351509471,2.98773276,-0.441700652
242.3105,-0.1892784907,-3.888979014,-0.1247621317,5.429288021,-0.1365062443
242.311,-0.4944728984,-5.109756645,-0.4299565394,6.650065652,-0.7468950597
242.3115,0.115915917,-3.888979014,-1.040345355,6.344871245,-3.798839137
242.312,1.03149914,-3.583784607,-2.261122986,5.429288021,-5.935199991
242.3125,-0.1892784907,-5.414951053,-2.871511801,5.429288021,-5.935199991
242.313,-2.020444937,-7.551311907,-2.566317393,5.734482429,-4.71442236
242.3135,-1.715250529,-7.856506314,-1.345539762,5.734482429,-5.019616768
242.314,0.115915917,-6.330534276,-1.345539762,4.208510391,-6.545588806
242.3145,0.4211103247,-6.025339868,-3.176706209,2.072149537,-7.155977621
242.315,-0.7996673061,-8.161700722,-4.092289432,1.156566314,-6.850783214
242.3155,-1.410056122,-10.90845039,-2.261122986,1.461760721,-5.935199991
242.316,-0.1892784907,-11.2136448,-0.4299565394,0.8513719059,-5.324811175
242.3165,-0.4944728984,-9.382478353,-1.040345355,-0.9797945403,-4.71442236
242.317,-2.325639345,-7.856506314,-2.261122986,-2.810960986,-4.104033544
242.3175,-2.93602816,-8.161700722,-1.955928578,-3.421349802,-3.798839137
242.318,-1.104861714,-7.551311907,-0.1247621317,-3.72654421,-3.493644729
242.3185,-0.1892784907,-4.804562237,0.180432276,-3.72654421,-3.188450321
242.319,-2.020444937,-1.447423753,-0.7351509471,-3.116155394,-3.493644729
242.3195,-4.462000199,0.07854828584,-1.65073417,-2.200572171,-4.409227952
242.32,-3.241222568,0.07854828584,-1.345539762,-2.200572171,-4.409227952
242.3205,0.115915917,0.07854828584,-1.345539762,-4.031738617,-3.188450321
242.321,1.336693548,1.299325917,-2.261122986,-5.557710656,-1.357283875
242.3215,0.7263047324,2.825297955,-2.871511801,-4.642127433,-0.7468950597
242.322,0.7263047324,4.046075586,-2.261122986,-2.810960986,-0.1365062443
242.3225,1.947082363,5.266853217,-1.345539762,-2.200572171,1.694660202
242.323,2.252276771,6.792825255,-1.955928578,-3.421349802,3.831021056
242.3235,1.641887955,8.623991701,-2.871511801,-4.031738617,4.441409871
242.324,1.03149914,9.539574925,-3.481900616,-4.031738617,3.831021056
242.3245,0.7263047324,10.45515815,-2.871511801,-4.031738617,4.746604279
242.325,0.115915917,11.37074137,-1.345539762,-4.94732184,7.493353948
242.3255,-0.7996673061,12.591519,0.180432276,-4.94732184,8.714131579
242.326,-1.410056122,13.50710222,1.096015499,-3.116155394,7.188159541
242.3265,-1.715250529,14.11749104,1.096015499,-1.590183356,5.051798687
242.327,-2.020444937,13.50710222,0.180432276,-1.895377763,5.356993094
242.3275,-2.93602816,12.591519,-0.1247621317,-3.116155394,6.272576317
242.328,-3.546416975,12.89671341,0.7908210914,-2.505766579,5.662187502
242.3285,-4.462000199,13.81229663,1.706404315,-0.06421131716,2.915437833
242.329,-5.072389014,13.20190782,2.011598722,1.156566314,0.7790769788
242.3295,-4.462000199,10.14996374,1.706404315,0.2409830905,0.4738825711
242.33,-2.630833752,6.487630848,1.706404315,-0.3694057249,1.084271386
242.3305,-1.104861714,4.656464401,1.401209907,0.5461774982,1.084271386
242.331,-0.4944728984,5.572047624,0.7908210914,2.072149537,-1.052089467
242.3315,0.115915917,6.487630848,0.180432276,2.377343944,-5.630005583
242.332,2.252276771,6.792825255,0.180432276,1.461760721,-12.34428255
242.3325,4.388637625,6.792825255,0.180432276,1.156566314,-18.44817071
242.333,5.304220848,6.487630848,-0.4299565394,2.072149537,-22.41569801
242.3335,5.609415256,5.572047624,-1.040345355,2.682538352,-24.85725327
242.334,5.914609663,4.351269994,-1.345539762,2.377343944,-25.46764208
242.3345,5.914609663,3.435686771,-1.040345355,1.461760721,-24.55205886
242.335,6.524998479,2.825297955,-1.65073417,0.8513719059,-22.1105036
242.3355,7.440581702,2.21490914,-2.566317393,0.5461774982,-20.88972597
242.336,8.96655374,1.604520324,-3.481900616,0.2409830905,-19.97414274
242.3365,8.661359333,-0.2266461219,-4.092289432,-0.06421131716,-13.25986578
242.337,5.914609663,-6.635728684,-4.702678247,-0.9797945403,3.22063224
242.3375,2.862665586,-15.79156091,-4.39748384,-1.590183356,23.36346315
242.338,1.336693548,-22.20064348,-2.871511801,-0.6746001326,34.35046183
242.3385,1.03149914,-21.59025466,-0.7351509471,0.5461774982,30.38293453
242.339,1.336693548,-15.48636651,-0.1247621317,1.156566314,18.78554703
242.3395,2.252276771,-9.382478353,-1.040345355,-0.06421131716,9.324520394
242.34,4.99902644,-6.025339868,-2.261122986,-0.9797945403,5.356993094
242.3405,7.135387294,-3.583784607,-3.481900616,-1.284988948,4.441409871
242.341,6.524998479,-0.8370349373,-4.092289432,-1.284988948,4.441409871
242.3415,3.778248809,1.299325917,-3.787095024,-2.200572171,5.051798687
242.342,2.557471179,2.825297955,-2.566317393,-3.72654421,6.272576317
242.3425,3.473054402,4.351269994,-1.040345355,-3.72654421,6.272576317
242.343,4.388637625,6.792825255,-0.7351509471,-2.810960986,5.96738191
242.3435,3.778248809,9.844769332,-1.345539762,-2.505766579,6.272576317
242.344,2.252276771,11.37074137,-1.65073417,-3.72654421,6.882965133
242.3445,1.641887955,11.67593578,-0.7351509471,-4.336933025,6.882965133
242.345,1.03149914,12.591519,-0.1247621317,-4.031738617,6.882965133
242.3455,-0.1892784907,13.81229663,0.4856266837,-2.810960986,8.103742764
242.346,-2.325639345,14.42268545,2.31679313,-2.200572171,9.019325987
242.3465,-3.546416975,14.42268545,4.453153984,-1.590183356,8.408937171
242.347,-3.241222568,13.50710222,5.368737207,-0.9797945403,7.188159541
242.3475,-2.93602816,12.28632459,4.147959576,-0.9797945403,6.272576317
242.348,-3.851611383,10.76035256,3.232376353,-0.6746001326,6.272576317
242.3485,-4.767194606,8.929186109,4.147959576,0.2409830905,5.96738191
242.349,-4.767194606,8.623991701,6.28432043,2.682538352,4.441409871
242.3495,-4.156805791,9.539574925,6.894709245,4.513704798,2.610243425
242.35,-3.851611383,9.539574925,5.979126022,4.513704798,1.084271386
242.3505,-3.241222568,7.098019663,4.147959576,3.598121575,-0.1365062443
242.351,-1.104861714,3.740881178,2.31679313,3.292927168,-1.052089467
242.3515,0.7263047324,1.604520324,1.096015499,3.292927168,-2.578061506
242.352,1.641887955,1.604520324,0.7908210914,2.682538352,-3.798839137
242.3525,0.7263047324,1.299325917,0.4856266837,1.766955129,-4.71442236
242.353,0.115915917,-1.447423753,-0.4299565394,1.766955129,-5.019616768
242.3535,0.115915917,-5.414951053,-1.65073417,2.377343944,-5.630005583
242.354,0.7263047324,-7.246117499,-1.955928578,2.682538352,-5.935199991
242.3545,1.03149914,-7.246117499,-0.7351509471,1.766955129,-5.935199991
242.355,0.4211103247,-6.635728684,0.180432276,0.5461774982,-5.935199991
242.3555,0.7263047324,-6.940923091,0.7908210914,0.5461774982,-6.240394398
242.356,1.336693548,-7.856506314,0.4856266837,1.156566314,-6.240394398
242.3565,1.641887955,-7.856506314,0.180432276,1.461760721,-6.240394398
242.357,1.947082363,-7.551311907,-0.7351509471,0.8513719059,-6.545588806
242.3575,2.252276771,-7.551311907,-1.65073417,-0.3694057249,-6.850783214
242.358,2.252276771,-7.856506314,-1.345539762,-1.590183356,-5.935199991
242.3585,2.252276771,-7.551311907,-0.1247621317,-1.895377763,-4.104033544
242.359,2.252276771,-6.025339868,-0.1247621317,-1.895377763,-2.883255914
242.3595,2.862665586,-3.888979014,-1.040345355,-2.200572171,-3.188450321
242.36,4.083443217,-1.142229345,-1.345539762,-2.810960986,-3.188450321
242.3605,4.693832032,1.604520324,-0.7351509471,-3.421349802,-1.357283875
242.361,5.304220848,4.656464401,-0.7351509471,-4.336933025,0.7790769788
242.3615,5.609415256,6.792825255,-1.345539762,-4.94732184,1.389465794
242.362,5.304220848,8.013602886,-1.345539762,-4.642127433,0.7790769788
242.3625,4.083443217,8.318797294,-0.1247621317,-3.421349802,0.7790769788
242.363,2.862665586,8.929186109,0.180432276,-2.810960986,2.610243425
242.3635,2.862665586,10.76035256,-0.7351509471,-3.116155394,3.831021056
242.364,3.778248809,12.28632459,-1.345539762,-4.031738617,4.136215463
242.3645,3.778248809,13.50710222,-0.7351509471,-3.421349802,4.136215463
242.365,2.862665586,13.50710222,-0.1247621317,-2.200572171,4.441409871
242.3655,1.947082363,13.50710222,-0.1247621317,-1.590183356,4.441409871
242.366,1.336693548,13.20190782,-0.1247621317,-1.590183356,4.441409871
242.3665,0.115915917,12.591519,0.7908210914,-1.284988948,5.051798687
242.367,-0.7996673061,11.98113019,1.706404315,-0.6746001326,5.662187502
242.3675,-1.104861714,13.81229663,0.7908210914,-0.3694057249,5.662187502
242.368,-0.7996673061,17.47462952,0.180432276,-0.3694057249,5.051798687
242.3685,-0.4944728984,20.83176801,1.401209907,-0.3694057249,4.441409871
242.369,-0.4944728984,21.44215682,2.621987538,0.8513719059,2.915437833
242.3695,-0.1892784907,20.22137919,2.011598722,2.682538352,0.1686881634
242.37,0.115915917,18.08501834,1.096015499,2.682538352,-2.578061506
242.3705,0.7263047324,13.81229663,2.011598722,0.8513719059,-4.409227952
242.371,0.115915917,6.792825255,2.621987538,-0.9797945403,-4.71442236
242.3715,-0.1892784907,-0.2266461219,1.706404315,-1.284988948,-4.71442236
242.372,-1.104861714,-2.973395791,-0.1247621317,-0.06421131716,-5.630005583
242.3725,-2.020444937,-0.5318405296,0.180432276,1.461760721,-8.68194966
242.373,-2.020444937,2.21490914,2.011598722,2.682538352,-13.25986578
242.3735,-1.104861714,0.6889371012,2.621987538,2.98773276,-13.56506018
242.374,0.115915917,-5.109756645,1.706404315,2.682538352,-5.019616768
242.3745,-0.7996673061,-12.12922802,1.706404315,2.682538352,7.188159541
242.375,-3.546416975,-17.62272736,2.927181945,2.682538352,13.29204769
242.3755,-5.072389014,-21.59025466,3.537570761,2.98773276,7.798548356
242.376,-4.462000199,-24.33700433,2.31679313,2.98773276,-1.052089467
242.3765,-2.325639345,-24.03180992,1.096015499,2.682538352,-3.798839137
242.377,-1.104861714,-20.36947703,0.7908210914,1.766955129,-1.662478283
242.3775,-0.7996673061,-15.48636651,1.096015499,0.2409830905,-2.883255914
242.378,-0.4944728984,-11.51883921,1.096015499,-0.9797945403,-8.68194966
242.3785,-0.4944728984,-9.077283945,0.4856266837,-2.200572171,-12.34428255
242.379,-1.104861714,-6.940923091,0.180432276,-2.505766579,-10.51311611
242.3795,-1.410056122,-4.804562237,0.180432276,-2.810960986,-7.461172029
242.38,0.115915917,-3.583784607,0.7908210914,-3.72654421,-6.850783214
242.3805,1.03149914,-3.583784607,0.4856266837,-5.862905063,-6.240394398
242.381,0.7263047324,-3.278590199,-0.7351509471,-7.083682694,-3.493644729
242.3815,0.115915917,-1.447423753,-2.261122986,-6.778488287,-1.967672691
242.382,0.115915917,1.299325917,-1.955928578,-6.168099471,-1.662478283
242.3825,0.4211103247,3.130492363,-0.1247621317,-6.168099471,2.915437833
242.383,-0.7996673061,3.435686771,0.7908210914,-6.473293879,16.34399177
242.3835,-3.546416975,4.351269994,0.180432276,-4.94732184,30.07774012
242.384,-4.767194606,6.792825255,-0.1247621317,-3.421349802,32.51929538
242.3845,-4.156805791,10.14996374,-0.4299565394,-3.421349802,22.44787993
242.385,-4.156805791,12.591519,-0.7351509471,-4.642127433,11.46088125
242.3855,-5.072389014,12.89671341,-1.345539762,-4.94732184,7.493353948
242.386,-4.767194606,11.06554696,-1.345539762,-3.421349802,7.188159541
242.3865,-2.325639345,8.013602886,-0.1247621317,-2.810960986,6.577770725
242.387,-0.7996673061,4.351269994,-0.1247621317,-3.116155394,5.051798687
242.3875,-2.020444937,2.825297955,-1.345539762,-2.810960986,4.746604279
242.388,-3.851611383,3.740881178,-1.955928578,-0.6746001326,4.136215463
242.3885,-3.851611383,4.656464401,-1.040345355,1.461760721,1.694660202
242.389,-2.93602816,3.130492363,0.7908210914,2.377343944,-1.052089467
242.3895,-2.93602816,-0.2266461219,2.621987538,1.766955129,-2.272867098
242.39,-3.546416975,-3.583784607,4.453153984,2.682538352,-3.188450321
242.3905,-2.93602816,-7.551311907,5.368737207,4.818899206,-4.71442236
242.391,-2.630833752,-13.65520006,5.063542799,6.039676837,-5.324811175
242.3915,-3.546416975,-19.75908821,2.927181945,5.124093614,-2.578061506
242.392,-5.377583422,-20.97986585,1.401209907,3.903315983,0.7790769788
242.3925,-5.072389014,-17.31753295,1.706404315,3.903315983,2.610243425
242.393,-2.93602816,-13.35000565,2.927181945,5.124093614,1.99985461
242.3935,-1.104861714,-11.51883921,2.31679313,6.650065652,0.1686881634
242.394,0.115915917,-10.60325598,0.180432276,6.650065652,-2.578061506
242.3945,1.336693548,-8.772089538,-1.040345355,4.818899206,-6.850783214
242.395,3.473054402,-8.772089538,-0.4299565394,2.98773276,-8.987144068
242.3955,4.99902644,-12.43442243,-0.1247621317,2.682538352,-8.376755252
242.396,4.693832032,-14.87597769,-1.040345355,3.903315983,-7.766366437
242.3965,3.778248809,-12.12922802,-2.261122986,3.903315983,-9.902727291
242.397,3.778248809,-7.246117499,-1.955928578,2.377343944,-12.64947696
242.3975,4.083443217,-6.635728684,-0.4299565394,2.072149537,-13.25986578
242.398,4.083443217,-10.29806158,-0.7351509471,2.98773276,-11.73389374
242.3985,3.473054402,-12.12922802,-2.566317393,2.682538352,-11.42869933
242.399,3.167859994,-10.60325598,-4.092289432,-0.06421131716,-10.2079217
242.3995,1.947082363,-10.60325598,-3.481900616,-3.72654421,-3.188450321
242.4,-0.4944728984,-14.26558888,-1.955928578,-3.72654421,6.577770725
242.4005,-3.546416975,-16.40194973,-1.040345355,-0.3694057249,12.07127006
242.401,-6.293166645,-12.12922802,-0.7351509471,0.8513719059,9.93490921
242.4015,-7.819138683,-3.278590199,0.180432276,-0.3694057249,5.662187502
242.402,-8.734721906,3.435686771,1.401209907,-2.200572171,4.441409871
242.4025,-9.345110722,5.572047624,1.096015499,-1.895377763,5.96738191
242.403,-9.345110722,4.656464401,-0.4299565394,-0.9797945403,6.272576317
242.4035,-8.734721906,2.825297955,-1.65073417,-1.284988948,5.662187502
242.404,-7.513944276,2.21490914,-1.955928578,-2.505766579,5.051798687
242.4045,-5.682777829,3.130492363,-2.261122986,-2.505766579,4.441409871
242.405,-2.93602816,5.266853217,-3.176706209,-1.284988948,3.525826648
242.4055,-0.7996673061,8.318797294,-4.39748384,-0.06421131716,1.99985461
242.406,-0.1892784907,11.37074137,-4.39748384,-0.06421131716,1.389465794
242.4065,-0.4944728984,12.89671341,-4.092289432,0.2409830905,1.694660202
242.407,0.115915917,12.28632459,-3.481900616,0.2409830905,1.694660202
242.4075,1.641887955,9.844769332,-3.787095024,0.5461774982,1.084271386
242.408,3.167859994,7.708408478,-4.39748384,1.156566314,0.7790769788
242.4085,3.167859994,7.403214071,-5.007872655,2.072149537,1.084271386
242.409,2.862665586,7.708408478,-5.007872655,2.072149537,1.389465794
242.4095,2.862665586,6.792825255,-4.39748384,1.461760721,0.7790769788
242.41,2.862665586,4.656464401,-4.702678247,1.156566314,0.1686881634
242.4105,2.252276771,2.825297955,-5.313067063,2.98773276,-0.1365062443
242.411,1.336693548,2.21490914,-5.007872655,5.734482429,-1.357283875
242.4115,1.641887955,0.3837426935,-4.092289432,6.95526006,-2.578061506
242.412,2.862665586,-3.278590199,-3.176706209,5.734482429,-3.493644729
242.4125,2.862665586,-7.551311907,-3.176706209,4.208510391,-2.883255914
242.413,1.641887955,-9.992867168,-2.261122986,4.208510391,-1.967672691
242.4135,0.7263047324,-10.90845039,-0.7351509471,4.513704798,-1.967672691
242.414,1.336693548,-11.51883921,0.180432276,4.208510391,-3.798839137
242.4145,2.252276771,-12.43442243,-0.1247621317,3.598121575,-5.324811175
242.415,2.252276771,-13.96039447,-1.345539762,4.208510391,-5.630005583
242.4155,1.641887955,-15.79156091,-1.040345355,5.734482429,-5.324811175
242.416,1.336693548,-17.31753295,-0.1247621317,5.429288021,-5.935199991
242.4165,1.641887955,-17.01233855,-0.1247621317,3.292927168,-6.240394398
242.417,1.641887955,-15.48636651,-0.1247621317,1.156566314,-5.019616768
242.4175,1.336693548,-13.65520006,-0.7351509471,0.8513719059,-2.883255914
242.418,1.03149914,-12.43442243,-0.4299565394,1.156566314,-2.272867098
242.4185,1.641887955,-11.2136448,-0.1247621317,0.2409830905,-3.493644729
242.419,2.557471179,-9.382478353,0.4856266837,-0.3694057249,-3.493644729
242.4195,2.862665586,-6.940923091,0.4856266837,-0.06421131716,-1.357283875
242.42,2.557471179,-5.109756645,-0.4299565394,-0.06421131716,0.1686881634
242.4205,2.862665586,-3.278590199,-1.955928578,-0.06421131716,-0.1365062443
242.421,4.083443217,-0.8370349373,-2.566317393,-0.3694057249,-0.441700652
242.4215,5.609415256,1.604520324,-1.955928578,-0.06421131716,0.4738825711
242.422,6.219804071,3.740881178,-1.955928578,0.2409830905,2.610243425
242.4225,4.693832032,5.266853217,-2.261122986,-0.06421131716,3.525826648
242.423,2.557471179,5.877242032,-2.566317393,-0.6746001326,3.525826648
242.4235,1.947082363,6.792825255,-1.65073417,-0.3694057249,3.831021056
242.424,2.862665586,8.318797294,-0.7351509471,-0.06421131716,4.136215463
242.4245,3.473054402,10.45515815,-0.4299565394,0.5461774982,3.831021056
242.425,2.862665586,11.67593578,-0.7351509471,0.8513719059,3.831021056
242.4255,2.557471179,11.06554696,-0.7351509471,2.377343944,4.136215463
242.426,3.778248809,9.539574925,-0.4299565394,4.818899206,3.831021056
242.4265,5.304220848,8.929186109,-0.4299565394,5.734482429,1.99985461
242.427,4.99902644,9.539574925,-0.7351509471,4.208510391,0.4738825711
242.4275,3.778248809,10.76035256,-0.4299565394,2.682538352,0.4738825711
242.428,2.557471179,11.06554696,-0.1247621317,2.682538352,0.4738825711
242.4285,2.862665586,10.45515815,-0.4299565394,3.292927168,-0.441700652
242.429,3.473054402,8.929186109,-1.040345355,3.292927168,-1.967672691
242.4295,3.473054402,6.487630848,-1.65073417,2.682538352,-1.357283875
242.43,2.862665586,4.656464401,-1.345539762,2.682538352,0.4738825711
242.4305,1.947082363,3.740881178,-0.1247621317,3.903315983,0.1686881634
242.431,1.336693548,3.435686771,0.7908210914,4.818899206,-2.272867098
242.4315,1.947082363,2.520103547,0.4856266837,4.818899206,-5.019616768
242.432,3.167859994,0.6889371012,-0.7351509471,4.208510391,-5.324811175
242.4325,3.473054402,-0.8370349373,-1.040345355,3.292927168,-5.324811175
242.433,2.862665586,-1.75261816,-0.1247621317,2.98773276,-5.935199991
242.4335,2.252276771,-2.363006976,1.706404315,3.292927168,-7.461172029
242.434,2.252276771,-3.278590199,1.706404315,3.598121575,-8.376755252
242.4345,2.252276771,-4.49936783,0.4856266837,2.98773276,-8.987144068
242.435,1.947082363,-4.49936783,0.4856266837,2.377343944,-9.292338475
242.4355,1.03149914,-3.278590199,1.096015499,2.377343944,-8.376755252
242.436,0.115915917,-2.668201383,1.401209907,2.377343944,-6.545588806
242.4365,-0.4944728984,-3.583784607,1.096015499,2.072149537,-4.71442236
242.437,0.7263047324,-5.72014546,0.7908210914,1.156566314,-4.71442236
242.4375,3.473054402,-7.246117499,0.4856266837,0.5461774982,-5.630005583
242.438,5.914609663,-6.330534276,-0.1247621317,0.5461774982,-5.935199991
242.4385,5.914609663,-3.278590199,-0.1247621317,0.8513719059,-6.240394398
242.439,4.99902644,-0.2266461219,0.4856266837,1.156566314,-6.240394398
242.4395,5.609415256,1.909714732,1.096015499,0.8513719059,-5.630005583
242.44,7.135387294,3.130492363,-0.1247621317,-0.3694057249,-4.71442236
242.4405,6.830192886,4.351269994,-2.261122986,-2.810960986,-3.493644729
242.441,4.083443217,5.877242032,-2.566317393,-4.031738617,-1.662478283
242.4415,1.03149914,7.098019663,-0.7351509471,-3.421349802,0.7790769788
242.442,0.115915917,8.013602886,0.4856266837,-2.505766579,3.831021056
242.4425,0.115915917,9.234380517,-0.4299565394,-3.116155394,5.96738191
242.443,-1.104861714,10.45515815,-1.65073417,-3.72654421,6.882965133
242.4435,-2.630833752,11.67593578,-0.7351509471,-3.421349802,7.493353948
242.444,-3.851611383,12.591519,1.096015499,-2.505766579,8.103742764
242.4445,-4.462000199,11.98113019,2.011598722,-3.116155394,9.019325987
242.445,-5.377583422,11.37074137,1.096015499,-4.642127433,10.54529803
242.4455,-5.682777829,11.37074137,0.4856266837,-4.94732184,11.46088125
242.446,-4.767194606,11.67593578,0.4856266837,-4.031738617,10.54529803
242.4465,-4.462000199,11.37074137,1.096015499,-3.72654421,8.103742764
242.447,-5.377583422,10.45515815,1.401209907,-4.642127433,6.882965133
242.4475,-5.987972237,10.14996374,1.706404315,-5.252516248,8.103742764
242.448,-5.377583422,11.37074137,1.096015499,-4.94732184,8.714131579
242.4485,-4.462000199,11.98113019,-0.1247621317,-4.336933025,5.96738191
242.449,-4.156805791,10.14996374,-1.345539762,-3.72654421,2.610243425
242.4495,-3.851611383,7.098019663,-1.040345355,-2.200572171,1.389465794
242.45,-3.241222568,4.961658809,0.4856266837,-0.3694057249,1.694660202
242.4505,-2.630833752,3.740881178,1.706404315,-0.06421131716,0.7790769788
242.451,-3.241222568,1.604520324,1.096015499,-0.06421131716,-1.967672691
242.4515,-3.851611383,-1.142229345,-0.1247621317,-0.3694057249,-3.798839137
242.452,-3.546416975,-2.973395791,-0.1247621317,-0.3694057249,-4.409227952
242.4525,-2.630833752,-3.278590199,0.180432276,-0.6746001326,-5.324811175
242.453,-1.410056122,-3.583784607,0.180432276,-1.284988948,-7.766366437
242.4535,-0.1892784907,-4.49936783,-0.4299565394,-0.9797945403,-9.902727291
242.454,1.03149914,-4.49936783,-1.955928578,-0.06421131716,-10.2079217
242.4545,2.252276771,-4.49936783,-2.566317393,0.5461774982,-10.2079217
242.455,2.252276771,-5.72014546,-2.261122986,0.5461774982,-11.12350492
242.4555,2.252276771,-7.551311907,-1.955928578,-0.06421131716,-12.03908814
242.456,2.862665586,-7.856506314,-1.955928578,-0.6746001326,-11.73389374
242.4565,2.862665586,-6.330534276,-1.955928578,-0.9797945403,-10.51311611
242.457,1.641887955,-5.109756645,-1.65073417,-0.9797945403,-9.902727291
242.4575,1.03149914,-5.72014546,-0.7351509471,-0.06421131716,-9.292338475
242.458,2.252276771,-5.72014546,-0.4299565394,0.2409830905,-8.376755252
242.4585,2.862665586,-3.278590199,-0.7351509471,-0.6746001326,-7.461172029
242.459,1.336693548,-0.2266461219,-1.040345355,-3.116155394,-7.155977621
242.4595,-0.1892784907,0.6889371012,-1.040345355,-4.94732184,-6.545588806
242.46,0.115915917,0.9941315089,-0.7351509471,-5.252516248,-5.324811175
242.4605,1.641887955,2.520103547,-0.7351509471,-5.862905063,-3.493644729
242.461,1.336693548,5.877242032,-0.1247621317,-6.778488287,-1.357283875
242.4615,-0.1892784907,8.929186109,0.4856266837,-7.388877102,0.1686881634
242.462,-0.7996673061,9.539574925,1.706404315,-7.388877102,1.99985461
242.4625,-1.104861714,8.929186109,2.31679313,-7.388877102,3.831021056
242.463,-2.325639345,7.708408478,2.011598722,-7.999265917,5.662187502
242.4635,-4.767194606,7.403214071,2.011598722,-8.304460325,6.577770725
242.464,-5.377583422,8.318797294,2.31679313,-8.304460325,5.662187502
242.4645,-3.546416975,9.844769332,2.927181945,-7.69407151,2.610243425
242.465,-1.715250529,10.76035256,3.232376353,-7.69407151,-0.441700652
242.4655,-1.715250529,10.76035256,2.621987538,-7.083682694,-2.578061506
242.466,-2.020444937,11.06554696,1.706404315,-6.168099471,-3.493644729
242.4665,-1.715250529,11.67593578,1.096015499,-5.252516248,-3.188450321
242.467,-1.715250529,10.76035256,1.401209907,-4.642127433,-1.662478283
242.4675,-2.325639345,8.623991701,2.621987538,-3.421349802,-0.7468950597
242.468,-2.630833752,7.098019663,3.842765168,-2.200572171,-1.662478283
242.4685,-2.020444937,6.18243644,3.537570761,-1.895377763,-1.357283875
242.469,-1.410056122,3.130492363,2.31679313,-2.200572171,4.136215463
242.4695,-2.325639345,-2.668201383,1.401209907,-1.284988948,16.34399177
242.47,-3.851611383,-8.161700722,2.927181945,0.2409830905,28.24657367
242.4705,-4.767194606,-9.687672761,5.063542799,1.461760721,32.21410097
242.471,-5.987972237,-7.551311907,5.368737207,1.156566314,25.19462959
242.4715,-7.208749868,-5.72014546,3.842765168,1.156566314,12.37646447
242.472,-6.90355546,-4.49936783,2.621987538,1.766955129,0.4738825711
242.4725,-5.682777829,-2.973395791,3.232376353,2.377343944,-5.935199991
242.473,-4.462000199,-2.057812568,3.842765168,1.766955129,-9.902727291
242.4735,-4.462000199,-3.278590199,2.621987538,0.5461774982,-14.78583781
242.474,-3.546416975,-5.109756645,0.7908210914,0.2409830905,-20.27933715
242.4745,-2.020444937,-5.109756645,0.180432276,1.156566314,-21.80530919
242.475,-1.104861714,-4.194173422,1.096015499,1.766955129,-16.92219867
242.4755,-1.715250529,-4.49936783,1.706404315,0.8513719059,-9.597532883
242.476,-2.93602816,-5.414951053,1.401209907,-0.6746001326,-5.935199991
242.4765,-2.630833752,-5.72014546,0.7908210914,-2.200572171,-3.188450321
242.477,-1.715250529,-7.856506314,1.096015499,-2.200572171,5.051798687
242.4775,-1.410056122,-15.1811721,1.401209907,-1.590183356,20.31151907
242.478,-1.715250529,-24.64219874,1.096015499,-2.505766579,31.90890656
242.4785,-1.410056122,-26.77855959,-0.1247621317,-4.94732184,31.29851775
242.479,-0.7996673061,-18.23311618,-0.7351509471,-6.473293879,20.61671348
242.4795,-0.7996673061,-5.414951053,-0.1247621317,-5.557710656,9.324520394
242.48,-1.104861714,2.21490914,1.401209907,-3.116155394,2.610243425
242.4805,-0.7996673061,4.351269994,2.621987538,-2.200572171,-0.1365062443
242.481,-0.4944728984,4.351269994,1.706404315,-3.421349802,-0.7468950597
242.4815,-0.4944728984,3.130492363,0.4856266837,-4.94732184,-0.441700652
242.482,-1.104861714,-0.8370349373,1.401209907,-4.642127433,-0.1365062443
242.4825,-1.715250529,-6.025339868,3.232376353,-4.031738617,-0.1365062443
242.483,-2.325639345,-8.161700722,3.842765168,-4.336933025,-1.052089467
242.4835,-2.93602816,-6.635728684,3.232376353,-5.252516248,-0.441700652
242.484,-2.93602816,-5.414951053,2.621987538,-4.94732184,1.084271386
242.4845,-1.715250529,-5.109756645,2.621987538,-3.72654421,2.305049017
242.485,0.115915917,-2.973395791,1.706404315,-2.810960986,0.1686881634
242.4855,1.336693548,1.604520324,-0.1247621317,-2.505766579,-3.188450321
242.486,1.336693548,5.266853217,-0.7351509471,-2.200572171,-6.545588806
242.4865,1.336693548,4.656464401,0.4856266837,-1.895377763,-8.987144068
242.487,1.947082363,1.909714732,1.706404315,-1.284988948,-11.12350492
242.4875,1.947082363,-0.5318405296,1.096015499,-0.9797945403,-10.81831051
242.488,1.336693548,-5.109756645,-0.1247621317,-0.3694057249,-4.71442236
242.4885,0.7263047324,-12.73961684,0.180432276,0.2409830905,5.356993094
242.489,0.4211103247,-20.36947703,1.401209907,1.461760721,12.98685329
242.4895,-0.1892784907,-22.50583788,1.401209907,3.598121575,14.81801973
242.49,-1.715250529,-20.06428262,0.7908210914,5.734482429,17.86996381
242.4905,-2.93602816,-18.53831058,0.4856266837,6.95526006,28.85696249
242.491,-3.851611383,-18.53831058,0.7908210914,6.039676837,40.45434998
242.4915,-3.851611383,-16.70714414,0.7908210914,4.818899206,39.53876676
242.492,-2.93602816,-12.12922802,0.4856266837,5.124093614,23.97385196
242.4925,-1.410056122,-7.856506314,0.180432276,6.650065652,7.493353948
242.493,0.115915917,-6.940923091,-0.1247621317,7.260454468,-0.1365062443
242.4935,0.7263047324,-7.551311907,-1.345539762,5.429288021,-2.272867098
242.494,0.4211103247,-7.246117499,-3.176706209,3.292927168,-6.545588806
242.4945,0.115915917,-6.330534276,-3.481900616,1.766955129,-11.73389374
242.495,-0.4944728984,-6.330534276,-1.345539762,1.766955129,-12.34428255
242.4955,-1.715250529,-7.551311907,0.4856266837,2.377343944,-9.597532883
242.496,-3.546416975,-8.161700722,1.096015499,3.598121575,-7.766366437
242.4965,-3.546416975,-6.940923091,1.096015499,5.124093614,-7.766366437
242.497,-0.7996673061,-5.109756645,0.4856266837,5.124093614,-6.545588806
242.4975,1.641887955,-3.278590199,-0.1247621317,2.377343944,-4.409227952
242.498,1.947082363,-2.363006976,-1.955928578,-0.6746001326,-3.798839137
242.4985,1.03149914,-1.75261816,-3.176706209,-2.200572171,-5.019616768
242.499,0.7263047324,-1.142229345,-2.871511801,-1.590183356,-4.71442236
242.4995,1.336693548,0.3837426935,-1.955928578,-0.6746001326,-2.578061506
242.5,1.336693548,2.825297955,-1.65073417,-0.6746001326,-0.441700652
242.5005,0.7263047324,4.961658809,-2.566317393,-1.590183356,0.4738825711
242.501,0.115915917,6.792825255,-2.871511801,-2.505766579,2.305049017
242.5015,-0.1892784907,8.318797294,-1.955928578,-3.116155394,4.441409871
242.502,-0.4944728984,9.234380517,-1.345539762,-3.116155394,5.356993094
242.5025,-0.7996673061,8.623991701,-2.261122986,-2.505766579,4.441409871
242.503,-0.1892784907,7.098019663,-2.871511801,-2.505766579,4.136215463
242.5035,0.115915917,7.403214071,-1.955928578,-3.421349802,5.356993094
242.504,-1.104861714,10.45515815,0.180432276,-4.94732184,7.493353948
242.5045,-3.241222568,14.11749104,1.401209907,-4.642127433,8.408937171
242.505,-3.851611383,15.03307426,0.7908210914,-3.116155394,8.714131579
242.5055,-2.325639345,13.50710222,-0.1247621317,-1.590183356,8.408937171
242.506,-1.715250529,11.98113019,-0.1247621317,-1.590183356,7.493353948
242.5065,-2.325639345,11.67593578,-0.1247621317,-1.895377763,5.96738191
242.507,-2.93602816,11.06554696,-0.1247621317,-0.9797945403,4.746604279
242.5075,-2.630833752,9.844769332,-0.1247621317,0.2409830905,3.525826648
242.508,-2.020444937,7.708408478,0.7908210914,1.766955129,1.694660202
242.5085,-1.104861714,6.487630848,0.4856266837,2.682538352,0.1686881634
242.509,1.03149914,6.18243644,-1.040345355,3.598121575,-0.7468950597
242.5095,4.083443217,5.877242032,-2.566317393,4.513704798,-1.662478283
242.51,5.914609663,5.572047624,-3.176706209,4.818899206,-2.883255914
242.5105,5.914609663,4.961658809,-2.566317393,4.513704798,-4.409227952
242.511,5.914609663,4.046075586,-2.566317393,5.124093614,-4.71442236
242.5115,7.135387294,2.520103547,-3.481900616,6.039676837,-4.409227952
242.512,8.356164925,1.299325917,-4.702678247,6.344871245,-4.71442236
242.5125,7.74577611,1.299325917,-4.39748384,6.039676837,-6.545588806
242.513,6.830192886,3.435686771,-3.176706209,5.429288021,-9.292338475
242.5135,7.135387294,5.572047624,-1.65073417,5.429288021,-12.03908814
242.514,8.661359333,4.961658809,-1.040345355,5.734482429,-14.78583781
242.5145,8.96655374,0.9941315089,-1.65073417,5.734482429,-16.00661544
242.515,7.440581702,-3.888979014,-1.65073417,5.429288021,-14.78583781
242.5155,5.914609663,-7.246117499,-0.7351509471,4.513704798,-11.73389374
242.516,5.304220848,-8.161700722,-0.1247621317,3.903315983,-9.597532883
242.5165,4.693832032,-7.246117499,-0.7351509471,3.903315983,-9.292338475
242.517,3.473054402,-5.72014546,-1.040345355,4.818899206,-9.902727291
242.5175,1.03149914,-3.888979014,1.401209907,5.429288021,-9.292338475
242.518,-1.104861714,-1.447423753,4.758348392,5.124093614,-7.766366437
242.5185,-2.020444937,0.3837426935,5.368737207,4.818899206,-6.545588806
242.519,-0.7996673061,1.299325917,2.31679313,3.903315983,-5.935199991
242.5195,0.115915917,0.9941315089,-0.7351509471,2.072149537,-5.324811175
242.52,1.336693548,1.299325917,-1.345539762,-0.06421131716,-4.104033544
242.5205,2.252276771,2.520103547,-1.345539762,-0.6746001326,-4.104033544
242.521,3.473054402,3.740881178,-1.955928578,-0.06421131716,-4.71442236
242.5215,4.99902644,3.740881178,-2.566317393,1.156566314,-3.188450321
242.522,4.99902644,2.21490914,-1.345539762,0.8513719059,1.99985461
242.5225,3.778248809,0.07854828584,0.180432276,-0.3694057249,9.019325987
242.523,1.947082363,-0.8370349373,1.096015499,-0.6746001326,13.5972421
242.5235,0.7263047324,0.3837426935,1.096015499,-0.6746001326,14.51282533
242.524,0.115915917,2.520103547,1.706404315,-1.284988948,13.90243651
242.5245,0.115915917,4.046075586,2.621987538,-1.284988948,13.29204769
242.525,1.03149914,4.656464401,2.011598722,-0.3694057249,12.37646447
242.5255,1.947082363,5.877242032,0.7908210914,0.5461774982,10.85049243
242.526,1.336693548,8.929186109,1.096015499,0.2409830905,9.019325987
242.5265,0.4211103247,12.28632459,2.621987538,-0.06421131716,7.798548356
242.527,0.115915917,14.42268545,3.537570761,0.5461774982,6.882965133
242.5275,0.115915917,13.50710222,2.31679313,2.072149537,5.051798687
242.528,0.7263047324,11.67593578,0.180432276,2.682538352,3.525826648
242.5285,1.336693548,10.76035256,-0.4299565394,2.072149537,2.610243425
242.529,1.641887955,10.76035256,0.180432276,1.766955129,1.99985461
242.5295,1.336693548,10.14996374,2.011598722,2.682538352,0.4738825711
242.53,0.115915917,8.013602886,2.621987538,3.903315983,-0.7468950597
242.5305,-1.410056122,4.961658809,1.706404315,4.513704798,-1.052089467
242.531,-1.104861714,2.825297955,-0.1247621317,5.124093614,-0.7468950597
242.5315,0.4211103247,1.604520324,-0.7351509471,5.124093614,-1.967672691
242.532,1.947082363,0.6889371012,-0.7351509471,4.513704798,-5.019616768
242.5325,2.862665586,0.07854828584,-0.4299565394,3.598121575,-7.766366437
242.533,3.473054402,0.07854828584,-0.4299565394,3.903315983,-8.376755252
242.5335,4.99902644,-0.5318405296,-0.7351509471,4.513704798,-8.071560845
242.534,5.914609663,-2.363006976,-1.345539762,4.208510391,-8.68194966
242.5345,5.609415256,-4.804562237,-1.955928578,2.98773276,-10.2079217
242.535,5.609415256,-6.330534276,-2.871511801,2.98773276,-10.81831051
242.5355,7.135387294,-6.635728684,-3.481900616,3.903315983,-10.2079217
242.536,8.96655374,-6.330534276,-3.481900616,3.598121575,-9.902727291
242.5365,8.96655374,-7.246117499,-2.871511801,2.072149537,-10.2079217
242.537,7.135387294,-8.161700722,-1.65073417,0.5461774982,-10.2079217
242.5375,5.609415256,-8.772089538,-0.7351509471,0.2409830905,-9.292338475
242.538,5.304220848,-8.161700722,-0.4299565394,-0.3694057249,-8.071560845
242.5385,4.99902644,-7.246117499,-1.345539762,-1.895377763,-6.545588806
242.539,4.388637625,-6.635728684,-2.261122986,-2.810960986,-5.630005583
242.5395,4.388637625,-6.330534276,-2.566317393,-2.200572171,-4.409227952
242.54,4.693832032,-5.414951053,-2.871511801,-2.200572171,-3.798839137
242.5405,4.693832032,-3.888979014,-3.176706209,-4.642127433,-3.188450321
242.541,3.778248809,-1.75261816,-3.176706209,-7.388877102,-1.662478283
242.5415,2.252276771,0.07854828584,-1.955928578,-7.69407151,0.1686881634
242.542,0.7263047324,0.9941315089,-0.4299565394,-5.862905063,1.694660202
242.5425,-1.410056122,2.21490914,-0.1247621317,-4.336933025,2.305049017
242.543,-5.072389014,3.130492363,-0.1247621317,-4.031738617,2.915437833
242.5435,-7.819138683,4.351269994,-0.1247621317,-4.031738617,4.746604279
242.544,-8.429527499,4.656464401,0.4856266837,-3.421349802,6.882965133
242.5445,-7.513944276,4.656464401,0.4856266837,-1.895377763,8.103742764
242.545,-7.208749868,4.656464401,-0.1247621317,-0.9797945403,8.408937171
242.5455,-7.819138683,5.266853217,-0.1247621317,-0.9797945403,8.408937171
242.546,-8.124333091,5.572047624,0.180432276,-2.200572171,7.798548356
242.5465,-6.90355546,4.656464401,0.7908210914,-2.810960986,6.882965133
242.547,-5.682777829,3.740881178,1.706404315,-2.505766579,5.662187502
242.5475,-5.072389014,4.046075586,2.011598722,-1.590183356,5.051798687
242.548,-4.767194606,5.266853217,2.011598722,-1.284988948,3.525826648
242.5485,-3.546416975,5.877242032,1.401209907,-1.895377763,1.694660202
242.549,-2.020444937,4.961658809,1.096015499,-0.9797945403,-0.1365062443
242.5495,-1.410056122,3.435686771,1.401209907,1.156566314,-1.052089467
242.55,-2.020444937,1.909714732,1.096015499,2.98773276,-1.052089467
242.5505,-2.630833752,0.6889371012,-0.1247621317,2.377343944,-1.357283875
242.551,-2.020444937,0.07854828584,-1.65073417,0.8513719059,-3.188450321
242.5515,-0.4944728984,0.3837426935,-1.345539762,0.8513719059,-6.850783214
242.552,1.03149914,1.604520324,-0.1247621317,2.072149537,-12.03908814
242.5525,2.252276771,1.604520324,-0.4299565394,2.072149537,-16.92219867
242.553,2.862665586,0.3837426935,-1.955928578,0.8513719059,-19.05855952
242.5535,2.252276771,-1.447423753,-2.566317393,0.2409830905,-18.1429763
242.554,2.252276771,-3.278590199,-2.261122986,1.156566314,-16.31180985
242.5545,3.167859994,-5.109756645,-1.955928578,1.766955129,-16.00661544
242.555,4.388637625,-6.635728684,-3.176706209,1.461760721,-16.61700426
242.5555,4.99902644,-6.940923091,-4.092289432,0.8513719059,-15.39622663
242.556,4.083443217,-6.025339868,-3.481900616,0.8513719059,-8.376755252
242.5565,2.862665586,-6.940923091,-2.261122986,1.156566314,4.441409871
242.557,1.641887955,-10.90845039,-1.345539762,1.156566314,17.5647694
242.5575,0.4211103247,-14.57078328,-1.345539762,0.5461774982,22.75307433
242.558,0.115915917,-14.87597769,-1.040345355,0.2409830905,17.86996381
242.5585,0.115915917,-12.12922802,-0.4299565394,-0.06421131716,9.019325987
242.559,0.115915917,-9.382478353,-0.1247621317,-0.9797945403,2.915437833
242.5595,0.115915917,-7.551311907,0.180432276,-1.895377763,1.389465794
242.56,-0.1892784907,-5.414951053,0.7908210914,-2.200572171,0.1686881634
242.5605,-1.104861714,-3.278590199,2.621987538,-2.200572171,-2.272867098
242.561,-2.630833752,-2.057812568,5.368737207,-2.505766579,-3.798839137
242.5615,-5.377583422,-0.5318405296,7.810292469,-3.116155394,-2.272867098
242.562,-7.819138683,3.435686771,9.641458915,-3.421349802,0.1686881634
242.5625,-8.429527499,8.929186109,10.25184773,-3.72654421,0.4738825711
242.563,-7.819138683,11.67593578,9.641458915,-3.72654421,-0.7468950597
242.5635,-7.513944276,11.06554696,8.420681284,-3.72654421,-1.052089467
242.564,-7.208749868,9.539574925,7.199903653,-4.031738617,0.4738825711
242.5645,-7.208749868,9.234380517,6.28432043,-3.72654421,1.99985461
242.565,-6.598361052,8.929186109,5.368737207,-3.72654421,1.694660202
242.5655,-5.377583422,8.623991701,3.842765168,-3.116155394,0.4738825711
242.566,-2.93602816,10.76035256,1.706404315,-2.200572171,0.4738825711
242.5665,-0.1892784907,15.33826867,-0.4299565394,-1.590183356,1.389465794
242.567,1.03149914,18.69540716,-2.566317393,-0.6746001326,1.389465794
242.5675,1.03149914,18.08501834,-4.702678247,-0.06421131716,0.1686881634
242.568,1.336693548,16.25385189,-7.449427917,0.2409830905,-1.662478283
242.5685,3.167859994,14.72787986,-9.58578877,-0.06421131716,-3.188450321
242.569,4.388637625,11.37074137,-9.280594363,-0.3694057249,-2.578061506
242.5695,3.473054402,4.351269994,-6.839039101,-0.3694057249,-0.7468950597
242.57,2.252276771,-2.363006976,-5.923455878,0.8513719059,-0.441700652
242.5705,4.693832032,-4.194173422,-9.58578877,2.98773276,-2.883255914
242.571,10.18733137,-1.75261816,-15.38448252,3.903315983,-6.545588806
242.5715,14.76524749,0.07854828584,-18.741621,3.598121575,-9.292338475
242.572,15.07044189,-1.447423753,-17.52084337,2.377343944,-10.2079217
242.5725,12.32369223,-4.194173422,-13.85851048,1.766955129,-10.2079217
242.573,9.576942556,-7.856506314,-9.58578877,2.072149537,-9.292338475
242.5735,6.524998479,-13.96039447,-5.313067063,3.292927168,-7.155977621
242.574,2.862665586,-21.59025466,-1.955928578,4.208510391,-4.409227952
242.5745,-0.7996673061,-25.86297637,0.180432276,3.903315983,-2.578061506
242.575,-3.851611383,-24.94739315,0.7908210914,2.377343944,-2.578061506
242.5755,-4.156805791,-21.59025466,0.4856266837,0.8513719059,-2.883255914
242.576,-2.93602816,-19.45389381,0.4856266837,-0.06421131716,-2.883255914
242.5765,-1.410056122,-18.84350499,-0.1247621317,-0.06421131716,-2.883255914
242.577,-1.104861714,-17.62272736,-1.65073417,-0.9797945403,-3.493644729
242.5775,-1.715250529,-14.87597769,-2.261122986,-2.200572171,-3.798839137
242.578,-2.020444937,-12.73961684,-1.955928578,-2.810960986,-3.493644729
242.5785,-2.020444937,-11.82403361,-0.7351509471,-2.200572171,-1.967672691
242.579,-2.020444937,-11.2136448,-0.1247621317,-1.895377763,-0.1365062443
242.5795,-1.715250529,-10.29806158,-0.7351509471,-2.505766579,1.694660202
242.58,-1.715250529,-8.46689513,-1.345539762,-3.421349802,2.305049017
242.5805,-1.410056122,-4.194173422,-0.7351509471,-4.336933025,1.389465794
242.581,-1.410056122,2.21490914,0.180432276,-4.94732184,0.4738825711
242.5815,-1.715250529,8.929186109,0.7908210914,-4.94732184,0.7790769788
242.582,-1.104861714,13.20190782,-0.1247621317,-4.336933025,1.389465794
242.5825,-0.4944728984,14.72787986,-1.040345355,-3.421349802,-0.1365062443
242.583,-0.4944728984,14.42268545,-1.65073417,-3.421349802,-2.883255914
242.5835,-0.4944728984,13.20190782,-1.65073417,-4.642127433,-4.71442236
242.584,0.115915917,11.06554696,-1.65073417,-5.252516248,-4.71442236
242.5845,1.03149914,10.14996374,-1.65073417,-4.642127433,-4.409227952
242.585,0.4211103247,11.06554696,-1.345539762,-2.810960986,-4.409227952
242.5855,-0.4944728984,12.591519,-0.7351509471,-1.590183356,-3.188450321
242.586,-0.1892784907,12.28632459,-0.4299565394,-0.6746001326,-1.052089467
242.5865,1.03149914,11.67593578,-0.4299565394,-0.3694057249,-0.441700652
242.587,1.641887955,13.20190782,-0.1247621317,-0.3694057249,1.084271386
242.5875,0.115915917,14.42268545,1.401209907,0.2409830905,9.324520394
242.588,-1.410056122,9.844769332,3.537570761,1.766955129,23.05826874
242.5885,-1.715250529,0.07854828584,4.758348392,3.292927168,30.68812893
242.589,-1.104861714,-6.025339868,4.453153984,3.598121575,25.19462959
242.5895,-1.104861714,-4.804562237,3.232376353,3.292927168,13.90243651
242.59,-2.020444937,-0.8370349373,2.927181945,2.98773276,7.493353948
242.5905,-2.325639345,0.07854828584,3.537570761,2.377343944,6.577770725
242.591,-2.325639345,-1.75261816,4.758348392,1.766955129,4.441409871
242.5915,-2.020444937,-2.057812568,5.063542799,1.156566314,-0.7468950597
242.592,-1.410056122,-0.2266461219,5.063542799,1.461760721,-4.71442236
242.5925,-1.410056122,-0.5318405296,4.453153984,1.156566314,-5.935199991
242.593,-1.410056122,-4.194173422,3.232376353,0.8513719059,-8.376755252
242.5935,-1.410056122,-7.246117499,2.31679313,0.5461774982,-12.64947696
242.594,-0.4944728984,-7.551311907,2.31679313,1.766955129,-16.00661544
242.5945,0.7263047324,-6.940923091,2.927181945,2.98773276,-17.22739308
242.595,1.336693548,-6.635728684,2.927181945,2.377343944,-18.44817071
242.5955,0.7263047324,-7.246117499,2.011598722,0.5461774982,-17.53258748
242.596,0.115915917,-9.992867168,1.401209907,-0.06421131716,-7.766366437
242.5965,-0.4944728984,-14.87597769,2.011598722,0.5461774982,7.493353948
242.597,-1.715250529,-19.1486994,3.842765168,1.156566314,16.03879736
242.5975,-2.93602816,-17.92792177,4.758348392,0.5461774982,10.54529803
242.598,-2.630833752,-11.82403361,4.758348392,-0.3694057249,-1.052089467
242.5985,-1.104861714,-6.635728684,4.147959576,-0.6746001326,-6.850783214
242.599,0.115915917,-4.804562237,3.537570761,-0.3694057249,-5.019616768
242.5995,0.7263047324,-4.49936783,2.621987538,-0.3694057249,-1.967672691
242.6,1.336693548,-2.668201383,1.096015499,-0.6746001326,-0.7468950597
242.6005,1.947082363,0.07854828584,-0.1247621317,-2.200572171,-0.1365062443
242.601,1.947082363,2.520103547,-1.040345355,-3.72654421,0.7790769788
242.6015,1.03149914,4.046075586,-1.040345355,-4.94732184,1.99985461
242.602,0.115915917,5.572047624,-0.1247621317,-4.642127433,3.525826648
242.6025,0.115915917,6.792825255,0.7908210914,-4.336933025,4.441409871
242.603,0.115915917,9.234380517,0.7908210914,-4.94732184,3.525826648
242.6035,0.4211103247,12.591519,-0.4299565394,-5.557710656,0.7790769788
242.604,1.03149914,15.03307426,-1.65073417,-4.031738617,-1.052089467
242.6045,1.03149914,15.03307426,-1.345539762,-2.200572171,-0.7468950597
242.605,0.115915917,13.20190782,-0.1247621317,-1.895377763,0.1686881634
242.6055,-1.410056122,12.591519,1.096015499,-3.72654421,1.389465794
242.606,-2.630833752,12.89671341,1.096015499,-4.642127433,2.915437833
242.6065,-2.325639345,13.20190782,1.096015499,-3.116155394,3.525826648
242.607,-1.410056122,12.591519,1.096015499,-1.895377763,2.305049017
242.6075,-1.410056122,11.98113019,0.180432276,-2.200572171,1.084271386
242.608,-2.020444937,10.76035256,-0.4299565394,-2.810960986,4.441409871
242.6085,-4.156805791,9.234380517,-0.1247621317,-1.284988948,12.07127006
242.609,-7.208749868,8.929186109,1.706404315,1.461760721,16.64918618
242.6095,-10.26069394,10.76035256,4.758348392,3.598121575,13.90243651
242.61,-11.78666598,12.591519,6.589514838,3.903315983,8.408937171
242.6105,-11.48147158,11.37074137,6.589514838,4.513704798,5.662187502
242.611,-10.26069394,8.318797294,5.673931615,5.124093614,3.525826648
242.6115,-8.734721906,6.487630848,4.147959576,5.124093614,-0.441700652
242.612,-7.513944276,5.877242032,2.927181945,4.818899206,-1.662478283
242.6125,-6.90355546,2.825297955,2.621987538,4.513704798,5.662187502
242.613,-6.598361052,-2.057812568,2.927181945,4.818899206,18.17515822
242.6135,-5.682777829,-6.330534276,3.232376353,5.124093614,23.36346315
242.614,-3.241222568,-6.940923091,2.011598722,5.124093614,17.5647694
242.6145,-0.4944728984,-6.635728684,0.180432276,5.429288021,7.493353948
242.615,1.641887955,-6.940923091,-0.1247621317,5.429288021,0.7790769788
242.6155,2.862665586,-7.246117499,0.180432276,4.818899206,-1.357283875
242.616,3.167859994,-6.025339868,0.180432276,3.292927168,-3.188450321
242.6165,3.167859994,-4.194173422,-0.1247621317,2.377343944,-5.019616768
242.617,2.557471179,-2.973395791,-0.7351509471,2.377343944,-5.630005583
242.6175,2.252276771,-2.057812568,-0.1247621317,1.766955129,-5.324811175
242.618,1.947082363,-1.447423753,0.4856266837,0.5461774982,-4.104033544
242.6185,1.947082363,-0.8370349373,-0.7351509471,-0.6746001326,-2.578061506
242.619,1.947082363,-0.8370349373,-3.176706209,-0.6746001326,-1.967672691
242.6195,1.641887955,0.07854828584,-4.39748384,-0.3694057249,-3.188450321
242.62,1.336693548,2.520103547,-3.787095024,-0.6746001326,-6.240394398
242.6205,1.336693548,4.961658809,-3.176706209,-1.284988948,-8.071560845
242.621,1.03149914,6.18243644,-3.481900616,-1.284988948,-6.545588806
242.6215,1.947082363,6.792825255,-3.787095024,-1.284988948,-2.578061506
242.622,2.862665586,7.708408478,-2.566317393,-2.505766579,0.7790769788
242.6225,2.862665586,8.013602886,-1.65073417,-4.642127433,2.915437833
242.623,1.336693548,7.708408478,-1.345539762,-5.557710656,3.831021056
242.6235,0.4211103247,7.403214071,-1.955928578,-4.94732184,4.441409871
242.624,1.03149914,8.318797294,-1.955928578,-3.116155394,5.051798687
242.6245,2.252276771,9.539574925,-1.345539762,-2.200572171,5.356993094
242.625,2.557471179,8.929186109,-1.040345355,-2.505766579,4.136215463
242.6255,2.557471179,7.708408478,-0.7351509471,-3.116155394,2.305049017
242.626,3.778248809,6.792825255,-0.1247621317,-3.116155394,1.99985461
242.6265,5.609415256,7.403214071,-0.1247621317,-2.200572171,3.22063224
242.627,5.609415256,8.318797294,-0.1247621317,-1.895377763,4.136215463
242.6275,3.167859994,8.318797294,-0.1247621317,-3.72654421,3.525826648
242.628,0.7263047324,7.403214071,1.401209907,-6.473293879,1.694660202
242.6285,0.115915917,6.487630848,2.621987538,-7.69407151,0.4738825711
242.629,-0.1892784907,5.877242032,1.706404315,-5.557710656,0.1686881634
242.6295,-0.7996673061,4.656464401,-0.4299565394,-2.810960986,-0.1365062443
242.63,-1.715250529,2.520103547,-1.040345355,-1.895377763,-0.7468950597
242.6305,-2.325639345,0.3837426935,0.180432276,-2.505766579,-1.052089467
242.631,-2.93602816,-0.5318405296,1.096015499,-2.200572171,-1.357283875
242.6315,-3.851611383,-1.142229345,-0.1247621317,-0.9797945403,-2.272867098
242.632,-4.462000199,-2.363006976,-2.261122986,-0.6746001326,-3.798839137
242.6325,-3.851611383,-4.49936783,-2.566317393,-2.810960986,-5.324811175
242.633,-1.715250529,-6.635728684,-2.566317393,-4.642127433,-6.545588806
242.6335,0.115915917,-7.856506314,-3.176706209,-4.336933025,-7.461172029
242.634,1.641887955,-8.46689513,-4.39748384,-2.810960986,-8.071560845
242.6345,2.862665586,-9.077283945,-4.39748384,-1.590183356,-8.987144068
242.635,3.778248809,-9.992867168,-3.787095024,-1.590183356,-10.2079217
242.6355,3.167859994,-10.29806158,-3.176706209,-0.9797945403,-12.34428255
242.636,1.947082363,-9.992867168,-3.176706209,0.2409830905,-14.48064341
242.6365,1.947082363,-9.077283945,-2.871511801,2.377343944,-15.70142104
242.637,3.167859994,-9.382478353,-2.566317393,4.208510391,-15.09103222
242.6375,3.473054402,-10.90845039,-2.871511801,5.429288021,-12.64947696
242.638,2.862665586,-11.2136448,-2.871511801,6.039676837,-9.902727291
242.6385,1.947082363,-8.161700722,-1.955928578,6.344871245,-9.292338475
242.639,2.557471179,-2.668201383,-0.4299565394,7.260454468,-11.12350492
242.6395,2.862665586,0.07854828584,-0.1247621317,9.702009729,-9.597532883
242.64,2.862665586,-2.057812568,-1.040345355,12.4487594,0.1686881634
242.6405,1.947082363,-5.72014546,-2.261122986,13.05914821,15.73360296
242.641,0.4211103247,-6.025339868,-2.261122986,11.22798177,27.33099045
242.6415,-0.7996673061,-1.142229345,-2.261122986,7.870843283,26.72060163
242.642,-1.410056122,5.877242032,-2.871511801,4.513704798,16.03879736
242.6425,-0.1892784907,10.76035256,-4.39748384,0.5461774982,4.746604279
242.643,2.252276771,11.98113019,-5.007872655,-2.200572171,-0.7468950597
242.6435,3.778248809,10.45515815,-4.702678247,-2.505766579,-2.272867098
242.644,3.167859994,8.929186109,-4.39748384,-0.3694057249,-3.493644729
242.6445,2.252276771,8.013602886,-4.39748384,1.766955129,-5.019616768
242.645,1.947082363,6.18243644,-4.092289432,2.072149537,-4.409227952
242.6455,1.947082363,2.520103547,-3.481900616,1.461760721,-0.441700652
242.646,1.336693548,-1.447423753,-2.566317393,1.766955129,5.662187502
242.6465,0.7263047324,-3.583784607,-2.566317393,3.598121575,10.54529803
242.647,0.115915917,-3.888979014,-2.871511801,5.124093614,11.15568684
242.6475,-0.7996673061,-4.804562237,-2.261122986,5.429288021,7.798548356
242.648,-2.325639345,-8.772089538,-0.7351509471,5.124093614,4.746604279
242.6485,-3.241222568,-13.96039447,0.7908210914,5.429288021,5.356993094
242.649,-3.241222568,-17.92792177,1.706404315,5.734482429,8.714131579
242.6495,-3.546416975,-17.92792177,2.31679313,5.124093614,10.54529803
242.65,-4.156805791,-13.96039447,2.011598722,4.208510391,8.714131579
242.6505,-4.156805791,-9.382478353,1.706404315,4.208510391,5.051798687
242.651,-2.93602816,-7.246117499,1.706404315,4.513704798,2.610243425
242.6515,-1.104861714,-8.46689513,2.31679313,4.208510391,1.694660202
242.652,-0.4944728984,-9.687672761,3.232376353,3.598121575,1.084271386
242.6525,-1.410056122,-9.382478353,2.927181945,2.682538352,-0.1365062443
242.653,-1.410056122,-8.46689513,2.011598722,1.766955129,-1.662478283
242.6535,-0.7996673061,-9.382478353,1.401209907,0.5461774982,-2.578061506
242.654,-0.1892784907,-11.82403361,2.621987538,-0.06421131716,-2.578061506
242.6545,-0.4944728984,-13.04481125,3.537570761,0.2409830905,-2.883255914
242.655,-0.4944728984,-13.04481125,2.621987538,0.5461774982,-3.493644729
242.6555,-0.1892784907,-13.04481125,0.4856266837,-0.06421131716,-4.104033544
242.656,0.115915917,-13.35000565,-0.1247621317,-0.6746001326,-4.409227952
242.6565,0.4211103247,-12.43442243,1.096015499,-0.6746001326,-4.71442236
242.657,1.03149914,-10.60325598,0.7908210914,-0.06421131716,-5.019616768
242.6575,2.557471179,-9.077283945,-0.7351509471,0.2409830905,-5.019616768
242.658,3.778248809,-8.772089538,-2.261122986,-0.6746001326,-3.798839137
242.6585,4.083443217,-7.551311907,-1.65073417,-2.200572171,-1.967672691
242.659,3.473054402,-5.414951053,-1.040345355,-3.116155394,-0.1365062443
242.6595,2.557471179,-3.888979014,-1.65073417,-4.031738617,0.4738825711
242.66,1.947082363,-3.583784607,-2.566317393,-4.94732184,1.694660202
242.6605,1.336693548,-2.668201383,-2.261122986,-5.252516248,2.915437833
242.661,1.336693548,-0.8370349373,-1.345539762,-4.94732184,3.525826648
242.6615,2.252276771,0.07854828584,-1.65073417,-4.642127433,4.136215463
242.662,4.083443217,0.07854828584,-2.871511801,-5.252516248,5.051798687
242.6625,4.693832032,0.07854828584,-3.481900616,-6.168099471,6.882965133
242.663,3.473054402,1.909714732,-2.871511801,-6.473293879,8.408937171
242.6635,1.947082363,3.740881178,-1.955928578,-5.862905063,9.324520394
242.664,1.03149914,5.572047624,-1.345539762,-5.252516248,9.324520394
242.6645,0.115915917,8.623991701,-0.7351509471,-5.252516248,8.714131579
242.665,-0.7996673061,13.50710222,-0.1247621317,-5.862905063,8.103742764
242.6655,-2.325639345,17.16943512,0.4856266837,-6.473293879,7.798548356
242.666,-3.851611383,17.16943512,1.096015499,-6.168099471,7.798548356
242.6665,-5.377583422,15.94865749,1.706404315,-4.94732184,7.188159541
242.667,-6.293166645,15.33826867,2.011598722,-3.116155394,6.577770725
242.6675,-6.293166645,12.591519,1.096015499,-1.284988948,6.577770725
242.668,-4.767194606,5.572047624,-0.1247621317,-0.06421131716,6.882965133
242.6685,-3.851611383,-1.142229345,0.180432276,-0.06421131716,5.662187502
242.669,-4.462000199,-2.668201383,1.401209907,-0.9797945403,2.305049017
242.6695,-5.072389014,0.9941315089,2.621987538,-0.9797945403,-1.357283875
242.67,-4.462000199,3.740881178,3.537570761,0.8513719059,-3.798839137
242.6705,-3.241222568,1.604520324,4.147959576,2.98773276,-4.409227952
242.671,-2.630833752,-2.057812568,4.147959576,3.598121575,-5.019616768
242.6715,-2.630833752,-5.414951053,3.232376353,2.682538352,-5.935199991
242.672,-1.715250529,-9.382478353,2.31679313,2.072149537,-6.545588806
242.6725,-0.1892784907,-15.1811721,2.621987538,2.682538352,-5.935199991
242.673,-0.1892784907,-20.67467144,4.147959576,3.598121575,-4.71442236
242.6735,-1.410056122,-22.20064348,4.758348392,4.208510391,-4.409227952
242.674,-1.715250529,-19.75908821,3.232376353,4.208510391,-5.324811175
242.6745,0.4211103247,-16.40194973,0.7908210914,4.208510391,-6.850783214
242.675,2.557471179,-13.65520006,-0.1247621317,2.98773276,-8.071560845
242.6755,2.557471179,-12.43442243,0.180432276,2.072149537,-8.68194966
242.676,1.641887955,-11.82403361,2.011598722,1.766955129,-8.987144068
242.6765,1.336693548,-10.90845039,4.147959576,1.766955129,-9.292338475
242.677,1.336693548,-10.29806158,5.673931615,1.156566314,-8.376755252
242.6775,0.4211103247,-10.29806158,5.979126022,-0.06421131716,-6.240394398
242.678,-0.7996673061,-10.29806158,5.063542799,-1.284988948,-3.188450321
242.6785,-0.7996673061,-9.077283945,4.147959576,-1.895377763,-2.272867098
242.679,0.4211103247,-6.330534276,3.842765168,-2.810960986,-2.883255914
242.6795,2.252276771,-3.888979014,3.842765168,-4.336933025,-3.188450321
242.68,2.862665586,-2.973395791,3.232376353,-4.94732184,-1.357283875
242.6805,3.167859994,-3.278590199,3.537570761,-4.336933025,1.084271386
242.681,3.167859994,-2.057812568,4.758348392,-3.72654421,2.610243425
242.6815,3.167859994,0.3837426935,5.368737207,-4.031738617,3.22063224
242.682,2.557471179,2.825297955,5.063542799,-4.336933025,4.441409871
242.6825,1.641887955,3.130492363,4.453153984,-3.72654421,5.96738191
242.683,0.4211103247,2.825297955,5.063542799,-2.810960986,6.577770725
242.6835,-0.1892784907,3.740881178,6.589514838,-2.505766579,5.96738191
242.684,-0.7996673061,6.18243644,6.589514838,-3.116155394,5.662187502
242.6845,-0.4944728984,8.318797294,5.673931615,-3.72654421,5.96738191
242.685,0.115915917,9.539574925,5.063542799,-3.72654421,6.272576317
242.6855,0.115915917,11.06554696,4.758348392,-4.031738617,5.96738191
242.686,0.115915917,13.50710222,3.842765168,-5.252516248,5.051798687
242.6865,0.4211103247,16.25385189,2.927181945,-5.862905063,3.525826648
242.687,0.7263047324,16.5590463,3.842765168,-4.94732184,0.7790769788
242.6875,0.7263047324,13.81229663,5.063542799,-3.421349802,-1.357283875
242.688,0.115915917,9.844769332,4.147959576,-2.505766579,-2.272867098
242.6885,0.4211103247,7.403214071,1.401209907,-2.505766579,-2.272867098
242.689,1.947082363,7.403214071,0.180432276,-2.200572171,-2.883255914
242.6895,3.167859994,8.318797294,0.7908210914,-1.590183356,-3.798839137
242.69,3.167859994,7.098019663,0.7908210914,-0.9797945403,-3.798839137
242.6905,2.862665586,4.656464401,-0.1247621317,-0.9797945403,-2.883255914
242.691,3.167859994,2.825297955,-0.7351509471,-1.284988948,-3.798839137
242.6915,4.083443217,1.909714732,-0.1247621317,-0.6746001326,-5.935199991
242.692,4.99902644,0.3837426935,-0.1247621317,0.2409830905,-7.155977621
242.6925,6.524998479,-1.447423753,-2.261122986,1.766955129,-8.071560845
242.693,8.356164925,-2.363006976,-4.702678247,2.682538352,-10.81831051
242.6935,9.882136963,0.07854828584,-5.313067063,2.377343944,-16.00661544
242.694,10.49252578,4.046075586,-6.228650286,1.766955129,-20.27933715
242.6945,11.10291459,6.487630848,-8.670205547,1.156566314,-21.80530919
242.695,11.71330341,6.487630848,-9.890983178,1.156566314,-21.80530919
242.6955,12.01849782,5.572047624,-7.754622324,0.8513719059,-20.27933715
242.696,10.79772019,3.740881178,-4.702678247,-0.3694057249,-16.00661544
242.6965,8.96655374,0.6889371012,-4.39748384,-1.590183356,-11.12350492
242.697,8.050970517,-1.75261816,-5.923455878,-1.590183356,-9.902727291
242.6975,7.74577611,-2.668201383,-6.533844693,-0.9797945403,-10.81831051
242.698,6.524998479,-2.363006976,-5.923455878,-0.3694057249,-6.240394398
242.6985,4.388637625,-3.888979014,-5.923455878,-1.284988948,8.103742764
242.699,2.557471179,-7.551311907,-5.923455878,-2.810960986,24.58424078
242.6995,1.641887955,-9.992867168,-4.39748384,-3.72654421,30.38293453
242.7,0.7263047324,-9.077283945,-2.566317393,-3.421349802,23.05826874
242.7005,-0.1892784907,-6.940923091,-1.955928578,-2.810960986,11.46088125
242.701,-1.410056122,-6.330534276,-1.955928578,-2.505766579,4.441409871
242.7015,-2.325639345,-7.246117499,-0.4299565394,-2.810960986,3.22063224
242.702,-3.851611383,-5.109756645,1.096015499,-2.200572171,3.22063224
242.7025,-5.072389014,0.9941315089,0.7908210914,-1.284988948,1.694660202
242.703,-4.767194606,8.318797294,-1.345539762,-0.6746001326,-0.1365062443
242.7035,-2.93602816,10.45515815,-3.787095024,-1.284988948,-0.441700652
242.704,-2.020444937,7.098019663,-4.702678247,-1.895377763,0.1686881634
242.7045,-2.93602816,4.046075586,-5.007872655,-1.590183356,-0.441700652
242.705,-3.241222568,8.318797294,-5.007872655,-0.6746001326,-4.71442236
242.7055,-2.325639345,18.39021275,-4.092289432,-0.06421131716,-8.68194966
242.706,-2.325639345,25.10448972,-1.040345355,0.2409830905,-5.019616768
242.7065,-6.293166645,22.05254564,2.31679313,1.766955129,6.577770725
242.707,-11.48147158,13.50710222,4.453153984,3.598121575,20.31151907
242.7075,-12.70224921,6.487630848,3.537570761,5.429288021,27.63618486
242.708,-9.650305129,4.351269994,1.096015499,5.734482429,26.11021282
242.7085,-6.598361052,3.130492363,-0.4299565394,5.734482429,18.78554703
242.709,-6.598361052,1.299325917,-0.1247621317,5.734482429,9.93490921
242.7095,-8.124333091,0.07854828584,1.096015499,6.344871245,2.610243425
242.71,-7.819138683,0.6889371012,0.7908210914,6.650065652,-0.1365062443
242.7105,-6.293166645,1.604520324,-0.7351509471,6.650065652,-0.1365062443
242.711,-5.072389014,0.6889371012,-1.040345355,6.95526006,-1.357283875
242.7115,-4.767194606,-0.2266461219,0.4856266837,7.260454468,-5.324811175
242.712,-4.767194606,-1.142229345,1.706404315,6.650065652,-8.68194966
242.7125,-4.462000199,-2.057812568,0.7908210914,5.734482429,-8.68194966
242.713,-3.851611383,-3.583784607,-1.040345355,5.124093614,-6.850783214
242.7135,-2.630833752,-4.49936783,-1.955928578,4.513704798,-6.240394398
242.714,0.115915917,-4.804562237,-1.345539762,4.513704798,-6.850783214
242.7145,2.862665586,-4.194173422,-0.7351509471,3.903315983,-8.071560845
242.715,3.473054402,-2.363006976,-1.040345355,3.292927168,-11.42869933
242.7155,1.947082363,1.604520324,-0.7351509471,2.98773276,-17.53258748
242.716,0.7263047324,6.792825255,-0.4299565394,3.292927168,-22.72089241
242.7165,1.641887955,8.623991701,-0.4299565394,3.598121575,-23.94167005
242.717,2.557471179,6.487630848,-0.7351509471,3.292927168,-22.1105036
242.7175,1.641887955,4.046075586,-1.040345355,2.377343944,-19.36375393
242.718,0.115915917,4.656464401,-1.345539762,1.156566314,-17.53258748
242.7185,-0.1892784907,7.098019663,-1.955928578,-0.3694057249,-15.09103222
242.719,0.7263047324,7.403214071,-2.871511801,-2.200572171,-10.51311611
242.7195,1.641887955,4.351269994,-3.787095024,-2.810960986,-1.967672691
242.72,1.03149914,0.07854828584,-3.787095024,-2.200572171,11.46088125
242.7205,-0.1892784907,-2.057812568,-2.566317393,-1.284988948,25.499824
242.721,-1.104861714,-2.668201383,-0.7351509471,-1.590183356,32.51929538
242.7215,-1.104861714,-2.057812568,0.4856266837,-2.200572171,30.68812893
242.722,-1.104861714,0.3837426935,0.180432276,-1.590183356,24.58424078
242.7225,-0.4944728984,5.266853217,-0.4299565394,-0.06421131716,16.95438059
242.723,0.115915917,11.37074137,-1.345539762,0.8513719059,8.103742764
242.7235,1.641887955,16.25385189,-1.65073417,-0.06421131716,-0.7468950597
242.724,2.252276771,18.39021275,-2.261122986,-0.9797945403,-4.71442236
242.7245,2.252276771,18.08501834,-2.871511801,-0.9797945403,-3.493644729
242.725,1.947082363,18.69540716,-3.176706209,-0.3694057249,-3.798839137
242.7255,1.947082363,19.30579597,-2.871511801,-0.06421131716,-7.461172029
242.726,1.336693548,16.5590463,-2.261122986,-0.3694057249,-5.019616768
242.7265,-0.4944728984,7.403214071,-1.040345355,-0.06421131716,10.24010362
242.727,-3.546416975,-3.583784607,0.7908210914,0.5461774982,29.1621569
242.7275,-5.377583422,-7.856506314,2.621987538,1.461760721,34.35046183
242.728,-5.377583422,-2.363006976,2.927181945,2.072149537,23.05826874
242.7285,-3.851611383,6.792825255,1.706404315,2.072149537,8.408937171
242.729,-2.325639345,10.76035256,0.4856266837,2.682538352,0.7790769788
242.7295,-0.7996673061,7.708408478,0.180432276,2.98773276,-0.441700652
242.73,0.4211103247,2.825297955,0.180432276,2.98773276,-1.662478283
242.7305,1.641887955,0.6889371012,-0.1247621317,1.766955129,-3.493644729
242.731,1.641887955,0.3837426935,-1.040345355,0.8513719059,-4.409227952
242.7315,1.336693548,-0.8370349373,-1.65073417,0.5461774982,-4.71442236
242.732,1.03149914,-2.973395791,-1.955928578,0.8513719059,-5.324811175
242.7325,1.641887955,-3.888979014,-1.040345355,1.156566314,-6.545588806
242.733,2.252276771,-4.49936783,0.180432276,1.156566314,-7.766366437
242.7335,2.557471179,-6.025339868,1.706404315,1.766955129,-9.292338475
242.734,1.947082363,-8.161700722,1.706404315,1.766955129,-9.597532883
242.7345,1.03149914,-9.077283945,1.401209907,0.8513719059,-8.071560845
242.735,0.115915917,-8.46689513,1.401209907,-0.06421131716,-6.240394398
242.7355,-0.1892784907,-8.46689513,2.011598722,-0.06421131716,-6.850783214
242.736,0.4211103247,-10.29806158,2.31679313,0.8513719059,-8.987144068
242.7365,2.252276771,-13.35000565,2.011598722,1.156566314,-8.071560845
242.737,3.167859994,-15.1811721,1.401209907,-0.06421131716,-4.71442236
242.7375,3.167859994,-14.57078328,1.096015499,-0.9797945403,-3.493644729
242.738,2.557471179,-12.73961684,0.4856266837,-0.06421131716,-6.850783214
242.7385,2.252276771,-10.90845039,0.4856266837,0.2409830905,-10.51311611
242.739,1.947082363,-9.077283945,0.7908210914,-1.284988948,-10.51311611
242.7395,1.641887955,-7.856506314,0.7908210914,-3.72654421,-8.376755252
242.74,2.252276771,-6.940923091,-1.040345355,-4.031738617,-6.850783214
242.7405,3.473054402,-6.025339868,-3.481900616,-2.810960986,-6.240394398
242.741,3.778248809,-4.49936783,-4.702678247,-2.810960986,-4.409227952
242.7415,2.252276771,-3.278590199,-3.481900616,-5.252516248,-1.357283875
242.742,0.7263047324,-2.057812568,-1.65073417,-7.083682694,-0.1365062443
242.7425,1.03149914,0.07854828584,-1.040345355,-6.473293879,-0.441700652
242.743,1.947082363,2.21490914,-0.7351509471,-4.642127433,-0.7468950597
242.7435,0.7263047324,3.740881178,-0.7351509471,-3.72654421,0.1686881634
242.744,-1.410056122,4.046075586,-0.7351509471,-4.642127433,2.305049017
242.7445,-2.020444937,4.046075586,-1.040345355,-5.252516248,3.525826648
242.745,-0.7996673061,5.572047624,-0.4299565394,-4.94732184,3.831021056
242.7455,0.115915917,7.403214071,0.7908210914,-4.031738617,4.136215463
242.746,0.115915917,7.708408478,1.096015499,-3.72654421,4.746604279
242.7465,-0.1892784907,6.792825255,-0.1247621317,-4.031738617,4.441409871
242.747,0.115915917,6.18243644,-1.955928578,-4.642127433,3.525826648
242.7475,0.7263047324,5.877242032,-1.955928578,-4.336933025,2.305049017
242.748,0.115915917,5.266853217,-0.1247621317,-3.116155394,1.99985461
242.7485,-1.104861714,4.046075586,1.401209907,-1.590183356,2.305049017
242.749,-1.410056122,2.825297955,2.011598722,-0.6746001326,2.610243425
242.7495,-1.715250529,1.604520324,2.011598722,-0.9797945403,2.305049017
242.75,-2.93602816,0.07854828584,1.401209907,-0.6746001326,1.99985461
242.7505,-3.546416975,-1.75261816,1.096015499,-0.06421131716,1.389465794
242.751,-2.325639345,-2.363006976,0.7908210914,0.8513719059,0.4738825711
242.7515,-0.4944728984,-2.057812568,0.4856266837,1.156566314,-0.7468950597
242.752,-0.1892784907,-2.973395791,-0.1247621317,0.8513719059,-2.272867098
242.7525,-1.104861714,-5.109756645,-0.7351509471,0.8513719059,-2.883255914
242.753,-1.410056122,-7.246117499,-0.4299565394,0.8513719059,-4.104033544
242.7535,-0.7996673061,-8.161700722,0.7908210914,0.8513719059,-5.324811175
242.754,0.4211103247,-9.077283945,1.096015499,0.8513719059,-6.545588806
242.7545,1.641887955,-10.90845039,0.180432276,1.156566314,-6.545588806
242.755,2.557471179,-11.82403361,-0.4299565394,1.766955129,-6.240394398
242.7555,2.557471179,-10.90845039,-0.1247621317,1.461760721,-5.935199991
242.756,1.336693548,-9.992867168,0.180432276,-0.06421131716,-6.545588806
242.7565,0.115915917,-10.60325598,-0.1247621317,-1.590183356,-6.545588806
242.757,0.4211103247,-11.82403361,-1.040345355,-2.810960986,-6.240394398
