"type","name","time_units","begin_time","frequency","count","units"
"signal","Ultium EMG-EXT.DIG. RT","s",329.98000,2000,22000,"uV"

"time","value"
329.98000,-21.47860933
329.98050,-24.53055341
329.98100,-25.14094222
329.98150,-27.58249748
329.98200,-31.55002478
329.98250,-26.97210867
329.98300,-5.303305722
329.98350,24.91094064
329.98400,42.61221629
329.98450,36.50832813
329.98500,17.28108045
329.98550,3.852526509
329.98600,1.716165655
329.98650,6.29408177
329.98700,12.70316433
329.98750,20.02783012
329.98800,22.77457979
329.98850,12.70316433
329.98900,-6.829277761
329.98950,-26.36171985
329.99000,-39.48507938
329.99050,-46.19935635
329.99100,-44.67338432
329.99150,-33.99158005
329.99200,-26.05652545
329.99250,-31.55002478
329.99300,-34.60196886
329.99350,-4.692916907
329.99400,56.95635345
329.99450,107.0082363
329.99500,107.9238195
329.99550,71.91087943
329.99600,34.67716169
329.99650,10.56680348
329.99700,-8.660444207
329.99750,-23.30977578
329.99800,-22.08899815
329.99850,-8.355249799
329.99900,-2.556556053
329.99950,-12.01758269
330.00000,-22.39419255
330.00050,-20.2578317
330.00100,-11.10199947
330.00150,-7.134472168
330.00200,-9.57602743
330.00250,-12.01758269
330.00300,-13.23836032
330.00350,-14.45913795
330.00400,-13.54355473
330.00450,-9.57602743
330.00500,-5.303305722
330.00550,-4.387722499
330.00600,-4.387722499
330.00650,-1.335778422
330.00700,4.462915324
330.00750,9.04083144
330.00800,9.04083144
330.00850,5.378498547
330.00900,1.105776839
330.00950,-0.7253896067
330.01000,-0.420195199
330.01050,0.4953880241
330.01100,0.8005824318
330.01150,0.4953880241
330.01200,2.32655447
330.01250,6.29408177
330.01300,8.430442624
330.01350,7.209664994
330.01400,4.157720917
330.01450,2.32655447
330.01500,2.021360063
330.01550,1.410971247
330.01600,0.1901936164
330.01650,-0.7253896067
330.01700,-2.556556053
330.01750,-3.472139276
330.01800,-3.166944868
330.01850,-1.946167238
330.01900,-1.335778422
330.01950,-0.1150007913
330.02000,3.547332101
330.02050,6.904470586
330.02100,5.07330414
330.02150,0.1901936164
330.02200,-0.1150007913
330.02250,4.157720917
330.02300,6.599276178
330.02350,2.936943286
330.02400,-1.64097283
330.02450,-3.777333684
330.02500,-7.744860984
330.02550,-13.54355473
330.02600,-12.3227771
330.02650,-1.335778422
330.02700,9.04083144
330.02750,7.514859401
330.02800,-3.166944868
330.02850,-16.2903044
330.02900,-29.71885834
330.02950,-39.17988498
330.03000,-34.60196886
330.03050,-17.81627644
330.03100,-10.18641625
330.03150,-20.56302611
330.03200,-24.225359
330.03250,7.514859401
330.03300,61.53426956
330.03350,91.13812711
330.03400,75.87840673
330.03450,41.39143866
330.03500,20.33302452
330.03550,15.449914
330.03600,12.70316433
330.03650,7.514859401
330.03700,4.768109732
330.03750,3.547332101
330.03800,0.1901936164
330.03850,-2.556556053
330.03900,-2.251361645
330.03950,-1.946167238
330.04000,-6.218888945
330.04050,-13.23836032
330.04100,-16.90069321
330.04150,-14.45913795
330.04200,-8.965638615
330.04250,-2.251361645
330.04300,6.29408177
330.04350,15.14471959
330.04400,18.50185808
330.04450,10.87199789
330.04500,-3.777333684
330.04550,-16.59549881
330.04600,-19.95263729
330.04650,-15.98510999
330.04700,-11.71238828
330.04750,-10.49161065
330.04800,-9.270833022
330.04850,-6.829277761
330.04900,-5.913694538
330.04950,-7.439666576
330.05000,-9.881221838
330.05050,-11.71238828
330.05100,-14.15394355
330.05150,-17.20588762
330.05200,-16.90069321
330.05250,-12.01758269
330.05300,-6.524083353
330.05350,-3.166944868
330.05400,-1.946167238
330.05450,-0.7253896067
330.05500,-0.1150007913
330.05550,-0.1150007913
330.05600,-0.7253896067
330.05650,-1.64097283
330.05700,-3.777333684
330.05750,-7.744860984
330.05800,-12.93316591
330.05850,-16.59549881
330.05900,-15.37472118
330.05950,-9.270833022
330.06000,-2.861750461
330.06050,-0.420195199
330.06100,-0.7253896067
330.06150,-0.1150007913
330.06200,-0.420195199
330.06250,-5.303305722
330.06300,-10.18641625
330.06350,-7.439666576
330.06400,-0.420195199
330.06450,-1.335778422
330.06500,-9.57602743
330.06550,-7.134472168
330.06600,15.14471959
330.06650,44.74857714
330.06700,59.70310312
330.06750,53.90440937
330.06800,37.42391136
330.06850,21.85899656
330.06900,11.4823867
330.06950,5.683692955
330.07000,-1.335778422
330.07050,-16.59549881
330.07100,-37.65391294
330.07150,-54.43960536
330.07200,-63.59543759
330.07250,-68.47854812
330.07300,-72.14088101
330.07350,-73.36165864
330.07400,-74.58243627
330.07450,-76.41360272
330.07500,-68.78374252
330.07550,-38.26430175
330.07600,10.26160907
330.07650,56.95635345
330.07700,90.22254389
330.07750,114.6380965
330.07800,126.8458728
330.07850,110.0601804
330.07900,62.7550472
330.07950,15.14471959
330.08000,-2.251361645
330.08050,7.514859401
330.08100,19.4174413
330.08150,19.72263571
330.08200,14.83952519
330.08250,12.09277552
330.08300,11.4823867
330.08350,11.17719229
330.08400,13.00835874
330.08450,16.97588604
330.08500,20.02783012
330.08550,20.63821893
330.08600,20.63821893
330.08650,21.24860775
330.08700,23.3849686
330.08750,25.52132946
330.08800,22.46938538
330.08850,10.26160907
330.08900,-6.218888945
330.08950,-17.20588762
330.09000,-17.81627644
330.09050,-15.06952677
330.09100,-17.81627644
330.09150,-25.75133104
330.09200,-32.77080242
330.09250,-35.21235768
330.09300,-34.29677445
330.09350,-32.46560801
330.09400,-29.10846952
330.09450,-23.92016459
330.09500,-18.12147085
330.09550,-13.23836032
330.09600,-8.660444207
330.09650,-5.303305722
330.09700,-4.387722499
330.09750,-6.218888945
330.09800,-4.082528091
330.09850,11.4823867
330.09900,41.08624425
330.09950,68.55374094
330.10000,74.9628235
330.10050,59.39790871
330.10100,37.42391136
330.10150,26.43691268
330.10200,27.96288472
330.10250,33.76157846
330.10300,33.45638406
330.10350,19.11224689
330.10400,-10.18641625
330.10450,-47.42013399
330.10500,-77.02399153
330.10550,-89.23176784
330.10600,-85.56943495
330.10650,-75.49801949
330.10700,-64.51102082
330.10750,-54.13441095
330.10800,-47.11493958
330.10850,-46.80974517
330.10900,-49.86168925
330.10950,-45.89416195
330.11000,-29.10846952
330.11050,-6.524083353
330.11100,7.820053809
330.11150,10.87199789
330.11200,11.78758111
330.11250,17.58627486
330.11300,20.63821893
330.11350,10.56680348
330.11400,-7.134472168
330.11450,-15.37472118
330.11500,-5.913694538
330.11550,9.651220255
330.11600,17.89146926
330.11650,17.89146926
330.11700,17.89146926
330.11750,20.33302452
330.11800,19.11224689
330.11850,11.4823867
330.11900,-0.1150007913
330.11950,-10.49161065
330.12000,-19.34224848
330.12050,-25.44613663
330.12100,-27.27730308
330.12150,-23.92016459
330.12200,-18.73185966
330.12250,-16.2903044
330.12300,-13.23836032
330.12350,3.547332101
330.12400,42.91741069
330.12450,89.61215507
330.12500,111.5861524
330.12550,91.13812711
330.12600,47.1901324
330.12650,15.75510841
330.12700,11.78758111
330.12750,21.85899656
330.12800,25.82652386
330.12850,20.33302452
330.12900,12.70316433
330.12950,8.125248217
330.13000,6.904470586
330.13050,8.430442624
330.13100,9.956414663
330.13150,9.04083144
330.13200,5.378498547
330.13250,1.410971247
330.13300,-2.556556053
330.13350,-8.355249799
330.13400,-13.84874914
330.13450,-14.15394355
330.13500,-10.79680506
330.13550,-9.57602743
330.13600,-9.270833022
330.13650,-0.7253896067
330.13700,18.80705249
330.13750,37.72910576
330.13800,41.08624425
330.13850,28.57327353
330.13900,8.125248217
330.13950,-15.06952677
330.14000,-41.01105142
330.14050,-58.40713266
330.14100,-52.30324451
330.14150,-24.225359
330.14200,3.547332101
330.14250,13.00835874
330.14300,7.209664994
330.14350,0.8005824318
330.14400,0.1901936164
330.14450,1.105776839
330.14500,2.021360063
330.14550,4.768109732
330.14600,4.157720917
330.14650,-6.218888945
330.14700,-23.61497018
330.14750,-37.65391294
330.14800,-44.36818991
330.14850,-51.9980501
330.14900,-63.59543759
330.14950,-67.8681593
330.15000,-51.9980501
330.15050,-16.90069321
330.15100,25.21613505
330.15150,61.83946397
330.15200,81.06671166
330.15250,74.6576291
330.15300,43.83299392
330.15350,0.8005824318
330.15400,-37.34871853
330.15450,-60.23829911
330.15500,-63.29024319
330.15550,-48.94610602
330.15600,-29.10846952
330.15650,-15.06952677
330.15700,-6.829277761
330.15750,10.56680348
330.15800,45.66416036
330.15850,83.50826692
330.15900,97.85240408
330.15950,78.01476758
330.16000,41.39143866
330.16050,15.14471959
330.16100,9.651220255
330.16150,12.09277552
330.16200,6.599276178
330.16250,-6.829277761
330.16300,-15.37472118
330.16350,-12.01758269
330.16400,-2.556556053
330.16450,3.852526509
330.16500,7.209664994
330.16550,9.956414663
330.16600,6.29408177
330.16650,-7.134472168
330.16700,-23.30977578
330.16750,-28.1928863
330.16800,-19.95263729
330.16850,-10.79680506
330.16900,-9.57602743
330.16950,-12.3227771
330.17000,-11.40719388
330.17050,-6.524083353
330.17100,-2.251361645
330.17150,-0.1150007913
330.17200,2.021360063
330.17250,5.378498547
330.17300,8.735637032
330.17350,10.26160907
330.17400,10.26160907
330.17450,10.56680348
330.17500,11.78758111
330.17550,12.09277552
330.17600,8.430442624
330.17650,4.157720917
330.17700,5.07330414
330.17750,10.87199789
330.17800,10.56680348
330.17850,-2.861750461
330.17900,-19.95263729
330.17950,-24.83574782
330.18000,-16.2903044
330.18050,-10.79680506
330.18100,-23.61497018
330.18150,-48.94610602
330.18200,-68.17335371
330.18250,-70.00452015
330.18300,-56.88116062
330.18350,-37.65391294
330.18400,-18.73185966
330.18450,-5.303305722
330.18500,2.021360063
330.18550,9.04083144
330.18600,21.24860775
330.18650,33.76157846
330.18700,32.54080083
330.18750,12.39796992
330.18800,-11.71238828
330.18850,-22.08899815
330.18900,-14.76433236
330.18950,-2.861750461
330.19000,2.631748878
330.19050,1.716165655
330.19100,-0.1150007913
330.19150,-1.030584014
330.19200,-0.7253896067
330.19250,-0.1150007913
330.19300,-1.030584014
330.19350,-2.861750461
330.19400,-2.556556053
330.19450,-0.1150007913
330.19500,0.4953880241
330.19550,-1.335778422
330.19600,0.8005824318
330.19650,9.346025847
330.19700,12.39796992
330.19750,0.1901936164
330.19800,-16.90069321
330.19850,-23.30977578
330.19900,-18.12147085
330.19950,-14.15394355
330.20000,-15.98510999
330.20050,-16.2903044
330.20100,-14.45913795
330.20150,-16.59549881
330.20200,-22.39419255
330.20250,-26.36171985
330.20300,-30.63444156
330.20350,-36.73832972
330.20400,-28.80327512
330.20450,9.651220255
330.20500,62.44985279
330.20550,87.78098863
330.20600,71.60568502
330.20650,43.52779951
330.20700,33.45638406
330.20750,33.76157846
330.20800,25.21613505
330.20850,11.78758111
330.20900,10.26160907
330.20950,19.72263571
330.21000,22.46938538
330.21050,13.00835874
330.21100,4.462915324
330.21150,5.07330414
330.21200,8.430442624
330.21250,6.599276178
330.21300,-1.335778422
330.21350,-13.23836032
330.21400,-25.75133104
330.21450,-34.90716327
330.21500,-39.48507938
330.21550,-40.0954682
330.21600,-35.82274649
330.21650,-20.2578317
330.21700,8.430442624
330.21750,39.86546662
330.21800,59.39790871
330.21850,59.39790871
330.21900,43.83299392
330.21950,20.33302452
330.22000,1.410971247
330.22050,-1.64097283
330.22100,8.735637032
330.22150,18.19666367
330.22200,14.22913637
330.22250,0.8005824318
330.22300,-7.439666576
330.22350,-5.303305722
330.22400,-1.030584014
330.22450,-1.64097283
330.22500,-5.303305722
330.22550,-7.134472168
330.22600,-6.218888945
330.22650,-3.777333684
330.22700,-0.7253896067
330.22750,1.410971247
330.22800,1.410971247
330.22850,-1.946167238
330.22900,-9.57602743
330.22950,-18.73185966
330.23000,-25.75133104
330.23050,-27.88769189
330.23100,-27.27730308
330.23150,-25.14094222
330.23200,-18.12147085
330.23250,-3.777333684
330.23300,13.61874756
330.23350,23.07977419
330.23400,19.72263571
330.23450,10.56680348
330.23500,2.021360063
330.23550,-5.60850013
330.23600,-12.62797151
330.23650,-10.18641625
330.23700,6.599276178
330.23750,29.79405116
330.23800,42.91741069
330.23850,40.78104984
330.23900,31.01482879
330.23950,18.80705249
330.24000,5.683692955
330.24050,-5.60850013
330.24100,-8.965638615
330.24150,-4.387722499
330.24200,0.8005824318
330.24250,3.852526509
330.24300,6.904470586
330.24350,10.26160907
330.24400,9.346025847
330.24450,3.547332101
330.24500,-1.64097283
330.24550,-4.387722499
330.24600,-8.050055392
330.24650,-14.45913795
330.24700,-19.34224848
330.24750,-20.86822052
330.24800,-22.69938696
330.24850,-26.97210867
330.24900,-26.66691426
330.24950,-15.06952677
330.25000,5.683692955
330.25050,25.82652386
330.25100,35.2875505
330.25150,31.01482879
330.25200,17.28108045
330.25250,2.32655447
330.25300,-8.050055392
330.25350,-15.98510999
330.25400,-23.92016459
330.25450,-27.58249748
330.25500,-22.39419255
330.25550,-12.62797151
330.25600,-8.050055392
330.25650,-9.881221838
330.25700,-8.965638615
330.25750,-1.030584014
330.25800,7.209664994
330.25850,8.735637032
330.25900,5.378498547
330.25950,3.547332101
330.26000,4.157720917
330.26050,3.242137693
330.26100,1.105776839
330.26150,0.8005824318
330.26200,2.32655447
330.26250,2.32655447
330.26300,2.936943286
330.26350,8.125248217
330.26400,15.75510841
330.26450,15.449914
330.26500,3.547332101
330.26550,-7.134472168
330.26600,-4.387722499
330.26650,5.988887363
330.26700,8.125248217
330.26750,-4.387722499
330.26800,-19.34224848
330.26850,-24.225359
330.26900,-19.03705407
330.26950,-11.40719388
330.27000,-4.082528091
330.27050,2.936943286
330.27100,8.430442624
330.27150,11.17719229
330.27200,11.78758111
330.27250,8.125248217
330.27300,-0.1150007913
330.27350,-6.218888945
330.27400,-1.030584014
330.27450,6.904470586
330.27500,-1.335778422
330.27550,-28.80327512
330.27600,-47.72532839
330.27650,-35.51755208
330.27700,-8.050055392
330.27750,0.4953880241
330.27800,-15.98510999
330.27850,-28.80327512
330.27900,-15.06952677
330.27950,13.61874756
330.28000,30.70963439
330.28050,26.43691268
330.28100,12.39796992
330.28150,0.1901936164
330.28200,-7.744860984
330.28250,-12.93316591
330.28300,-13.84874914
330.28350,-9.881221838
330.28400,-2.556556053
330.28450,6.599276178
330.28500,16.97588604
330.28550,23.07977419
330.28600,16.36549722
330.28650,-1.030584014
330.28700,-15.67991558
330.28750,-14.76433236
330.28800,-4.998111315
330.28850,-1.946167238
330.28900,-8.660444207
330.28950,-13.84874914
330.29000,-9.57602743
330.29050,-3.166944868
330.29100,-2.556556053
330.29150,-4.387722499
330.29200,-2.556556053
330.29250,-0.1150007913
330.29300,-1.946167238
330.29350,-4.692916907
330.29400,-2.861750461
330.29450,0.1901936164
330.29500,0.1901936164
330.29550,0.4953880241
330.29600,6.904470586
330.29650,14.83952519
330.29700,16.67069163
330.29750,13.61874756
330.29800,12.09277552
330.29850,12.39796992
330.29900,11.17719229
330.29950,12.09277552
330.30000,18.19666367
330.30050,23.99535742
330.30100,20.63821893
330.30150,9.651220255
330.30200,-2.251361645
330.30250,-15.06952677
330.30300,-31.24483038
330.30350,-45.89416195
330.30400,-55.9655774
330.30450,-68.47854812
330.30500,-84.65385172
330.30550,-84.65385172
330.30600,-45.28377313
330.30650,24.91094064
330.30700,89.00176626
330.30750,117.0796518
330.30800,106.0926531
330.30850,69.16412976
330.30900,20.63821893
330.30950,-21.78380374
330.31000,-44.97857872
330.31050,-48.0305228
330.31100,-40.0954682
330.31150,-30.02405275
330.31200,-20.2578317
330.31250,-10.49161065
330.31300,7.514859401
330.31350,48.10571563
330.31400,106.7030419
330.31450,148.8198702
330.31500,141.4952044
330.31550,95.71604323
330.31600,50.24207648
330.31650,27.04730149
330.31700,17.28108045
330.31750,9.04083144
330.31800,5.988887363
330.31850,7.820053809
330.31900,2.936943286
330.31950,-12.01758269
330.32000,-22.08899815
330.32050,-16.59549881
330.32100,-7.134472168
330.32150,-9.881221838
330.32200,-23.00458137
330.32250,-33.99158005
330.32300,-39.17988498
330.32350,-41.92663465
330.32400,-40.0954682
330.32450,-27.88769189
330.32500,-8.050055392
330.32550,7.820053809
330.32600,11.4823867
330.32650,7.514859401
330.32700,5.07330414
330.32750,5.988887363
330.32800,3.242137693
330.32850,-8.050055392
330.32900,-21.78380374
330.32950,-26.66691426
330.33000,-20.56302611
330.33050,-12.62797151
330.33100,-11.10199947
330.33150,-15.06952677
330.33200,-19.34224848
330.33250,-23.00458137
330.33300,-26.66691426
330.33350,-28.49808071
330.33400,-23.61497018
330.33450,-12.62797151
330.33500,-1.030584014
330.33550,5.378498547
330.33600,6.29408177
330.33650,4.768109732
330.33700,4.768109732
330.33750,6.599276178
330.33800,7.209664994
330.33850,3.547332101
330.33900,-1.946167238
330.33950,-6.218888945
330.34000,-7.744860984
330.34050,-8.660444207
330.34100,-9.270833022
330.34150,-8.660444207
330.34200,-6.524083353
330.34250,-3.777333684
330.34300,-2.251361645
330.34350,-1.64097283
330.34400,-2.251361645
330.34450,-3.472139276
330.34500,-4.692916907
330.34550,-6.218888945
330.34600,-9.57602743
330.34650,-12.93316591
330.34700,-13.54355473
330.34750,-9.57602743
330.34800,-5.303305722
330.34850,-3.472139276
330.34900,-1.335778422
330.34950,3.852526509
330.35000,9.04083144
330.35050,9.04083144
330.35100,6.29408177
330.35150,5.683692955
330.35200,6.599276178
330.35250,6.29408177
330.35300,7.820053809
330.35350,15.449914
330.35400,20.63821893
330.35450,7.514859401
330.35500,-21.47860933
330.35550,-41.92663465
330.35600,-35.51755208
330.35650,-12.3227771
330.35700,3.852526509
330.35750,4.768109732
330.35800,-1.335778422
330.35850,-8.355249799
330.35900,-15.67991558
330.35950,-19.95263729
330.36000,-14.45913795
330.36050,-2.861750461
330.36100,0.4953880241
330.36150,-8.660444207
330.36200,-19.34224848
330.36250,-16.59549881
330.36300,-1.030584014
330.36350,13.92394196
330.36400,17.89146926
330.36450,10.26160907
330.36500,-3.777333684
330.36550,-16.90069321
330.36600,-21.78380374
330.36650,-16.90069321
330.36700,-7.134472168
330.36750,0.1901936164
330.36800,4.157720917
330.36850,5.988887363
330.36900,6.599276178
330.36950,5.07330414
330.37000,2.32655447
330.37050,2.021360063
330.37100,5.683692955
330.37150,9.346025847
330.37200,7.820053809
330.37250,-0.1150007913
330.37300,-9.270833022
330.37350,-14.15394355
330.37400,-10.49161065
330.37450,-1.335778422
330.37500,6.904470586
330.37550,9.956414663
330.37600,9.651220255
330.37650,11.4823867
330.37700,16.67069163
330.37750,20.94341334
330.37800,19.11224689
330.37850,12.09277552
330.37900,5.378498547
330.37950,3.852526509
330.38000,5.988887363
330.38050,7.514859401
330.38100,5.683692955
330.38150,2.631748878
330.38200,1.716165655
330.38250,3.547332101
330.38300,5.683692955
330.38350,7.209664994
330.38400,9.04083144
330.38450,10.87199789
330.38500,7.820053809
330.38550,0.8005824318
330.38600,-1.946167238
330.38650,3.852526509
330.38700,12.09277552
330.38750,11.78758111
330.38800,3.547332101
330.38850,-2.556556053
330.38900,-2.251361645
330.38950,-1.335778422
330.39000,-3.777333684
330.39050,-4.998111315
330.39100,-1.030584014
330.39150,5.988887363
330.39200,15.14471959
330.39250,25.82652386
330.39300,34.37196728
330.39350,31.01482879
330.39400,13.61874756
330.39450,-5.303305722
330.39500,-16.90069321
330.39550,-25.75133104
330.39600,-39.17988498
330.39650,-53.21882773
330.39700,-54.43960536
330.39750,-37.34871853
330.39800,-7.134472168
330.39850,23.69016301
330.39900,42.61221629
330.39950,36.81352254
330.40000,9.651220255
330.40050,-17.81627644
330.40100,-28.1928863
330.40150,-24.53055341
330.40200,-24.53055341
330.40250,-28.1928863
330.40300,-15.67991558
330.40350,26.13171827
330.40400,82.5926837
330.40450,120.4367903
330.40500,119.521207
330.40550,89.30696067
330.40600,53.29402056
330.40650,27.3524959
330.40700,10.56680348
330.40750,-4.082528091
330.40800,-15.67991558
330.40850,-18.42666525
330.40900,-14.45913795
330.40950,-12.3227771
330.41000,-14.45913795
330.41050,-14.15394355
330.41100,-8.660444207
330.41150,-5.60850013
330.41200,-9.57602743
330.41250,-14.45913795
330.41300,-12.3227771
330.41350,-5.913694538
330.41400,-4.387722499
330.41450,-8.355249799
330.41500,-11.10199947
330.41550,-8.660444207
330.41600,-4.692916907
330.41650,-2.251361645
330.41700,-0.7253896067
330.41750,-0.420195199
330.41800,-2.556556053
330.41850,-6.524083353
330.41900,-8.965638615
330.41950,-8.965638615
330.42000,-8.050055392
330.42050,-8.660444207
330.42100,-10.18641625
330.42150,-11.40719388
330.42200,-12.62797151
330.42250,-13.54355473
330.42300,-12.93316591
330.42350,-10.49161065
330.42400,-7.439666576
330.42450,-5.303305722
330.42500,-4.082528091
330.42550,-2.861750461
330.42600,-1.946167238
330.42650,-1.64097283
330.42700,-0.420195199
330.42750,2.936943286
330.42800,7.514859401
330.42850,8.125248217
330.42900,3.547332101
330.42950,-1.030584014
330.43000,0.4953880241
330.43050,6.599276178
330.43100,7.820053809
330.43150,-0.1150007913
330.43200,-9.270833022
330.43250,-12.3227771
330.43300,-8.965638615
330.43350,-5.913694538
330.43400,-5.913694538
330.43450,-8.355249799
330.43500,-13.23836032
330.43550,-19.34224848
330.43600,-21.78380374
330.43650,-15.98510999
330.43700,-6.218888945
330.43750,-1.64097283
330.43800,-3.777333684
330.43850,-4.998111315
330.43900,-0.420195199
330.43950,4.462915324
330.44000,6.29408177
330.44050,5.683692955
330.44100,4.768109732
330.44150,1.410971247
330.44200,-3.472139276
330.44250,-6.524083353
330.44300,-5.913694538
330.44350,-9.57602743
330.44400,-26.05652545
330.44450,-48.0305228
330.44500,-57.18635503
330.44550,-42.84221787
330.44600,-15.37472118
330.44650,2.021360063
330.44700,-1.030584014
330.44750,-12.01758269
330.44800,-9.881221838
330.44850,5.988887363
330.44900,15.75510841
330.44950,9.346025847
330.45000,4.157720917
330.45050,17.89146926
330.45100,34.37196728
330.45150,23.07977419
330.45200,-13.23836032
330.45250,-37.04352412
330.45300,-23.92016459
330.45350,4.462915324
330.45400,14.83952519
330.45450,6.904470586
330.45500,5.07330414
330.45550,16.97588604
330.45600,24.91094064
330.45650,16.06030282
330.45700,-1.64097283
330.45750,-16.59549881
330.45800,-26.05652545
330.45850,-30.02405275
330.45900,-26.97210867
330.45950,-19.95263729
330.46000,-17.20588762
330.46050,-15.37472118
330.46100,3.547332101
330.46150,45.96935477
330.46200,85.33943337
330.46250,89.91734948
330.46300,59.70310312
330.46350,24.91094064
330.46400,9.956414663
330.46450,9.651220255
330.46500,8.735637032
330.46550,3.852526509
330.46600,1.105776839
330.46650,1.105776839
330.46700,-0.1150007913
330.46750,-2.861750461
330.46800,-3.472139276
330.46850,-0.1150007913
330.46900,4.768109732
330.46950,6.904470586
330.47000,6.904470586
330.47050,6.599276178
330.47100,5.683692955
330.47150,3.852526509
330.47200,2.32655447
330.47250,3.547332101
330.47300,7.209664994
330.47350,10.56680348
330.47400,10.56680348
330.47450,7.514859401
330.47500,4.462915324
330.47550,3.242137693
330.47600,2.631748878
330.47650,1.105776839
330.47700,-1.030584014
330.47750,-2.251361645
330.47800,-2.251361645
330.47850,-1.335778422
330.47900,-0.1150007913
330.47950,0.1901936164
330.48000,-0.1150007913
330.48050,-1.030584014
330.48100,-1.335778422
330.48150,-0.420195199
330.48200,0.1901936164
330.48250,-0.1150007913
330.48300,-0.7253896067
330.48350,-0.420195199
330.48400,-0.7253896067
330.48450,-2.861750461
330.48500,-6.524083353
330.48550,-8.355249799
330.48600,-8.050055392
330.48650,-6.524083353
330.48700,-6.524083353
330.48750,-8.050055392
330.48800,-9.57602743
330.48850,-9.57602743
330.48900,-8.355249799
330.48950,-6.524083353
330.49000,-4.998111315
330.49050,-4.082528091
330.49100,-2.861750461
330.49150,-2.251361645
330.49200,-1.64097283
330.49250,-1.335778422
330.49300,-2.251361645
330.49350,-4.998111315
330.49400,-8.050055392
330.49450,-9.270833022
330.49500,-8.355249799
330.49550,-6.524083353
330.49600,-4.692916907
330.49650,-4.082528091
330.49700,-5.303305722
330.49750,-8.355249799
330.49800,-10.18641625
330.49850,-8.050055392
330.49900,-4.082528091
330.49950,-1.64097283
330.50000,-1.946167238
330.50050,-2.251361645
330.50100,-3.166944868
330.50150,-5.60850013
330.50200,-7.439666576
330.50250,-4.387722499
330.50300,-2.556556053
330.50350,-16.59549881
330.50400,-49.86168925
330.50450,-84.04346291
330.50500,-96.86162803
330.50550,-87.09540699
330.50600,-71.22529779
330.50650,-61.15388233
330.50700,-53.21882773
330.50750,-34.60196886
330.50800,2.021360063
330.50850,56.65115904
330.50900,115.2484853
330.50950,150.3458422
330.51000,140.8848156
330.51050,97.24201527
330.51100,56.95635345
330.51150,46.27454918
330.51200,54.51479819
330.51250,52.98882615
330.51300,33.76157846
330.51350,13.92394196
330.51400,6.599276178
330.51450,5.378498547
330.51500,-0.420195199
330.51550,-7.439666576
330.51600,-6.829277761
330.51650,-0.7253896067
330.51700,1.105776839
330.51750,-2.251361645
330.51800,-4.692916907
330.51850,-2.556556053
330.51900,-0.420195199
330.51950,-0.1150007913
330.52000,-0.1150007913
330.52050,-1.64097283
330.52100,-9.881221838
330.52150,-24.53055341
330.52200,-34.90716327
330.52250,-33.99158005
330.52300,-25.75133104
330.52350,-19.95263729
330.52400,-17.51108203
330.52450,-14.15394355
330.52500,-9.270833022
330.52550,-6.218888945
330.52600,-6.829277761
330.52650,-7.134472168
330.52700,-5.60850013
330.52750,-3.472139276
330.52800,-3.777333684
330.52850,-6.218888945
330.52900,-8.355249799
330.52950,-9.270833022
330.53000,-7.439666576
330.53050,-3.472139276
330.53100,0.4953880241
330.53150,2.631748878
330.53200,1.716165655
330.53250,0.1901936164
330.53300,-0.420195199
330.53350,-1.335778422
330.53400,-2.861750461
330.53450,-3.777333684
330.53500,-2.556556053
330.53550,-0.1150007913
330.53600,1.410971247
330.53650,2.32655447
330.53700,2.021360063
330.53750,1.410971247
330.53800,0.8005824318
330.53850,0.8005824318
330.53900,1.105776839
330.53950,1.716165655
330.54000,1.716165655
330.54050,1.105776839
330.54100,0.8005824318
330.54150,0.8005824318
330.54200,0.8005824318
330.54250,0.1901936164
330.54300,-0.1150007913
330.54350,-1.335778422
330.54400,-3.777333684
330.54450,-5.303305722
330.54500,-3.777333684
330.54550,-1.030584014
330.54600,-0.7253896067
330.54650,-2.556556053
330.54700,-4.082528091
330.54750,-3.472139276
330.54800,-1.946167238
330.54850,0.1901936164
330.54900,3.242137693
330.54950,4.462915324
330.55000,2.936943286
330.55050,2.631748878
330.55100,6.29408177
330.55150,7.820053809
330.55200,2.631748878
330.55250,-0.1150007913
330.55300,11.17719229
330.55350,29.18366235
330.55400,29.48885676
330.55450,6.29408177
330.55500,-13.23836032
330.55550,-4.387722499
330.55600,20.02783012
330.55650,24.60574623
330.55700,-0.1150007913
330.55750,-25.75133104
330.55800,-27.58249748
330.55850,-10.79680506
330.55900,0.1901936164
330.55950,-3.777333684
330.56000,-15.67991558
330.56050,-23.61497018
330.56100,-25.14094222
330.56150,-21.78380374
330.56200,-13.84874914
330.56250,-1.64097283
330.56300,7.514859401
330.56350,5.07330414
330.56400,-9.270833022
330.56450,-23.00458137
330.56500,-21.78380374
330.56550,-7.744860984
330.56600,3.852526509
330.56650,4.768109732
330.56700,2.021360063
330.56750,5.683692955
330.56800,13.61874756
330.56850,16.97588604
330.56900,11.78758111
330.56950,3.852526509
330.57000,-1.335778422
330.57050,-3.777333684
330.57100,-2.556556053
330.57150,1.410971247
330.57200,4.768109732
330.57250,4.157720917
330.57300,2.936943286
330.57350,8.430442624
330.57400,18.80705249
330.57450,24.60574623
330.57500,19.72263571
330.57550,13.31355315
330.57600,14.53433078
330.57650,21.24860775
330.57700,21.55380216
330.57750,11.17719229
330.57800,-1.030584014
330.57850,-7.134472168
330.57900,-6.829277761
330.57950,-6.829277761
330.58000,-7.744860984
330.58050,-7.439666576
330.58100,-4.387722499
330.58150,-0.1150007913
330.58200,6.29408177
330.58250,15.14471959
330.58300,23.3849686
330.58350,24.91094064
330.58400,18.80705249
330.58450,10.87199789
330.58500,7.209664994
330.58550,7.820053809
330.58600,7.209664994
330.58650,3.547332101
330.58700,-0.1150007913
330.58750,-1.030584014
330.58800,-1.64097283
330.58850,-2.861750461
330.58900,-2.251361645
330.58950,0.1901936164
330.59000,1.716165655
330.59050,-0.1150007913
330.59100,-3.166944868
330.59150,-2.251361645
330.59200,0.8005824318
330.59250,3.547332101
330.59300,5.683692955
330.59350,8.735637032
330.59400,7.514859401
330.59450,-2.251361645
330.59500,-15.98510999
330.59550,-22.08899815
330.59600,-19.03705407
330.59650,-14.15394355
330.59700,-12.62797151
330.59750,-11.71238828
330.59800,-8.660444207
330.59850,-6.218888945
330.59900,-4.998111315
330.59950,-2.251361645
330.60000,-1.335778422
330.60050,-8.660444207
330.60100,-23.92016459
330.60150,-35.21235768
330.60200,-34.29677445
330.60250,-25.75133104
330.60300,-14.45913795
330.60350,1.105776839
330.60400,24.30055182
330.60450,44.13818833
330.60500,47.1901324
330.60550,34.37196728
330.60600,20.63821893
330.60650,16.97588604
330.60700,18.19666367
330.60750,12.09277552
330.60800,-5.60850013
330.60850,-26.05652545
330.60900,-38.26430175
330.60950,-39.79027379
330.61000,-38.56949616
330.61050,-42.53702346
330.61100,-51.69285569
330.61150,-57.49154944
330.61200,-46.80974517
330.61250,-14.45913795
330.61300,24.60574623
330.61350,42.91741069
330.61400,27.65769031
330.61450,6.599276178
330.61500,18.50185808
330.61550,64.89140805
330.61600,99.98876493
330.61650,87.17059981
330.61700,40.47585543
330.61750,-0.420195199
330.61800,-18.42666525
330.61850,-25.14094222
330.61900,-30.63444156
330.61950,-35.21235768
330.62000,-39.17988498
330.62050,-41.31624583
330.62100,-26.97210867
330.62150,15.75510841
330.62200,67.0277689
330.62250,85.64462777
330.62300,57.87193667
330.62350,13.92394196
330.62400,-11.40719388
330.62450,-16.90069321
330.62500,-21.17341492
330.62550,-28.80327512
330.62600,-26.05652545
330.62650,-2.556556053
330.62700,34.37196728
330.62750,67.94335213
330.62800,83.20307251
330.62850,75.26801791
330.62900,51.76804852
330.62950,28.87846794
330.63000,16.06030282
330.63050,9.346025847
330.63100,-0.7253896067
330.63150,-15.98510999
330.63200,-28.49808071
330.63250,-33.99158005
330.63300,-34.90716327
330.63350,-33.99158005
330.63400,-28.80327512
330.63450,-18.12147085
330.63500,-9.881221838
330.63550,-10.79680506
330.63600,-15.98510999
330.63650,-15.37472118
330.63700,-9.881221838
330.63750,-11.71238828
330.63800,-23.92016459
330.63850,-33.38119123
330.63900,-28.1928863
330.63950,-14.45913795
330.64000,-6.829277761
330.64050,-8.660444207
330.64100,-12.01758269
330.64150,-13.84874914
330.64200,-17.20588762
330.64250,-21.47860933
330.64300,-21.78380374
330.64350,-17.51108203
330.64400,-15.98510999
330.64450,-20.2578317
330.64500,-24.225359
330.64550,-24.83574782
330.64600,-26.05652545
330.64650,-30.32924715
330.64700,-30.02405275
330.64750,-16.59549881
330.64800,2.936943286
330.64850,13.61874756
330.64900,9.346025847
330.64950,0.1901936164
330.65000,-1.030584014
330.65050,5.683692955
330.65100,13.61874756
330.65150,19.11224689
330.65200,23.69016301
330.65250,25.82652386
330.65300,23.3849686
330.65350,19.72263571
330.65400,20.33302452
330.65450,21.85899656
330.65500,13.31355315
330.65550,-3.777333684
330.65600,-16.2903044
330.65650,-16.2903044
330.65700,-13.23836032
330.65750,-16.90069321
330.65800,-20.86822052
330.65850,-16.2903044
330.65900,-10.49161065
330.65950,-15.98510999
330.66000,-27.27730308
330.66050,-27.88769189
330.66100,-14.45913795
330.66150,-2.251361645
330.66200,-0.7253896067
330.66250,-4.082528091
330.66300,-4.692916907
330.66350,-3.166944868
330.66400,-1.030584014
330.66450,3.242137693
330.66500,10.87199789
330.66550,17.58627486
330.66600,21.55380216
330.66650,27.96288472
330.66700,37.42391136
330.66750,41.08624425
330.66800,27.65769031
330.66850,-0.420195199
330.66900,-27.27730308
330.66950,-34.90716327
330.67000,-19.03705407
330.67050,5.988887363
330.67100,22.16419097
330.67150,23.3849686
330.67200,20.02783012
330.67250,22.16419097
330.67300,27.04730149
330.67350,23.99535742
330.67400,9.346025847
330.67450,-10.18641625
330.67500,-26.66691426
330.67550,-33.07599682
330.67600,-27.88769189
330.67650,-15.98510999
330.67700,-5.913694538
330.67750,-3.166944868
330.67800,-2.251361645
330.67850,2.32655447
330.67900,9.04083144
330.67950,10.26160907
330.68000,3.852526509
330.68050,-4.692916907
330.68100,-10.79680506
330.68150,-14.45913795
330.68200,-15.37472118
330.68250,-11.10199947
330.68300,-2.251361645
330.68350,3.547332101
330.68400,1.105776839
330.68450,-7.134472168
330.68500,-14.15394355
330.68550,-16.2903044
330.68600,-16.59549881
330.68650,-18.42666525
330.68700,-21.47860933
330.68750,-23.00458137
330.68800,-21.47860933
330.68850,-16.59549881
330.68900,-12.3227771
330.68950,-11.40719388
330.69000,-10.18641625
330.69050,-1.64097283
330.69100,14.83952519
330.69150,31.3200232
330.69200,36.50832813
330.69250,31.01482879
330.69300,26.74210709
330.69350,31.62521761
330.69400,41.08624425
330.69450,44.74857714
330.69500,39.56027221
330.69550,28.57327353
330.69600,13.92394196
330.69650,-1.64097283
330.69700,-13.84874914
330.69750,-15.67991558
330.69800,-11.10199947
330.69850,-11.40719388
330.69900,-19.03705407
330.69950,-25.44613663
330.70000,-23.61497018
330.70050,-12.93316591
330.70100,4.462915324
330.70150,27.65769031
330.70200,44.44338273
330.70250,35.2875505
330.70300,2.021360063
330.70350,-26.36171985
330.70400,-29.10846952
330.70450,-19.34224848
330.70500,-20.86822052
330.70550,-27.27730308
330.70600,-9.881221838
330.70650,32.54080083
330.70700,67.0277689
330.70750,68.85893535
330.70800,48.71610444
330.70850,28.26807912
330.70900,11.17719229
330.70950,-5.913694538
330.71000,-17.51108203
330.71050,-17.20588762
330.71100,-11.40719388
330.71150,-10.79680506
330.71200,-16.90069321
330.71250,-24.53055341
330.71300,-27.88769189
330.71350,-16.59549881
330.71400,18.50185808
330.71450,65.19660246
330.71500,91.13812711
330.71550,79.23554521
330.71600,48.10571563
330.71650,26.74210709
330.71700,20.02783012
330.71750,13.31355315
330.71800,2.631748878
330.71850,-1.946167238
330.71900,0.4953880241
330.71950,1.716165655
330.72000,-2.251361645
330.72050,-5.60850013
330.72100,-5.303305722
330.72150,-5.60850013
330.72200,-8.050055392
330.72250,-9.270833022
330.72300,-8.965638615
330.72350,-11.71238828
330.72400,-17.51108203
330.72450,-21.47860933
330.72500,-21.47860933
330.72550,-21.17341492
330.72600,-20.86822052
330.72650,-18.12147085
330.72700,-13.54355473
330.72750,-10.79680506
330.72800,-10.49161065
330.72850,-9.881221838
330.72900,-8.965638615
330.72950,-8.355249799
330.73000,-6.829277761
330.73050,-3.777333684
330.73100,-1.64097283
330.73150,-2.556556053
330.73200,-2.556556053
330.73250,1.716165655
330.73300,3.852526509
330.73350,-2.861750461
330.73400,-11.40719388
330.73450,-9.57602743
330.73500,-2.556556053
330.73550,-6.829277761
330.73600,-23.00458137
330.73650,-32.77080242
330.73700,-27.27730308
330.73750,-19.95263729
330.73800,-25.14094222
330.73850,-36.73832972
330.73900,-39.17988498
330.73950,-29.41366393
330.74000,-17.51108203
330.74050,-12.3227771
330.74100,-16.2903044
330.74150,-23.30977578
330.74200,-18.42666525
330.74250,7.514859401
330.74300,45.05377155
330.74350,65.80699127
330.74400,54.81999259
330.74450,23.99535742
330.74500,-4.387722499
330.74550,-18.42666525
330.74600,-15.98510999
330.74650,0.4953880241
330.74700,21.85899656
330.74750,33.15118965
330.74800,28.57327353
330.74850,17.58627486
330.74900,9.956414663
330.74950,5.988887363
330.75000,2.021360063
330.75050,0.8005824318
330.75100,3.547332101
330.75150,5.988887363
330.75200,3.852526509
330.75250,0.4953880241
330.75300,0.4953880241
330.75350,2.631748878
330.75400,4.462915324
330.75450,5.683692955
330.75500,3.242137693
330.75550,-6.524083353
330.75600,-18.73185966
330.75650,-23.00458137
330.75700,-16.90069321
330.75750,-9.270833022
330.75800,-4.387722499
330.75850,1.105776839
330.75900,7.209664994
330.75950,5.988887363
330.76000,-3.166944868
330.76050,-10.18641625
330.76100,-7.134472168
330.76150,-2.251361645
330.76200,-4.387722499
330.76250,-10.79680506
330.76300,-12.62797151
330.76350,-8.050055392
330.76400,-2.556556053
330.76450,-0.7253896067
330.76500,-1.946167238
330.76550,-4.082528091
330.76600,-3.777333684
330.76650,0.8005824318
330.76700,4.768109732
330.76750,-0.7253896067
330.76800,-16.59549881
330.76850,-32.1604136
330.76900,-37.04352412
330.76950,-31.55002478
330.77000,-22.39419255
330.77050,-14.76433236
330.77100,-10.79680506
330.77150,-10.79680506
330.77200,-11.71238828
330.77250,-9.57602743
330.77300,-2.861750461
330.77350,5.07330414
330.77400,10.56680348
330.77450,12.09277552
330.77500,12.39796992
330.77550,13.92394196
330.77600,16.36549722
330.77650,17.89146926
330.77700,18.50185808
330.77750,20.63821893
330.77800,23.99535742
330.77850,21.55380216
330.77900,8.735637032
330.77950,-9.270833022
330.78000,-19.34224848
330.78050,-15.67991558
330.78100,-5.303305722
330.78150,-0.420195199
330.78200,-5.913694538
330.78250,-20.56302611
330.78300,-38.26430175
330.78350,-51.08246688
330.78400,-52.30324451
330.78450,-40.0954682
330.78500,-15.67991558
330.78550,15.14471959
330.78600,43.2226051
330.78650,54.51479819
330.78700,45.35896596
330.78750,27.65769031
330.78800,16.36549722
330.78850,14.53433078
330.78900,16.06030282
330.78950,18.19666367
330.79000,20.94341334
330.79050,20.33302452
330.79100,10.56680348
330.79150,-3.166944868
330.79200,-9.881221838
330.79250,-5.303305722
330.79300,2.32655447
330.79350,6.29408177
330.79400,6.599276178
330.79450,4.768109732
330.79500,-0.7253896067
330.79550,-11.40719388
330.79600,-21.78380374
330.79650,-26.05652545
330.79700,-23.61497018
330.79750,-19.64744288
330.79800,-16.2903044
330.79850,-6.218888945
330.79900,19.11224689
330.79950,54.20960378
330.80000,74.9628235
330.80050,62.7550472
330.80100,27.04730149
330.80150,-1.64097283
330.80200,-8.660444207
330.80250,-2.556556053
330.80300,1.410971247
330.80350,2.631748878
330.80400,5.683692955
330.80450,9.346025847
330.80500,8.735637032
330.80550,5.683692955
330.80600,3.547332101
330.80650,2.021360063
330.80700,-0.1150007913
330.80750,-1.64097283
330.80800,-4.692916907
330.80850,-14.45913795
330.80900,-30.32924715
330.80950,-43.14741228
330.81000,-44.67338432
330.81050,-39.48507938
330.81100,-34.90716327
330.81150,-32.46560801
330.81200,-26.05652545
330.81250,-11.10199947
330.81300,12.70316433
330.81350,42.00182747
330.81400,64.28101923
330.81450,67.33296331
330.81500,50.54727089
330.81550,29.79405116
330.81600,18.19666367
330.81650,14.83952519
330.81700,11.78758111
330.81750,7.514859401
330.81800,6.29408177
330.81850,5.988887363
330.81900,2.631748878
330.81950,-2.251361645
330.82000,-4.692916907
330.82050,-5.60850013
330.82100,-8.355249799
330.82150,-12.3227771
330.82200,-14.45913795
330.82250,-14.15394355
330.82300,-13.54355473
330.82350,-13.23836032
330.82400,-12.3227771
330.82450,-11.71238828
330.82500,-10.49161065
330.82550,-4.692916907
330.82600,5.378498547
330.82650,12.39796992
330.82700,10.56680348
330.82750,5.07330414
330.82800,5.378498547
330.82850,9.956414663
330.82900,10.56680348
330.82950,6.904470586
330.83000,7.209664994
330.83050,13.61874756
330.83100,14.53433078
330.83150,2.32655447
330.83200,-14.45913795
330.83250,-23.00458137
330.83300,-21.47860933
330.83350,-18.12147085
330.83400,-17.81627644
330.83450,-18.73185966
330.83500,-17.20588762
330.83550,-14.76433236
330.83600,-11.10199947
330.83650,-4.082528091
330.83700,6.599276178
330.83750,17.58627486
330.83800,27.65769031
330.83850,37.42391136
330.83900,42.30702188
330.83950,31.3200232
330.84000,1.105776839
330.84050,-29.41366393
330.84100,-35.82274649
330.84150,-15.98510999
330.84200,5.07330414
330.84250,6.904470586
330.84300,-3.472139276
330.84350,-6.829277761
330.84400,0.1901936164
330.84450,4.768109732
330.84500,2.32655447
330.84550,4.157720917
330.84600,16.67069163
330.84650,27.65769031
330.84700,23.3849686
330.84750,6.29408177
330.84800,-9.270833022
330.84850,-13.84874914
330.84900,-8.050055392
330.84950,-1.030584014
330.85000,-3.166944868
330.85050,-18.12147085
330.85100,-33.38119123
330.85150,-31.24483038
330.85200,-11.71238828
330.85250,2.936943286
330.85300,-1.64097283
330.85350,-15.67991558
330.85400,-17.81627644
330.85450,-7.134472168
330.85500,2.021360063
330.85550,3.547332101
330.85600,2.32655447
330.85650,0.8005824318
330.85700,-4.998111315
330.85750,-13.54355473
330.85800,-14.76433236
330.85850,-5.303305722
330.85900,8.125248217
330.85950,16.36549722
330.86000,15.449914
330.86050,6.904470586
330.86100,-5.303305722
330.86150,-14.76433236
330.86200,-16.59549881
330.86250,-11.10199947
330.86300,-2.251361645
330.86350,6.29408177
330.86400,10.56680348
330.86450,6.599276178
330.86500,-4.082528091
330.86550,-15.37472118
330.86600,-22.39419255
330.86650,-27.27730308
330.86700,-30.32924715
330.86750,-31.55002478
330.86800,-32.46560801
330.86850,-34.90716327
330.86900,-25.75133104
330.86950,9.956414663
330.87000,63.0602416
330.87050,95.41084882
330.87100,83.20307251
330.87150,47.1901324
330.87200,24.91094064
330.87250,27.3524959
330.87300,36.50832813
330.87350,38.94988339
330.87400,37.11871695
330.87450,34.06677287
330.87500,25.52132946
330.87550,13.92394196
330.87600,7.209664994
330.87650,5.988887363
330.87700,-1.030584014
330.87750,-18.73185966
330.87800,-36.43313531
330.87850,-42.53702346
330.87900,-36.43313531
330.87950,-27.88769189
330.88000,-22.69938696
330.88050,-21.78380374
330.88100,-18.73185966
330.88150,-7.439666576
330.88200,9.956414663
330.88250,23.99535742
330.88300,25.21613505
330.88350,15.75510841
330.88400,7.209664994
330.88450,5.988887363
330.88500,9.346025847
330.88550,11.17719229
330.88600,10.26160907
330.88650,7.209664994
330.88700,3.852526509
330.88750,0.8005824318
330.88800,-1.030584014
330.88850,-1.946167238
330.88900,-0.420195199
330.88950,5.07330414
330.89000,13.31355315
330.89050,19.72263571
330.89100,19.11224689
330.89150,9.956414663
330.89200,-4.998111315
330.89250,-19.03705407
330.89300,-23.92016459
330.89350,-19.03705407
330.89400,-14.76433236
330.89450,-24.53055341
330.89500,-50.16688365
330.89550,-76.10840831
330.89600,-84.95904613
330.89650,-73.66685305
330.89700,-56.88116062
330.89750,-47.42013399
330.89800,-42.23182905
330.89850,-26.05652545
330.89900,8.430442624
330.89950,49.32649326
330.90000,73.13165706
330.90050,67.0277689
330.90100,40.17066103
330.90150,13.92394196
330.90200,1.105776839
330.90250,0.1901936164
330.90300,-0.420195199
330.90350,-8.965638615
330.90400,-22.69938696
330.90450,-31.85521919
330.90500,-28.80327512
330.90550,-17.81627644
330.90600,-7.744860984
330.90650,-1.946167238
330.90700,2.021360063
330.90750,7.514859401
330.90800,10.26160907
330.90850,7.820053809
330.90900,3.547332101
330.90950,2.936943286
330.91000,5.988887363
330.91050,10.87199789
330.91100,16.97588604
330.91150,23.3849686
330.91200,26.74210709
330.91250,24.30055182
330.91300,18.80705249
330.91350,14.53433078
330.91400,10.56680348
330.91450,2.32655447
330.91500,-8.660444207
330.91550,-17.81627644
330.91600,-19.95263729
330.91650,-17.81627644
330.91700,-15.37472118
330.91750,-14.45913795
330.91800,-12.01758269
330.91850,-6.829277761
330.91900,-1.030584014
330.91950,1.410971247
330.92000,2.936943286
330.92050,6.599276178
330.92100,12.39796992
330.92150,14.22913637
330.92200,8.735637032
330.92250,-2.556556053
330.92300,-19.03705407
330.92350,-39.79027379
330.92400,-60.23829911
330.92450,-68.47854812
330.92500,-61.15388233
330.92550,-50.47207806
330.92600,-45.28377313
330.92650,-33.38119123
330.92700,-0.1150007913
330.92750,43.52779951
330.92800,66.11218568
330.92850,56.34596463
330.92900,34.37196728
330.92950,22.46938538
330.93000,20.63821893
330.93050,20.63821893
330.93100,23.99535742
330.93150,33.15118965
330.93200,39.2550778
330.93250,34.06677287
330.93300,26.13171827
330.93350,24.60574623
330.93400,21.55380216
330.93450,5.07330414
330.93500,-15.98510999
330.93550,-20.56302611
330.93600,-4.387722499
330.93650,12.09277552
330.93700,11.78758111
330.93750,-0.420195199
330.93800,-9.881221838
330.93850,-11.40719388
330.93900,-10.18641625
330.93950,-11.10199947
330.94000,-12.93316591
330.94050,-13.54355473
330.94100,-12.01758269
330.94150,-8.355249799
330.94200,-4.082528091
330.94250,-0.7253896067
330.94300,1.410971247
330.94350,2.936943286
330.94400,0.4953880241
330.94450,-6.524083353
330.94500,-12.3227771
330.94550,-8.355249799
330.94600,4.768109732
330.94650,16.67069163
330.94700,20.33302452
330.94750,18.80705249
330.94800,17.89146926
330.94850,15.449914
330.94900,7.209664994
330.94950,-1.64097283
330.95000,-1.946167238
330.95050,5.683692955
330.95100,9.04083144
330.95150,-0.1150007913
330.95200,-13.84874914
330.95250,-18.12147085
330.95300,-11.40719388
330.95350,-4.998111315
330.95400,-9.57602743
330.95450,-20.2578317
330.95500,-25.44613663
330.95550,-20.56302611
330.95600,-12.01758269
330.95650,-8.050055392
330.95700,-8.965638615
330.95750,-6.218888945
330.95800,5.07330414
330.95850,20.33302452
330.95900,28.26807912
330.95950,24.30055182
330.96000,14.53433078
330.96050,6.904470586
330.96100,1.716165655
330.96150,-4.387722499
330.96200,-10.49161065
330.96250,-10.79680506
330.96300,-4.998111315
330.96350,-1.64097283
330.96400,-3.472139276
330.96450,-3.777333684
330.96500,4.462915324
330.96550,21.24860775
330.96600,36.20313373
330.96650,40.17066103
330.96700,31.3200232
330.96750,18.19666367
330.96800,12.09277552
330.96850,15.449914
330.96900,15.75510841
330.96950,1.105776839
330.97000,-21.78380374
330.97050,-35.21235768
330.97100,-31.55002478
330.97150,-23.61497018
330.97200,-23.92016459
330.97250,-30.63444156
330.97300,-34.29677445
330.97350,-32.77080242
330.97400,-28.49808071
330.97450,-22.39419255
330.97500,-14.15394355
330.97550,-4.692916907
330.97600,4.462915324
330.97650,15.14471959
330.97700,23.3849686
330.97750,22.16419097
330.97800,11.17719229
330.97850,-0.1150007913
330.97900,-7.744860984
330.97950,-13.54355473
330.98000,-16.90069321
330.98050,-10.18641625
330.98100,7.209664994
330.98150,21.85899656
330.98200,22.16419097
330.98250,14.53433078
330.98300,13.00835874
330.98350,17.28108045
330.98400,17.58627486
330.98450,11.4823867
330.98500,5.07330414
330.98550,3.242137693
330.98600,3.547332101
330.98650,3.547332101
330.98700,4.157720917
330.98750,5.07330414
330.98800,4.462915324
330.98850,2.021360063
330.98900,-0.1150007913
330.98950,-0.420195199
330.99000,1.105776839
330.99050,5.378498547
330.99100,10.26160907
330.99150,11.4823867
330.99200,7.514859401
330.99250,2.32655447
330.99300,0.8005824318
330.99350,2.021360063
330.99400,1.716165655
330.99450,-0.1150007913
330.99500,-1.335778422
330.99550,-0.420195199
330.99600,0.8005824318
330.99650,1.410971247
330.99700,1.410971247
330.99750,1.716165655
330.99800,1.105776839
330.99850,-0.7253896067
330.99900,-3.166944868
330.99950,-4.387722499
331.00000,-2.861750461
331.00050,-0.420195199
331.00100,-0.1150007913
331.00150,-1.335778422
331.00200,-4.082528091
331.00250,-7.744860984
331.00300,-12.3227771
331.00350,-15.98510999
331.00400,-16.2903044
331.00450,-13.84874914
331.00500,-12.62797151
331.00550,-12.01758269
331.00600,-5.303305722
331.00650,10.56680348
331.00700,27.04730149
331.00750,31.3200232
331.00800,23.3849686
331.00850,13.61874756
331.00900,9.04083144
331.00950,7.820053809
331.01000,6.29408177
331.01050,5.988887363
331.01100,8.125248217
331.01150,8.735637032
331.01200,3.547332101
331.01250,-4.998111315
331.01300,-15.06952677
331.01350,-25.44613663
331.01400,-34.90716327
331.01450,-41.01105142
331.01500,-43.45260668
331.01550,-46.19935635
331.01600,-46.19935635
331.01650,-32.46560801
331.01700,-1.64097283
331.01750,27.96288472
331.01800,31.93041202
331.01850,5.378498547
331.01900,-29.10846952
331.01950,-42.53702346
331.02000,-19.34224848
331.02050,34.37196728
331.02100,95.10565441
331.02150,127.761456
331.02200,113.1121245
331.02250,67.33296331
331.02300,28.26807912
331.02350,17.28108045
331.02400,20.02783012
331.02450,15.14471959
331.02500,-0.1150007913
331.02550,-18.73185966
331.02600,-40.0954682
331.02650,-62.98504878
331.02700,-73.97204746
331.02750,-59.9331047
331.02800,-32.77080242
331.02850,-19.64744288
331.02900,-26.36171985
331.02950,-31.85521919
331.03000,-21.17341492
331.03050,-8.050055392
331.03100,-9.270833022
331.03150,-16.90069321
331.03200,-13.23836032
331.03250,0.4953880241
331.03300,9.956414663
331.03350,9.651220255
331.03400,10.26160907
331.03450,15.449914
331.03500,14.53433078
331.03550,-0.1150007913
331.03600,-21.78380374
331.03650,-40.0954682
331.03700,-50.47207806
331.03750,-51.69285569
331.03800,-44.67338432
331.03850,-35.21235768
331.03900,-28.80327512
331.03950,-19.64744288
331.04000,7.820053809
331.04050,52.68363174
331.04100,87.78098863
331.04150,86.560211
331.04200,56.65115904
331.04250,27.65769031
331.04300,16.67069163
331.04350,16.06030282
331.04400,14.53433078
331.04450,11.78758111
331.04500,11.4823867
331.04550,11.78758111
331.04600,9.04083144
331.04650,5.378498547
331.04700,5.07330414
331.04750,7.209664994
331.04800,8.430442624
331.04850,7.209664994
331.04900,5.07330414
331.04950,2.021360063
331.05000,-0.7253896067
331.05050,-2.556556053
331.05100,-2.556556053
331.05150,-1.335778422
331.05200,-0.1150007913
331.05250,0.8005824318
331.05300,1.410971247
331.05350,1.105776839
331.05400,0.4953880241
331.05450,2.32655447
331.05500,5.378498547
331.05550,5.988887363
331.05600,4.157720917
331.05650,2.631748878
331.05700,2.936943286
331.05750,1.410971247
331.05800,-2.556556053
331.05850,-6.524083353
331.05900,-7.744860984
331.05950,-9.57602743
331.06000,-12.62797151
331.06050,-12.62797151
331.06100,-7.439666576
331.06150,-3.777333684
331.06200,-6.829277761
331.06250,-10.49161065
331.06300,-6.524083353
331.06350,2.631748878
331.06400,9.651220255
331.06450,12.39796992
331.06500,13.61874756
331.06550,12.39796992
331.06600,6.599276178
331.06650,2.32655447
331.06700,4.768109732
331.06750,5.378498547
331.06800,-7.134472168
331.06850,-25.75133104
331.06900,-29.71885834
331.06950,-16.2903044
331.07000,-4.082528091
331.07050,-4.998111315
331.07100,-8.355249799
331.07150,-4.387722499
331.07200,0.4953880241
331.07250,0.1901936164
331.07300,-1.335778422
331.07350,-1.335778422
331.07400,-4.692916907
331.07450,-12.62797151
331.07500,-12.3227771
331.07550,0.8005824318
331.07600,9.651220255
331.07650,-3.166944868
331.07700,-29.41366393
331.07750,-44.97857872
331.07800,-42.84221787
331.07850,-36.73832972
331.07900,-36.1279409
331.07950,-34.90716327
331.08000,-25.14094222
331.08050,-8.355249799
331.08100,10.26160907
331.08150,26.43691268
331.08200,35.59274491
331.08250,35.2875505
331.08300,28.57327353
331.08350,22.46938538
331.08400,19.72263571
331.08450,16.67069163
331.08500,12.39796992
331.08550,8.735637032
331.08600,6.29408177
331.08650,3.547332101
331.08700,1.105776839
331.08750,0.4953880241
331.08800,1.716165655
331.08850,1.105776839
331.08900,-1.030584014
331.08950,-3.472139276
331.09000,-3.472139276
331.09050,-2.251361645
331.09100,-1.946167238
331.09150,-2.861750461
331.09200,-4.082528091
331.09250,-4.082528091
331.09300,-1.946167238
331.09350,0.1901936164
331.09400,0.4953880241
331.09450,-1.030584014
331.09500,-3.166944868
331.09550,-2.556556053
331.09600,0.1901936164
331.09650,3.242137693
331.09700,4.462915324
331.09750,3.852526509
331.09800,2.631748878
331.09850,1.716165655
331.09900,1.716165655
331.09950,2.021360063
331.10000,1.410971247
331.10050,-0.420195199
331.10100,-2.861750461
331.10150,-3.166944868
331.10200,-1.946167238
331.10250,-1.030584014
331.10300,-0.420195199
331.10350,1.105776839
331.10400,4.157720917
331.10450,6.29408177
331.10500,6.29408177
331.10550,1.410971247
331.10600,-11.40719388
331.10650,-32.77080242
331.10700,-52.91363332
331.10750,-60.23829911
331.10800,-55.35518859
331.10850,-49.55649484
331.10900,-42.23182905
331.10950,-17.81627644
331.11000,32.84599524
331.11050,90.5277383
331.11100,123.7939287
331.11150,118.3004294
331.11200,86.8654054
331.11250,50.24207648
331.11300,23.69016301
331.11350,12.39796992
331.11400,11.4823867
331.11450,10.26160907
331.11500,3.242137693
331.11550,-3.472139276
331.11600,-4.998111315
331.11650,-8.355249799
331.11700,-20.56302611
331.11750,-34.29677445
331.11800,-35.82274649
331.11850,-24.53055341
331.11900,-8.660444207
331.11950,6.904470586
331.12000,21.55380216
331.12050,28.26807912
331.12100,22.16419097
331.12150,10.26160907
331.12200,2.021360063
331.12250,-5.60850013
331.12300,-18.73185966
331.12350,-28.49808071
331.12400,-22.69938696
331.12450,-6.829277761
331.12500,0.4953880241
331.12550,-1.030584014
331.12600,1.716165655
331.12650,9.956414663
331.12700,4.462915324
331.12750,-20.2578317
331.12800,-41.62144024
331.12850,-37.65391294
331.12900,-17.51108203
331.12950,-5.303305722
331.13000,-7.439666576
331.13050,-10.79680506
331.13100,-8.050055392
331.13150,-4.082528091
331.13200,-4.387722499
331.13250,-4.387722499
331.13300,-0.7253896067
331.13350,2.936943286
331.13400,4.462915324
331.13450,7.514859401
331.13500,13.92394196
331.13550,19.4174413
331.13600,20.02783012
331.13650,19.11224689
331.13700,19.4174413
331.13750,14.22913637
331.13800,-2.251361645
331.13850,-24.225359
331.13900,-36.73832972
331.13950,-38.87469057
331.14000,-43.14741228
331.14050,-55.04999418
331.14100,-59.01752148
331.14150,-41.31624583
331.14200,-10.79680506
331.14250,9.651220255
331.14300,10.26160907
331.14350,0.8005824318
331.14400,-3.777333684
331.14450,-0.420195199
331.14500,6.29408177
331.14550,13.00835874
331.14600,17.89146926
331.14650,20.63821893
331.14700,21.85899656
331.14750,20.63821893
331.14800,17.28108045
331.14850,12.70316433
331.14900,9.04083144
331.14950,6.599276178
331.15000,3.852526509
331.15050,1.410971247
331.15100,1.410971247
331.15150,3.242137693
331.15200,4.157720917
331.15250,2.021360063
331.15300,-0.420195199
331.15350,-1.64097283
331.15400,-1.946167238
331.15450,-1.64097283
331.15500,-0.7253896067
331.15550,-1.335778422
331.15600,-4.082528091
331.15650,-5.303305722
331.15700,-0.1150007913
331.15750,8.735637032
331.15800,12.09277552
331.15850,8.430442624
331.15900,6.29408177
331.15950,10.87199789
331.16000,13.31355315
331.16050,8.125248217
331.16100,3.852526509
331.16150,7.820053809
331.16200,11.17719229
331.16250,1.716165655
331.16300,-16.59549881
331.16350,-29.71885834
331.16400,-35.82274649
331.16450,-44.97857872
331.16500,-56.57596622
331.16550,-57.18635503
331.16600,-40.70585702
331.16650,-15.98510999
331.16700,13.92394196
331.16750,50.24207648
331.16800,78.01476758
331.16850,69.77451857
331.16900,26.74210709
331.16950,-13.54355473
331.17000,-23.30977578
331.17050,-16.59549881
331.17100,-19.34224848
331.17150,-22.69938696
331.17200,2.32655447
331.17250,52.07324293
331.17300,86.25501659
331.17350,80.15112843
331.17400,50.54727089
331.17450,26.74210709
331.17500,15.75510841
331.17550,7.209664994
331.17600,-1.030584014
331.17650,-2.861750461
331.17700,2.32655447
331.17750,8.735637032
331.17800,10.87199789
331.17850,12.70316433
331.17900,19.11224689
331.17950,25.82652386
331.18000,21.55380216
331.18050,2.631748878
331.18100,-18.73185966
331.18150,-26.36171985
331.18200,-19.34224848
331.18250,-12.3227771
331.18300,-12.62797151
331.18350,-12.3227771
331.18400,-2.251361645
331.18450,8.125248217
331.18500,6.29408177
331.18550,-6.524083353
331.18600,-15.98510999
331.18650,-15.06952677
331.18700,-9.57602743
331.18750,-7.134472168
331.18800,-7.134472168
331.18850,-6.524083353
331.18900,-5.60850013
331.18950,-5.60850013
331.19000,-5.913694538
331.19050,-6.829277761
331.19100,-7.744860984
331.19150,-7.134472168
331.19200,-4.387722499
331.19250,-2.861750461
331.19300,-5.913694538
331.19350,-10.49161065
331.19400,-11.71238828
331.19450,-8.965638615
331.19500,-5.303305722
331.19550,-3.166944868
331.19600,-1.64097283
331.19650,-0.1150007913
331.19700,-0.1150007913
331.19750,-1.64097283
331.19800,-3.166944868
331.19850,-2.861750461
331.19900,-1.64097283
331.19950,-1.335778422
331.20000,-1.335778422
331.20050,-0.7253896067
331.20100,-0.1150007913
331.20150,-1.946167238
331.20200,-5.60850013
331.20250,-8.355249799
331.20300,-8.965638615
331.20350,-10.18641625
331.20400,-12.93316591
331.20450,-14.45913795
331.20500,-11.71238828
331.20550,-7.744860984
331.20600,-5.913694538
331.20650,-4.082528091
331.20700,4.157720917
331.20750,18.19666367
331.20800,24.91094064
331.20850,15.75510841
331.20900,-4.387722499
331.20950,-23.30977578
331.21000,-32.77080242
331.21050,-34.29677445
331.21100,-32.77080242
331.21150,-31.55002478
331.21200,-26.97210867
331.21250,-11.10199947
331.21300,20.63821893
331.21350,55.43038141
331.21400,70.9952962
331.21450,56.65115904
331.21500,25.82652386
331.21550,-0.1150007913
331.21600,-12.93316591
331.21650,-12.93316591
331.21700,-4.082528091
331.21750,9.346025847
331.21800,19.4174413
331.21850,18.80705249
331.21900,10.87199789
331.21950,5.07330414
331.22000,4.462915324
331.22050,4.462915324
331.22100,3.547332101
331.22150,5.378498547
331.22200,10.56680348
331.22250,13.92394196
331.22300,10.87199789
331.22350,4.768109732
331.22400,1.105776839
331.22450,0.8005824318
331.22500,-0.1150007913
331.22550,-2.861750461
331.22600,-4.692916907
331.22650,-2.251361645
331.22700,0.4953880241
331.22750,0.8005824318
331.22800,-0.7253896067
331.22850,-2.861750461
331.22900,-5.913694538
331.22950,-8.965638615
331.23000,-7.744860984
331.23050,-0.1150007913
331.23100,8.125248217
331.23150,5.07330414
331.23200,-7.439666576
331.23250,-16.2903044
331.23300,-12.3227771
331.23350,-5.303305722
331.23400,-6.829277761
331.23450,-13.84874914
331.23500,-11.40719388
331.23550,2.021360063
331.23600,13.00835874
331.23650,9.04083144
331.23700,-1.946167238
331.23750,-4.082528091
331.23800,5.07330414
331.23850,8.430442624
331.23900,-7.439666576
331.23950,-32.77080242
331.24000,-42.23182905
331.24050,-28.80327512
331.24100,-11.10199947
331.24150,-7.744860984
331.24200,-15.06952677
331.24250,-16.2903044
331.24300,-7.134472168
331.24350,2.32655447
331.24400,5.683692955
331.24450,3.852526509
331.24500,0.4953880241
331.24550,-1.946167238
331.24600,-0.7253896067
331.24650,4.768109732
331.24700,8.735637032
331.24750,2.936943286
331.24800,-9.270833022
331.24850,-18.12147085
331.24900,-18.42666525
331.24950,-14.45913795
331.25000,-11.40719388
331.25050,-9.881221838
331.25100,-8.050055392
331.25150,-4.082528091
331.25200,4.768109732
331.25250,15.14471959
331.25300,18.80705249
331.25350,12.70316433
331.25400,2.936943286
331.25450,-2.556556053
331.25500,-7.744860984
331.25550,-16.59549881
331.25600,-23.92016459
331.25650,-21.78380374
331.25700,-12.93316591
331.25750,-5.913694538
331.25800,-2.861750461
331.25850,1.105776839
331.25900,7.820053809
331.25950,11.4823867
331.26000,9.956414663
331.26050,7.514859401
331.26100,6.599276178
331.26150,3.852526509
331.26200,-2.861750461
331.26250,-13.23836032
331.26300,-22.39419255
331.26350,-29.71885834
331.26400,-35.82274649
331.26450,-41.01105142
331.26500,-42.23182905
331.26550,-38.56949616
331.26600,-34.60196886
331.26650,-34.90716327
331.26700,-33.68638564
331.26750,-12.62797151
331.26800,38.94988339
331.26850,104.8718755
331.26900,148.8198702
331.26950,149.1250646
331.27000,116.7744574
331.27050,81.67710047
331.27100,60.61868634
331.27150,44.44338273
331.27200,15.449914
331.27250,-26.97210867
331.27300,-61.76427115
331.27350,-65.73179845
331.27400,-40.70585702
331.27450,-12.01758269
331.27500,0.8005824318
331.27550,-0.1150007913
331.27600,-2.251361645
331.27650,0.4953880241
331.27700,3.852526509
331.27750,4.768109732
331.27800,3.852526509
331.27850,2.631748878
331.27900,0.8005824318
331.27950,-0.1150007913
331.28000,1.105776839
331.28050,1.716165655
331.28100,-0.420195199
331.28150,-3.472139276
331.28200,-3.472139276
331.28250,-1.030584014
331.28300,-0.1150007913
331.28350,-1.946167238
331.28400,-2.556556053
331.28450,-1.335778422
331.28500,-1.335778422
331.28550,-3.472139276
331.28600,-6.218888945
331.28650,-6.218888945
331.28700,-3.777333684
331.28750,-1.64097283
331.28800,-0.420195199
331.28850,0.1901936164
331.28900,2.021360063
331.28950,3.852526509
331.29000,2.32655447
331.29050,-3.166944868
331.29100,-10.79680506
331.29150,-15.67991558
331.29200,-15.67991558
331.29250,-12.62797151
331.29300,-9.57602743
331.29350,-7.439666576
331.29400,-5.303305722
331.29450,-3.472139276
331.29500,-2.556556053
331.29550,0.1901936164
331.29600,9.346025847
331.29650,21.85899656
331.29700,27.3524959
331.29750,20.63821893
331.29800,8.430442624
331.29850,2.631748878
331.29900,3.852526509
331.29950,4.157720917
331.30000,0.8005824318
331.30050,-0.1150007913
331.30100,2.32655447
331.30150,1.716165655
331.30200,-4.998111315
331.30250,-12.01758269
331.30300,-12.93316591
331.30350,-14.76433236
331.30400,-25.14094222
331.30450,-41.31624583
331.30500,-53.52402214
331.30550,-57.49154944
331.30600,-53.52402214
331.30650,-38.56949616
331.30700,-10.49161065
331.30750,23.3849686
331.30800,52.68363174
331.30850,71.91087943
331.30900,79.23554521
331.30950,71.91087943
331.31000,51.1576597
331.31050,30.09924557
331.31100,19.4174413
331.31150,14.53433078
331.31200,4.157720917
331.31250,-11.71238828
331.31300,-24.53055341
331.31350,-31.24483038
331.31400,-33.68638564
331.31450,-32.77080242
331.31500,-29.71885834
331.31550,-30.63444156
331.31600,-33.38119123
331.31650,-16.90069321
331.31700,30.70963439
331.31750,83.20307251
331.31800,96.32643204
331.31850,60.61868634
331.31900,13.92394196
331.31950,-7.134472168
331.32000,-6.829277761
331.32050,-7.134472168
331.32100,-14.15394355
331.32150,-17.51108203
331.32200,-13.23836032
331.32250,-7.134472168
331.32300,-4.387722499
331.32350,-3.166944868
331.32400,-1.030584014
331.32450,0.8005824318
331.32500,1.410971247
331.32550,-0.1150007913
331.32600,-4.692916907
331.32650,-8.965638615
331.32700,-8.965638615
331.32750,-8.050055392
331.32800,-12.93316591
331.32850,-21.78380374
331.32900,-23.61497018
331.32950,-13.54355473
331.33000,-0.7253896067
331.33050,3.242137693
331.33100,0.4953880241
331.33150,-1.946167238
331.33200,-1.335778422
331.33250,-1.030584014
331.33300,-2.556556053
331.33350,-3.777333684
331.33400,-1.64097283
331.33450,2.936943286
331.33500,9.04083144
331.33550,14.22913637
331.33600,16.97588604
331.33650,16.97588604
331.33700,16.06030282
331.33750,14.53433078
331.33800,11.78758111
331.33850,6.599276178
331.33900,-0.7253896067
331.33950,-10.49161065
331.34000,-22.69938696
331.34050,-34.60196886
331.34100,-43.75780109
331.34150,-47.42013399
331.34200,-46.50455076
331.34250,-41.62144024
331.34300,-33.99158005
331.34350,-24.83574782
331.34400,-17.51108203
331.34450,-13.84874914
331.34500,-11.71238828
331.34550,-5.913694538
331.34600,5.07330414
331.34650,17.89146926
331.34700,25.52132946
331.34750,24.91094064
331.34800,18.50185808
331.34850,10.56680348
331.34900,4.462915324
331.34950,1.716165655
331.35000,0.8005824318
331.35050,-0.7253896067
331.35100,-3.166944868
331.35150,-3.777333684
331.35200,-1.030584014
331.35250,1.105776839
331.35300,-0.7253896067
331.35350,-4.998111315
331.35400,-5.303305722
331.35450,-1.030584014
331.35500,4.462915324
331.35550,11.17719229
331.35600,22.46938538
331.35650,33.15118965
331.35700,32.84599524
331.35750,19.11224689
331.35800,4.157720917
331.35850,-3.472139276
331.35900,-10.49161065
331.35950,-23.61497018
331.36000,-34.90716327
331.36050,-31.24483038
331.36100,-14.15394355
331.36150,-1.030584014
331.36200,-0.1150007913
331.36250,-1.946167238
331.36300,4.157720917
331.36350,12.39796992
331.36400,6.904470586
331.36450,-13.84874914
331.36500,-29.41366393
331.36550,-13.84874914
331.36600,33.76157846
331.36650,84.42385014
331.36700,99.98876493
331.36750,70.9952962
331.36800,24.30055182
331.36850,-6.218888945
331.36900,-12.3227771
331.36950,-7.744860984
331.37000,-3.472139276
331.37050,3.547332101
331.37100,18.50185808
331.37150,33.76157846
331.37200,38.03430017
331.37250,28.57327353
331.37300,11.78758111
331.37350,-4.082528091
331.37400,-16.90069321
331.37450,-23.00458137
331.37500,-22.69938696
331.37550,-20.2578317
331.37600,-20.86822052
331.37650,-23.30977578
331.37700,-20.86822052
331.37750,-10.18641625
331.37800,3.547332101
331.37850,13.92394196
331.37900,15.14471959
331.37950,7.820053809
331.38000,-2.251361645
331.38050,-8.355249799
331.38100,-7.134472168
331.38150,-2.251361645
331.38200,-0.1150007913
331.38250,-1.64097283
331.38300,-3.472139276
331.38350,-3.166944868
331.38400,-1.946167238
331.38450,-3.166944868
331.38500,-6.524083353
331.38550,-9.57602743
331.38600,-9.57602743
331.38650,-8.355249799
331.38700,-8.660444207
331.38750,-9.881221838
331.38800,-8.355249799
331.38850,-4.692916907
331.38900,-2.251361645
331.38950,-3.777333684
331.39000,-4.998111315
331.39050,-2.251361645
331.39100,-0.420195199
331.39150,-4.692916907
331.39200,-11.40719388
331.39250,-12.3227771
331.39300,-8.050055392
331.39350,-6.524083353
331.39400,-11.40719388
331.39450,-15.98510999
331.39500,-17.20588762
331.39550,-18.12147085
331.39600,-19.03705407
331.39650,-11.71238828
331.39700,6.29408177
331.39750,24.30055182
331.39800,28.57327353
331.39850,20.02783012
331.39900,10.26160907
331.39950,6.904470586
331.40000,7.209664994
331.40050,7.820053809
331.40100,7.209664994
331.40150,5.07330414
331.40200,0.1901936164
331.40250,-3.777333684
331.40300,-4.387722499
331.40350,-2.861750461
331.40400,-6.218888945
331.40450,-18.12147085
331.40500,-33.99158005
331.40550,-44.97857872
331.40600,-46.19935635
331.40650,-42.23182905
331.40700,-38.56949616
331.40750,-33.07599682
331.40800,-14.15394355
331.40850,22.46938538
331.40900,61.22907516
331.40950,77.40437876
331.41000,63.97582483
331.41050,38.64468899
331.41100,21.24860775
331.41150,16.06030282
331.41200,17.28108045
331.41250,21.24860775
331.41300,24.60574623
331.41350,20.33302452
331.41400,10.56680348
331.41450,6.599276178
331.41500,13.61874756
331.41550,16.36549722
331.41600,0.8005824318
331.41650,-22.39419255
331.41700,-31.24483038
331.41750,-21.78380374
331.41800,-11.71238828
331.41850,-13.54355473
331.41900,-20.56302611
331.41950,-24.225359
331.42000,-24.83574782
331.42050,-23.92016459
331.42100,-21.78380374
331.42150,-21.78380374
331.42200,-28.1928863
331.42250,-31.85521919
331.42300,-18.73185966
331.42350,5.683692955
331.42400,16.67069163
331.42450,3.852526509
331.42500,-9.881221838
331.42550,-1.030584014
331.42600,23.3849686
331.42650,36.50832813
331.42700,28.57327353
331.42750,15.14471959
331.42800,10.56680348
331.42850,11.4823867
331.42900,12.39796992
331.42950,15.449914
331.43000,22.46938538
331.43050,26.74210709
331.43100,22.77457979
331.43150,16.06030282
331.43200,14.22913637
331.43250,13.31355315
331.43300,3.242137693
331.43350,-15.98510999
331.43400,-33.38119123
331.43450,-39.17988498
331.43500,-36.73832972
331.43550,-34.29677445
331.43600,-31.85521919
331.43650,-24.225359
331.43700,-12.01758269
331.43750,-2.861750461
331.43800,-1.946167238
331.43850,-4.387722499
331.43900,-4.082528091
331.43950,-1.335778422
331.44000,-0.1150007913
331.44050,-1.335778422
331.44100,-1.64097283
331.44150,-0.7253896067
331.44200,-0.420195199
331.44250,-1.030584014
331.44300,-0.1150007913
331.44350,2.021360063
331.44400,2.631748878
331.44450,1.410971247
331.44500,2.021360063
331.44550,5.683692955
331.44600,8.125248217
331.44650,6.599276178
331.44700,4.768109732
331.44750,4.462915324
331.44800,2.631748878
331.44850,-1.946167238
331.44900,-4.082528091
331.44950,-0.420195199
331.45000,3.852526509
331.45050,3.547332101
331.45100,1.410971247
331.45150,2.32655447
331.45200,6.599276178
331.45250,9.956414663
331.45300,11.4823867
331.45350,11.78758111
331.45400,9.651220255
331.45450,5.988887363
331.45500,3.242137693
331.45550,-1.030584014
331.45600,-17.20588762
331.45650,-45.58896754
331.45700,-71.53049219
331.45750,-78.24476916
331.45800,-65.42660404
331.45850,-45.89416195
331.45900,-31.55002478
331.45950,-27.27730308
331.46000,-24.53055341
331.46050,-3.777333684
331.46100,44.74857714
331.46150,97.24201527
331.46200,108.5342084
331.46250,69.46932416
331.46300,26.43691268
331.46350,29.48885676
331.46400,68.55374094
331.46450,91.44332152
331.46500,71.30049061
331.46550,33.15118965
331.46600,10.56680348
331.46650,7.820053809
331.46700,10.56680348
331.46750,9.956414663
331.46800,5.988887363
331.46850,-0.420195199
331.46900,-8.355249799
331.46950,-12.3227771
331.47000,-11.10199947
331.47050,-9.270833022
331.47100,-9.57602743
331.47150,-8.965638615
331.47200,-5.60850013
331.47250,-2.556556053
331.47300,-2.556556053
331.47350,-4.387722499
331.47400,-5.913694538
331.47450,-7.439666576
331.47500,-10.18641625
331.47550,-12.01758269
331.47600,-11.10199947
331.47650,-7.439666576
331.47700,-2.861750461
331.47750,0.1901936164
331.47800,0.1901936164
331.47850,-1.335778422
331.47900,-3.166944868
331.47950,-2.861750461
331.48000,-1.335778422
331.48050,-1.335778422
331.48100,-3.166944868
331.48150,-5.303305722
331.48200,-7.134472168
331.48250,-8.965638615
331.48300,-11.10199947
331.48350,-12.3227771
331.48400,-11.40719388
331.48450,-9.270833022
331.48500,-6.829277761
331.48550,-4.998111315
331.48600,-3.777333684
331.48650,-2.861750461
331.48700,-3.166944868
331.48750,-4.998111315
331.48800,-5.913694538
331.48850,-2.556556053
331.48900,3.852526509
331.48950,8.125248217
331.49000,6.599276178
331.49050,3.242137693
331.49100,2.631748878
331.49150,4.768109732
331.49200,7.514859401
331.49250,9.04083144
331.49300,8.735637032
331.49350,5.683692955
331.49400,1.716165655
331.49450,0.1901936164
331.49500,-0.1150007913
331.49550,-4.998111315
331.49600,-16.90069321
331.49650,-25.14094222
331.49700,-21.47860933
331.49750,-14.45913795
331.49800,-20.2578317
331.49850,-40.0954682
331.49900,-56.57596622
331.49950,-56.27077181
331.50000,-44.97857872
331.50050,-35.21235768
331.50100,-26.36171985
331.50150,-7.134472168
331.50200,23.99535742
331.50250,54.51479819
331.50300,68.85893535
331.50350,64.89140805
331.50400,49.93688207
331.50450,32.84599524
331.50500,19.4174413
331.50550,11.78758111
331.50600,8.430442624
331.50650,5.988887363
331.50700,3.547332101
331.50750,3.242137693
331.50800,4.768109732
331.50850,5.07330414
331.50900,3.547332101
331.50950,4.157720917
331.51000,5.683692955
331.51050,4.462915324
331.51100,1.410971247
331.51150,3.242137693
331.51200,5.683692955
331.51250,-2.556556053
331.51300,-19.03705407
331.51350,-21.47860933
331.51400,0.4953880241
331.51450,24.30055182
331.51500,22.77457979
331.51550,2.936943286
331.51600,-4.998111315
331.51650,5.988887363
331.51700,15.75510841
331.51750,10.56680348
331.51800,0.4953880241
331.51850,-3.166944868
331.51900,-7.439666576
331.51950,-18.12147085
331.52000,-24.53055341
331.52050,-19.64744288
331.52100,-12.93316591
331.52150,-17.20588762
331.52200,-26.36171985
331.52250,-26.66691426
331.52300,-20.2578317
331.52350,-21.78380374
331.52400,-33.38119123
331.52450,-40.70585702
331.52500,-33.38119123
331.52550,-18.12147085
331.52600,-6.829277761
331.52650,-3.166944868
331.52700,-1.946167238
331.52750,-1.030584014
331.52800,-0.420195199
331.52850,0.8005824318
331.52900,5.07330414
331.52950,11.17719229
331.53000,13.92394196
331.53050,11.17719229
331.53100,5.683692955
331.53150,3.852526509
331.53200,6.29408177
331.53250,8.125248217
331.53300,6.29408177
331.53350,4.157720917
331.53400,5.988887363
331.53450,7.514859401
331.53500,2.936943286
331.53550,-5.913694538
331.53600,-9.881221838
331.53650,-3.472139276
331.53700,5.07330414
331.53750,6.599276178
331.53800,0.4953880241
331.53850,-4.692916907
331.53900,-4.082528091
331.53950,-0.7253896067
331.54000,-0.1150007913
331.54050,-1.64097283
331.54100,-2.861750461
331.54150,-2.861750461
331.54200,-3.777333684
331.54250,-5.60850013
331.54300,-6.524083353
331.54350,-8.050055392
331.54400,-14.76433236
331.54450,-24.83574782
331.54500,-26.97210867
331.54550,-12.62797151
331.54600,8.430442624
331.54650,18.80705249
331.54700,15.449914
331.54750,11.78758111
331.54800,17.89146926
331.54850,26.74210709
331.54900,27.65769031
331.54950,23.3849686
331.55000,21.24860775
331.55050,19.11224689
331.55100,11.78758111
331.55150,2.631748878
331.55200,-2.251361645
331.55250,-3.472139276
331.55300,-4.387722499
331.55350,-0.1150007913
331.55400,15.14471959
331.55450,34.67716169
331.55500,40.78104984
331.55550,29.18366235
331.55600,13.00835874
331.55650,4.462915324
331.55700,2.32655447
331.55750,0.1901936164
331.55800,-0.420195199
331.55850,3.242137693
331.55900,7.209664994
331.55950,4.157720917
331.56000,-3.166944868
331.56050,-5.303305722
331.56100,1.410971247
331.56150,6.29408177
331.56200,-2.861750461
331.56250,-23.92016459
331.56300,-39.48507938
331.56350,-36.43313531
331.56400,-20.86822052
331.56450,-10.18641625
331.56500,-11.71238828
331.56550,-17.51108203
331.56600,-18.42666525
331.56650,-13.84874914
331.56700,-6.524083353
331.56750,6.599276178
331.56800,26.43691268
331.56850,41.39143866
331.56900,41.39143866
331.56950,30.40443998
331.57000,20.63821893
331.57050,15.75510841
331.57100,10.56680348
331.57150,4.768109732
331.57200,2.631748878
331.57250,4.462915324
331.57300,4.768109732
331.57350,2.936943286
331.57400,2.631748878
331.57450,3.852526509
331.57500,0.4953880241
331.57550,-7.134472168
331.57600,-13.23836032
331.57650,-12.93316591
331.57700,-9.270833022
331.57750,-5.60850013
331.57800,-2.251361645
331.57850,-0.420195199
331.57900,-1.946167238
331.57950,-4.998111315
331.58000,-4.998111315
331.58050,-3.166944868
331.58100,-6.829277761
331.58150,-18.73185966
331.58200,-35.51755208
331.58250,-48.94610602
331.58300,-53.52402214
331.58350,-48.64091162
331.58400,-43.14741228
331.58450,-47.42013399
331.58500,-56.27077181
331.58550,-41.62144024
331.58600,14.22913637
331.58650,85.94982218
331.58700,122.2679567
331.58750,99.68357053
331.58800,47.49532681
331.58850,8.125248217
331.58900,-6.218888945
331.58950,-10.49161065
331.59000,-15.67991558
331.59050,-17.51108203
331.59100,-12.93316591
331.59150,-6.524083353
331.59200,-2.556556053
331.59250,2.32655447
331.59300,12.39796992
331.59350,24.60574623
331.59400,28.26807912
331.59450,18.80705249
331.59500,3.547332101
331.59550,-5.60850013
331.59600,-3.777333684
331.59650,2.32655447
331.59700,6.29408177
331.59750,9.346025847
331.59800,13.92394196
331.59850,17.89146926
331.59900,15.449914
331.59950,7.820053809
331.60000,1.410971247
331.60050,-0.7253896067
331.60100,-2.556556053
331.60150,-3.777333684
331.60200,-2.861750461
331.60250,-0.420195199
331.60300,-0.7253896067
331.60350,-4.082528091
331.60400,-5.60850013
331.60450,-4.692916907
331.60500,-5.60850013
331.60550,-9.881221838
331.60600,-10.79680506
331.60650,-5.303305722
331.60700,1.716165655
331.60750,4.157720917
331.60800,1.105776839
331.60850,-1.335778422
331.60900,-0.7253896067
331.60950,0.4953880241
331.61000,0.1901936164
331.61050,-1.030584014
331.61100,-1.946167238
331.61150,-2.556556053
331.61200,-5.913694538
331.61250,-12.01758269
331.61300,-17.20588762
331.61350,-17.81627644
331.61400,-15.37472118
331.61450,-15.67991558
331.61500,-19.95263729
331.61550,-22.69938696
331.61600,-19.03705407
331.61650,-15.37472118
331.61700,-20.56302611
331.61750,-34.60196886
331.61800,-48.94610602
331.61850,-58.40713266
331.61900,-64.20582641
331.61950,-60.54349352
331.62000,-38.87469057
331.62050,-5.303305722
331.62100,16.06030282
331.62150,13.31355315
331.62200,4.462915324
331.62250,19.11224689
331.62300,56.65115904
331.62350,85.33943337
331.62400,83.20307251
331.62450,60.61868634
331.62500,40.47585543
331.62550,29.18366235
331.62600,16.06030282
331.62650,-0.7253896067
331.62700,-12.3227771
331.62750,-10.18641625
331.62800,-0.1150007913
331.62850,5.378498547
331.62900,-2.251361645
331.62950,-19.34224848
331.63000,-32.1604136
331.63050,-31.24483038
331.63100,-20.56302611
331.63150,-10.49161065
331.63200,-4.998111315
331.63250,2.32655447
331.63300,14.53433078
331.63350,23.69016301
331.63400,22.77457979
331.63450,14.53433078
331.63500,8.430442624
331.63550,8.125248217
331.63600,9.04083144
331.63650,6.904470586
331.63700,2.936943286
331.63750,0.4953880241
331.63800,0.1901936164
331.63850,1.105776839
331.63900,2.32655447
331.63950,2.021360063
331.64000,0.1901936164
331.64050,-2.556556053
331.64100,-4.998111315
331.64150,-6.218888945
331.64200,-5.303305722
331.64250,-4.082528091
331.64300,-3.472139276
331.64350,-3.472139276
331.64400,-2.861750461
331.64450,-1.030584014
331.64500,0.8005824318
331.64550,2.936943286
331.64600,4.462915324
331.64650,4.462915324
331.64700,2.936943286
331.64750,2.021360063
331.64800,2.021360063
331.64850,0.4953880241
331.64900,-4.692916907
331.64950,-10.49161065
331.65000,-9.270833022
331.65050,-3.166944868
331.65100,0.4953880241
331.65150,-0.1150007913
331.65200,0.8005824318
331.65250,4.462915324
331.65300,3.547332101
331.65350,-3.777333684
331.65400,-7.134472168
331.65450,2.631748878
331.65500,14.83952519
331.65550,13.61874756
331.65600,1.410971247
331.65650,-4.082528091
331.65700,-0.1150007913
331.65750,1.410971247
331.65800,-6.218888945
331.65850,-12.93316591
331.65900,-11.10199947
331.65950,-9.57602743
331.66000,-16.59549881
331.66050,-24.225359
331.66100,-22.08899815
331.66150,-19.34224848
331.66200,-30.63444156
331.66250,-47.42013399
331.66300,-44.0629955
331.66350,-13.84874914
331.66400,20.94341334
331.66450,38.64468899
331.66500,39.56027221
331.66550,34.98235609
331.66600,28.87846794
331.66650,19.4174413
331.66700,11.4823867
331.66750,9.956414663
331.66800,13.92394196
331.66850,16.67069163
331.66900,15.75510841
331.66950,11.17719229
331.67000,5.378498547
331.67050,2.021360063
331.67100,3.852526509
331.67150,5.378498547
331.67200,-0.1150007913
331.67250,-9.270833022
331.67300,-12.62797151
331.67350,-12.3227771
331.67400,-18.12147085
331.67450,-25.75133104
331.67500,-17.20588762
331.67550,9.956414663
331.67600,30.09924557
331.67650,21.85899656
331.67700,-1.64097283
331.67750,-13.84874914
331.67800,-8.355249799
331.67850,1.105776839
331.67900,7.209664994
331.67950,12.09277552
331.68000,16.36549722
331.68050,15.75510841
331.68100,11.4823867
331.68150,7.209664994
331.68200,2.32655447
331.68250,-5.303305722
331.68300,-13.54355473
331.68350,-21.78380374
331.68400,-34.90716327
331.68450,-51.9980501
331.68500,-61.45907674
331.68550,-55.9655774
331.68600,-42.23182905
331.68650,-31.24483038
331.68700,-26.36171985
331.68750,-25.14094222
331.68800,-22.39419255
331.68850,-5.303305722
331.68900,35.89793932
331.68950,83.50826692
331.69000,100.5991538
331.69050,78.01476758
331.69100,48.41091003
331.69150,38.94988339
331.69200,34.37196728
331.69250,11.17719229
331.69300,-16.90069321
331.69350,-19.34224848
331.69400,0.4953880241
331.69450,10.56680348
331.69500,0.8005824318
331.69550,-8.050055392
331.69600,-4.692916907
331.69650,-0.1150007913
331.69700,-1.64097283
331.69750,0.8005824318
331.69800,12.39796992
331.69850,20.33302452
331.69900,18.19666367
331.69950,18.80705249
331.70000,29.18366235
331.70050,35.89793932
331.70100,24.60574623
331.70150,2.631748878
331.70200,-12.93316591
331.70250,-16.90069321
331.70300,-15.37472118
331.70350,-13.84874914
331.70400,-15.06952677
331.70450,-19.64744288
331.70500,-23.92016459
331.70550,-21.17341492
331.70600,-11.10199947
331.70650,-3.166944868
331.70700,-1.946167238
331.70750,-1.335778422
331.70800,4.768109732
331.70850,13.00835874
331.70900,16.06030282
331.70950,12.09277552
331.71000,3.852526509
331.71050,-4.387722499
331.71100,-9.57602743
331.71150,-8.965638615
331.71200,-5.60850013
331.71250,-3.472139276
331.71300,-0.1150007913
331.71350,8.125248217
331.71400,18.50185808
331.71450,23.07977419
331.71500,20.33302452
331.71550,16.36549722
331.71600,13.00835874
331.71650,5.988887363
331.71700,-4.998111315
331.71750,-12.93316591
331.71800,-13.23836032
331.71850,-10.18641625
331.71900,-9.881221838
331.71950,-11.71238828
331.72000,-12.93316591
331.72050,-12.93316591
331.72100,-14.15394355
331.72150,-16.2903044
331.72200,-15.06952677
331.72250,-6.218888945
331.72300,9.04083144
331.72350,20.33302452
331.72400,15.75510841
331.72450,-2.251361645
331.72500,-18.42666525
331.72550,-18.42666525
331.72600,-8.355249799
331.72650,-1.946167238
331.72700,-3.166944868
331.72750,-3.472139276
331.72800,0.8005824318
331.72850,5.988887363
331.72900,8.430442624
331.72950,9.04083144
331.73000,9.346025847
331.73050,6.904470586
331.73100,2.32655447
331.73150,0.8005824318
331.73200,3.852526509
331.73250,7.209664994
331.73300,6.29408177
331.73350,2.32655447
331.73400,-3.166944868
331.73450,-10.18641625
331.73500,-14.76433236
331.73550,-12.62797151
331.73600,-7.134472168
331.73650,-7.744860984
331.73700,-16.2903044
331.73750,-21.17341492
331.73800,-10.18641625
331.73850,10.26160907
331.73900,23.07977419
331.73950,20.63821893
331.74000,12.39796992
331.74050,8.430442624
331.74100,8.125248217
331.74150,6.599276178
331.74200,6.29408177
331.74250,10.26160907
331.74300,12.70316433
331.74350,7.820053809
331.74400,2.631748878
331.74450,6.29408177
331.74500,9.04083144
331.74550,-11.40719388
331.74600,-55.35518859
331.74650,-91.97851751
331.74700,-93.50448955
331.74750,-69.39413134
331.74800,-48.94610602
331.74850,-44.0629955
331.74900,-37.34871853
331.74950,-10.18641625
331.75000,32.23560643
331.75050,67.94335213
331.75100,78.31996199
331.75150,63.97582483
331.75200,41.39143866
331.75250,27.04730149
331.75300,23.3849686
331.75350,21.24860775
331.75400,13.92394196
331.75450,4.462915324
331.75500,-0.7253896067
331.75550,-1.64097283
331.75600,-1.946167238
331.75650,-4.082528091
331.75700,-6.829277761
331.75750,-5.60850013
331.75800,3.852526509
331.75850,20.94341334
331.75900,33.76157846
331.75950,31.62521761
331.76000,16.67069163
331.76050,2.631748878
331.76100,-1.64097283
331.76150,-0.7253896067
331.76200,1.716165655
331.76250,5.07330414
331.76300,3.547332101
331.76350,-10.18641625
331.76400,-30.02405275
331.76450,-37.65391294
331.76500,-28.80327512
331.76550,-19.64744288
331.76600,-23.61497018
331.76650,-33.68638564
331.76700,-38.87469057
331.76750,-42.84221787
331.76800,-49.25130043
331.76850,-52.30324451
331.76900,-46.50455076
331.76950,-37.65391294
331.77000,-29.71885834
331.77050,-15.67991558
331.77100,3.242137693
331.77150,12.09277552
331.77200,9.346025847
331.77250,20.02783012
331.77300,58.17713108
331.77350,92.35890474
331.77400,83.50826692
331.77450,39.2550778
331.77500,6.29408177
331.77550,5.07330414
331.77600,13.31355315
331.77650,9.956414663
331.77700,0.8005824318
331.77750,-2.556556053
331.77800,-7.134472168
331.77850,-16.90069321
331.77900,-20.2578317
331.77950,-9.57602743
331.78000,1.105776839
331.78050,-2.556556053
331.78100,-17.51108203
331.78150,-29.71885834
331.78200,-34.60196886
331.78250,-34.29677445
331.78300,-21.47860933
331.78350,9.346025847
331.78400,43.83299392
331.78450,58.17713108
331.78500,46.27454918
331.78550,25.21613505
331.78600,10.56680348
331.78650,1.105776839
331.78700,-7.744860984
331.78750,-12.3227771
331.78800,-5.913694538
331.78850,5.683692955
331.78900,10.56680348
331.78950,5.988887363
331.79000,1.410971247
331.79050,4.157720917
331.79100,10.26160907
331.79150,12.09277552
331.79200,3.852526509
331.79250,-14.76433236
331.79300,-40.70585702
331.79350,-64.51102082
331.79400,-72.14088101
331.79450,-60.84868792
331.79500,-42.23182905
331.79550,-30.32924715
331.79600,-21.47860933
331.79650,2.32655447
331.79700,45.66416036
331.79750,86.8654054
331.79800,97.54720967
331.79850,73.74204587
331.79900,39.86546662
331.79950,19.4174413
331.80000,14.22913637
331.80050,12.39796992
331.80100,8.125248217
331.80150,5.988887363
331.80200,6.904470586
331.80250,4.462915324
331.80300,-6.218888945
331.80350,-20.56302611
331.80400,-29.10846952
331.80450,-29.10846952
331.80500,-26.97210867
331.80550,-30.02405275
331.80600,-34.29677445
331.80650,-28.49808071
331.80700,-6.218888945
331.80750,20.63821893
331.80800,34.98235609
331.80850,31.62521761
331.80900,23.69016301
331.80950,21.24860775
331.81000,20.33302452
331.81050,14.53433078
331.81100,8.430442624
331.81150,8.125248217
331.81200,5.988887363
331.81250,-8.355249799
331.81300,-26.05652545
331.81350,-26.97210867
331.81400,-8.660444207
331.81450,6.29408177
331.81500,2.631748878
331.81550,-12.62797151
331.81600,-22.39419255
331.81650,-20.2578317
331.81700,-12.3227771
331.81750,-5.913694538
331.81800,-4.692916907
331.81850,-9.270833022
331.81900,-14.76433236
331.81950,-13.54355473
331.82000,-4.998111315
331.82050,3.547332101
331.82100,7.209664994
331.82150,6.904470586
331.82200,5.683692955
331.82250,5.988887363
331.82300,10.56680348
331.82350,19.72263571
331.82400,25.52132946
331.82450,20.02783012
331.82500,6.904470586
331.82550,-1.946167238
331.82600,-2.861750461
331.82650,-3.777333684
331.82700,-8.050055392
331.82750,-9.57602743
331.82800,-4.692916907
331.82850,-0.1150007913
331.82900,-1.335778422
331.82950,-4.998111315
331.83000,-6.218888945
331.83050,-6.524083353
331.83100,-8.050055392
331.83150,-5.60850013
331.83200,5.988887363
331.83250,20.02783012
331.83300,25.82652386
331.83350,20.63821893
331.83400,12.39796992
331.83450,5.988887363
331.83500,0.8005824318
331.83550,-3.166944868
331.83600,-4.387722499
331.83650,-1.946167238
331.83700,0.4953880241
331.83750,2.021360063
331.83800,2.631748878
331.83850,2.936943286
331.83900,1.410971247
331.83950,-1.64097283
331.84000,-4.387722499
331.84050,-5.913694538
331.84100,-7.744860984
331.84150,-9.270833022
331.84200,-8.965638615
331.84250,-5.303305722
331.84300,-0.1150007913
331.84350,4.462915324
331.84400,6.599276178
331.84450,5.683692955
331.84500,2.936943286
331.84550,0.4953880241
331.84600,0.4953880241
331.84650,-0.1150007913
331.84700,-5.913694538
331.84750,-17.20588762
331.84800,-23.92016459
331.84850,-16.90069321
331.84900,-0.420195199
331.84950,12.70316433
331.85000,13.61874756
331.85050,5.07330414
331.85100,-4.387722499
331.85150,-10.49161065
331.85200,-12.62797151
331.85250,-8.965638615
331.85300,-0.7253896067
331.85350,6.904470586
331.85400,8.430442624
331.85450,5.07330414
331.85500,4.768109732
331.85550,10.87199789
331.85600,16.06030282
331.85650,11.78758111
331.85700,-0.420195199
331.85750,-10.18641625
331.85800,-10.79680506
331.85850,-4.998111315
331.85900,-0.1150007913
331.85950,1.410971247
331.86000,2.631748878
331.86050,4.462915324
331.86100,6.29408177
331.86150,7.209664994
331.86200,7.820053809
331.86250,9.651220255
331.86300,11.17719229
331.86350,9.04083144
331.86400,4.462915324
331.86450,1.410971247
331.86500,1.410971247
331.86550,-0.7253896067
331.86600,-11.10199947
331.86650,-26.05652545
331.86700,-33.38119123
331.86750,-25.44613663
331.86800,-9.270833022
331.86850,-1.335778422
331.86900,-11.10199947
331.86950,-29.41366393
331.87000,-37.04352412
331.87050,-25.75133104
331.87100,-6.524083353
331.87150,1.716165655
331.87200,-1.335778422
331.87250,-2.861750461
331.87300,5.378498547
331.87350,14.22913637
331.87400,9.956414663
331.87450,-3.472139276
331.87500,-13.23836032
331.87550,-13.84874914
331.87600,-9.57602743
331.87650,-4.998111315
331.87700,-0.420195199
331.87750,2.021360063
331.87800,3.852526509
331.87850,12.09277552
331.87900,29.79405116
331.87950,43.2226051
331.88000,37.11871695
331.88050,16.67069163
331.88100,0.8005824318
331.88150,-4.082528091
331.88200,-12.3227771
331.88250,-28.49808071
331.88300,-40.40066261
331.88350,-37.65391294
331.88400,-28.80327512
331.88450,-24.53055341
331.88500,-16.59549881
331.88550,8.430442624
331.88600,47.49532681
331.88650,80.15112843
331.88700,88.69657185
331.88750,74.35243469
331.88800,48.71610444
331.88850,23.69016301
331.88900,5.683692955
331.88950,-6.218888945
331.89000,-17.81627644
331.89050,-29.71885834
331.89100,-36.1279409
331.89150,-32.1604136
331.89200,-21.78380374
331.89250,-12.3227771
331.89300,-6.218888945
331.89350,1.410971247
331.89400,14.53433078
331.89450,26.43691268
331.89500,29.18366235
331.89550,22.77457979
331.89600,19.11224689
331.89650,26.13171827
331.89700,34.67716169
331.89750,30.09924557
331.89800,11.4823867
331.89850,-5.913694538
331.89900,-14.76433236
331.89950,-25.14094222
331.90000,-46.50455076
331.90050,-68.17335371
331.90100,-73.05646423
331.90150,-61.15388233
331.90200,-46.19935635
331.90250,-38.26430175
331.90300,-34.90716327
331.90350,-26.97210867
331.90400,-5.303305722
331.90450,33.15118965
331.90500,75.87840673
331.90550,93.88487678
331.90600,73.13165706
331.90650,33.45638406
331.90700,6.599276178
331.90750,-1.946167238
331.90800,-11.10199947
331.90850,-26.05652545
331.90900,-31.85521919
331.90950,-21.17341492
331.91000,-8.050055392
331.91050,-3.166944868
331.91100,3.852526509
331.91150,23.69016301
331.91200,43.52779951
331.91250,43.83299392
331.91300,25.82652386
331.91350,6.599276178
331.91400,-7.134472168
331.91450,-20.56302611
331.91500,-33.99158005
331.91550,-42.23182905
331.91600,-47.11493958
331.91650,-51.08246688
331.91700,-42.23182905
331.91750,-7.134472168
331.91800,38.94988339
331.91850,62.14465838
331.91900,48.10571563
331.91950,21.85899656
331.92000,11.17719229
331.92050,12.39796992
331.92100,5.07330414
331.92150,-11.40719388
331.92200,-19.95263729
331.92250,-11.71238828
331.92300,1.410971247
331.92350,7.514859401
331.92400,5.378498547
331.92450,1.410971247
331.92500,-0.1150007913
331.92550,0.4953880241
331.92600,2.021360063
331.92650,2.32655447
331.92700,1.410971247
331.92750,2.936943286
331.92800,8.125248217
331.92850,9.956414663
331.92900,2.631748878
331.92950,-7.439666576
331.93000,-10.49161065
331.93050,-3.777333684
331.93100,3.242137693
331.93150,3.242137693
331.93200,-0.7253896067
331.93250,-3.777333684
331.93300,-4.998111315
331.93350,-5.913694538
331.93400,-5.60850013
331.93450,-3.166944868
331.93500,0.1901936164
331.93550,0.8005824318
331.93600,-0.420195199
331.93650,-0.1150007913
331.93700,1.410971247
331.93750,-0.7253896067
331.93800,-8.965638615
331.93850,-15.98510999
331.93900,-14.15394355
331.93950,-5.60850013
331.94000,1.716165655
331.94050,5.07330414
331.94100,7.209664994
331.94150,8.735637032
331.94200,5.07330414
331.94250,-2.861750461
331.94300,-9.881221838
331.94350,-14.76433236
331.94400,-24.225359
331.94450,-38.56949616
331.94500,-43.45260668
331.94550,-26.05652545
331.94600,2.936943286
331.94650,20.94341334
331.94700,16.97588604
331.94750,3.852526509
331.94800,-2.251361645
331.94850,-1.030584014
331.94900,-1.335778422
331.94950,-5.60850013
331.95000,-9.57602743
331.95050,-9.57602743
331.95100,-7.439666576
331.95150,-6.524083353
331.95200,-4.998111315
331.95250,-0.1150007913
331.95300,7.820053809
331.95350,13.31355315
331.95400,13.00835874
331.95450,9.651220255
331.95500,7.820053809
331.95550,8.430442624
331.95600,8.125248217
331.95650,5.988887363
331.95700,4.462915324
331.95750,4.157720917
331.95800,3.242137693
331.95850,1.410971247
331.95900,-0.1150007913
331.95950,-1.335778422
331.96000,-5.60850013
331.96050,-12.3227771
331.96100,-17.20588762
331.96150,-16.2903044
331.96200,-10.49161065
331.96250,-4.082528091
331.96300,-0.420195199
331.96350,-0.1150007913
331.96400,-2.556556053
331.96450,-3.777333684
331.96500,-3.777333684
331.96550,-3.472139276
331.96600,-3.166944868
331.96650,2.021360063
331.96700,14.22913637
331.96750,23.99535742
331.96800,20.94341334
331.96850,8.735637032
331.96900,0.4953880241
331.96950,1.716165655
331.97000,2.936943286
331.97050,-4.387722499
331.97100,-15.67991558
331.97150,-18.73185966
331.97200,-9.57602743
331.97250,4.462915324
331.97300,15.449914
331.97350,19.72263571
331.97400,21.85899656
331.97450,24.60574623
331.97500,24.60574623
331.97550,14.22913637
331.97600,-7.134472168
331.97650,-29.10846952
331.97700,-40.40066261
331.97750,-41.31624583
331.97800,-39.48507938
331.97850,-37.04352412
331.97900,-30.63444156
331.97950,-25.14094222
331.98000,-28.1928863
331.98050,-36.1279409
331.98100,-35.51755208
331.98150,-20.2578317
331.98200,-0.7253896067
331.98250,13.92394196
331.98300,26.43691268
331.98350,39.56027221
331.98400,47.1901324
331.98450,43.2226051
331.98500,34.37196728
331.98550,32.23560643
331.98600,35.59274491
331.98650,34.06677287
331.98700,23.3849686
331.98750,10.26160907
331.98800,2.021360063
331.98850,-0.1150007913
331.98900,0.4953880241
331.98950,4.157720917
331.99000,11.4823867
331.99050,20.63821893
331.99100,26.43691268
331.99150,23.07977419
331.99200,11.17719229
331.99250,0.1901936164
331.99300,-0.1150007913
331.99350,7.820053809
331.99400,11.4823867
331.99450,2.936943286
331.99500,-8.660444207
331.99550,-12.01758269
331.99600,-6.829277761
331.99650,-3.166944868
331.99700,-5.60850013
331.99750,-8.965638615
331.99800,-10.49161065
331.99850,-14.15394355
331.99900,-19.64744288
331.99950,-20.2578317
332.00000,-12.3227771
332.00050,-2.861750461
332.00100,0.4953880241
332.00150,1.410971247
332.00200,5.07330414
332.00250,10.87199789
332.00300,14.22913637
332.00350,14.53433078
332.00400,14.83952519
332.00450,13.92394196
332.00500,8.125248217
332.00550,-3.166944868
332.00600,-15.67991558
332.00650,-23.00458137
332.00700,-25.44613663
332.00750,-27.27730308
332.00800,-30.93963597
332.00850,-31.24483038
332.00900,-22.69938696
332.00950,-8.355249799
332.01000,2.021360063
332.01050,6.29408177
332.01100,12.39796992
332.01150,25.21613505
332.01200,31.01482879
332.01250,12.09277552
332.01300,-27.58249748
332.01350,-63.29024319
332.01400,-77.32918594
332.01450,-76.71879712
332.01500,-78.24476916
332.01550,-82.51749087
332.01600,-72.44607542
332.01650,-30.32924715
332.01700,41.39143866
332.01750,116.7744574
332.01800,159.5016744
332.01850,151.5666198
332.01900,108.8394028
332.01950,63.97582483
332.02000,36.81352254
332.02050,24.91094064
332.02100,17.58627486
332.02150,10.26160907
332.02200,2.021360063
332.02250,-7.439666576
332.02300,-14.15394355
332.02350,-11.71238828
332.02400,-1.335778422
332.02450,5.988887363
332.02500,5.07330414
332.02550,1.410971247
332.02600,1.716165655
332.02650,3.242137693
332.02700,-1.335778422
332.02750,-12.62797151
332.02800,-22.39419255
332.02850,-24.225359
332.02900,-18.73185966
332.02950,-11.10199947
332.03000,-7.439666576
332.03050,-10.18641625
332.03100,-17.51108203
332.03150,-24.83574782
332.03200,-28.49808071
332.03250,-27.58249748
332.03300,-23.92016459
332.03350,-21.17341492
332.03400,-20.2578317
332.03450,-18.73185966
332.03500,-10.79680506
332.03550,4.768109732
332.03600,20.94341334
332.03650,28.87846794
332.03700,26.74210709
332.03750,20.02783012
332.03800,12.39796992
332.03850,6.29408177
332.03900,2.631748878
332.03950,1.716165655
332.04000,0.8005824318
332.04050,-2.251361645
332.04100,-6.829277761
332.04150,-9.881221838
332.04200,-11.40719388
332.04250,-11.40719388
332.04300,-8.965638615
332.04350,-4.082528091
332.04400,-0.7253896067
332.04450,-1.64097283
332.04500,-3.472139276
332.04550,-1.335778422
332.04600,0.8005824318
332.04650,-4.082528091
332.04700,-15.37472118
332.04750,-22.39419255
332.04800,-18.42666525
332.04850,-8.660444207
332.04900,-2.556556053
332.04950,-2.251361645
332.05000,-2.861750461
332.05050,-0.1150007913
332.05100,2.936943286
332.05150,5.07330414
332.05200,4.768109732
332.05250,1.716165655
332.05300,-2.861750461
332.05350,-7.134472168
332.05400,-6.524083353
332.05450,-1.64097283
332.05500,2.631748878
332.05550,3.547332101
332.05600,4.157720917
332.05650,9.956414663
332.05700,19.4174413
332.05750,23.69016301
332.05800,16.67069163
332.05850,5.07330414
332.05900,-0.7253896067
332.05950,0.8005824318
332.06000,3.242137693
332.06050,1.410971247
332.06100,-1.030584014
332.06150,0.4953880241
332.06200,5.07330414
332.06250,7.820053809
332.06300,7.820053809
332.06350,8.735637032
332.06400,8.735637032
332.06450,3.242137693
332.06500,-8.355249799
332.06550,-20.86822052
332.06600,-26.97210867
332.06650,-24.53055341
332.06700,-15.67991558
332.06750,-4.998111315
332.06800,1.716165655
332.06850,2.936943286
332.06900,2.631748878
332.06950,5.378498547
332.07000,6.599276178
332.07050,-1.946167238
332.07100,-20.2578317
332.07150,-37.04352412
332.07200,-43.75780109
332.07250,-39.79027379
332.07300,-26.36171985
332.07350,-6.829277761
332.07400,5.988887363
332.07450,2.32655447
332.07500,-6.829277761
332.07550,3.242137693
332.07600,35.2875505
332.07650,59.70310312
332.07700,50.85246529
332.07750,20.94341334
332.07800,-0.1150007913
332.07850,-2.861750461
332.07900,0.4953880241
332.07950,4.462915324
332.08000,13.92394196
332.08050,28.26807912
332.08100,38.94988339
332.08150,41.08624425
332.08200,38.64468899
332.08250,35.2875505
332.08300,30.70963439
332.08350,25.21613505
332.08400,19.11224689
332.08450,9.651220255
332.08500,-3.472139276
332.08550,-14.45913795
332.08600,-18.73185966
332.08650,-20.56302611
332.08700,-22.69938696
332.08750,-17.81627644
332.08800,-1.64097283
332.08850,12.39796992
332.08900,8.430442624
332.08950,-9.57602743
332.09000,-20.2578317
332.09050,-14.15394355
332.09100,-3.472139276
332.09150,-0.1150007913
332.09200,-4.082528091
332.09250,-9.881221838
332.09300,-16.90069321
332.09350,-23.30977578
332.09400,-23.00458137
332.09450,-15.06952677
332.09500,-6.829277761
332.09550,-4.998111315
332.09600,-5.60850013
332.09650,-2.861750461
332.09700,1.105776839
332.09750,0.8005824318
332.09800,-1.335778422
332.09850,1.105776839
332.09900,9.956414663
332.09950,17.58627486
332.10000,17.89146926
332.10050,15.14471959
332.10100,16.67069163
332.10150,20.02783012
332.10200,18.80705249
332.10250,10.56680348
332.10300,1.716165655
332.10350,-1.946167238
332.10400,-3.166944868
332.10450,-8.050055392
332.10500,-17.20588762
332.10550,-24.83574782
332.10600,-25.75133104
332.10650,-21.78380374
332.10700,-20.86822052
332.10750,-27.58249748
332.10800,-35.21235768
332.10850,-32.46560801
332.10900,-15.67991558
332.10950,5.378498547
332.11000,18.80705249
332.11050,21.55380216
332.11100,19.72263571
332.11150,17.89146926
332.11200,14.83952519
332.11250,9.346025847
332.11300,3.242137693
332.11350,-0.7253896067
332.11400,-3.166944868
332.11450,-4.998111315
332.11500,-5.60850013
332.11550,-4.387722499
332.11600,-2.861750461
332.11650,-1.335778422
332.11700,-0.1150007913
332.11750,-1.335778422
332.11800,-5.303305722
332.11850,-9.57602743
332.11900,-11.10199947
332.11950,-14.45913795
332.12000,-28.80327512
332.12050,-51.9980501
332.12100,-68.17335371
332.12150,-61.45907674
332.12200,-37.04352412
332.12250,-15.37472118
332.12300,-7.439666576
332.12350,0.4953880241
332.12400,27.3524959
332.12450,69.16412976
332.12500,97.85240408
332.12550,90.22254389
332.12600,53.29402056
332.12650,14.83952519
332.12700,-7.439666576
332.12750,-18.73185966
332.12800,-26.97210867
332.12850,-30.02405275
332.12900,-21.17341492
332.12950,-5.60850013
332.13000,9.651220255
332.13050,27.04730149
332.13100,52.07324293
332.13150,75.26801791
332.13200,78.31996199
332.13250,58.7875199
332.13300,34.37196728
332.13350,20.02783012
332.13400,9.346025847
332.13450,-7.744860984
332.13500,-25.75133104
332.13550,-30.93963597
332.13600,-24.53055341
332.13650,-18.12147085
332.13700,-17.51108203
332.13750,-17.51108203
332.13800,-14.45913795
332.13850,-12.01758269
332.13900,-10.49161065
332.13950,-8.050055392
332.14000,-5.303305722
332.14050,-5.913694538
332.14100,-7.744860984
332.14150,-5.60850013
332.14200,-1.335778422
332.14250,-1.64097283
332.14300,-7.134472168
332.14350,-11.10199947
332.14400,-12.62797151
332.14450,-17.20588762
332.14500,-25.44613663
332.14550,-30.93963597
332.14600,-29.71885834
332.14650,-25.44613663
332.14700,-21.17341492
332.14750,-17.20588762
332.14800,-13.54355473
332.14850,-10.49161065
332.14900,-5.303305722
332.14950,5.07330414
332.15000,17.28108045
332.15050,23.69016301
332.15100,23.3849686
332.15150,18.80705249
332.15200,9.346025847
332.15250,-6.218888945
332.15300,-21.78380374
332.15350,-25.44613663
332.15400,-18.42666525
332.15450,-11.10199947
332.15500,-6.829277761
332.15550,-0.420195199
332.15600,10.26160907
332.15650,18.50185808
332.15700,18.80705249
332.15750,14.22913637
332.15800,7.820053809
332.15850,-1.946167238
332.15900,-15.37472118
332.15950,-24.83574782
332.16000,-22.39419255
332.16050,-8.965638615
332.16100,7.209664994
332.16150,17.58627486
332.16200,18.80705249
332.16250,13.31355315
332.16300,6.29408177
332.16350,2.631748878
332.16400,2.631748878
332.16450,4.157720917
332.16500,4.157720917
332.16550,1.716165655
332.16600,-3.166944868
332.16650,-9.881221838
332.16700,-16.90069321
332.16750,-19.34224848
332.16800,-11.71238828
332.16850,6.29408177
332.16900,23.07977419
332.16950,25.52132946
332.17000,13.00835874
332.17050,0.8005824318
332.17100,-0.7253896067
332.17150,3.852526509
332.17200,7.209664994
332.17250,8.735637032
332.17300,9.956414663
332.17350,5.988887363
332.17400,-6.524083353
332.17450,-20.86822052
332.17500,-25.75133104
332.17550,-19.95263729
332.17600,-11.10199947
332.17650,-5.60850013
332.17700,-4.998111315
332.17750,-10.49161065
332.17800,-19.03705407
332.17850,-23.30977578
332.17900,-18.42666525
332.17950,-7.744860984
332.18000,3.852526509
332.18050,16.36549722
332.18100,27.3524959
332.18150,31.62521761
332.18200,27.3524959
332.18250,20.94341334
332.18300,16.67069163
332.18350,11.78758111
332.18400,5.07330414
332.18450,2.936943286
332.18500,7.820053809
332.18550,12.70316433
332.18600,11.17719229
332.18650,7.209664994
332.18700,7.514859401
332.18750,9.04083144
332.18800,6.599276178
332.18850,4.462915324
332.18900,9.04083144
332.18950,17.58627486
332.19000,19.11224689
332.19050,9.956414663
332.19100,-4.692916907
332.19150,-17.20588762
332.19200,-23.00458137
332.19250,-21.78380374
332.19300,-14.15394355
332.19350,-4.387722499
332.19400,2.021360063
332.19450,3.852526509
332.19500,1.716165655
332.19550,0.1901936164
332.19600,1.410971247
332.19650,4.157720917
332.19700,3.547332101
332.19750,-3.472139276
332.19800,-12.3227771
332.19850,-15.37472118
332.19900,-9.270833022
332.19950,-0.420195199
332.20000,4.462915324
332.20050,5.378498547
332.20100,4.462915324
332.20150,4.462915324
332.20200,5.378498547
332.20250,7.514859401
332.20300,9.651220255
332.20350,9.04083144
332.20400,4.157720917
332.20450,-1.946167238
332.20500,-5.913694538
332.20550,-5.60850013
332.20600,-2.861750461
332.20650,1.105776839
332.20700,5.683692955
332.20750,10.56680348
332.20800,14.53433078
332.20850,16.97588604
332.20900,19.4174413
332.20950,20.94341334
332.21000,20.02783012
332.21050,15.75510841
332.21100,10.26160907
332.21150,7.514859401
332.21200,7.209664994
332.21250,4.462915324
332.21300,-4.082528091
332.21350,-16.90069321
332.21400,-26.05652545
332.21450,-27.27730308
332.21500,-22.69938696
332.21550,-16.90069321
332.21600,-13.54355473
332.21650,-14.45913795
332.21700,-20.56302611
332.21750,-28.1928863
332.21800,-28.80327512
332.21850,-15.67991558
332.21900,5.988887363
332.21950,22.77457979
332.22000,27.04730149
332.22050,23.3849686
332.22100,19.4174413
332.22150,14.53433078
332.22200,6.904470586
332.22250,1.716165655
332.22300,4.462915324
332.22350,9.04083144
332.22400,3.852526509
332.22450,-6.218888945
332.22500,-6.524083353
332.22550,4.462915324
332.22600,8.735637032
332.22650,-7.744860984
332.22700,-34.29677445
332.22750,-49.55649484
332.22800,-50.16688365
332.22850,-49.25130043
332.22900,-50.77727247
332.22950,-43.45260668
332.23000,-15.37472118
332.23050,27.3524959
332.23100,65.19660246
332.23150,79.84593403
332.23200,68.24854653
332.23250,44.74857714
332.23300,29.18366235
332.23350,27.04730149
332.23400,27.65769031
332.23450,20.94341334
332.23500,12.09277552
332.23550,9.956414663
332.23600,11.4823867
332.23650,2.021360063
332.23700,-22.69938696
332.23750,-52.91363332
332.23800,-73.97204746
332.23850,-79.46554679
332.23900,-72.14088101
332.23950,-58.71232707
332.24000,-48.0305228
332.24050,-42.53702346
332.24100,-32.46560801
332.24150,-1.946167238
332.24200,50.85246529
332.24250,105.1770699
332.24300,132.3393722
332.24350,120.7419847
332.24400,82.5926837
332.24450,40.78104984
332.24500,12.09277552
332.24550,0.1901936164
332.24600,-1.64097283
332.24650,-1.946167238
332.24700,-3.777333684
332.24750,-5.913694538
332.24800,-8.965638615
332.24850,-14.76433236
332.24900,-21.17341492
332.24950,-23.00458137
332.25000,-18.73185966
332.25050,-15.06952677
332.25100,-15.98510999
332.25150,-16.90069321
332.25200,-13.54355473
332.25250,-8.050055392
332.25300,-5.60850013
332.25350,-4.998111315
332.25400,-3.472139276
332.25450,-3.472139276
332.25500,-7.134472168
332.25550,-7.744860984
332.25600,1.105776839
332.25650,12.70316433
332.25700,12.39796992
332.25750,-0.1150007913
332.25800,-12.62797151
332.25850,-14.45913795
332.25900,-9.57602743
332.25950,-5.913694538
332.26000,-4.998111315
332.26050,-5.913694538
332.26100,-12.01758269
332.26150,-23.92016459
332.26200,-32.1604136
332.26250,-27.27730308
332.26300,-10.18641625
332.26350,5.683692955
332.26400,9.956414663
332.26450,3.547332101
332.26500,-3.166944868
332.26550,-4.387722499
332.26600,-3.166944868
332.26650,-6.524083353
332.26700,-11.71238828
332.26750,-11.40719388
332.26800,-5.60850013
332.26850,-4.082528091
332.26900,-11.71238828
332.26950,-19.64744288
332.27000,-18.42666525
332.27050,-11.10199947
332.27100,-6.218888945
332.27150,-6.524083353
332.27200,-8.050055392
332.27250,-8.355249799
332.27300,-5.303305722
332.27350,3.547332101
332.27400,16.67069163
332.27450,24.60574623
332.27500,20.33302452
332.27550,10.26160907
332.27600,3.852526509
332.27650,2.021360063
332.27700,0.8005824318
332.27750,-0.1150007913
332.27800,-1.335778422
332.27850,-6.218888945
332.27900,-12.01758269
332.27950,-9.881221838
332.28000,2.32655447
332.28050,12.70316433
332.28100,9.04083144
332.28150,-2.556556053
332.28200,-11.71238828
332.28250,-17.20588762
332.28300,-25.44613663
332.28350,-33.38119123
332.28400,-31.55002478
332.28450,-21.17341492
332.28500,-12.3227771
332.28550,-7.744860984
332.28600,-0.420195199
332.28650,15.14471959
332.28700,36.81352254
332.28750,56.65115904
332.28800,66.41738009
332.28850,59.39790871
332.28900,36.50832813
332.28950,11.4823867
332.29000,0.4953880241
332.29050,3.852526509
332.29100,8.125248217
332.29150,2.936943286
332.29200,-8.965638615
332.29250,-16.90069321
332.29300,-15.37472118
332.29350,-6.218888945
332.29400,1.716165655
332.29450,3.242137693
332.29500,0.8005824318
332.29550,2.021360063
332.29600,5.07330414
332.29650,0.4953880241
332.29700,-12.62797151
332.29750,-21.47860933
332.29800,-18.12147085
332.29850,-13.54355473
332.29900,-20.56302611
332.29950,-31.85521919
332.30000,-29.10846952
332.30050,-11.71238828
332.30100,2.936943286
332.30150,6.29408177
332.30200,6.904470586
332.30250,11.17719229
332.30300,12.70316433
332.30350,6.904470586
332.30400,0.4953880241
332.30450,-0.420195199
332.30500,-0.7253896067
332.30550,-4.692916907
332.30600,-7.439666576
332.30650,-2.861750461
332.30700,5.378498547
332.30750,9.04083144
332.30800,7.514859401
332.30850,7.514859401
332.30900,12.39796992
332.30950,19.11224689
332.31000,23.3849686
332.31050,23.07977419
332.31100,18.19666367
332.31150,11.17719229
332.31200,5.07330414
332.31250,1.105776839
332.31300,-3.472139276
332.31350,-11.10199947
332.31400,-17.51108203
332.31450,-19.64744288
332.31500,-17.51108203
332.31550,-13.84874914
332.31600,-9.881221838
332.31650,-6.524083353
332.31700,-4.387722499
332.31750,-1.946167238
332.31800,1.716165655
332.31850,5.683692955
332.31900,2.631748878
332.31950,-10.18641625
332.32000,-25.14094222
332.32050,-30.02405275
332.32100,-23.61497018
332.32150,-15.98510999
332.32200,-15.67991558
332.32250,-16.2903044
332.32300,-5.303305722
332.32350,19.72263571
332.32400,46.27454918
332.32450,58.17713108
332.32500,49.02129885
332.32550,26.74210709
332.32600,5.683692955
332.32650,-3.777333684
332.32700,-3.166944868
332.32750,-1.335778422
332.32800,-2.251361645
332.32850,-1.64097283
332.32900,4.768109732
332.32950,11.17719229
332.33000,9.346025847
332.33050,1.716165655
332.33100,-0.420195199
332.33150,2.631748878
332.33200,2.32655447
332.33250,-7.134472168
332.33300,-19.34224848
332.33350,-24.53055341
332.33400,-23.00458137
332.33450,-18.12147085
332.33500,-10.49161065
332.33550,1.410971247
332.33600,15.75510841
332.33650,27.96288472
332.33700,34.98235609
332.33750,32.23560643
332.33800,19.11224689
332.33850,2.021360063
332.33900,-8.965638615
332.33950,-14.76433236
332.34000,-21.17341492
332.34050,-26.36171985
332.34100,-25.75133104
332.34150,-24.53055341
332.34200,-30.93963597
332.34250,-32.77080242
332.34300,-4.387722499
332.34350,52.07324293
332.34400,98.15759849
332.34450,99.37837612
332.34500,65.19660246
332.34550,28.57327353
332.34600,6.904470586
332.34650,-4.082528091
332.34700,-8.050055392
332.34750,-2.861750461
332.34800,4.768109732
332.34850,4.768109732
332.34900,-2.861750461
332.34950,-11.10199947
332.35000,-16.2903044
332.35050,-19.64744288
332.35100,-17.81627644
332.35150,-7.439666576
332.35200,3.547332101
332.35250,3.242137693
332.35300,-7.134472168
332.35350,-13.54355473
332.35400,-8.050055392
332.35450,-0.1150007913
332.35500,1.410971247
332.35550,-0.420195199
332.35600,0.1901936164
332.35650,3.547332101
332.35700,3.242137693
332.35750,-1.030584014
332.35800,-4.082528091
332.35850,-2.861750461
332.35900,-1.030584014
332.35950,-3.472139276
332.36000,-11.10199947
332.36050,-20.2578317
332.36100,-26.66691426
332.36150,-29.41366393
332.36200,-28.49808071
332.36250,-21.78380374
332.36300,-5.303305722
332.36350,18.50185808
332.36400,36.20313373
332.36450,34.67716169
332.36500,16.06030282
332.36550,-3.166944868
332.36600,-10.79680506
332.36650,-9.881221838
332.36700,-11.71238828
332.36750,-18.73185966
332.36800,-22.39419255
332.36850,-16.90069321
332.36900,-6.524083353
332.36950,0.4953880241
332.37000,1.716165655
332.37050,-1.946167238
332.37100,-8.965638615
332.37150,-16.90069321
332.37200,-21.78380374
332.37250,-21.47860933
332.37300,-17.81627644
332.37350,-14.15394355
332.37400,-10.18641625
332.37450,-3.166944868
332.37500,10.26160907
332.37550,30.40443998
332.37600,48.71610444
332.37650,53.59921496
332.37700,40.17066103
332.37750,18.50185808
332.37800,0.1901936164
332.37850,-12.93316591
332.37900,-26.66691426
332.37950,-35.51755208
332.38000,-30.02405275
332.38050,-14.45913795
332.38100,-4.998111315
332.38150,-3.166944868
332.38200,10.56680348
332.38250,46.88493799
332.38300,83.81346133
332.38350,87.78098863
332.38400,54.20960378
332.38450,8.125248217
332.38500,-22.39419255
332.38550,-31.24483038
332.38600,-26.97210867
332.38650,-19.34224848
332.38700,-13.23836032
332.38750,-8.050055392
332.38800,-0.420195199
332.38850,9.956414663
332.38900,20.63821893
332.38950,28.57327353
332.39000,32.54080083
332.39050,29.79405116
332.39100,18.80705249
332.39150,4.462915324
332.39200,-3.166944868
332.39250,-4.692916907
332.39300,-7.744860984
332.39350,-13.84874914
332.39400,-13.23836032
332.39450,-3.472139276
332.39500,2.32655447
332.39550,-5.303305722
332.39600,-18.42666525
332.39650,-19.03705407
332.39700,-6.218888945
332.39750,3.852526509
332.39800,2.631748878
332.39850,-2.251361645
332.39900,-2.251361645
332.39950,1.716165655
332.40000,2.021360063
332.40050,-3.472139276
332.40100,-11.71238828
332.40150,-18.42666525
332.40200,-21.78380374
332.40250,-22.39419255
332.40300,-20.86822052
332.40350,-19.64744288
332.40400,-19.34224848
332.40450,-19.34224848
332.40500,-16.90069321
332.40550,-11.40719388
332.40600,-5.913694538
332.40650,-3.472139276
332.40700,-4.692916907
332.40750,-7.134472168
332.40800,-11.10199947
332.40850,-18.12147085
332.40900,-26.05652545
332.40950,-27.58249748
332.41000,-19.34224848
332.41050,-7.744860984
332.41100,-2.251361645
332.41150,-2.861750461
332.41200,-2.251361645
332.41250,1.105776839
332.41300,4.157720917
332.41350,5.988887363
332.41400,10.26160907
332.41450,16.97588604
332.41500,20.02783012
332.41550,14.53433078
332.41600,2.32655447
332.41650,-15.67991558
332.41700,-37.65391294
332.41750,-53.82921655
332.41800,-51.69285569
332.41850,-33.99158005
332.41900,-21.17341492
332.41950,-27.58249748
332.42000,-41.92663465
332.42050,-41.92663465
332.42100,-24.225359
332.42150,-5.60850013
332.42200,2.021360063
332.42250,9.04083144
332.42300,29.48885676
332.42350,58.7875199
332.42400,75.87840673
332.42450,68.85893535
332.42500,48.10571563
332.42550,33.15118965
332.42600,29.48885676
332.42650,29.48885676
332.42700,24.30055182
332.42750,16.67069163
332.42800,12.39796992
332.42850,11.4823867
332.42900,10.56680348
332.42950,8.735637032
332.43000,6.599276178
332.43050,4.157720917
332.43100,1.410971247
332.43150,0.1901936164
332.43200,2.021360063
332.43250,3.547332101
332.43300,2.936943286
332.43350,0.4953880241
332.43400,-4.387722499
332.43450,-14.15394355
332.43500,-22.69938696
332.43550,-17.81627644
332.43600,0.8005824318
332.43650,13.00835874
332.43700,0.1901936164
332.43750,-28.80327512
332.43800,-47.42013399
332.43850,-45.89416195
332.43900,-37.65391294
332.43950,-34.60196886
332.44000,-34.29677445
332.44050,-30.02405275
332.44100,-18.12147085
332.44150,5.378498547
332.44200,43.2226051
332.44250,81.06671166
332.44300,93.88487678
332.44350,74.6576291
332.44400,41.08624425
332.44450,16.06030282
332.44500,4.462915324
332.44550,-0.1150007913
332.44600,1.105776839
332.44650,7.820053809
332.44700,15.14471959
332.44750,16.67069163
332.44800,13.61874756
332.44850,12.70316433
332.44900,14.83952519
332.44950,13.31355315
332.45000,3.547332101
332.45050,-10.49161065
332.45100,-20.86822052
332.45150,-23.00458137
332.45200,-20.56302611
332.45250,-19.03705407
332.45300,-18.73185966
332.45350,-15.67991558
332.45400,-8.355249799
332.45450,-0.420195199
332.45500,4.462915324
332.45550,5.07330414
332.45600,0.8005824318
332.45650,-5.913694538
332.45700,-10.18641625
332.45750,-9.881221838
332.45800,-15.37472118
332.45850,-32.46560801
332.45900,-45.58896754
332.45950,-30.32924715
332.46000,9.651220255
332.46050,41.39143866
332.46100,39.86546662
332.46150,19.11224689
332.46200,6.904470586
332.46250,8.735637032
332.46300,11.78758111
332.46350,9.956414663
332.46400,9.651220255
332.46450,12.09277552
332.46500,8.430442624
332.46550,-6.524083353
332.46600,-26.97210867
332.46650,-41.62144024
332.46700,-44.97857872
332.46750,-38.56949616
332.46800,-27.27730308
332.46850,-13.23836032
332.46900,3.547332101
332.46950,20.33302452
332.47000,26.43691268
332.47050,18.50185808
332.47100,7.209664994
332.47150,5.988887363
332.47200,11.17719229
332.47250,6.599276178
332.47300,-10.79680506
332.47350,-26.66691426
332.47400,-27.27730308
332.47450,-17.20588762
332.47500,-8.660444207
332.47550,-4.692916907
332.47600,-1.335778422
332.47650,1.410971247
332.47700,3.242137693
332.47750,4.768109732
332.47800,9.04083144
332.47850,14.22913637
332.47900,18.19666367
332.47950,19.4174413
332.48000,16.36549722
332.48050,7.514859401
332.48100,-2.251361645
332.48150,-4.692916907
332.48200,4.462915324
332.48250,15.14471959
332.48300,13.92394196
332.48350,0.1901936164
332.48400,-12.62797151
332.48450,-15.37472118
332.48500,-10.18641625
332.48550,-4.998111315
332.48600,-2.556556053
332.48650,-0.7253896067
332.48700,2.631748878
332.48750,6.29408177
332.48800,9.651220255
332.48850,13.31355315
332.48900,16.36549722
332.48950,14.83952519
332.49000,7.514859401
332.49050,0.8005824318
332.49100,0.4953880241
332.49150,4.157720917
332.49200,2.936943286
332.49250,-6.829277761
332.49300,-18.12147085
332.49350,-20.2578317
332.49400,-12.93316591
332.49450,-8.355249799
332.49500,-14.15394355
332.49550,-24.53055341
332.49600,-28.80327512
332.49650,-25.75133104
332.49700,-21.78380374
332.49750,-15.67991558
332.49800,-0.1150007913
332.49850,24.30055182
332.49900,40.17066103
332.49950,36.50832813
332.50000,21.85899656
332.50050,10.26160907
332.50100,2.021360063
332.50150,-10.18641625
332.50200,-27.58249748
332.50250,-43.45260668
332.50300,-53.82921655
332.50350,-55.66038299
332.50400,-46.50455076
332.50450,-32.46560801
332.50500,-25.44613663
332.50550,-23.30977578
332.50600,-3.166944868
332.50650,43.83299392
332.50700,89.91734948
332.50750,96.93682086
332.50800,66.11218568
332.50850,34.37196728
332.50900,23.3849686
332.50950,21.55380216
332.51000,14.53433078
332.51050,6.599276178
332.51100,5.988887363
332.51150,6.904470586
332.51200,2.631748878
332.51250,-2.556556053
332.51300,-2.556556053
332.51350,-0.1150007913
332.51400,-0.1150007913
332.51450,1.716165655
332.51500,9.346025847
332.51550,17.28108045
332.51600,17.89146926
332.51650,12.39796992
332.51700,6.904470586
332.51750,3.242137693
332.51800,-0.420195199
332.51850,-4.998111315
332.51900,-6.524083353
332.51950,-4.387722499
332.52000,-2.251361645
332.52050,-3.472139276
332.52100,-6.829277761
332.52150,-7.439666576
332.52200,-3.472139276
332.52250,1.410971247
332.52300,2.32655447
332.52350,-0.1150007913
332.52400,-2.861750461
332.52450,-3.777333684
332.52500,-5.913694538
332.52550,-9.57602743
332.52600,-11.71238828
332.52650,-11.10199947
332.52700,-8.965638615
332.52750,-6.218888945
332.52800,-1.335778422
332.52850,2.936943286
332.52900,3.242137693
332.52950,1.105776839
332.53000,1.410971247
332.53050,4.157720917
332.53100,4.462915324
332.53150,2.936943286
332.53200,3.852526509
332.53250,3.242137693
332.53300,-8.965638615
332.53350,-32.1604136
332.53400,-49.86168925
332.53450,-52.91363332
332.53500,-51.38766129
332.53550,-54.43960536
332.53600,-53.21882773
332.53650,-31.24483038
332.53700,11.4823867
332.53750,55.43038141
332.53800,78.31996199
332.53850,71.91087943
332.53900,44.74857714
332.53950,15.14471959
332.54000,-2.556556053
332.54050,-9.270833022
332.54100,-15.06952677
332.54150,-24.53055341
332.54200,-30.63444156
332.54250,-26.97210867
332.54300,-17.51108203
332.54350,-9.270833022
332.54400,-5.913694538
332.54450,-4.998111315
332.54500,-2.556556053
332.54550,5.988887363
332.54600,19.72263571
332.54650,29.18366235
332.54700,27.04730149
332.54750,17.58627486
332.54800,9.956414663
332.54850,3.547332101
332.54900,-9.57602743
332.54950,-29.71885834
332.55000,-46.19935635
332.55050,-53.52402214
332.55100,-54.13441095
332.55150,-52.30324451
332.55200,-49.55649484
332.55250,-48.64091162
332.55300,-47.42013399
332.55350,-32.77080242
332.55400,6.599276178
332.55450,57.26154786
332.55500,86.25501659
332.55550,76.48879554
332.55600,44.13818833
332.55650,17.28108045
332.55700,8.430442624
332.55750,13.92394196
332.55800,24.91094064
332.55850,35.89793932
332.55900,44.13818833
332.55950,51.46285411
332.56000,58.7875199
332.56050,62.14465838
332.56100,55.73557582
332.56150,38.33949458
332.56200,16.36549722
332.56250,-1.946167238
332.56300,-12.3227771
332.56350,-12.3227771
332.56400,-5.60850013
332.56450,-1.946167238
332.56500,-7.439666576
332.56550,-16.90069321
332.56600,-20.56302611
332.56650,-16.59549881
332.56700,-12.01758269
332.56750,-11.71238828
332.56800,-14.15394355
332.56850,-15.37472118
332.56900,-15.67991558
332.56950,-16.59549881
332.57000,-17.51108203
332.57050,-17.81627644
332.57100,-15.37472118
332.57150,-8.660444207
332.57200,0.4953880241
332.57250,6.599276178
332.57300,5.378498547
332.57350,0.1901936164
332.57400,-1.946167238
332.57450,-1.030584014
332.57500,-0.420195199
332.57550,-2.861750461
332.57600,-5.60850013
332.57650,-5.913694538
332.57700,-4.082528091
332.57750,-1.64097283
332.57800,-0.420195199
332.57850,-0.420195199
332.57900,-1.946167238
332.57950,-3.777333684
332.58000,-3.777333684
332.58050,-3.166944868
332.58100,-6.829277761
332.58150,-15.67991558
332.58200,-23.92016459
332.58250,-23.30977578
332.58300,-15.37472118
332.58350,-7.744860984
332.58400,-4.692916907
332.58450,2.021360063
332.58500,18.50185808
332.58550,38.64468899
332.58600,48.10571563
332.58650,42.91741069
332.58700,29.79405116
332.58750,14.83952519
332.58800,-1.335778422
332.58850,-18.42666525
332.58900,-32.1604136
332.58950,-40.70585702
332.59000,-43.75780109
332.59050,-38.26430175
332.59100,-24.83574782
332.59150,-14.76433236
332.59200,-20.86822052
332.59250,-35.82274649
332.59300,-39.48507938
332.59350,-25.75133104
332.59400,-9.57602743
332.59450,-4.692916907
332.59500,-3.472139276
332.59550,5.378498547
332.59600,17.89146926
332.59650,21.24860775
332.59700,15.449914
332.59750,11.4823867
332.59800,13.92394196
332.59850,19.72263571
332.59900,26.74210709
332.59950,34.37196728
332.60000,37.11871695
332.60050,29.18366235
332.60100,14.83952519
332.60150,2.021360063
332.60200,-8.965638615
332.60250,-24.83574782
332.60300,-41.62144024
332.60350,-47.11493958
332.60400,-38.87469057
332.60450,-28.80327512
332.60500,-26.05652545
332.60550,-25.44613663
332.60600,-19.34224848
332.60650,-13.84874914
332.60700,-19.03705407
332.60750,-29.41366393
332.60800,-28.49808071
332.60850,-12.01758269
332.60900,5.683692955
332.60950,12.70316433
332.61000,17.58627486
332.61050,34.37196728
332.61100,60.31349193
332.61150,73.74204587
332.61200,62.44985279
332.61250,38.33949458
332.61300,22.46938538
332.61350,20.63821893
332.61400,23.99535742
332.61450,23.69016301
332.61500,20.02783012
332.61550,17.28108045
332.61600,15.449914
332.61650,13.31355315
332.61700,10.56680348
332.61750,7.514859401
332.61800,5.07330414
332.61850,2.631748878
332.61900,1.410971247
332.61950,1.410971247
332.62000,2.021360063
332.62050,3.242137693
332.62100,5.378498547
332.62150,5.988887363
332.62200,4.157720917
332.62250,0.4953880241
332.62300,-1.64097283
332.62350,-1.64097283
332.62400,-1.030584014
332.62450,-0.7253896067
332.62500,0.1901936164
332.62550,1.105776839
332.62600,-0.7253896067
332.62650,-5.913694538
332.62700,-9.57602743
332.62750,-7.134472168
332.62800,-0.1150007913
332.62850,5.07330414
332.62900,3.852526509
332.62950,-0.420195199
332.63000,-2.861750461
332.63050,-1.030584014
332.63100,0.4953880241
332.63150,-0.1150007913
332.63200,-1.946167238
332.63250,-3.166944868
332.63300,-3.472139276
332.63350,-4.082528091
332.63400,-5.303305722
332.63450,-9.270833022
332.63500,-17.81627644
332.63550,-25.75133104
332.63600,-23.92016459
332.63650,-11.40719388
332.63700,-0.7253896067
332.63750,-2.251361645
332.63800,-13.23836032
332.63850,-23.61497018
332.63900,-32.77080242
332.63950,-46.50455076
332.64000,-64.51102082
332.64050,-79.46554679
332.64100,-85.26424054
332.64150,-79.16035239
332.64200,-55.04999418
332.64250,-10.49161065
332.64300,41.39143866
