time,Brachiarod, EXt Carp,EXT DIG,Flex CarpU,Flex Carp R
395.96,-8.265414964,-0.8428307331,-2.689249274,4.573187966,46.14566898
395.9605,-8.875803779,-0.8428307331,-0.8580828275,3.352410335,49.50280747
395.961,-9.791387002,0.3779468977,0.05750039565,0.6056606662,49.50280747
395.9615,-12.84333108,2.209113344,0.6678892111,-2.141089003,48.89241865
395.962,-13.45371989,2.209113344,1.583472434,-3.667061042,45.84047457
395.9625,-7.34983174,-0.2324419177,2.804250065,-2.751477819,38.21061438
395.963,2.416389306,-2.063608364,1.278278026,-0.004728149245,27.2236157
395.9635,10.96183272,-0.2324419177,-2.384054866,2.74202152,14.10025617
395.964,16.15013765,3.429890975,-4.215221312,3.047215928,-0.8542698039
395.9645,19.81247054,5.871446236,-1.468471643,0.3004662585,-14.89321256
395.965,21.03324818,5.261057421,1.888666842,-1.835894595,-20.6919063
395.9655,16.15013765,2.819502159,1.888666842,-0.3099225569,-17.94515664
395.966,4.55275016,0.6831413054,-0.8580828275,3.962799151,-15.80879578
395.9665,-7.655026148,-0.8428307331,-2.689249274,7.014743228,-21.91268394
395.967,-17.11605279,-1.453219549,-2.994443681,7.014743228,-33.20487702
395.9675,-21.99916331,-0.5376363254,-3.604832497,6.099160005,-39.61395958
395.968,-23.21994094,-0.2324419177,-4.52041572,6.099160005,-36.86720991
395.9685,-21.08358009,-0.8428307331,-4.825610128,4.878382374,-28.01657209
395.969,-17.11605279,-1.453219549,-3.604832497,2.436827112,-17.33476782
395.9695,-15.59008075,0.9883357131,-2.384054866,0.9108550739,-8.789324404
395.97,-17.11605279,4.650668606,-0.5528884197,1.521243889,-4.211408289
395.9705,-18.03163601,5.566251829,1.888666842,3.047215928,-3.906213881
395.971,-14.67449753,3.124696567,4.025027696,3.657604743,-3.295825065
395.9715,-8.875803779,2.209113344,3.41463888,3.047215928,-0.2438809885
395.972,-5.823859702,4.04027979,0.6678892111,2.131632705,2.502868681
395.9725,-6.434248517,5.566251829,0.3626948034,0.9108550739,1.587285458
395.973,-8.265414964,4.650668606,2.19386125,0.3004662585,0.9768966423
395.9735,-9.180998187,4.650668606,3.719833288,0.6056606662,6.165201573
395.974,-8.570609371,7.092223867,3.719833288,0.6056606662,14.10025617
395.9745,-4.297887663,9.838973536,4.635416511,-0.6151169646,17.15220025
395.975,3.637166937,7.702612683,6.16138855,-2.446283411,13.48986736
395.9755,12.48780476,1.293530121,5.856194142,-1.22550578,10.74311769
395.976,15.84494324,-5.115552441,2.19386125,2.74202152,15.62622821
395.9765,12.48780476,-8.472690926,-1.773666051,6.099160005,23.86647722
395.977,7.299499829,-7.86230211,-4.825610128,6.404354412,27.2236157
395.9775,4.857944568,-3.89477481,-5.435998943,5.488771189,22.950894
395.978,5.468333383,0.3779468977,-4.52041572,5.183576782,14.71064499
395.9785,6.994305421,3.124696567,-2.384054866,3.962799151,7.385979204
395.979,8.825471868,2.514307752,-0.8580828275,1.826438297,2.197674273
395.9795,10.65663831,0.9883357131,-0.5528884197,-0.004728149245,-1.159464212
395.98,10.65663831,1.293530121,-1.773666051,-0.004728149245,-3.295825065
395.9805,8.215083052,3.124696567,-1.773666051,-0.3099225569,-3.601019473
395.981,4.857944568,4.345474198,0.05750039565,-2.141089003,-2.68543625
395.9815,3.026778121,4.04027979,1.888666842,-3.667061042,-1.464658619
395.982,3.637166937,3.124696567,2.19386125,-2.446283411,-0.8542698039
395.9825,7.909888645,1.293530121,0.6678892111,-0.3099225569,-0.8542698039
395.983,13.40338798,-0.2324419177,-0.5528884197,-0.004728149245,-1.464658619
395.9835,16.76052647,-0.2324419177,-1.773666051,-0.9203113723,-2.68543625
395.984,14.31897121,0.9883357131,-1.773666051,-1.22550578,-3.601019473
395.9845,7.909888645,1.598724528,-0.247694012,-0.6151169646,-2.68543625
395.985,2.111194898,0.9883357131,1.278278026,-1.22550578,-0.5490753962
395.9855,-0.02516595566,0.3779468977,1.583472434,-3.361866634,0.9768966423
395.986,-1.245943586,0.3779468977,0.9730836188,-5.19303308,1.892479865
395.9865,-2.16152681,0.3779468977,0.3626948034,-5.498227488,1.28209105
395.987,-1.551137994,-0.2324419177,0.05750039565,-5.803421896,0.06131341924
395.9875,-0.9407491788,-1.148025141,-0.247694012,-7.024199526,-1.159464212
395.988,-5.518665294,-0.2324419177,0.05750039565,-8.550171565,-0.8542698039
395.9885,-14.97969193,0.6831413054,2.19386125,-9.465754788,1.28209105
395.989,-20.47319127,0.3779468977,5.856194142,-9.770949196,3.723646312
395.9895,-17.11605279,-0.5376363254,6.466582957,-9.16056038,3.723646312
395.99,-9.180998187,-0.8428307331,3.41463888,-7.634588342,0.06131341924
395.9905,-4.908276479,0.07275248999,0.05750039565,-5.498227488,-4.211408289
395.991,-4.603082071,0.6831413054,-0.5528884197,-4.277449857,-6.958157958
395.9915,-3.38230444,0.6831413054,-0.247694012,-3.361866634,-7.873741181
395.992,0.5852228597,0.9883357131,-1.163277235,-1.22550578,-7.873741181
395.9925,5.468333383,0.6831413054,-3.299638089,1.216049482,-8.178935589
395.993,9.435860683,-0.2324419177,-4.215221312,2.74202152,-8.484129996
395.9935,12.48780476,-1.453219549,-3.604832497,1.826438297,-8.789324404
395.994,12.48780476,-0.2324419177,-3.604832497,0.3004662585,-8.789324404
395.9945,8.52027746,3.124696567,-3.910026904,-0.9203113723,-7.263352366
395.995,4.857944568,4.955863013,-2.078860458,-2.141089003,-4.211408289
395.9955,6.994305421,4.04027979,1.278278026,-2.141089003,-2.990630658
395.996,14.31897121,2.514307752,3.41463888,0.6056606662,-4.821797104
395.9965,19.20208173,2.514307752,2.499055657,5.488771189,-7.568546773
395.997,18.59169291,2.514307752,0.05750039565,8.235520859,-7.873741181
395.9975,16.15013765,1.293530121,-1.163277235,6.404354412,-6.042574735
395.998,16.76052647,-0.2324419177,-1.163277235,2.436827112,-4.821797104
395.9985,17.37091528,-1.148025141,-2.384054866,-0.004728149245,-4.516602696
395.999,12.48780476,-1.148025141,-2.689249274,-0.3099225569,-2.990630658
395.9995,3.026778121,-0.2324419177,0.3626948034,-1.835894595,0.9768966423
396.0,-3.992693256,1.903918936,6.466582957,-5.498227488,5.554812758
396.0005,-2.16152681,2.819502159,9.518527034,-7.024199526,5.860007166
396.001,6.994305421,0.9883357131,5.856194142,-4.582644265,1.587285458
396.0015,17.06572088,-0.5376363254,-1.468471643,-0.004728149245,-4.211408289
396.002,19.81247054,0.3779468977,-5.741193351,2.74202152,-8.178935589
396.0025,16.15013765,1.903918936,-4.52041572,2.74202152,-8.789324404
396.003,13.09819358,0.3779468977,-1.773666051,0.9108550739,-7.263352366
396.0035,15.23455443,-2.368802772,-1.773666051,-0.004728149245,-6.347769142
396.004,19.20208173,-1.453219549,-3.299638089,0.6056606662,-6.65296355
396.0045,17.9813041,4.04027979,-3.910026904,1.826438297,-7.873741181
396.005,10.96183272,10.75455676,-3.299638089,2.436827112,-7.263352366
396.0055,4.247555752,17.46883373,-3.299638089,1.216049482,-5.126991512
396.006,1.195611675,27.84544359,-3.604832497,-0.9203113723,-2.68543625
396.0065,0.280028452,39.44283108,-2.078860458,-2.751477819,-1.464658619
396.007,-2.466721217,46.15710805,0.6678892111,-3.056672226,0.06131341924
396.0075,-6.434248517,49.51424654,2.804250065,-3.056672226,2.197674273
396.008,-9.180998187,56.22852351,3.109444473,-3.667061042,3.723646312
396.0085,-8.875803779,59.28046758,3.719833288,-4.887838672,2.808063089
396.009,-6.739442925,40.0532199,4.940610919,-3.972255449,0.06131341924
396.0095,-3.687498848,-2.673997179,3.41463888,-1.835894595,-0.5490753962
396.01,-1.856332402,-44.48563103,-1.468471643,-1.835894595,1.892479865
396.0105,-3.992693256,-60.66093464,-5.435998943,-4.582644265,5.860007166
396.011,-9.791387002,-60.66093464,-2.994443681,-6.719005119,9.522340058
396.0115,-15.89527516,-67.98560043,2.804250065,-4.887838672,11.96389532
396.012,-18.94721923,-84.77129285,5.245805327,-0.3099225569,14.71064499
396.0125,-18.33683042,-89.95959778,1.888666842,2.131632705,16.84700584
396.013,-16.81085838,-72.86871095,-0.5528884197,3.657604743,16.23661703
396.0135,-15.28488634,-47.84276952,0.9730836188,6.099160005,12.57428413
396.014,-12.84333108,-31.3622715,4.635416511,8.235520859,7.996368019
396.0145,-9.180998187,-22.81682809,5.550999734,3.657604743,6.470395981
396.015,-5.518665294,-15.4921623,4.025027696,-7.024199526,7.385979204
396.0155,-3.077110033,-8.472690926,3.719833288,-16.48522617,7.080784796
396.016,-2.466721217,-5.115552441,4.025027696,-16.18003176,2.502868681
396.0165,-3.077110033,-3.89477481,2.499055657,-8.550171565,-3.295825065
396.017,-3.992693256,-2.063608364,0.05750039565,-1.835894595,-6.042574735
396.0175,-3.992693256,-0.8428307331,0.05750039565,-0.3099225569,-4.516602696
396.018,-3.38230444,-2.063608364,0.6678892111,-1.22550578,-2.990630658
396.0185,-2.16152681,-3.284385995,-0.5528884197,-1.835894595,-4.211408289
396.019,-0.3303603634,-2.368802772,-4.215221312,-1.22550578,-5.432185919
396.0195,1.195611675,-0.2324419177,-5.435998943,-0.9203113723,-2.990630658
396.02,2.416389306,2.514307752,-2.384054866,-0.6151169646,0.6717022346
396.0205,1.195611675,7.092223867,0.9730836188,-0.004728149245,2.502868681
396.021,-2.771915625,12.2805288,1.888666842,-0.004728149245,0.9768966423
396.0215,-6.434248517,14.72208406,0.6678892111,-0.6151169646,0.3665078269
396.022,-7.960220556,12.2805288,0.05750039565,-1.22550578,1.587285458
396.0225,-7.960220556,8.923390313,1.278278026,-1.530700188,2.502868681
396.023,-9.791387002,8.313001498,2.499055657,-1.835894595,1.587285458
396.0235,-11.92774786,9.228584721,2.804250065,-2.446283411,0.6717022346
396.024,-10.70697023,8.618195906,2.804250065,-2.141089003,0.6717022346
396.0245,-7.044637333,6.787029459,2.19386125,-1.22550578,-0.2438809885
396.025,-5.518665294,7.397418275,1.888666842,-0.6151169646,-2.990630658
396.0255,-7.044637333,9.533779129,2.804250065,-0.6151169646,-6.042574735
396.026,-7.044637333,10.44936235,4.025027696,-0.3099225569,-7.568546773
396.0265,-3.077110033,8.313001498,4.025027696,1.216049482,-7.263352366
396.027,1.806000491,6.481835052,1.888666842,3.962799151,-5.126991512
396.0275,3.637166937,6.481835052,-0.5528884197,5.793965597,-1.769853027
396.028,2.721583714,8.00780709,-1.773666051,6.099160005,1.587285458
396.0285,1.195611675,8.618195906,-1.773666051,5.488771189,4.334035127
396.029,-0.9407491788,8.313001498,-1.468471643,4.878382374,5.860007166
396.0295,-4.908276479,8.313001498,-1.163277235,4.878382374,7.691173612
396.03,-7.960220556,8.618195906,-0.5528884197,6.099160005,8.606756835
396.0305,-8.875803779,9.228584721,0.05750039565,6.404354412,7.385979204
396.031,-9.486192594,8.923390313,0.05750039565,4.878382374,4.944423942
396.0315,-12.53813667,8.618195906,0.6678892111,2.74202152,4.028840719
396.032,-14.67449753,9.533779129,2.19386125,2.74202152,5.554812758
396.0325,-12.23294226,9.838973536,3.109444473,4.573187966,5.860007166
396.033,-5.823859702,8.618195906,2.499055657,5.183576782,3.113257496
396.0335,-0.6355547711,6.481835052,1.278278026,3.657604743,-0.8542698039
396.034,0.8904172674,5.566251829,0.9730836188,2.131632705,-3.601019473
396.0345,1.500806083,6.176640644,1.583472434,2.436827112,-3.906213881
396.035,1.806000491,6.176640644,2.19386125,3.047215928,-2.990630658
396.0355,0.8904172674,4.345474198,2.499055657,2.436827112,-1.464658619
396.036,-0.02516595566,1.598724528,1.888666842,1.826438297,-0.5490753962
396.0365,1.500806083,0.3779468977,1.583472434,2.436827112,-0.5490753962
396.037,4.857944568,1.293530121,1.888666842,2.74202152,-1.464658619
396.0375,6.078722198,1.903918936,2.804250065,1.826438297,-1.769853027
396.038,6.078722198,0.9883357131,3.109444473,0.9108550739,-1.159464212
396.0385,7.909888645,-0.2324419177,3.109444473,1.216049482,-2.075047435
396.039,12.79299917,-1.453219549,2.804250065,1.826438297,-4.516602696
396.0395,17.06572088,-2.368802772,2.499055657,1.826438297,-6.65296355
396.04,17.06572088,-2.673997179,1.583472434,1.216049482,-6.347769142
396.0405,14.92936002,-1.758413956,0.3626948034,1.521243889,-4.211408289
396.041,14.31897121,-0.2324419177,0.05750039565,1.216049482,-3.295825065
396.0415,14.31897121,0.9883357131,0.05750039565,-0.004728149245,-4.516602696
396.042,12.48780476,0.9883357131,-0.247694012,-1.530700188,-5.126991512
396.0425,8.825471868,0.3779468977,-1.773666051,-2.751477819,-4.211408289
396.043,5.163138975,0.6831413054,-2.384054866,-3.667061042,-2.68543625
396.0435,1.195611675,1.598724528,-1.163277235,-3.972255449,-1.159464212
396.044,-3.687498848,1.598724528,0.3626948034,-2.751477819,-0.2438809885
396.0445,-9.791387002,1.293530121,0.9730836188,-0.3099225569,0.06131341924
396.045,-13.45371989,2.819502159,0.05750039565,-0.004728149245,0.06131341924
396.0455,-12.53813667,6.176640644,-0.247694012,-2.141089003,-0.2438809885
396.046,-10.09658141,8.00780709,0.05750039565,-4.887838672,0.06131341924
396.0465,-10.09658141,6.481835052,0.3626948034,-5.19303308,3.113257496
396.047,-13.14852549,1.903918936,0.6678892111,-3.056672226,7.996368019
396.0475,-16.81085838,-1.453219549,1.583472434,-1.22550578,13.18467295
396.048,-19.25241364,-2.673997179,2.19386125,-0.3099225569,17.15220025
396.0485,-18.64202483,-2.063608364,1.583472434,0.9108550739,17.45739466
396.049,-14.67449753,-1.148025141,0.9730836188,3.047215928,13.79506177
396.0495,-7.655026148,-1.148025141,0.3626948034,4.267993559,7.691173612
396.05,-0.02516595566,-2.063608364,0.05750039565,4.267993559,2.808063089
396.0505,2.721583714,-2.979191587,-0.8580828275,4.267993559,1.892479865
396.051,-1.245943586,-4.199969218,-2.078860458,4.573187966,3.723646312
396.0515,-9.791387002,-4.810358033,-3.299638089,4.573187966,4.944423942
396.052,-17.7264416,-5.725941256,-4.52041572,4.878382374,2.502868681
396.0525,-22.60955213,-7.251913295,-4.825610128,4.573187966,-0.8542698039
396.053,-24.74591298,-8.167496518,-3.299638089,2.436827112,-3.295825065
396.0535,-22.91474653,-8.167496518,-0.247694012,-0.9203113723,-2.990630658
396.054,-17.42124719,-6.031135664,1.888666842,-3.667061042,-2.380241842
396.0545,-11.92774786,-3.284385995,3.109444473,-3.972255449,-2.68543625
396.055,-9.486192594,-1.453219549,4.330222103,-3.056672226,-3.295825065
396.0555,-7.044637333,-1.148025141,4.940610919,-3.056672226,-3.295825065
396.056,-0.02516595566,-1.148025141,3.41463888,-2.751477819,-5.737380327
396.0565,10.96183272,-0.2324419177,-0.247694012,0.3004662585,-11.23087967
396.057,17.9813041,0.9883357131,-3.299638089,5.183576782,-16.11399019
396.0575,17.9813041,0.9883357131,-2.078860458,8.235520859,-14.89321256
396.058,14.62416561,-0.2324419177,0.05750039565,7.625132043,-8.484129996
396.0585,11.57222154,-0.2324419177,0.3626948034,6.099160005,-2.380241842
396.059,7.604694237,1.598724528,0.05750039565,4.878382374,0.6717022346
396.0595,1.500806083,2.514307752,2.19386125,3.352410335,4.334035127
396.06,-0.6355547711,0.6831413054,4.330222103,1.521243889,9.21714565
396.0605,4.857944568,-2.063608364,2.499055657,0.9108550739,11.96389532
396.061,14.62416561,-2.979191587,-3.299638089,3.047215928,9.827534466
396.0615,18.28649851,-2.673997179,-7.572359797,5.183576782,5.860007166
396.062,12.48780476,-2.063608364,-6.351582166,4.878382374,3.113257496
396.0625,4.857944568,-1.758413956,-1.773666051,3.352410335,0.6717022346
396.063,3.026778121,-0.8428307331,0.6678892111,2.131632705,-4.516602696
396.0635,5.773527791,-0.2324419177,0.05750039565,0.9108550739,-11.53607407
396.064,5.163138975,-0.5376363254,-1.468471643,-1.22550578,-16.4191846
396.0645,-2.771915625,-1.148025141,-2.078860458,-4.887838672,-18.25035104
396.065,-14.36930312,-0.2324419177,-0.247694012,-8.244977157,-18.55554545
396.0655,-23.21994094,1.903918936,2.804250065,-9.770949196,-18.86073986
396.066,-25.6614962,2.514307752,5.550999734,-9.770949196,-18.86073986
396.0665,-23.83032976,1.903918936,6.466582957,-8.550171565,-19.77632308
396.067,-20.77838568,2.209113344,5.550999734,-7.939782749,-22.21787834
396.0675,-16.81085838,3.735085382,2.804250065,-7.329393934,-25.88021124
396.068,-11.92774786,4.345474198,0.05750039565,-6.108616303,-29.23734972
396.0685,-7.044637333,3.735085382,-1.773666051,-3.056672226,-31.37371057
396.069,-2.16152681,3.429890975,-2.384054866,1.216049482,-31.98409939
396.0695,5.163138975,3.124696567,-2.689249274,4.878382374,-28.6269609
396.07,16.45533206,0.6831413054,-4.215221312,5.793965597,-19.16593427
396.0705,28.35791396,-3.89477481,-5.435998943,5.488771189,-6.042574735
396.071,33.54621889,-7.557107703,-4.825610128,5.183576782,7.080784796
396.0715,28.66310837,-8.167496518,-3.910026904,6.70954882,19.2885611
396.072,18.59169291,-8.472690926,-5.130804535,8.235520859,29.35997656
396.0725,9.435860683,-9.998662964,-7.572359797,7.625132043,33.63269827
396.073,3.942361344,-10.30385737,-6.656776574,5.183576782,29.97036537
396.0735,1.500806083,-6.946718887,-1.163277235,1.826438297,20.81453314
396.074,1.806000491,-2.063608364,3.719833288,-0.004728149245,12.26908973
396.0745,4.55275016,0.07275248999,4.330222103,0.9108550739,7.996368019
396.075,8.825471868,-0.5376363254,1.583472434,2.436827112,5.554812758
396.0755,10.35144391,-2.063608364,-0.247694012,2.74202152,3.418451904
396.076,7.604694237,-1.453219549,0.3626948034,1.826438297,1.587285458
396.0765,1.500806083,-0.2324419177,2.804250065,1.521243889,0.9768966423
396.077,-4.603082071,0.07275248999,4.330222103,2.436827112,1.28209105
396.0775,-7.655026148,0.07275248999,4.330222103,3.047215928,2.197674273
396.078,-5.213470887,0.07275248999,1.888666842,0.9108550739,2.808063089
396.0785,0.280028452,0.07275248999,-0.5528884197,-3.056672226,1.892479865
396.079,6.689111014,-0.2324419177,-0.8580828275,-6.413810711,-0.2438809885
396.0795,10.35144391,-0.8428307331,0.05750039565,-6.413810711,-1.464658619
396.08,11.26702713,-2.063608364,0.05750039565,-4.582644265,0.9768966423
396.0805,10.96183272,-3.589580402,-0.8580828275,-2.751477819,6.165201573
396.081,10.35144391,-4.505163626,-1.773666051,-2.751477819,10.43792328
396.0815,9.435860683,-5.115552441,-0.5528884197,-3.972255449,12.57428413
396.082,8.825471868,-5.420746849,0.05750039565,-4.887838672,13.48986736
396.0825,9.130666275,-5.420746849,-2.078860458,-5.19303308,14.40545058
396.083,9.130666275,-5.115552441,-3.910026904,-5.498227488,14.10025617
396.0835,7.604694237,-4.199969218,-3.299638089,-5.803421896,12.57428413
396.084,3.942361344,-3.284385995,-1.468471643,-5.498227488,11.3535065
396.0845,-0.02516595566,-2.673997179,-1.773666051,-5.498227488,10.13272887
396.085,-2.16152681,-1.453219549,-3.604832497,-5.803421896,6.165201573
396.0855,-3.687498848,0.6831413054,-2.689249274,-6.719005119,0.06131341924
396.086,-5.823859702,2.209113344,0.05750039565,-7.329393934,-3.295825065
396.0865,-9.791387002,1.598724528,1.583472434,-6.719005119,-2.075047435
396.087,-14.97969193,-0.2324419177,0.05750039565,-5.19303308,0.9768966423
396.0875,-18.94721923,-1.453219549,-1.468471643,-3.361866634,2.502868681
396.088,-21.99916331,-1.758413956,-2.078860458,-2.751477819,2.197674273
396.0885,-23.52513535,-2.368802772,-2.078860458,-1.835894595,4.334035127
396.089,-22.60955213,-3.284385995,-2.384054866,-1.22550578,9.21714565
396.0895,-18.33683042,-2.979191587,-2.994443681,-0.9203113723,12.87947854
396.09,-12.84333108,-2.673997179,-2.384054866,-2.141089003,13.48986736
396.0905,-8.570609371,-3.589580402,-1.773666051,-3.667061042,12.87947854
396.091,-6.434248517,-5.725941256,-2.689249274,-3.972255449,12.87947854
396.0915,-4.297887663,-6.641524479,-3.910026904,-3.056672226,11.96389532
396.092,-1.245943586,-5.115552441,-3.910026904,-3.056672226,7.385979204
396.0925,1.806000491,-2.979191587,-2.078860458,-3.667061042,-0.2438809885
396.093,4.247555752,-1.148025141,0.05750039565,-4.582644265,-8.178935589
396.0935,4.247555752,-0.2324419177,0.3626948034,-4.582644265,-12.7568517
396.094,2.721583714,0.6831413054,0.05750039565,-3.361866634,-10.92568526
396.0945,0.8904172674,0.07275248999,-0.8580828275,-0.9203113723,-3.601019473
396.095,-0.3303603634,-1.758413956,-1.163277235,1.216049482,3.723646312
396.0955,-0.02516595566,-2.979191587,-0.8580828275,1.521243889,5.860007166
396.096,1.500806083,-0.8428307331,-0.247694012,-0.004728149245,1.28209105
396.0965,3.331972529,2.514307752,0.05750039565,-1.530700188,-5.432185919
396.097,4.857944568,3.735085382,0.05750039565,-1.835894595,-8.484129996
396.0975,5.773527791,2.514307752,0.3626948034,-0.9203113723,-6.65296355
396.098,6.689111014,1.903918936,2.19386125,-1.22550578,-2.990630658
396.0985,8.215083052,3.735085382,4.635416511,-2.141089003,-2.68543625
396.099,10.0462495,5.871446236,5.550999734,-2.446283411,-7.873741181
396.0995,11.87741594,5.566251829,4.025027696,-1.835894595,-14.58801815
396.1,14.0137768,3.735085382,2.19386125,-0.6151169646,-17.63996223
396.1005,15.53974884,2.819502159,1.583472434,-0.6151169646,-14.89321256
396.101,16.15013765,3.735085382,1.583472434,-1.835894595,-9.704907627
396.1015,15.23455443,5.261057421,1.278278026,-3.361866634,-6.65296355
396.102,11.87741594,5.261057421,0.9730836188,-3.667061042,-6.958157958
396.1025,7.299499829,4.04027979,1.278278026,-2.141089003,-7.263352366
396.103,3.331972529,2.514307752,1.278278026,-0.9203113723,-4.821797104
396.1035,1.500806083,1.903918936,0.6678892111,-0.9203113723,-0.8542698039
396.104,0.5852228597,1.293530121,-0.247694012,-1.835894595,2.808063089
396.1045,-0.3303603634,0.07275248999,-0.247694012,-1.530700188,5.860007166
396.105,-1.551137994,-1.148025141,0.3626948034,-0.004728149245,6.775590389
396.1055,-2.16152681,-1.148025141,1.888666842,1.216049482,5.554812758
396.106,-3.38230444,-0.5376363254,3.109444473,1.826438297,4.639229535
396.1065,-4.908276479,-1.148025141,3.41463888,2.436827112,6.470395981
396.107,-5.213470887,-3.284385995,2.499055657,3.352410335,9.522340058
396.1075,-2.16152681,-3.89477481,-0.247694012,4.267993559,8.606756835
396.108,0.8904172674,-2.063608364,-3.604832497,4.573187966,1.587285458
396.1085,0.8904172674,0.07275248999,-4.825610128,4.573187966,-6.042574735
396.109,-1.856332402,0.3779468977,-3.604832497,4.267993559,-7.568546773
396.1095,-4.603082071,0.07275248999,-1.773666051,3.657604743,-3.601019473
396.11,-4.603082071,0.9883357131,-1.163277235,3.047215928,0.06131341924
396.1105,-3.077110033,2.514307752,-1.468471643,3.352410335,0.3665078269
396.111,-2.466721217,2.514307752,-1.163277235,3.962799151,-0.2438809885
396.1115,-2.771915625,1.293530121,-0.8580828275,3.962799151,-0.2438809885
396.112,-3.38230444,0.3779468977,-0.5528884197,3.657604743,0.06131341924
396.1125,-5.213470887,0.9883357131,-0.5528884197,3.657604743,0.06131341924
396.113,-6.434248517,1.293530121,-0.8580828275,3.657604743,0.6717022346
396.1135,-6.12905411,0.6831413054,-1.468471643,3.962799151,2.502868681
396.114,-5.823859702,0.07275248999,-2.384054866,4.878382374,4.334035127
396.1145,-8.570609371,0.07275248999,-2.689249274,6.70954882,5.860007166
396.115,-13.14852549,0.6831413054,-1.163277235,6.099160005,8.301562427
396.1155,-14.36930312,1.598724528,1.278278026,2.74202152,10.43792328
396.116,-11.31735904,2.209113344,4.330222103,-0.6151169646,9.827534466
396.1165,-8.265414964,3.124696567,7.687360588,-1.530700188,6.165201573
396.117,-7.655026148,3.735085382,11.34969348,-0.3099225569,3.723646312
396.1175,-6.12905411,3.429890975,12.87566552,0.3004662585,5.554812758
396.118,1.500806083,3.429890975,10.73930467,3.352410335,6.165201573
396.1185,11.87741594,3.429890975,5.245805327,9.761492897,0.6717022346
396.119,18.59169291,3.124696567,0.9730836188,14.03421461,-7.873741181
396.1195,19.50727614,1.598724528,-0.247694012,8.540715266,-10.31529644
396.12,18.89688732,-0.8428307331,-0.247694012,-4.582644265,-3.601019473
396.1205,21.03324818,-3.589580402,-0.8580828275,-13.43328209,5.24961835
396.121,25.61116429,-5.115552441,-2.994443681,-10.99172683,9.21714565
396.1215,31.10466363,-5.725941256,-5.741193351,-1.22550578,8.911951243
396.122,35.68257975,-6.641524479,-8.48794302,6.099160005,8.911951243
396.1225,36.29296856,-7.86230211,-11.23469269,8.845909674,10.43792328
396.123,31.40985804,-8.472690926,-13.06585914,9.151104082,10.74311769
396.1235,24.39038666,-8.472690926,-13.67624795,8.235520859,7.385979204
396.124,18.59169291,-8.472690926,-13.37105354,5.793965597,3.418451904
396.1245,14.31897121,-9.083079741,-11.23469269,3.047215928,2.197674273
396.125,9.435860683,-8.472690926,-6.961970981,1.216049482,3.418451904
396.1255,3.942361344,-4.810358033,-1.468471643,-0.3099225569,3.723646312
396.126,-0.02516595566,-0.5376363254,2.19386125,-2.446283411,0.6717022346
396.1265,-2.771915625,0.3779468977,3.109444473,-3.972255449,-2.990630658
396.127,-6.739442925,-0.2324419177,2.804250065,-4.277449857,-3.906213881
396.1275,-12.53813667,-0.2324419177,3.41463888,-4.582644265,-2.075047435
396.128,-16.81085838,0.9883357131,5.550999734,-4.582644265,-1.159464212
396.1285,-17.42124719,1.598724528,7.687360588,-2.141089003,-4.211408289
396.129,-14.67449753,1.903918936,7.687360588,1.826438297,-8.789324404
396.1295,-9.791387002,4.955863013,5.550999734,4.878382374,-12.14646289
396.13,-2.466721217,11.36494557,1.888666842,5.793965597,-15.19840697
396.1305,5.468333383,18.07922254,-2.384054866,7.014743228,-17.94515664
396.131,10.65663831,22.04674984,-5.435998943,10.0666873,-17.63996223
396.1315,8.215083052,23.57272188,-6.046387758,11.28746494,-12.14646289
396.132,-0.02516595566,24.79349951,-4.52041572,8.845909674,-5.432185919
396.1325,-8.875803779,26.62466596,-2.384054866,6.404354412,-2.68543625
396.133,-13.45371989,29.37141563,-0.8580828275,7.319937636,-2.68543625
396.1335,-13.45371989,30.89738767,-0.247694012,9.45629849,0.06131341924
396.134,-10.70697023,25.70908274,-0.5528884197,7.014743228,5.554812758
396.1345,-6.739442925,7.397418275,-1.163277235,-0.004728149245,10.13272887
396.135,-2.771915625,-20.37527283,-2.994443681,-6.719005119,11.3535065
396.1355,-0.02516595566,-45.40121426,-5.130804535,-9.16056038,11.96389532
396.136,1.500806083,-55.47262971,-6.961970981,-7.939782749,13.18467295
396.1365,1.806000491,-49.67393597,-6.656776574,-5.19303308,13.18467295
396.137,3.026778121,-36.55057643,-3.910026904,-2.751477819,11.3535065
396.1375,5.468333383,-23.73241131,0.05750039565,-2.446283411,10.13272887
396.138,8.52027746,-15.79735671,2.804250065,-3.361866634,10.13272887
396.1385,11.87741594,-13.66099586,4.025027696,-3.972255449,8.911951243
396.139,15.23455443,-16.10255112,4.025027696,-3.361866634,6.775590389
396.1395,18.89688732,-17.62852316,3.41463888,-1.530700188,7.080784796
396.14,21.33844258,-13.96619026,2.499055657,-0.004728149245,9.522340058
396.1405,23.16960903,-5.420746849,2.19386125,3.352410335,7.385979204
396.141,25.00077548,2.209113344,1.888666842,7.625132043,-0.5490753962
396.1415,25.30596988,6.481835052,3.109444473,9.151104082,-7.873741181
396.142,19.81247054,8.00780709,5.856194142,7.625132043,-4.821797104
396.1425,8.215083052,9.228584721,7.687360588,4.878382374,5.860007166
396.143,-2.16152681,10.14416794,6.771777365,4.267993559,13.18467295
396.1435,-4.908276479,11.36494557,3.719833288,4.573187966,9.827534466
396.144,-2.16152681,12.89091761,1.583472434,4.267993559,0.06131341924
396.1445,-4.603082071,14.41688965,1.888666842,3.962799151,-5.432185919
396.145,-16.81085838,15.02727847,3.41463888,5.488771189,-2.68543625
396.1455,-31.76538436,14.41688965,4.940610919,7.319937636,4.334035127
396.146,-39.70043896,13.19611202,5.550999734,7.625132043,8.911951243
396.1465,-39.09005014,11.97533439,5.550999734,6.404354412,7.691173612
396.147,-36.03810606,10.14416794,4.635416511,6.099160005,3.418451904
396.1475,-35.12252284,6.787029459,2.19386125,7.014743228,-0.8542698039
396.148,-36.03810606,2.514307752,0.05750039565,7.625132043,-3.906213881
396.1485,-36.03810606,-0.5376363254,-0.247694012,6.404354412,-6.958157958
396.149,-35.12252284,-2.063608364,0.05750039565,4.267993559,-10.92568526
396.1495,-33.2913564,-1.758413956,0.9730836188,0.9108550739,-14.89321256
396.15,-30.84980113,-2.063608364,2.19386125,-3.361866634,-16.724379
396.1505,-27.79785706,-3.89477481,4.330222103,-6.413810711,-15.19840697
396.151,-24.13552416,-6.946718887,5.245805327,-6.108616303,-13.06204611
396.1515,-19.25241364,-9.388274149,4.025027696,-4.582644265,-13.36724052
396.152,-12.53813667,-8.777885333,1.583472434,-4.277449857,-15.80879578
396.1525,-6.12905411,-5.725941256,1.278278026,-4.887838672,-17.33476782
396.153,-3.38230444,-2.673997179,3.41463888,-4.582644265,-14.58801815
396.1535,-3.38230444,-0.5376363254,4.940610919,-3.056672226,-9.704907627
396.154,-1.551137994,0.6831413054,4.025027696,-2.751477819,-6.958157958
396.1545,4.857944568,1.903918936,2.499055657,-3.361866634,-5.737380327
396.155,12.48780476,2.209113344,1.888666842,-2.141089003,-3.295825065
396.1555,16.15013765,0.9883357131,1.583472434,-0.004728149245,0.06131341924
396.156,14.62416561,-0.5376363254,1.278278026,0.3004662585,2.502868681
396.1565,10.96183272,-1.148025141,0.9730836188,-1.22550578,1.28209105
396.157,5.163138975,-0.2324419177,0.3626948034,-1.835894595,-0.5490753962
396.1575,-1.551137994,-0.2324419177,-0.5528884197,0.3004662585,-1.464658619
396.158,-7.044637333,-2.673997179,-1.773666051,1.216049482,-2.380241842
396.1585,-5.823859702,-7.251913295,-1.773666051,-1.530700188,-6.042574735
396.159,1.806000491,-9.693468556,-0.8580828275,-4.887838672,-11.53607407
396.1595,10.65663831,-9.083079741,0.05750039565,-5.19303308,-14.58801815
396.16,15.23455443,-6.641524479,0.05750039565,-3.667061042,-14.58801815
396.1605,16.76052647,-4.810358033,-0.8580828275,-3.972255449,-12.4516573
396.161,17.67610969,-3.589580402,-1.468471643,-5.498227488,-10.01010203
396.1615,17.37091528,-2.979191587,-1.468471643,-5.19303308,-6.347769142
396.162,14.92936002,-2.979191587,-1.468471643,-3.361866634,-1.159464212
396.1625,10.65663831,-3.284385995,-2.384054866,-2.751477819,3.723646312
396.163,6.689111014,-2.979191587,-2.994443681,-4.277449857,5.860007166
396.1635,3.637166937,-1.758413956,-2.994443681,-5.19303308,4.639229535
396.164,0.5852228597,0.07275248999,-1.773666051,-4.887838672,1.892479865
396.1645,-0.6355547711,0.9883357131,-0.5528884197,-4.582644265,1.28209105
396.165,-0.02516595566,0.07275248999,-0.247694012,-5.803421896,3.418451904
396.1655,-0.02516595566,-0.8428307331,-0.247694012,-6.413810711,5.554812758
396.166,-1.856332402,-0.2324419177,-0.5528884197,-6.413810711,5.554812758
396.1665,-4.297887663,0.3779468977,-0.5528884197,-6.413810711,3.723646312
396.167,-4.603082071,-0.2324419177,-0.8580828275,-7.329393934,2.808063089
396.1675,-3.992693256,-0.2324419177,-0.5528884197,-7.634588342,4.334035127
396.168,-5.213470887,3.429890975,0.05750039565,-6.108616303,5.24961835
396.1685,-6.739442925,13.19611202,0.9730836188,-3.972255449,3.418451904
396.169,-4.603082071,22.04674984,0.3626948034,-2.751477819,0.06131341924
396.1695,-0.02516595566,24.1831107,-0.5528884197,-1.835894595,-0.8542698039
396.17,0.8904172674,20.52077781,-0.5528884197,-0.6151169646,0.9768966423
396.1705,-3.077110033,17.77402814,0.05750039565,-0.3099225569,4.028840719
396.171,-8.265414964,17.46883373,0.6678892111,-1.22550578,5.554812758
396.1715,-11.01216463,14.72208406,0.05750039565,-2.751477819,7.080784796
396.172,-12.53813667,8.923390313,0.3626948034,-4.277449857,8.911951243
396.1725,-14.06410871,4.650668606,3.41463888,-5.19303308,8.911951243
396.173,-13.7589143,2.209113344,6.16138855,-4.582644265,5.24961835
396.1735,-7.960220556,-6.946718887,4.025027696,-1.22550578,0.6717022346
396.174,0.280028452,-28.00513302,-1.163277235,3.657604743,-1.159464212
396.1745,7.299499829,-48.14796393,-5.130804535,7.625132043,0.06131341924
396.175,10.35144391,-47.84276952,-3.910026904,8.235520859,3.418451904
396.1755,11.57222154,-26.78435539,-0.8580828275,6.099160005,5.24961835
396.176,13.40338798,-3.284385995,0.05750039565,3.352410335,4.334035127
396.1765,16.45533206,6.481835052,-1.163277235,0.9108550739,0.3665078269
396.177,19.20208173,6.481835052,-1.773666051,-0.3099225569,-3.601019473
396.1775,20.11766495,5.871446236,-0.5528884197,-1.22550578,-5.126991512
396.178,18.28649851,6.787029459,0.05750039565,-2.141089003,-2.990630658
396.1785,15.53974884,6.176640644,-0.247694012,-2.751477819,0.06131341924
396.179,14.0137768,4.650668606,-1.468471643,-3.056672226,1.587285458
396.1795,14.62416561,4.04027979,-1.468471643,-3.056672226,1.28209105
396.18,14.62416561,2.209113344,-1.163277235,-2.141089003,0.9768966423
396.1805,12.79299917,-4.199969218,-0.8580828275,-2.141089003,1.587285458
396.181,9.741055091,-12.74541263,-0.5528884197,-3.056672226,2.502868681
396.1815,8.52027746,-14.88177349,0.05750039565,-3.056672226,2.197674273
396.182,10.35144391,-9.998662964,0.05750039565,-1.530700188,0.6717022346
396.1825,14.0137768,-3.89477481,0.05750039565,0.9108550739,-0.8542698039
396.183,15.53974884,-0.8428307331,-0.5528884197,2.74202152,-1.464658619
396.1835,13.09819358,-0.8428307331,0.05750039565,2.131632705,0.06131341924
396.184,8.825471868,-0.5376363254,1.583472434,-0.004728149245,3.418451904
396.1845,5.468333383,-0.2324419177,2.804250065,-2.141089003,6.470395981
396.185,2.416389306,-0.2324419177,3.719833288,-4.277449857,8.911951243
396.1855,-2.16152681,0.9883357131,4.635416511,-5.19303308,11.65870091
396.186,-9.180998187,3.735085382,4.330222103,-4.887838672,14.71064499
396.1865,-12.84333108,4.650668606,0.6678892111,-3.667061042,14.71064499
396.187,-10.09658141,2.819502159,-3.910026904,-3.056672226,10.74311769
396.1875,-4.603082071,-0.2324419177,-6.046387758,-4.277449857,5.860007166
396.188,-4.297887663,-1.758413956,-4.215221312,-6.108616303,3.113257496
396.1885,-10.70697023,-1.453219549,-1.163277235,-6.413810711,0.9768966423
396.189,-17.42124719,-0.8428307331,-0.247694012,-4.887838672,-3.295825065
396.1895,-18.03163601,-0.8428307331,-1.163277235,-3.056672226,-10.01010203
396.19,-12.84333108,-0.5376363254,-2.384054866,-1.22550578,-14.89321256
396.1905,-8.265414964,-0.2324419177,-2.994443681,1.521243889,-14.58801815
396.191,-8.265414964,0.3779468977,-2.994443681,5.793965597,-11.53607407
396.1915,-9.791387002,0.6831413054,-2.689249274,8.235520859,-9.704907627
396.192,-9.791387002,0.6831413054,-2.689249274,8.235520859,-9.39971322
396.1925,-7.655026148,0.6831413054,-4.215221312,9.151104082,-8.484129996
396.193,-4.603082071,1.903918936,-5.435998943,13.42382579,-5.737380327
396.1935,-1.551137994,4.04027979,-4.215221312,17.6965475,-2.380241842
396.194,1.806000491,6.176640644,-0.8580828275,15.86538105,0.06131341924
396.1945,6.383916606,6.176640644,0.05750039565,7.930326451,1.892479865
396.195,9.435860683,4.650668606,-1.773666051,0.3004662585,4.639229535
396.1955,10.65663831,4.345474198,-4.215221312,-2.446283411,6.775590389
396.196,10.96183272,5.566251829,-3.299638089,-1.835894595,5.554812758
396.1965,11.26702713,5.566251829,-0.247694012,-1.835894595,1.28209105
396.197,8.52027746,3.429890975,1.278278026,-1.530700188,-1.769853027
396.1975,1.195611675,0.6831413054,0.6678892111,0.6056606662,-0.8542698039
396.198,-7.044637333,0.07275248999,0.05750039565,3.962799151,2.502868681
396.1985,-10.40177582,0.6831413054,-0.5528884197,5.183576782,4.334035127
396.199,-7.34983174,0.3779468977,-0.247694012,3.352410335,1.587285458
396.1995,-3.687498848,-0.2324419177,1.583472434,0.3004662585,-4.516602696
396.2,-3.38230444,1.598724528,4.635416511,-1.530700188,-12.7568517
396.2005,-4.297887663,5.261057421,6.466582957,-2.141089003,-20.3867119
396.201,-1.245943586,6.787029459,4.635416511,-0.6151169646,-22.82826716
396.2015,5.163138975,4.04027979,1.278278026,2.436827112,-18.25035104
396.202,9.130666275,0.9883357131,0.05750039565,5.183576782,-9.704907627
396.2025,9.130666275,0.6831413054,1.583472434,4.878382374,-2.68543625
396.203,7.909888645,1.903918936,2.499055657,1.826438297,0.06131341924
396.2035,9.435860683,2.819502159,1.583472434,-0.6151169646,1.28209105
396.204,12.48780476,1.903918936,-0.247694012,-0.9203113723,3.418451904
396.2045,14.92936002,0.9883357131,-1.163277235,-0.3099225569,7.080784796
396.205,14.31897121,-0.2324419177,-0.5528884197,-0.3099225569,12.26908973
396.2055,8.825471868,-0.2324419177,1.278278026,-1.835894595,17.45739466
396.206,1.500806083,0.9883357131,3.719833288,-3.361866634,17.76258907
396.2065,-1.856332402,3.429890975,3.719833288,-3.361866634,9.522340058
396.207,1.500806083,4.650668606,0.3626948034,-0.9203113723,-3.906213881
396.2075,6.078722198,3.429890975,-3.910026904,2.131632705,-13.06204611
396.208,1.195611675,0.9883357131,-5.741193351,5.183576782,-13.06204611
396.2085,-13.14852549,0.07275248999,-4.825610128,5.793965597,-8.178935589
396.209,-25.35630179,0.6831413054,-4.825610128,4.573187966,-7.263352366
396.2095,-25.35630179,0.9883357131,-5.741193351,3.047215928,-10.92568526
396.21,-18.94721923,0.3779468977,-4.825610128,0.9108550739,-13.97762934
396.2105,-16.81085838,0.07275248999,-0.8580828275,-0.6151169646,-13.06204611
396.211,-19.55760805,0.3779468977,2.19386125,-2.141089003,-10.01010203
396.2115,-20.16799686,1.293530121,2.499055657,-2.751477819,-8.484129996
396.212,-15.59008075,3.124696567,2.804250065,-2.751477819,-8.789324404
396.2125,-11.31735904,4.650668606,4.940610919,-2.141089003,-9.094518812
396.213,-10.09658141,5.566251829,6.466582957,-1.22550578,-7.568546773
396.2135,-9.180998187,5.566251829,4.635416511,-0.004728149245,-5.432185919
396.214,-5.518665294,5.261057421,1.888666842,0.9108550739,-5.126991512
396.2145,-0.9407491788,4.955863013,0.9730836188,0.9108550739,-7.568546773
396.215,2.721583714,3.735085382,1.583472434,1.216049482,-9.094518812
396.2155,6.078722198,0.3779468977,0.6678892111,2.74202152,-5.432185919
396.216,9.741055091,-2.673997179,-1.163277235,4.573187966,3.723646312
396.2165,10.96183272,-5.420746849,-2.078860458,5.183576782,14.71064499
396.217,7.299499829,-6.641524479,-1.468471643,3.962799151,22.64569959
396.2175,0.280028452,-6.336330072,-1.773666051,2.131632705,26.9184213
396.218,-4.297887663,-4.199969218,-2.689249274,-0.004728149245,28.13919893
396.2185,-3.992693256,-1.148025141,-1.773666051,-2.446283411,25.08725485
396.219,1.500806083,0.6831413054,0.05750039565,-5.498227488,17.76258907
396.2195,8.825471868,-0.2324419177,0.05750039565,-7.634588342,8.911951243
396.22,13.09819358,-2.063608364,-3.604832497,-8.244977157,3.723646312
396.2205,12.48780476,-3.284385995,-5.741193351,-7.939782749,4.028840719
396.221,8.825471868,-1.758413956,-3.910026904,-7.939782749,5.860007166
396.2215,4.55275016,0.07275248999,-0.8580828275,-7.634588342,5.24961835
396.222,1.806000491,0.6831413054,0.05750039565,-7.329393934,1.587285458
396.2225,1.500806083,0.07275248999,0.05750039565,-7.329393934,-1.769853027
396.223,3.331972529,-0.2324419177,0.9730836188,-7.939782749,-5.432185919
396.2235,4.55275016,0.9883357131,2.19386125,-8.244977157,-8.789324404
396.224,3.026778121,2.819502159,2.499055657,-7.024199526,-11.23087967
396.2245,-1.245943586,4.04027979,2.19386125,-4.887838672,-10.92568526
396.225,-6.739442925,4.650668606,2.19386125,-3.056672226,-9.094518812
396.2255,-12.23294226,7.397418275,2.19386125,-1.835894595,-9.704907627
396.226,-17.42124719,10.75455676,1.278278026,-0.6151169646,-14.58801815
396.2265,-20.77838568,11.67013998,0.3626948034,0.6056606662,-20.3867119
396.227,-21.08358009,9.228584721,-0.247694012,1.521243889,-21.91268394
396.2275,-19.55760805,6.176640644,-0.5528884197,1.216049482,-19.47112867
396.228,-18.94721923,5.566251829,-0.5528884197,1.521243889,-16.724379
396.2285,-19.86280246,6.481835052,0.05750039565,3.047215928,-15.50360137
396.229,-20.16799686,5.261057421,0.6678892111,4.878382374,-15.19840697
396.2295,-18.64202483,2.209113344,0.9730836188,4.878382374,-13.67243493
396.23,-17.11605279,-0.8428307331,0.6678892111,2.74202152,-9.094518812
396.2305,-16.50566397,-3.89477481,0.3626948034,1.216049482,-0.8542698039
396.231,-15.89527516,-7.251913295,0.3626948034,1.216049482,7.080784796
396.2315,-13.7589143,-9.693468556,0.6678892111,1.216049482,11.0483121
396.232,-11.31735904,-11.21944059,1.583472434,-0.3099225569,10.13272887
396.2325,-10.09658141,-12.44021823,2.804250065,-1.835894595,10.13272887
396.233,-8.570609371,-14.57657908,4.635416511,-1.22550578,17.15220025
396.2335,-5.823859702,-15.4921623,4.940610919,-0.004728149245,27.2236157
396.234,-2.16152681,-13.96619026,2.499055657,0.9108550739,31.49633741
396.2345,3.026778121,-11.21944059,-0.5528884197,1.216049482,28.13919893
396.235,10.65663831,-9.998662964,-2.384054866,2.131632705,22.64569959
396.2355,19.81247054,-9.693468556,-2.078860458,3.047215928,19.2885611
396.236,27.44233074,-8.472690926,-0.5528884197,1.826438297,16.84700584
396.2365,31.71505245,-5.420746849,0.05750039565,-0.3099225569,13.48986736
396.237,33.24102448,-2.673997179,0.3626948034,-1.22550578,11.65870091
396.2375,32.02024685,-0.8428307331,0.9730836188,-0.004728149245,13.18467295
396.238,27.13713633,0.3779468977,1.278278026,0.9108550739,15.3210338
396.2385,18.28649851,0.6831413054,1.583472434,1.216049482,15.62622821
396.239,7.299499829,-0.2324419177,0.3626948034,2.436827112,15.93142262
396.2395,-3.38230444,-2.673997179,-1.163277235,5.183576782,18.37297788
396.24,-11.31735904,-3.89477481,-3.299638089,7.625132043,20.20414433
396.2405,-12.53813667,-3.89477481,-4.52041572,7.930326451,18.06778347
396.241,-6.12905411,-4.505163626,-4.825610128,6.404354412,15.0158394
396.2415,2.416389306,-5.115552441,-3.604832497,5.183576782,14.71064499
396.242,6.078722198,-4.505163626,-1.468471643,3.962799151,16.54181144
396.2425,4.247555752,-1.758413956,0.05750039565,3.047215928,15.3210338
396.243,3.026778121,0.9883357131,0.3626948034,1.826438297,9.522340058
396.2435,5.773527791,2.209113344,0.05750039565,0.6056606662,2.808063089
396.244,7.604694237,1.903918936,0.05750039565,-0.3099225569,-0.5490753962
396.2445,4.55275016,1.293530121,1.278278026,-1.22550578,-2.075047435
396.245,0.280028452,0.3779468977,2.499055657,-0.9203113723,-2.68543625
396.2455,-0.6355547711,-0.2324419177,2.19386125,0.3004662585,-3.295825065
396.246,-0.02516595566,0.07275248999,0.9730836188,1.826438297,-3.295825065
396.2465,-1.245943586,0.6831413054,1.278278026,2.436827112,-3.906213881
396.247,-4.908276479,0.3779468977,2.19386125,2.131632705,-4.821797104
396.2475,-6.12905411,0.07275248999,2.19386125,1.521243889,-6.65296355
396.248,-3.687498848,0.3779468977,0.05750039565,1.216049482,-9.094518812
396.2485,-0.9407491788,0.9883357131,-1.163277235,1.216049482,-11.23087967
396.249,-0.9407491788,0.6831413054,-0.5528884197,0.6056606662,-11.23087967
396.2495,-3.992693256,-0.2324419177,0.6678892111,-0.6151169646,-8.178935589
396.25,-7.655026148,-1.148025141,1.278278026,-2.751477819,-3.906213881
396.2505,-11.01216463,-1.148025141,1.888666842,-4.277449857,-1.159464212
396.251,-13.14852549,-0.8428307331,3.41463888,-4.277449857,-0.5490753962
396.2515,-14.36930312,0.3779468977,5.245805327,-3.361866634,0.06131341924
396.252,-14.67449753,2.209113344,5.550999734,-3.361866634,0.06131341924
396.2525,-12.53813667,3.124696567,3.719833288,-3.667061042,-2.075047435
396.253,-6.434248517,2.209113344,1.278278026,-3.056672226,-7.263352366
396.2535,3.026778121,0.3779468977,0.05750039565,-0.3099225569,-11.53607407
396.254,12.79299917,-0.2324419177,0.05750039565,3.047215928,-12.4516573
396.2545,17.06572088,-0.2324419177,0.3626948034,4.573187966,-10.92568526
396.255,14.62416561,0.07275248999,1.278278026,3.047215928,-9.39971322
396.2555,9.130666275,0.3779468977,1.888666842,-0.004728149245,-9.39971322
396.256,5.163138975,1.598724528,1.888666842,-0.9203113723,-8.789324404
396.2565,4.247555752,3.735085382,2.19386125,-0.3099225569,-7.568546773
396.257,5.468333383,4.955863013,3.109444473,0.3004662585,-6.65296355
396.2575,7.604694237,4.345474198,4.330222103,-0.004728149245,-6.042574735
396.258,9.130666275,3.124696567,4.330222103,-1.22550578,-6.042574735
396.2585,9.741055091,2.819502159,3.41463888,-0.3099225569,-5.432185919
396.259,10.65663831,3.429890975,2.499055657,1.826438297,-4.821797104
396.2595,12.79299917,2.209113344,1.583472434,3.657604743,-4.821797104
396.26,15.84494324,0.3779468977,0.3626948034,2.436827112,-5.126991512
396.2605,16.45533206,-0.2324419177,0.05750039565,-1.530700188,-6.042574735
396.261,13.40338798,0.3779468977,0.3626948034,-7.024199526,-7.263352366
396.2615,9.130666275,0.6831413054,0.9730836188,-10.0761436,-8.484129996
396.262,7.604694237,-0.2324419177,0.3626948034,-8.244977157,-9.094518812
396.2625,8.825471868,0.07275248999,0.05750039565,-2.751477819,-8.178935589
396.263,9.130666275,2.819502159,1.278278026,1.826438297,-6.958157958
396.2635,7.299499829,6.787029459,3.109444473,3.352410335,-6.65296355
396.264,6.383916606,8.618195906,1.888666842,3.047215928,-7.263352366
396.2645,8.825471868,8.618195906,-2.384054866,4.573187966,-9.39971322
396.265,12.48780476,8.618195906,-5.741193351,7.930326451,-11.53607407
396.2655,13.40338798,8.618195906,-6.351582166,10.0666873,-11.84126848
396.266,10.0462495,7.702612683,-5.130804535,8.845909674,-9.704907627
396.2665,4.857944568,5.261057421,-3.910026904,6.70954882,-7.568546773
396.267,1.500806083,2.514307752,-1.773666051,5.183576782,-8.178935589
396.2675,-0.02516595566,0.9883357131,0.05750039565,3.657604743,-10.01010203
396.268,-1.551137994,-0.8428307331,0.6678892111,1.521243889,-9.094518812
396.2685,-5.518665294,-3.89477481,0.6678892111,-0.6151169646,-4.211408289
396.269,-11.31735904,-7.557107703,1.278278026,-1.22550578,0.3665078269
396.2695,-17.11605279,-10.30385737,2.19386125,-0.6151169646,1.587285458
396.27,-21.38877449,-11.524635,1.583472434,-0.6151169646,1.28209105
396.2705,-23.21994094,-10.60905178,0.05750039565,-2.141089003,3.418451904
396.271,-23.21994094,-8.167496518,0.9730836188,-4.277449857,8.301562427
396.2715,-22.91474653,-4.810358033,4.940610919,-6.108616303,11.96389532
396.272,-22.30435772,-2.368802772,7.38216618,-6.108616303,12.87947854
396.2725,-19.25241364,-1.453219549,5.245805327,-4.582644265,11.96389532
396.273,-11.01216463,-1.453219549,0.9730836188,-2.141089003,9.21714565
396.2735,1.195611675,-1.148025141,-1.163277235,0.3004662585,4.028840719
396.274,11.26702713,-0.2324419177,-1.163277235,2.436827112,-1.159464212
396.2745,12.79299917,1.293530121,-1.163277235,3.657604743,-2.68543625
396.275,7.909888645,2.209113344,-0.8580828275,3.047215928,-1.159464212
396.2755,3.637166937,2.514307752,0.3626948034,0.9108550739,0.06131341924
396.276,6.078722198,2.514307752,1.888666842,-0.6151169646,-2.380241842
396.2765,12.18261035,3.124696567,1.888666842,-0.004728149245,-6.347769142
396.277,16.45533206,4.345474198,0.05750039565,2.74202152,-9.39971322
396.2775,16.76052647,4.345474198,-1.163277235,4.267993559,-12.4516573
396.278,15.53974884,3.124696567,-2.078860458,3.352410335,-15.19840697
396.2785,14.0137768,2.209113344,-2.689249274,2.436827112,-16.11399019
396.279,11.57222154,1.598724528,-2.689249274,3.047215928,-13.97762934
396.2795,7.299499829,0.6831413054,-2.384054866,3.352410335,-10.31529644
396.28,4.247555752,0.3779468977,-1.773666051,1.826438297,-7.873741181
396.2805,3.942361344,2.514307752,-1.163277235,0.3004662585,-5.432185919
396.281,5.773527791,7.702612683,-0.5528884197,0.9108550739,-1.464658619
396.2815,7.299499829,13.50130643,-0.247694012,2.436827112,2.808063089
396.282,6.994305421,16.55325051,-0.5528884197,2.436827112,6.470395981
396.2825,5.773527791,16.55325051,-2.078860458,0.6056606662,7.996368019
396.283,5.163138975,15.63766728,-3.604832497,-0.004728149245,9.21714565
396.2835,5.163138975,16.55325051,-2.689249274,-0.004728149245,11.65870091
396.284,5.163138975,20.2155834,0.05750039565,-0.3099225569,14.40545058
396.2845,4.857944568,23.57272188,1.583472434,-1.835894595,15.0158394
396.285,4.55275016,18.07922254,0.6678892111,-3.056672226,11.96389532
396.2855,3.942361344,-2.673997179,-1.163277235,-3.056672226,7.691173612
396.286,1.195611675,-32.58304913,-2.689249274,-2.446283411,6.470395981
396.2865,-5.518665294,-52.72588004,-2.689249274,-1.22550578,7.996368019
396.287,-13.7589143,-51.50510241,-2.384054866,0.9108550739,8.301562427
396.2875,-18.03163601,-35.3297988,-2.689249274,3.352410335,4.028840719
396.288,-16.20046956,-20.07007842,-3.299638089,3.962799151,-3.601019473
396.2885,-12.53813667,-12.44021823,-3.604832497,3.352410335,-11.53607407
396.289,-12.84333108,-8.777885333,-2.994443681,2.74202152,-17.94515664
396.2895,-17.11605279,-6.031135664,-2.078860458,1.826438297,-21.60748953
396.29,-21.38877449,-4.810358033,-0.8580828275,-0.004728149245,-21.91268394
396.2905,-23.83032976,-5.725941256,-0.5528884197,-0.6151169646,-18.86073986
396.291,-25.35630179,-6.641524479,-0.8580828275,0.3004662585,-15.19840697
396.2915,-26.88227383,-6.336330072,-1.468471643,2.436827112,-13.06204611
396.292,-26.57707943,-5.420746849,-1.468471643,2.131632705,-10.31529644
396.2925,-23.21994094,-4.505163626,-1.163277235,-0.004728149245,-6.347769142
396.293,-18.03163601,-2.673997179,-1.468471643,-1.835894595,-2.990630658
396.2935,-13.14852549,-1.453219549,-1.773666051,-2.141089003,-2.075047435
396.294,-8.570609371,-2.063608364,-1.468471643,-3.667061042,-1.464658619
396.2945,-4.908276479,-2.673997179,-0.247694012,-5.498227488,-0.2438809885
396.295,-2.16152681,-1.148025141,0.05750039565,-3.667061042,-0.5490753962
396.2955,1.500806083,0.6831413054,-1.163277235,0.6056606662,-3.295825065
396.296,9.130666275,0.07275248999,-2.384054866,0.6056606662,-3.906213881
396.2965,19.20208173,-2.063608364,-2.689249274,-6.719005119,1.28209105
396.297,27.13713633,-0.8428307331,-3.299638089,-14.95925413,8.301562427
396.2975,28.96830278,3.124696567,-4.52041572,-14.34886531,10.13272887
396.298,26.52674751,5.871446236,-5.130804535,-7.024199526,7.691173612
396.2985,22.55922021,6.481835052,-4.215221312,-1.22550578,7.996368019
396.299,19.20208173,8.923390313,-2.689249274,-0.9203113723,11.96389532
396.2995,17.06572088,14.41688965,-1.773666051,-3.667061042,15.0158394
396.3,15.53974884,16.85844491,-1.468471643,-5.19303308,15.62622821
396.3005,13.40338798,12.89091761,-1.163277235,-6.719005119,17.15220025
396.301,9.130666275,5.261057421,0.05750039565,-8.244977157,19.2885611
396.3015,4.857944568,-0.2324419177,0.6678892111,-8.855365973,16.84700584
396.302,3.942361344,-3.284385995,1.278278026,-8.244977157,10.74311769
396.3025,4.55275016,-6.946718887,0.6678892111,-7.024199526,9.21714565
396.303,2.721583714,-11.82982941,-0.8580828275,-4.887838672,17.76258907
396.3035,-2.16152681,-15.79735671,-2.994443681,-0.9203113723,28.44439334
396.304,-7.34983174,-17.01813434,-3.299638089,2.436827112,31.49633741
396.3045,-9.180998187,-15.1869679,-2.384054866,3.657604743,26.9184213
396.305,-9.180998187,-11.524635,-2.078860458,2.74202152,21.11972755
396.3055,-10.70697023,-6.946718887,-2.689249274,2.131632705,17.45739466
396.306,-14.06410871,-4.199969218,-2.994443681,1.826438297,13.48986736
396.3065,-16.50566397,-2.979191587,-1.468471643,-0.9203113723,9.21714565
396.307,-16.50566397,-2.063608364,0.05750039565,-6.719005119,7.691173612
396.3075,-16.81085838,-1.148025141,0.3626948034,-9.770949196,9.827534466
396.308,-20.16799686,-0.5376363254,1.583472434,-7.939782749,11.96389532
396.3085,-25.35630179,0.07275248999,4.635416511,-4.582644265,10.13272887
396.309,-26.88227383,1.598724528,7.38216618,-3.972255449,4.334035127
396.3095,-22.91474653,3.124696567,6.771777365,-5.498227488,-3.295825065
396.31,-14.97969193,2.819502159,2.499055657,-5.19303308,-9.704907627
396.3105,-7.960220556,1.293530121,-1.163277235,-2.446283411,-10.92568526
396.311,-5.213470887,0.07275248999,-2.384054866,-0.3099225569,-4.821797104
396.3115,-4.908276479,0.07275248999,-1.468471643,-0.9203113723,4.639229535
396.312,-4.297887663,0.9883357131,-0.5528884197,-2.751477819,12.26908973
396.3125,-1.551137994,2.209113344,0.05750039565,-4.277449857,13.48986736
396.313,1.195611675,4.650668606,0.9730836188,-4.887838672,11.0483121
396.3135,3.331972529,7.397418275,3.109444473,-5.498227488,8.606756835
396.314,4.55275016,9.533779129,4.940610919,-6.108616303,7.080784796
396.3145,6.689111014,10.75455676,5.245805327,-6.719005119,4.028840719
396.315,10.96183272,11.67013998,4.330222103,-7.634588342,-0.8542698039
396.3155,15.23455443,11.67013998,2.804250065,-7.634588342,-6.958157958
396.316,18.28649851,9.228584721,1.583472434,-5.498227488,-11.23087967
396.3165,18.59169291,5.566251829,1.278278026,-2.141089003,-11.84126848
396.317,17.37091528,2.514307752,2.499055657,-0.004728149245,-8.789324404
396.3175,14.31897121,1.598724528,3.41463888,0.6056606662,-2.68543625
396.318,11.87741594,1.293530121,2.804250065,0.3004662585,2.502868681
396.3185,11.57222154,1.293530121,1.278278026,0.9108550739,3.113257496
396.319,13.09819358,1.903918936,1.278278026,2.131632705,-0.8542698039
396.3195,11.87741594,2.514307752,3.719833288,2.131632705,-4.516602696
396.32,4.55275016,1.903918936,5.550999734,0.9108550739,-2.990630658
396.3205,-5.213470887,0.07275248999,3.41463888,0.6056606662,2.197674273
396.321,-10.70697023,-0.8428307331,-1.163277235,3.047215928,4.944423942
396.3215,-8.875803779,-0.8428307331,-5.130804535,6.099160005,2.197674273
396.322,-5.213470887,-1.148025141,-4.52041572,6.70954882,-2.68543625
396.3225,-4.908276479,-2.063608364,-1.468471643,3.962799151,-4.821797104
396.323,-7.044637333,-2.368802772,0.6678892111,0.3004662585,-3.906213881
396.3235,-7.34983174,-1.453219549,0.6678892111,-0.004728149245,-3.601019473
396.324,-3.077110033,-0.8428307331,-2.994443681,2.436827112,-5.432185919
396.3245,4.247555752,-2.063608364,-8.793137428,3.657604743,-7.873741181
396.325,10.96183272,-4.199969218,-12.76066473,0.6056606662,-7.873741181
396.3255,12.79299917,-4.505163626,-11.5398871,-3.972255449,-6.042574735
396.326,8.215083052,-3.89477481,-7.572359797,-6.108616303,-2.990630658
396.3265,-0.02516595566,-4.505163626,-4.215221312,-3.667061042,-0.2438809885
396.327,-6.739442925,-5.115552441,-2.689249274,-0.004728149245,2.808063089
396.3275,-10.70697023,-4.505163626,-0.8580828275,2.436827112,5.554812758
396.328,-12.53813667,-2.673997179,0.3626948034,2.436827112,6.470395981
396.3285,-12.53813667,-2.368802772,0.05750039565,0.9108550739,4.944423942
396.329,-11.92774786,-2.979191587,-0.5528884197,-0.9203113723,2.502868681
396.3295,-13.7589143,-2.979191587,1.888666842,-3.361866634,3.723646312
396.33,-19.55760805,-1.758413956,7.687360588,-4.887838672,8.911951243
396.3305,-23.52513535,-1.148025141,10.43411026,-4.582644265,12.26908973
396.331,-18.94721923,-1.453219549,6.771777365,-2.446283411,8.301562427
396.3315,-7.655026148,-1.148025141,0.3626948034,-0.004728149245,-1.159464212
396.332,0.8904172674,-0.2324419177,-3.299638089,1.826438297,-9.094518812
396.3325,2.416389306,-0.2324419177,-3.910026904,3.962799151,-9.704907627
396.333,1.500806083,-2.368802772,-3.299638089,5.488771189,-6.347769142
396.3335,2.111194898,-3.284385995,-1.468471643,4.878382374,-4.821797104
396.334,2.721583714,-1.758413956,0.9730836188,3.047215928,-6.347769142
396.3345,1.195611675,0.07275248999,3.41463888,0.9108550739,-7.568546773
396.335,-0.9407491788,0.07275248999,4.635416511,0.6056606662,-5.432185919
396.3355,-1.856332402,-0.5376363254,5.856194142,0.9108550739,-1.464658619
396.336,-1.245943586,-0.5376363254,7.687360588,1.216049482,0.9768966423
396.3365,0.8904172674,0.6831413054,6.771777365,1.521243889,1.28209105
396.337,6.689111014,0.9883357131,2.499055657,3.047215928,-2.075047435
396.3375,14.92936002,-0.2324419177,-1.773666051,4.878382374,-7.873741181
396.338,19.81247054,-1.453219549,-2.994443681,5.488771189,-11.53607407
396.3385,18.59169291,-2.368802772,-1.163277235,5.488771189,-10.31529644
396.339,14.62416561,-2.368802772,0.3626948034,5.793965597,-5.737380327
396.3395,12.79299917,-2.063608364,0.9730836188,5.793965597,-2.380241842
396.34,12.18261035,-1.453219549,1.278278026,3.657604743,-1.769853027
396.3405,10.65663831,0.3779468977,2.499055657,-0.004728149245,-3.295825065
396.341,10.35144391,2.209113344,2.499055657,-2.141089003,-7.568546773
396.3415,16.76052647,1.598724528,0.05750039565,-0.004728149245,-14.28282374
396.342,32.02024685,-1.453219549,-4.215221312,6.70954882,-18.55554545
396.3425,48.50074487,-5.115552441,-6.656776574,13.11863138,-13.36724052
396.343,56.43579947,-5.725941256,-5.130804535,15.56018664,-0.8542698039
396.3435,50.63710572,-3.589580402,-1.468471643,13.42382579,9.21714565
396.344,37.51374619,-1.758413956,0.3626948034,9.45629849,10.74311769
396.3445,27.44233074,-2.673997179,-0.8580828275,6.404354412,8.911951243
396.345,23.77999785,-4.505163626,-3.604832497,5.488771189,13.48986736
396.3455,20.11766495,-6.031135664,-3.299638089,6.404354412,25.39244926
396.346,10.96183272,-7.557107703,-0.8580828275,7.014743228,35.46386471
396.3465,-0.3303603634,-8.472690926,0.05750039565,6.404354412,36.07425353
396.347,-4.297887663,-7.86230211,-1.468471643,5.488771189,26.61322689
396.3475,1.195611675,-5.725941256,-2.689249274,4.878382374,11.3535065
396.348,9.741055091,-4.505163626,-2.078860458,3.657604743,-3.601019473
396.3485,12.18261035,-5.115552441,-0.8580828275,2.131632705,-14.89321256
396.349,6.994305421,-4.810358033,0.05750039565,0.6056606662,-20.08151749
396.3495,-1.856332402,-2.368802772,1.278278026,0.3004662585,-21.60748953
396.35,-11.92774786,-0.8428307331,2.804250065,2.436827112,-23.74385038
396.3505,-21.6939689,-2.368802772,2.19386125,6.70954882,-27.10098887
396.351,-29.93421791,-2.979191587,0.05750039565,10.0666873,-30.45812735
396.3515,-35.12252284,0.3779468977,-1.773666051,10.67707612,-32.5944882
396.352,-37.86927251,5.871446236,-0.5528884197,8.540715266,-33.20487702
396.3525,-39.09005014,8.00780709,2.19386125,5.793965597,-29.84773854
396.353,-40.00563336,7.397418275,5.245805327,3.962799151,-21.30229512
396.3535,-37.86927251,9.228584721,8.908138219,2.74202152,-10.62049085
396.354,-31.46018995,14.41688965,12.57047111,0.6056606662,-5.432185919
396.3545,-22.60955213,17.16363932,13.18085993,-0.6151169646,-8.484129996
396.355,-14.97969193,15.33247288,10.73930467,-0.004728149245,-13.97762934
396.3555,-11.62255345,11.36494557,7.38216618,2.74202152,-16.11399019
396.356,-11.62255345,8.923390313,6.16138855,6.099160005,-14.89321256
396.3565,-11.92774786,8.00780709,6.16138855,8.540715266,-14.58801815
396.357,-10.70697023,7.397418275,4.940610919,9.45629849,-17.33476782
396.3575,-8.265414964,7.092223867,1.888666842,9.45629849,-20.08151749
396.358,-5.213470887,6.176640644,-1.163277235,8.235520859,-19.47112867
396.3585,-2.466721217,4.04027979,-2.689249274,6.404354412,-16.11399019
396.359,-1.856332402,0.6831413054,-2.994443681,4.573187966,-12.14646289
396.3595,-3.992693256,-0.8428307331,-2.078860458,4.267993559,-8.789324404
396.36,-6.739442925,-0.5376363254,-0.8580828275,4.267993559,-6.347769142
396.3605,-7.960220556,-0.2324419177,0.05750039565,3.657604743,-3.906213881
396.361,-7.960220556,-0.2324419177,0.9730836188,2.131632705,-0.8542698039
396.3615,-7.34983174,-0.2324419177,1.278278026,-0.004728149245,2.197674273
396.362,-4.908276479,0.07275248999,1.278278026,-2.446283411,3.418451904
396.3625,0.280028452,-0.2324419177,0.3626948034,-3.972255449,0.9768966423
396.363,6.689111014,-1.758413956,0.05750039565,-4.582644265,-2.990630658
396.3635,10.65663831,-1.148025141,-0.5528884197,-3.972255449,-5.737380327
396.364,12.18261035,0.6831413054,-0.5528884197,-3.056672226,-5.432185919
396.3645,12.48780476,1.903918936,-0.8580828275,-2.141089003,-2.380241842
396.365,13.09819358,0.9883357131,-1.773666051,-1.835894595,0.6717022346
396.3655,12.48780476,0.07275248999,-2.078860458,-3.056672226,3.723646312
396.366,11.26702713,0.07275248999,-1.163277235,-4.582644265,7.080784796
396.3665,9.741055091,0.07275248999,-0.247694012,-5.498227488,9.827534466
396.367,8.215083052,0.07275248999,0.05750039565,-5.803421896,10.74311769
396.3675,5.468333383,0.9883357131,-0.247694012,-5.498227488,9.522340058
396.368,2.111194898,2.209113344,-0.5528884197,-4.887838672,8.911951243
396.3685,-0.6355547711,1.598724528,-0.5528884197,-3.972255449,12.26908973
396.369,-4.603082071,-0.5376363254,-0.5528884197,-2.446283411,19.59375551
396.3695,-10.70697023,-2.368802772,-0.5528884197,-1.530700188,26.30803248
396.37,-16.20046956,-2.063608364,-0.247694012,-1.22550578,28.44439334
396.3705,-17.7264416,-1.453219549,-0.247694012,-1.22550578,26.30803248
396.371,-14.36930312,-1.453219549,-0.5528884197,-1.835894595,22.34050518
396.3715,-11.01216463,-0.5376363254,0.05750039565,-3.361866634,18.37297788
396.372,-12.23294226,0.3779468977,0.9730836188,-4.582644265,14.40545058
396.3725,-14.67449753,-0.2324419177,1.583472434,-5.498227488,11.65870091
396.373,-14.36930312,-2.063608364,1.888666842,-5.498227488,11.3535065
396.3735,-10.70697023,-2.673997179,2.499055657,-6.413810711,12.57428413
396.374,-7.044637333,-0.8428307331,3.719833288,-7.024199526,11.65870091
396.3745,-5.518665294,0.6831413054,4.940610919,-6.719005119,8.911951243
396.375,-4.297887663,0.3779468977,5.550999734,-5.803421896,6.165201573
396.3755,-2.466721217,-0.8428307331,4.940610919,-6.108616303,5.24961835
396.376,-0.6355547711,-1.453219549,3.41463888,-7.939782749,5.24961835
396.3765,-0.6355547711,-2.063608364,2.804250065,-8.855365973,4.639229535
396.377,-0.6355547711,-2.368802772,3.109444473,-7.634588342,3.418451904
396.3775,1.195611675,-2.063608364,3.41463888,-5.803421896,2.197674273
396.378,4.857944568,-1.148025141,3.41463888,-6.108616303,1.892479865
396.3785,8.52027746,1.598724528,2.804250065,-7.024199526,2.808063089
396.379,12.79299917,8.313001498,2.804250065,-6.719005119,5.554812758
396.3795,18.28649851,16.55325051,2.804250065,-4.887838672,8.606756835
396.38,24.08519225,20.82597221,1.888666842,-3.361866634,8.911951243
396.3805,25.9163587,19.30000018,-0.247694012,-2.446283411,6.775590389
396.381,21.9488314,18.07922254,-2.689249274,-2.141089003,6.470395981
396.3815,15.23455443,22.04674984,-2.384054866,-1.835894595,9.522340058
396.382,9.435860683,25.09869392,-0.247694012,-2.446283411,12.26908973
396.3825,6.078722198,19.60519458,1.278278026,-3.361866634,11.3535065
396.383,6.078722198,11.05975117,1.278278026,-3.361866634,8.301562427
396.3835,9.130666275,8.00780709,0.9730836188,-2.446283411,6.775590389
396.384,12.48780476,4.04027979,1.583472434,-1.835894595,7.996368019
396.3845,12.48780476,-14.88177349,1.278278026,-1.835894595,10.74311769
396.385,8.52027746,-44.79082544,-0.8580828275,-2.141089003,12.26908973
396.3855,4.55275016,-60.05054583,-3.604832497,-2.446283411,12.87947854
396.386,4.247555752,-47.53757511,-4.52041572,-2.751477819,12.87947854
396.3865,7.909888645,-25.56357776,-3.604832497,-2.141089003,13.48986736
396.387,12.79299917,-17.93371756,-3.604832497,-1.22550578,14.71064499
396.3875,15.53974884,-24.34280013,-4.215221312,-0.6151169646,14.10025617
396.388,13.70858239,-27.3947442,-3.604832497,-1.22550578,9.827534466
396.3885,7.604694237,-21.90124486,-1.773666051,-1.530700188,3.723646312
396.389,-0.3303603634,-17.01813434,-0.5528884197,-0.004728149245,0.06131341924
396.3895,-6.12905411,-17.32332875,-0.5528884197,1.826438297,0.06131341924
396.39,-7.655026148,-17.32332875,-1.773666051,2.74202152,2.197674273
396.3905,-6.739442925,-13.96619026,-3.299638089,2.74202152,2.808063089
396.391,-6.434248517,-10.91424619,-4.52041572,2.436827112,0.3665078269
396.3915,-6.434248517,-9.998662964,-4.825610128,2.131632705,-2.68543625
396.392,-6.434248517,-8.167496518,-3.604832497,0.9108550739,-4.821797104
396.3925,-7.34983174,-4.810358033,-2.689249274,-0.9203113723,-3.906213881
396.393,-11.01216463,-2.673997179,-3.604832497,-2.446283411,-0.2438809885
396.3935,-16.50566397,-1.453219549,-4.825610128,-3.361866634,2.502868681
396.394,-18.94721923,1.293530121,-2.689249274,-3.667061042,1.892479865
396.3945,-17.42124719,5.871446236,1.278278026,-3.972255449,-0.2438809885
396.395,-15.59008075,7.092223867,5.245805327,-3.972255449,-1.159464212
396.3955,-15.28488634,4.345474198,6.16138855,-3.361866634,-1.159464212
396.396,-13.14852549,1.903918936,3.719833288,-1.835894595,-3.295825065
396.3965,-3.992693256,4.04027979,-0.247694012,0.6056606662,-8.484129996
396.397,8.52027746,8.618195906,-4.215221312,4.267993559,-13.67243493
396.3975,17.06572088,11.36494557,-5.435998943,7.014743228,-15.50360137
396.398,16.15013765,11.67013998,-3.604832497,6.70954882,-14.89321256
396.3985,11.87741594,9.533779129,-1.163277235,3.657604743,-12.7568517
396.399,12.18261035,7.702612683,-0.5528884197,-0.004728149245,-8.484129996
396.3995,17.06572088,8.313001498,-1.468471643,-0.3099225569,-2.380241842
396.4,18.89688732,13.19611202,-1.468471643,1.216049482,2.808063089
396.4005,14.31897121,19.91038899,-0.8580828275,3.352410335,4.028840719
396.401,7.604694237,23.87791629,-0.8580828275,3.047215928,2.197674273
396.4015,4.55275016,24.79349951,-1.468471643,1.216049482,0.3665078269
396.402,2.721583714,23.87791629,-0.8580828275,-0.004728149245,-0.5490753962
396.4025,-1.245943586,22.04674984,0.05750039565,-0.004728149245,-1.769853027
396.403,-6.739442925,21.43636103,0.6678892111,0.3004662585,-3.295825065
396.4035,-9.180998187,23.87791629,1.583472434,-0.004728149245,-4.516602696
396.404,-8.265414964,25.09869392,3.41463888,-0.9203113723,-5.126991512
396.4045,-8.265414964,15.02727847,4.635416511,-0.6151169646,-5.126991512
396.405,-10.70697023,-10.30385737,1.888666842,-0.004728149245,-5.126991512
396.4055,-13.45371989,-38.38174288,-2.384054866,0.3004662585,-5.432185919
396.406,-14.67449753,-48.75835274,-2.994443681,1.521243889,-6.65296355
396.4065,-14.67449753,-36.85577084,0.6678892111,3.047215928,-8.484129996
396.407,-12.23294226,-17.32332875,3.41463888,2.436827112,-9.39971322
396.4075,-6.739442925,-5.725941256,0.3626948034,-2.141089003,-9.094518812
396.408,-0.3303603634,-2.368802772,-3.910026904,-8.550171565,-8.789324404
396.4085,0.8904172674,-1.148025141,-4.52041572,-11.60211564,-8.789324404
396.409,-3.992693256,0.9883357131,-1.773666051,-8.244977157,-8.484129996
396.4095,-9.791387002,2.209113344,-0.247694012,-1.530700188,-8.178935589
396.41,-11.31735904,2.514307752,-1.773666051,2.74202152,-8.789324404
396.4105,-9.180998187,3.429890975,-3.299638089,3.352410335,-10.92568526
396.411,-8.265414964,5.261057421,-2.994443681,2.131632705,-12.14646289
396.4115,-10.09658141,5.566251829,-1.468471643,0.9108550739,-10.31529644
396.412,-10.70697023,4.04027979,-1.163277235,0.3004662585,-6.958157958
396.4125,-8.570609371,2.819502159,-1.163277235,-0.004728149245,-5.737380327
396.413,-4.297887663,2.819502159,-0.5528884197,0.6056606662,-7.873741181
396.4135,-0.3303603634,3.735085382,0.05750039565,1.521243889,-10.92568526
396.414,3.942361344,4.04027979,0.05750039565,1.826438297,-11.23087967
396.4145,10.0462495,3.735085382,-0.247694012,0.6056606662,-8.484129996
396.415,16.15013765,3.124696567,-0.5528884197,-0.6151169646,-4.516602696
396.4155,19.20208173,3.124696567,-0.247694012,-0.9203113723,-2.380241842
396.416,19.20208173,4.955863013,0.9730836188,-0.3099225569,-1.159464212
396.4165,18.89688732,7.092223867,2.804250065,-0.3099225569,0.6717022346
396.417,19.20208173,7.397418275,3.41463888,-0.6151169646,4.028840719
396.4175,19.50727614,4.955863013,2.499055657,-0.6151169646,5.554812758
396.418,16.45533206,2.514307752,0.3626948034,0.6056606662,4.334035127
396.4185,8.52027746,1.903918936,-0.5528884197,2.131632705,2.808063089
396.419,-0.6355547711,3.124696567,0.05750039565,3.047215928,3.723646312
396.4195,-6.739442925,3.735085382,-0.247694012,4.267993559,5.554812758
396.42,-7.655026148,3.124696567,-1.468471643,4.878382374,4.944423942
396.4205,-4.908276479,2.514307752,-2.689249274,4.573187966,1.28209105
396.421,-2.16152681,1.903918936,-2.689249274,2.74202152,-1.159464212
396.4215,-0.6355547711,1.293530121,-2.689249274,0.9108550739,-0.8542698039
396.422,-0.02516595566,0.3779468977,-4.215221312,-0.004728149245,0.6717022346
396.4225,-0.02516595566,-0.2324419177,-6.351582166,-1.835894595,1.587285458
396.423,-0.9407491788,-0.8428307331,-6.351582166,-4.277449857,2.197674273
396.4235,-1.245943586,-1.148025141,-4.52041572,-4.582644265,2.197674273
396.424,0.5852228597,-0.2324419177,-2.689249274,-2.141089003,0.3665078269
396.4245,4.247555752,1.293530121,-3.299638089,0.9108550739,-4.211408289
396.425,5.163138975,2.209113344,-5.130804535,2.74202152,-8.178935589
396.4255,0.5852228597,1.598724528,-5.435998943,3.657604743,-7.873741181
396.426,-5.823859702,0.9883357131,-3.910026904,4.573187966,-5.126991512
396.4265,-9.180998187,0.6831413054,-2.994443681,4.267993559,-3.906213881
396.427,-7.044637333,0.07275248999,-3.910026904,0.6056606662,-4.211408289
396.4275,-4.908276479,-0.8428307331,-4.825610128,-4.887838672,-3.295825065
396.428,-7.960220556,-1.453219549,-3.299638089,-8.550171565,0.06131341924
396.4285,-13.45371989,-0.2324419177,-0.247694012,-7.634588342,1.892479865
396.429,-14.97969193,1.598724528,0.9730836188,-4.277449857,0.6717022346
396.4295,-11.31735904,1.598724528,0.05750039565,-0.9203113723,-0.8542698039
396.43,-7.34983174,0.07275248999,-0.5528884197,0.3004662585,-0.8542698039
396.4305,-5.518665294,-0.2324419177,0.05750039565,0.6056606662,-0.5490753962
396.431,-5.213470887,0.3779468977,-0.8580828275,0.6056606662,-0.8542698039
396.4315,-6.12905411,0.6831413054,-3.299638089,0.3004662585,-0.8542698039
396.432,-11.31735904,-0.2324419177,-2.384054866,-1.22550578,2.197674273
396.4325,-18.64202483,-0.2324419177,3.719833288,-3.972255449,5.554812758
396.433,-20.16799686,-0.2324419177,8.602943811,-4.277449857,4.028840719
396.4335,-11.31735904,-1.148025141,5.245805327,-0.9203113723,-2.990630658
396.434,-0.02516595566,-4.505163626,-2.384054866,3.962799151,-9.704907627
396.4345,3.026778121,-6.641524479,-5.741193351,5.793965597,-9.704907627
396.435,-2.466721217,-5.115552441,-2.078860458,3.352410335,-3.601019473
396.4355,-9.791387002,-1.453219549,2.499055657,0.3004662585,2.808063089
396.436,-14.67449753,0.9883357131,4.025027696,-1.22550578,5.554812758
396.4365,-17.11605279,3.124696567,5.550999734,-2.141089003,4.944423942
396.437,-16.50566397,5.566251829,8.297749404,-2.141089003,2.502868681
396.4375,-9.791387002,8.313001498,9.213332627,-0.004728149245,-2.380241842
396.438,3.331972529,9.228584721,4.940610919,3.657604743,-10.01010203
396.4385,19.20208173,9.228584721,-1.163277235,6.70954882,-17.02957341
396.439,31.10466363,8.313001498,-4.52041572,6.70954882,-19.47112867
396.4395,35.98777415,5.871446236,-4.52041572,5.793965597,-16.4191846
396.44,34.15660771,0.07275248999,-4.215221312,6.404354412,-10.01010203
396.4405,28.66310837,-7.86230211,-4.825610128,7.625132043,-3.601019473
396.441,23.77999785,-13.66099586,-5.130804535,6.404354412,0.6717022346
396.4415,21.03324818,-14.57657908,-3.604832497,2.436827112,2.808063089
396.442,19.20208173,-11.524635,-1.163277235,-1.835894595,3.113257496
396.4425,16.45533206,-6.946718887,-0.8580828275,-3.972255449,4.334035127
396.443,14.92936002,-2.368802772,-2.078860458,-3.972255449,6.470395981
396.4435,14.31897121,0.6831413054,-2.994443681,-3.361866634,9.522340058
396.444,9.741055091,2.209113344,-1.163277235,-3.972255449,13.18467295
396.4445,-0.02516595566,1.598724528,1.888666842,-4.582644265,19.59375551
396.445,-6.434248517,0.3779468977,3.719833288,-3.361866634,26.9184213
396.4455,-1.856332402,-0.2324419177,1.583472434,-0.004728149245,29.05478215
396.446,10.96183272,0.07275248999,-1.773666051,3.047215928,21.11972755
396.4465,20.42285936,0.9883357131,-3.604832497,4.267993559,9.827534466
396.447,20.42285936,2.209113344,-2.078860458,4.267993559,5.860007166
396.4475,15.84494324,2.514307752,0.3626948034,3.047215928,12.87947854
396.448,12.18261035,0.6831413054,2.804250065,1.521243889,22.34050518
396.4485,8.825471868,-2.979191587,4.940610919,-0.004728149245,26.61322689
396.449,3.331972529,-6.031135664,7.076971773,-0.004728149245,25.69764367
396.4495,-3.077110033,-5.725941256,8.602943811,2.131632705,22.64569959
396.45,-11.31735904,-2.063608364,8.602943811,4.267993559,18.67817229
396.4505,-22.91474653,1.598724528,7.38216618,5.793965597,13.79506177
396.451,-35.42771725,3.429890975,5.856194142,7.930326451,8.606756835
396.4515,-42.44718863,2.209113344,4.940610919,10.98227053,2.197674273
396.452,-40.31082777,0.6831413054,5.550999734,10.37188171,-9.094518812
396.4525,-32.98616199,0.3779468977,6.16138855,4.267993559,-22.52307275
396.453,-26.88227383,0.3779468977,6.16138855,-2.141089003,-27.71137768
396.4535,-23.52513535,-1.758413956,4.635416511,-3.361866634,-20.3867119
396.454,-20.16799686,-6.031135664,2.499055657,0.6056606662,-9.704907627
396.4545,-16.20046956,-7.86230211,1.888666842,4.573187966,-8.789324404
396.455,-12.53813667,-5.725941256,3.719833288,4.267993559,-17.63996223
396.4555,-9.486192594,-2.063608364,5.550999734,2.131632705,-25.26982242
396.456,-6.434248517,-1.453219549,5.245805327,2.131632705,-26.18540564
396.4565,-3.077110033,-2.673997179,2.804250065,3.047215928,-22.82826716
396.457,-0.9407491788,-2.368802772,0.6678892111,3.962799151,-17.02957341
396.4575,-0.9407491788,-0.8428307331,0.6678892111,3.962799151,-9.094518812
396.458,-2.16152681,-0.8428307331,1.888666842,4.573187966,-2.075047435
396.4585,-2.466721217,-1.148025141,3.109444473,4.878382374,-0.2438809885
396.459,-1.245943586,0.9883357131,3.41463888,3.962799151,-3.906213881
396.4595,1.500806083,6.176640644,3.719833288,1.826438297,-6.347769142
396.46,4.55275016,8.313001498,3.109444473,0.3004662585,-4.821797104
396.4605,6.078722198,4.650668606,0.3626948034,0.3004662585,-4.211408289
396.461,6.383916606,-0.5376363254,-3.910026904,1.216049482,-8.178935589
396.4615,5.163138975,-2.979191587,-6.961970981,2.131632705,-12.14646289
396.462,3.942361344,-2.368802772,-6.351582166,2.131632705,-11.53607407
396.4625,3.637166937,-2.368802772,-3.604832497,1.216049482,-8.789324404
396.463,5.468333383,-3.589580402,-1.163277235,-0.004728149245,-8.789324404
396.4635,7.604694237,-4.810358033,-0.247694012,-0.9203113723,-10.31529644
396.464,4.857944568,-5.115552441,0.05750039565,-1.22550578,-9.094518812
396.4645,-2.466721217,-5.420746849,0.05750039565,-0.004728149245,-5.432185919
396.465,-9.486192594,-5.725941256,0.05750039565,1.216049482,-3.601019473
396.4655,-10.09658141,-5.420746849,0.3626948034,1.521243889,-4.516602696
396.466,-7.960220556,-4.199969218,0.9730836188,0.6056606662,-3.906213881
396.4665,-10.09658141,-3.589580402,1.278278026,-0.6151169646,0.6717022346
396.467,-15.59008075,-2.979191587,0.9730836188,-0.6151169646,6.470395981
396.4675,-17.42124719,-1.758413956,1.583472434,-0.6151169646,9.21714565
396.468,-12.84333108,0.07275248999,2.499055657,-2.141089003,8.301562427
396.4685,-7.960220556,1.903918936,2.804250065,-4.277449857,7.080784796
396.469,-8.265414964,2.209113344,2.19386125,-5.19303308,7.691173612
396.4695,-11.31735904,1.903918936,2.499055657,-4.582644265,8.301562427
396.47,-10.70697023,1.598724528,3.719833288,-4.582644265,7.080784796
396.4705,-4.297887663,1.903918936,4.025027696,-5.498227488,1.892479865
396.471,4.247555752,1.903918936,2.19386125,-4.582644265,-3.601019473
396.4715,10.96183272,0.9883357131,-0.247694012,-1.835894595,-6.042574735
396.472,14.0137768,-0.5376363254,-0.8580828275,-0.004728149245,-2.68543625
396.4725,13.09819358,-1.758413956,0.05750039565,-0.3099225569,2.808063089
396.473,10.0462495,-1.148025141,0.9730836188,-1.22550578,6.470395981
396.4735,6.689111014,0.07275248999,0.6678892111,-0.004728149245,7.691173612
396.474,3.942361344,0.6831413054,0.9730836188,0.3004662585,9.21714565
396.4745,2.416389306,-0.2324419177,2.499055657,-1.22550578,11.96389532
396.475,2.721583714,-1.453219549,3.41463888,-3.667061042,12.57428413
396.4755,5.163138975,-1.453219549,2.804250065,-3.361866634,10.13272887
396.476,7.909888645,-0.5376363254,0.9730836188,-1.530700188,6.470395981
396.4765,8.825471868,-0.2324419177,-0.247694012,-1.835894595,2.197674273
396.477,9.741055091,-0.2324419177,-0.5528884197,-4.277449857,-3.601019473
396.4775,11.87741594,-0.2324419177,0.05750039565,-4.277449857,-10.31529644
396.478,14.92936002,0.6831413054,0.6678892111,-0.9203113723,-13.97762934
396.4785,14.62416561,1.598724528,0.9730836188,2.436827112,-13.06204611
396.479,11.26702713,2.819502159,0.6678892111,2.131632705,-11.53607407
396.4795,8.52027746,2.819502159,-0.247694012,0.6056606662,-11.84126848
396.48,9.130666275,1.293530121,-1.773666051,-0.004728149245,-11.53607407
396.4805,11.26702713,-0.2324419177,-2.384054866,0.9108550739,-7.568546773
396.481,13.09819358,-0.5376363254,-2.689249274,1.826438297,-2.075047435
396.4815,16.15013765,-0.2324419177,-2.994443681,2.436827112,0.9768966423
396.482,19.50727614,0.07275248999,-3.604832497,3.352410335,1.28209105
396.4825,19.81247054,-0.2324419177,-3.299638089,3.657604743,2.502868681
396.483,14.92936002,-0.5376363254,-1.773666051,3.047215928,5.24961835
396.4835,8.52027746,-0.2324419177,0.05750039565,2.131632705,6.470395981
396.484,4.857944568,0.3779468977,0.6678892111,2.131632705,4.334035127
396.4845,4.247555752,0.3779468977,-0.5528884197,2.131632705,0.3665078269
396.485,3.637166937,-0.2324419177,-2.689249274,1.521243889,-0.5490753962
396.4855,1.500806083,-0.5376363254,-2.384054866,1.216049482,0.9768966423
396.486,-0.3303603634,-0.2324419177,0.05750039565,0.6056606662,3.418451904
396.4865,-1.856332402,0.3779468977,1.583472434,-0.6151169646,4.639229535
396.487,-2.771915625,0.3779468977,1.583472434,-3.056672226,4.028840719
396.4875,-3.38230444,0.3779468977,1.278278026,-2.446283411,2.197674273
396.488,-2.16152681,1.903918936,1.888666842,1.826438297,0.06131341924
396.4885,1.500806083,3.735085382,1.583472434,3.657604743,-0.8542698039
396.489,6.383916606,3.124696567,-0.5528884197,-2.141089003,0.06131341924
396.4895,10.35144391,0.6831413054,-3.299638089,-14.0436709,3.418451904
396.49,11.57222154,-1.148025141,-4.215221312,-21.36833669,7.691173612
396.4905,10.0462495,-1.453219549,-3.604832497,-18.62158702,10.13272887
396.491,5.468333383,-1.148025141,-3.604832497,-10.99172683,10.43792328
396.4915,-0.02516595566,-1.758413956,-3.604832497,-5.803421896,10.13272887
396.492,-4.908276479,-2.673997179,-2.689249274,-3.972255449,9.827534466
396.4925,-8.265414964,-2.673997179,-2.384054866,-2.751477819,10.13272887
396.493,-11.62255345,-2.063608364,-3.604832497,-0.6151169646,10.43792328
396.4935,-14.06410871,-2.063608364,-5.741193351,0.6056606662,11.3535065
396.494,-13.14852549,-2.979191587,-5.435998943,0.3004662585,12.87947854
396.4945,-9.791387002,-3.284385995,-2.689249274,-0.6151169646,15.3210338
396.495,-8.265414964,-2.673997179,0.05750039565,-2.446283411,18.9833667
396.4955,-11.62255345,-1.148025141,1.278278026,-4.582644265,23.86647722
396.496,-16.20046956,0.07275248999,2.499055657,-6.108616303,27.2236157
396.4965,-15.59008075,0.9883357131,3.109444473,-6.108616303,25.69764367
396.497,-8.875803779,0.9883357131,1.583472434,-5.19303308,19.2885611
396.4975,-3.38230444,1.293530121,0.3626948034,-4.582644265,12.26908973
396.498,-3.38230444,1.903918936,1.888666842,-4.277449857,7.385979204
396.4985,-3.992693256,2.819502159,5.550999734,-2.446283411,2.502868681
396.499,0.5852228597,3.429890975,5.856194142,0.9108550739,-5.432185919
396.4995,10.35144391,3.124696567,1.278278026,4.267993559,-16.724379
396.5,18.28649851,2.819502159,-4.215221312,7.014743228,-25.57501683
396.5005,20.42285936,2.209113344,-6.656776574,9.761492897,-27.10098887
396.501,18.28649851,1.293530121,-5.741193351,12.50824257,-22.21787834
396.5015,14.92936002,0.9883357131,-5.130804535,14.33940901,-15.50360137
396.502,10.35144391,3.124696567,-5.130804535,12.81343697,-10.92568526
396.5025,4.857944568,7.092223867,-4.52041572,8.845909674,-8.789324404
396.503,1.806000491,9.533779129,-3.299638089,4.573187966,-6.958157958
396.5035,3.331972529,9.228584721,-2.689249274,2.74202152,-3.906213881
396.504,6.994305421,7.702612683,-2.384054866,2.74202152,-0.5490753962
396.5045,7.909888645,6.787029459,-1.468471643,3.047215928,1.28209105
396.505,4.247555752,4.955863013,-0.247694012,1.826438297,2.502868681
396.5055,-1.245943586,1.903918936,-0.247694012,-0.004728149245,4.334035127
396.506,-5.518665294,-1.453219549,-0.8580828275,-2.446283411,7.996368019
396.5065,-8.265414964,-4.505163626,-0.5528884197,-3.667061042,12.26908973
396.507,-11.31735904,-7.557107703,0.9730836188,-4.582644265,13.48986736
396.5075,-13.7589143,-11.524635,3.109444473,-4.887838672,9.522340058
396.508,-13.7589143,-14.88177349,3.41463888,-4.887838672,2.808063089
396.5085,-11.01216463,-17.32332875,2.499055657,-4.582644265,-0.8542698039
396.509,-8.265414964,-18.54410638,1.583472434,-4.582644265,-0.2438809885
396.5095,-7.044637333,-15.1869679,0.9730836188,-4.277449857,0.9768966423
396.51,-5.823859702,-4.810358033,0.05750039565,-3.056672226,-0.2438809885
396.5105,-4.908276479,8.618195906,-1.163277235,-1.22550578,-3.906213881
396.511,-5.823859702,17.46883373,-2.078860458,-0.3099225569,-5.126991512
396.5115,-9.486192594,20.52077781,-0.247694012,-0.9203113723,-1.159464212
396.512,-14.06410871,23.87791629,3.719833288,-3.056672226,3.418451904
396.5125,-15.89527516,31.20258208,6.771777365,-4.277449857,5.554812758
396.513,-13.14852549,36.69608141,6.771777365,-3.361866634,3.113257496
396.5135,-6.739442925,34.25452615,3.719833288,-0.6151169646,-2.075047435
396.514,-0.02516595566,26.92986037,0.6678892111,1.826438297,-7.568546773
396.5145,2.721583714,19.91038899,-0.5528884197,3.352410335,-9.094518812
396.515,0.5852228597,11.67013998,-0.247694012,2.436827112,-5.126991512
396.5155,-5.213470887,-2.979191587,0.9730836188,-1.22550578,0.06131341924
396.516,-9.791387002,-24.03760572,2.804250065,-5.19303308,3.113257496
396.5165,-9.791387002,-42.959659,3.719833288,-6.108616303,3.723646312
396.517,-8.570609371,-55.77782412,3.109444473,-3.972255449,4.639229535
396.5175,-10.40177582,-63.1024899,2.804250065,-1.530700188,7.385979204
396.518,-13.45371989,-64.01807313,2.804250065,-0.3099225569,7.385979204
396.5185,-11.01216463,-54.8622409,1.278278026,0.6056606662,2.502868681
396.519,-0.02516595566,-37.77135406,-2.689249274,3.352410335,-3.906213881
396.5195,14.31897121,-20.98566164,-7.572359797,6.099160005,-8.178935589
396.52,24.69558107,-11.21944059,-9.708720651,6.099160005,-9.094518812
396.5205,26.83194192,-8.167496518,-9.098331835,3.657604743,-8.789324404
396.521,22.86441462,-6.031135664,-7.572359797,1.216049482,-8.484129996
396.5215,17.06572088,-3.284385995,-6.351582166,0.6056606662,-7.568546773
396.522,11.87741594,-0.8428307331,-3.299638089,-0.004728149245,-5.737380327
396.5225,8.825471868,-0.2324419177,0.05750039565,-2.141089003,-4.821797104
396.523,7.909888645,-0.2324419177,1.583472434,-3.667061042,-4.516602696
396.5235,7.909888645,0.07275248999,0.9730836188,-4.582644265,-4.211408289
396.524,8.215083052,2.209113344,0.3626948034,-5.19303308,-3.906213881
396.5245,9.741055091,4.04027979,0.9730836188,-6.108616303,-3.906213881
396.525,11.87741594,4.650668606,1.278278026,-7.024199526,-4.821797104
396.5255,13.09819358,3.429890975,0.3626948034,-6.108616303,-5.737380327
396.526,11.87741594,2.819502159,-0.247694012,-4.277449857,-5.432185919
396.5265,9.435860683,3.124696567,0.05750039565,-2.751477819,-3.295825065
396.527,6.689111014,3.429890975,0.3626948034,-2.446283411,0.9768966423
396.5275,3.026778121,2.819502159,-0.247694012,-2.751477819,5.24961835
396.528,-2.16152681,3.124696567,-1.468471643,-2.141089003,7.080784796
396.5285,-9.180998187,4.650668606,-1.773666051,-0.9203113723,8.301562427
396.529,-16.50566397,5.261057421,-1.468471643,-0.6151169646,12.57428413
396.5295,-23.83032976,3.124696567,-0.247694012,-1.22550578,20.50933874
396.53,-29.6290235,0.6831413054,0.9730836188,-2.446283411,26.61322689
396.5305,-30.84980113,-0.2324419177,1.583472434,-1.22550578,26.61322689
396.531,-24.13552416,-0.5376363254,0.05750039565,1.521243889,23.86647722
396.5315,-12.53813667,-2.368802772,-2.078860458,4.267993559,23.56128281
396.532,-3.077110033,-4.199969218,-2.384054866,4.573187966,25.08725485
396.5325,-0.02516595566,-2.673997179,-0.247694012,3.962799151,24.17167163
396.533,-1.245943586,0.3779468977,1.888666842,3.657604743,19.2885611
396.5335,-3.992693256,2.209113344,2.19386125,3.352410335,14.10025617
396.534,-4.603082071,1.598724528,1.278278026,2.131632705,9.522340058
396.5345,-2.771915625,1.598724528,0.9730836188,0.9108550739,3.113257496
396.535,0.280028452,2.514307752,2.19386125,0.6056606662,-4.516602696
396.5355,0.8904172674,3.429890975,3.41463888,-0.004728149245,-8.789324404
396.536,-2.466721217,3.735085382,3.41463888,-1.530700188,-7.568546773
396.5365,-6.739442925,4.345474198,3.41463888,-2.446283411,-5.432185919
396.537,-5.823859702,6.176640644,3.41463888,-0.6151169646,-8.178935589
396.5375,-0.02516595566,7.397418275,2.499055657,2.74202152,-14.28282374
396.538,3.331972529,6.787029459,0.3626948034,5.183576782,-17.63996223
396.5385,1.500806083,5.871446236,-0.8580828275,4.573187966,-15.80879578
396.539,-1.245943586,5.871446236,0.3626948034,2.436827112,-11.23087967
396.5395,-0.9407491788,6.176640644,3.109444473,-0.004728149245,-8.178935589
396.54,1.806000491,6.481835052,4.635416511,-1.835894595,-7.568546773
396.5405,3.637166937,5.871446236,3.109444473,-2.751477819,-8.178935589
396.541,5.163138975,5.261057421,0.05750039565,-1.835894595,-8.178935589
396.5415,7.604694237,4.955863013,-0.8580828275,-0.3099225569,-6.347769142
396.542,10.0462495,5.566251829,0.05750039565,-0.6151169646,-3.906213881
396.5425,9.435860683,7.702612683,1.888666842,-2.751477819,-3.601019473
396.543,5.468333383,9.228584721,3.719833288,-4.887838672,-6.042574735
396.5435,1.500806083,9.228584721,5.245805327,-5.19303308,-8.789324404
396.544,-0.3303603634,8.00780709,6.466582957,-4.277449857,-9.704907627
396.5445,-1.551137994,7.092223867,6.466582957,-2.751477819,-9.39971322
396.545,-3.077110033,6.787029459,5.856194142,-1.835894595,-9.39971322
396.5455,-4.908276479,5.261057421,4.940610919,-1.835894595,-9.39971322
396.546,-6.12905411,2.209113344,5.550999734,-2.751477819,-9.39971322
396.5465,-4.603082071,-0.2324419177,6.16138855,-2.751477819,-10.62049085
396.547,0.280028452,-1.148025141,4.330222103,-0.3099225569,-14.28282374
396.5475,6.689111014,-1.148025141,0.05750039565,2.74202152,-17.94515664
396.548,8.825471868,-1.453219549,-4.215221312,4.573187966,-17.94515664
396.5485,3.942361344,-2.368802772,-4.825610128,3.962799151,-14.58801815
396.549,-3.38230444,-3.589580402,-1.773666051,2.131632705,-10.01010203
396.5495,-8.875803779,-5.115552441,0.3626948034,0.6056606662,-3.295825065
396.55,-10.70697023,-6.641524479,0.05750039565,-0.004728149245,7.385979204
396.5505,-11.01216463,-6.641524479,-1.163277235,0.3004662585,20.50933874
396.551,-9.180998187,-5.420746849,-2.078860458,1.521243889,28.44439334
396.5515,-3.992693256,-3.284385995,-2.078860458,3.352410335,26.61322689
396.552,2.111194898,-1.148025141,-2.689249274,4.267993559,18.9833667
396.5525,4.857944568,1.293530121,-2.994443681,4.878382374,13.18467295
396.553,2.721583714,4.345474198,-2.078860458,5.488771189,11.3535065
396.5535,0.280028452,5.261057421,-0.8580828275,6.099160005,11.65870091
396.554,2.416389306,3.429890975,-1.163277235,5.183576782,12.26908973
396.5545,7.299499829,0.6831413054,-2.689249274,3.352410335,12.26908973
396.555,10.65663831,-0.2324419177,-2.689249274,2.131632705,10.43792328
396.5555,11.87741594,0.07275248999,-1.163277235,1.521243889,6.470395981
396.556,13.40338798,0.3779468977,0.05750039565,1.826438297,2.502868681
396.5565,16.15013765,0.07275248999,-0.5528884197,1.521243889,2.502868681
396.557,17.37091528,0.6831413054,-0.5528884197,-0.004728149245,5.860007166
396.5575,15.23455443,2.209113344,0.3626948034,-2.141089003,9.827534466
396.558,10.96183272,4.04027979,2.804250065,-3.056672226,11.65870091
396.5585,7.604694237,5.871446236,4.635416511,-1.530700188,11.0483121
396.559,4.857944568,7.702612683,5.550999734,0.9108550739,7.385979204
396.5595,0.8904172674,8.618195906,5.856194142,3.352410335,3.113257496
396.56,-3.38230444,6.787029459,4.635416511,4.573187966,3.113257496
396.5605,-5.823859702,3.124696567,1.888666842,5.183576782,7.385979204
396.561,-5.213470887,0.6831413054,-0.5528884197,5.183576782,9.522340058
396.5615,-3.687498848,2.209113344,-0.8580828275,2.74202152,1.892479865
396.562,-3.38230444,5.261057421,1.278278026,-0.6151169646,-10.62049085
396.5625,-4.603082071,7.092223867,4.025027696,-1.835894595,-16.724379
396.563,-5.213470887,6.176640644,5.245805327,0.6056606662,-12.7568517
396.5635,-5.823859702,4.650668606,4.025027696,3.352410335,-6.042574735
396.564,-7.655026148,2.209113344,0.9730836188,1.826438297,-3.295825065
396.5645,-10.09658141,-1.758413956,-2.384054866,-1.835894595,-3.295825065
396.565,-12.53813667,-6.031135664,-5.130804535,-2.751477819,-1.769853027
396.5655,-15.28488634,-7.557107703,-5.130804535,0.3004662585,0.6717022346
396.566,-19.25241364,-6.031135664,-3.604832497,4.267993559,1.28209105
396.5665,-20.47319127,-3.589580402,-1.773666051,5.183576782,0.06131341924
396.567,-15.28488634,-3.589580402,-1.468471643,3.657604743,-2.68543625
396.5675,-5.823859702,-4.199969218,-2.689249274,1.216049482,-8.178935589
396.568,0.5852228597,-3.589580402,-3.604832497,-0.9203113723,-15.50360137
396.5685,-0.02516595566,-0.8428307331,-1.773666051,-3.361866634,-20.6919063
396.569,-4.603082071,2.209113344,0.3626948034,-5.19303308,-20.99710071
396.5695,-5.823859702,4.04027979,0.9730836188,-6.413810711,-19.47112867
396.57,-1.551137994,3.429890975,-1.163277235,-8.244977157,-20.3867119
396.5705,3.331972529,0.9883357131,-3.910026904,-10.0761436,-24.3542392
396.571,5.468333383,-0.5376363254,-3.910026904,-9.465754788,-27.40618327
396.5715,4.55275016,-1.148025141,-2.078860458,-5.498227488,-28.01657209
396.572,3.331972529,-0.8428307331,-1.468471643,-0.004728149245,-26.79579446
396.5725,2.111194898,-1.453219549,-1.773666051,2.436827112,-24.04904479
396.573,1.195611675,-3.284385995,-1.773666051,2.74202152,-19.77632308
396.5735,0.8904172674,-5.115552441,-1.163277235,3.047215928,-15.50360137
396.574,1.806000491,-5.725941256,-1.163277235,3.657604743,-13.67243493
396.5745,3.637166937,-6.336330072,-1.773666051,3.657604743,-13.06204611
396.575,5.163138975,-6.641524479,-1.773666051,1.826438297,-10.01010203
396.5755,5.773527791,-6.641524479,-1.468471643,0.3004662585,-4.211408289
396.576,6.078722198,-5.420746849,-0.8580828275,1.216049482,1.892479865
396.5765,6.689111014,-3.589580402,-0.5528884197,3.657604743,5.860007166
396.577,6.689111014,-2.368802772,0.05750039565,4.878382374,7.691173612
396.5775,5.773527791,-2.368802772,0.9730836188,3.657604743,9.522340058
396.578,5.163138975,-2.063608364,0.6678892111,2.436827112,11.65870091
396.5785,5.163138975,-0.2324419177,-0.5528884197,2.436827112,12.57428413
396.579,6.689111014,3.124696567,-0.8580828275,1.826438297,9.827534466
396.5795,9.130666275,6.176640644,0.05750039565,-0.3099225569,2.502868681
396.58,11.26702713,6.787029459,0.9730836188,-3.361866634,-5.432185919
396.5805,10.35144391,4.345474198,0.05750039565,-4.582644265,-8.484129996
396.581,5.468333383,0.07275248999,-2.384054866,-3.667061042,-1.464658619
396.5815,-2.16152681,-2.979191587,-2.994443681,-3.667061042,11.0483121
396.582,-9.486192594,-4.810358033,-0.247694012,-5.498227488,20.20414433
396.5825,-13.45371989,-3.589580402,3.719833288,-7.939782749,18.06778347
396.583,-14.97969193,-0.2324419177,7.992554996,-9.465754788,8.606756835
396.5835,-14.67449753,2.209113344,10.73930467,-9.16056038,0.3665078269
396.584,-11.62255345,2.209113344,10.12891585,-6.719005119,-2.380241842
396.5845,-3.38230444,-0.2324419177,5.856194142,-1.530700188,-3.601019473
396.585,7.909888645,-2.368802772,0.05750039565,5.488771189,-6.65296355
396.5855,17.67610969,-2.979191587,-4.52041572,11.59265934,-10.31529644
396.586,20.72805377,-2.368802772,-5.435998943,13.7290202,-10.01010203
396.5865,17.67610969,-2.673997179,-3.604832497,10.98227053,-5.126991512
396.587,11.87741594,-3.284385995,-1.773666051,7.014743228,0.3665078269
396.5875,8.215083052,-2.979191587,-0.8580828275,6.099160005,3.723646312
396.588,9.130666275,-2.673997179,-1.163277235,7.625132043,4.944423942
396.5885,11.57222154,-3.284385995,-2.078860458,9.45629849,5.24961835
396.589,11.26702713,-3.89477481,-3.910026904,9.45629849,3.723646312
396.5895,5.773527791,-2.673997179,-4.825610128,8.845909674,0.6717022346
396.59,-3.077110033,-0.2324419177,-3.910026904,8.235520859,-1.769853027
396.5905,-11.01216463,0.9883357131,-1.163277235,6.099160005,-1.769853027
396.591,-13.45371989,-0.2324419177,0.6678892111,2.131632705,0.9768966423
396.5915,-11.01216463,-2.673997179,0.9730836188,-2.141089003,4.334035127
396.592,-6.739442925,-3.89477481,1.278278026,-4.277449857,5.860007166
396.5925,-5.823859702,-3.89477481,1.888666842,-3.361866634,6.165201573
396.593,-9.180998187,-3.284385995,3.109444473,-1.835894595,6.470395981
396.5935,-12.84333108,-1.758413956,4.330222103,-1.22550578,5.860007166
396.594,-10.40177582,0.6831413054,4.330222103,-0.004728149245,1.587285458
396.5945,-0.3303603634,3.429890975,2.804250065,3.047215928,-6.958157958
396.595,12.79299917,4.955863013,0.9730836188,8.540715266,-15.50360137
396.5955,21.64363699,4.955863013,-0.247694012,12.20304816,-17.94515664
396.596,23.16960903,4.650668606,-0.5528884197,9.45629849,-12.4516573
396.5965,19.20208173,3.735085382,-0.8580828275,0.3004662585,-4.516602696
396.597,14.31897121,2.514307752,-1.163277235,-10.0761436,0.06131341924
396.5975,11.57222154,1.293530121,-0.5528884197,-14.34886531,1.892479865
396.598,10.96183272,0.07275248999,0.6678892111,-10.68653242,3.113257496
396.5985,11.26702713,-2.063608364,1.583472434,-3.667061042,5.24961835
396.599,11.57222154,-6.031135664,0.6678892111,0.9108550739,7.080784796
396.5995,11.26702713,-9.388274149,-0.8580828275,2.131632705,7.996368019
396.6,11.26702713,-10.30385737,-1.163277235,2.131632705,7.691173612
396.6005,13.09819358,-9.388274149,0.05750039565,1.521243889,7.080784796
396.601,17.06572088,-7.251913295,1.278278026,-0.6151169646,6.470395981
396.6015,20.11766495,-5.115552441,1.583472434,-2.751477819,4.639229535
396.602,20.11766495,-2.368802772,0.9730836188,-2.141089003,1.587285458
396.6025,17.67610969,-0.8428307331,0.05750039565,0.6056606662,-1.464658619
396.603,15.23455443,-1.453219549,-1.773666051,2.74202152,-3.601019473
396.6035,12.18261035,-3.284385995,-3.299638089,1.521243889,-2.380241842
396.604,5.468333383,-4.505163626,-3.299638089,-0.3099225569,1.28209105
396.6045,-4.603082071,-4.505163626,-2.384054866,-0.9203113723,6.470395981
396.605,-14.97969193,-3.589580402,-2.384054866,-0.004728149245,10.74311769
396.6055,-22.30435772,-2.063608364,-2.689249274,0.6056606662,13.48986736
396.606,-25.6614962,-0.8428307331,-2.078860458,-0.004728149245,14.10025617
396.6065,-25.96669061,-0.8428307331,-1.163277235,-0.6151169646,12.26908973
396.607,-22.60955213,-2.673997179,-2.078860458,-1.530700188,8.911951243
396.6075,-16.50566397,-4.505163626,-5.130804535,-1.835894595,6.470395981
396.608,-11.92774786,-5.115552441,-8.182748612,-1.530700188,5.554812758
396.6085,-11.92774786,-3.89477481,-8.182748612,-1.22550578,5.24961835
396.609,-14.67449753,-0.8428307331,-5.435998943,-0.6151169646,4.944423942
396.6095,-16.20046956,3.429890975,-1.163277235,-0.9203113723,4.028840719
396.61,-14.97969193,8.00780709,2.19386125,-2.446283411,1.892479865
396.6105,-14.36930312,9.533779129,4.025027696,-4.582644265,0.06131341924
396.611,-17.11605279,6.787029459,4.330222103,-5.803421896,0.06131341924
396.6115,-21.38877449,3.429890975,3.719833288,-5.19303308,3.723646312
396.612,-23.21994094,3.429890975,2.19386125,-3.056672226,7.080784796
396.6125,-19.86280246,4.955863013,0.05750039565,-0.9203113723,5.860007166
396.613,-12.23294226,4.650668606,-3.299638089,0.9108550739,1.587285458
396.6135,-4.603082071,1.903918936,-5.435998943,3.047215928,0.3665078269
396.614,-0.02516595566,-0.2324419177,-4.52041572,4.878382374,3.418451904
396.6145,2.111194898,-0.8428307331,-2.384054866,4.573187966,5.554812758
396.615,5.163138975,-0.5376363254,-1.773666051,3.047215928,3.113257496
396.6155,7.299499829,-0.8428307331,-2.384054866,1.216049482,0.6717022346
396.616,6.689111014,-1.148025141,-1.773666051,0.3004662585,1.587285458
396.6165,4.857944568,-0.5376363254,-0.247694012,-0.6151169646,3.723646312
396.617,5.468333383,0.3779468977,-0.5528884197,-1.835894595,2.808063089
396.6175,9.741055091,1.598724528,-2.994443681,-1.835894595,-1.159464212
396.618,12.79299917,2.209113344,-3.910026904,-0.6151169646,-3.601019473
396.6185,9.435860683,1.293530121,-2.689249274,-0.004728149245,-2.990630658
396.619,2.111194898,-0.2324419177,-2.078860458,-0.004728149245,-1.159464212
396.6195,-2.16152681,-1.148025141,-3.299638089,1.216049482,0.6717022346
396.62,-1.551137994,-0.2324419177,-4.215221312,3.657604743,2.808063089
396.6205,0.8904172674,3.429890975,-1.773666051,4.267993559,4.028840719
396.621,1.500806083,6.787029459,0.9730836188,1.826438297,3.113257496
396.6215,-0.3303603634,7.397418275,1.583472434,-0.9203113723,0.3665078269
396.622,-1.551137994,6.481835052,0.05750039565,-0.9203113723,-2.075047435
396.6225,1.195611675,5.871446236,-0.5528884197,0.6056606662,-3.295825065
396.623,8.215083052,6.481835052,0.05750039565,1.216049482,-3.906213881
396.6235,14.31897121,6.481835052,0.05750039565,0.9108550739,-5.126991512
396.624,14.0137768,4.955863013,0.05750039565,0.3004662585,-5.126991512
396.6245,6.994305421,4.04027979,1.888666842,-1.22550578,-2.68543625
396.625,-0.3303603634,4.04027979,6.466582957,-4.277449857,0.3665078269
396.6255,-3.077110033,4.650668606,9.823721442,-6.108616303,2.502868681
396.626,-1.245943586,4.345474198,8.908138219,-3.667061042,0.6717022346
396.6265,-0.02516595566,4.04027979,5.245805327,-0.004728149245,-4.211408289
396.627,-1.245943586,3.429890975,3.719833288,1.216049482,-7.568546773
396.6275,-3.687498848,2.209113344,5.245805327,-0.6151169646,-5.432185919
396.628,-4.603082071,-0.2324419177,5.550999734,-1.835894595,0.3665078269
396.6285,-4.603082071,-2.673997179,2.499055657,-0.6151169646,5.24961835
396.629,-6.739442925,-2.979191587,-1.163277235,0.3004662585,6.775590389
396.6295,-11.31735904,-1.758413956,-2.384054866,-0.6151169646,7.691173612
396.63,-14.06410871,-1.148025141,-1.163277235,-3.972255449,10.13272887
396.6305,-11.62255345,-1.453219549,-1.468471643,-6.719005119,11.0483121
396.631,-5.823859702,-1.453219549,-4.215221312,-6.719005119,7.691173612
396.6315,-2.16152681,-0.8428307331,-6.961970981,-4.887838672,3.418451904
396.632,-3.38230444,-0.2324419177,-5.741193351,-2.751477819,1.587285458
396.6325,-5.823859702,-0.2324419177,-1.773666051,-1.22550578,1.28209105
396.633,-5.518665294,0.07275248999,0.3626948034,-0.004728149245,-0.8542698039
396.6335,-3.38230444,-0.2324419177,0.05750039565,0.9108550739,-4.516602696
396.634,-4.603082071,-1.148025141,0.05750039565,1.216049482,-4.516602696
396.6345,-10.40177582,-0.5376363254,2.499055657,-0.004728149245,-2.380241842
396.635,-16.20046956,2.819502159,7.076971773,-2.446283411,-1.769853027
396.6355,-16.20046956,7.397418275,8.908138219,-4.277449857,-4.821797104
396.636,-9.486192594,9.228584721,6.466582957,-3.056672226,-7.263352366
396.6365,-0.02516595566,8.923390313,1.583472434,0.3004662585,-8.178935589
396.637,9.130666275,9.228584721,-1.468471643,4.573187966,-10.92568526
396.6375,14.0137768,11.05975117,-2.384054866,7.930326451,-16.11399019
396.638,13.09819358,11.67013998,-2.384054866,9.45629849,-19.16593427
396.6385,8.825471868,9.533779129,-1.773666051,8.540715266,-16.11399019
396.639,4.857944568,5.871446236,-0.247694012,6.099160005,-10.62049085
396.6395,3.331972529,3.124696567,0.3626948034,4.267993559,-6.65296355
396.64,3.026778121,1.598724528,0.6678892111,4.267993559,-4.516602696
396.6405,2.111194898,0.6831413054,0.9730836188,3.657604743,-1.769853027
396.641,1.806000491,-1.453219549,1.583472434,2.436827112,1.28209105
396.6415,3.942361344,-5.115552441,2.19386125,1.826438297,1.587285458
396.642,6.994305421,-9.083079741,2.499055657,3.352410335,0.06131341924
396.6425,6.994305421,-11.82982941,2.19386125,4.878382374,-0.5490753962
396.643,3.637166937,-13.35580145,2.499055657,3.657604743,1.587285458
396.6435,0.8904172674,-14.57657908,3.109444473,1.826438297,5.860007166
396.644,2.416389306,-13.66099586,1.888666842,1.826438297,7.691173612
396.6445,7.299499829,-8.167496518,-0.5528884197,3.352410335,5.554812758
396.645,10.96183272,-1.148025141,-2.384054866,3.962799151,1.587285458
396.6455,10.65663831,-0.8428307331,-2.384054866,3.352410335,-0.5490753962
396.646,7.299499829,-7.251913295,-1.468471643,2.74202152,0.9768966423
396.6465,2.721583714,-10.60905178,-1.163277235,2.74202152,5.860007166
396.647,-1.551137994,-3.89477481,-1.163277235,2.131632705,8.911951243
396.6475,-5.213470887,8.00780709,-0.247694012,0.9108550739,8.301562427
396.648,-6.434248517,15.94286169,0.9730836188,0.3004662585,5.24961835
396.6485,-4.908276479,18.07922254,1.888666842,0.6056606662,2.502868681
396.649,-2.16152681,18.68961136,1.888666842,-0.004728149245,-0.2438809885
396.6495,-1.245943586,18.38441695,0.9730836188,-1.530700188,-3.601019473
396.65,-2.771915625,16.2480561,0.3626948034,-3.056672226,-6.347769142
396.6505,-5.213470887,16.2480561,0.05750039565,-3.667061042,-7.263352366
396.651,-6.434248517,19.30000018,0.6678892111,-5.19303308,-7.568546773
396.6515,-7.34983174,15.94286169,1.278278026,-7.329393934,-9.094518812
396.652,-10.40177582,-3.89477481,0.6678892111,-7.329393934,-10.62049085
396.6525,-15.89527516,-32.88824354,-0.8580828275,-4.277449857,-9.39971322
396.653,-21.08358009,-49.97913037,-2.078860458,-0.9203113723,-7.263352366
396.6535,-20.77838568,-44.48563103,-1.773666051,-0.3099225569,-8.484129996
396.654,-14.36930312,-26.47916098,-0.247694012,-1.835894595,-15.19840697
396.6545,-5.823859702,-11.82982941,0.3626948034,-2.141089003,-23.13346157
396.655,-0.9407491788,-5.115552441,0.05750039565,-1.530700188,-26.18540564
396.6555,0.280028452,-1.758413956,0.05750039565,-1.22550578,-22.52307275
396.656,2.416389306,0.6831413054,0.3626948034,-2.446283411,-16.11399019
396.6565,6.994305421,1.598724528,0.6678892111,-3.361866634,-10.31529644
396.657,12.18261035,0.6831413054,0.05750039565,-3.361866634,-3.295825065
396.6575,15.23455443,-0.8428307331,-1.163277235,-2.446283411,7.385979204
396.658,15.84494324,-2.368802772,-1.163277235,-1.530700188,21.42492196
396.6585,14.31897121,-3.284385995,0.6678892111,-1.530700188,34.54828149
396.659,11.26702713,-2.673997179,3.719833288,-3.361866634,43.09372491
396.6595,8.215083052,-2.063608364,4.940610919,-6.413810711,47.36644661
396.66,7.299499829,-3.89477481,4.635416511,-8.855365973,49.19761306
396.6605,7.909888645,-7.557107703,4.330222103,-9.16056038,51.02877951
396.661,7.909888645,-8.167496518,5.245805327,-7.939782749,50.41839069
396.6615,6.994305421,-4.199969218,6.16138855,-7.024199526,44.00930813
396.662,7.909888645,-0.5376363254,4.940610919,-6.108616303,30.8859486
396.6625,11.26702713,-1.148025141,1.278278026,-4.277449857,15.62622821
396.663,12.79299917,-3.284385995,-2.689249274,-0.9203113723,4.334035127
396.6635,8.52027746,-1.148025141,-4.825610128,2.131632705,-1.159464212
396.664,0.280028452,3.429890975,-3.910026904,3.657604743,-4.516602696
396.6645,-7.960220556,6.481835052,-1.468471643,3.047215928,-6.958157958
396.665,-13.45371989,4.955863013,0.05750039565,1.216049482,-7.873741181
396.6655,-15.89527516,2.514307752,0.05750039565,0.3004662585,-7.263352366
396.666,-15.59008075,1.598724528,-0.8580828275,1.521243889,-6.347769142
396.6665,-13.7589143,1.903918936,-0.247694012,3.047215928,-4.516602696
396.667,-13.14852549,1.903918936,0.05750039565,3.657604743,0.3665078269
396.6675,-14.06410871,1.598724528,-0.247694012,2.436827112,9.21714565
396.668,-14.36930312,2.209113344,-1.468471643,0.6056606662,14.10025617
396.6685,-12.23294226,3.735085382,-0.247694012,-1.530700188,10.43792328
396.669,-8.875803779,5.871446236,3.41463888,-5.19303308,2.808063089
396.6695,-8.265414964,6.787029459,6.16138855,-8.244977157,0.06131341924
396.67,-11.31735904,6.176640644,4.940610919,-8.550171565,2.502868681
396.6705,-15.28488634,5.261057421,1.583472434,-6.413810711,1.28209105
396.671,-17.7264416,8.00780709,0.05750039565,-4.887838672,-7.568546773
396.6715,-18.64202483,16.85844491,0.05750039565,-5.19303308,-20.3867119
396.672,-18.64202483,26.92986037,0.05750039565,-5.803421896,-30.15293294
396.6725,-18.03163601,30.89738767,0.05750039565,-4.887838672,-35.03604347
396.673,-18.94721923,27.84544359,0.6678892111,-3.361866634,-35.64643228
396.6735,-20.47319127,24.79349951,2.499055657,-2.446283411,-31.37371057
396.674,-21.08358009,23.87791629,3.719833288,-1.22550578,-24.04904479
396.6745,-17.11605279,20.82597221,3.719833288,0.6056606662,-18.86073986
396.675,-10.09658141,14.72208406,2.499055657,3.962799151,-17.94515664
396.6755,-3.687498848,9.838973536,0.6678892111,7.014743228,-19.16593427
396.676,0.280028452,5.871446236,-0.8580828275,8.235520859,-17.94515664
396.6765,4.55275016,-6.641524479,-1.773666051,8.540715266,-13.67243493
396.677,11.26702713,-32.88824354,-2.384054866,7.930326451,-8.484129996
396.6775,19.20208173,-59.1349626,-3.604832497,7.625132043,-3.295825065
396.678,24.39038666,-64.93365635,-5.741193351,8.235520859,1.587285458
396.6785,23.77999785,-48.45315833,-6.656776574,8.845909674,4.639229535
396.679,18.89688732,-26.47916098,-4.52041572,8.540715266,5.24961835
396.6795,13.09819358,-13.35580145,-1.163277235,6.404354412,3.418451904
396.68,9.741055091,-8.777885333,0.05750039565,3.352410335,1.28209105
396.6805,9.435860683,-5.725941256,-0.8580828275,-0.004728149245,-0.8542698039
396.681,11.87741594,-2.673997179,-2.689249274,-3.361866634,-3.601019473
396.6815,15.53974884,-1.453219549,-3.299638089,-5.19303308,-5.737380327
396.682,17.67610969,-0.8428307331,-2.384054866,-4.277449857,-5.737380327
396.6825,16.76052647,0.3779468977,-1.468471643,-2.446283411,-3.295825065
396.683,13.09819358,1.293530121,-0.5528884197,-2.446283411,0.06131341924
396.6835,7.909888645,0.07275248999,0.05750039565,-3.667061042,3.723646312
396.684,2.416389306,-1.148025141,0.6678892111,-4.277449857,6.775590389
396.6845,-2.771915625,-1.148025141,1.278278026,-3.972255449,7.385979204
396.685,-5.823859702,-0.8428307331,1.888666842,-4.277449857,5.24961835
396.6855,-4.908276479,-2.063608364,3.109444473,-5.498227488,3.418451904
396.686,-1.551137994,-4.199969218,3.109444473,-4.887838672,5.554812758
396.6865,-1.245943586,-5.115552441,0.6678892111,-1.835894595,11.3535065
396.687,-3.687498848,-4.505163626,-2.994443681,0.6056606662,16.23661703
396.6875,-3.992693256,-3.89477481,-6.046387758,0.3004662585,15.3210338
396.688,-0.02516595566,-2.979191587,-6.351582166,-2.141089003,11.3535065
396.6885,3.942361344,-1.148025141,-3.299638089,-4.582644265,10.74311769
396.689,1.806000491,0.6831413054,0.6678892111,-6.719005119,15.3210338
396.6895,-2.466721217,2.209113344,3.719833288,-8.855365973,17.45739466
396.69,-1.245943586,2.514307752,3.109444473,-9.465754788,11.0483121
396.6905,5.468333383,1.903918936,0.05750039565,-5.498227488,0.06131341924
396.691,9.435860683,0.6831413054,-1.163277235,1.216049482,-5.126991512
396.6915,4.247555752,-0.2324419177,0.05750039565,6.404354412,-1.159464212
396.692,-3.687498848,-0.2324419177,2.499055657,7.319937636,5.24961835
396.6925,-6.739442925,0.3779468977,2.19386125,6.404354412,5.24961835
396.693,-2.771915625,0.9883357131,-0.5528884197,5.793965597,-1.159464212
396.6935,2.111194898,1.903918936,-2.078860458,4.878382374,-9.094518812
396.694,3.942361344,3.429890975,-0.247694012,3.657604743,-12.4516573
396.6945,3.637166937,4.955863013,2.499055657,3.657604743,-11.53607407
396.695,4.857944568,6.787029459,3.719833288,6.099160005,-9.39971322
396.6955,8.52027746,7.397418275,3.109444473,6.099160005,-8.178935589
396.696,14.31897121,6.787029459,1.888666842,-0.3099225569,-7.263352366
396.6965,19.81247054,4.650668606,0.05750039565,-10.68653242,-5.737380327
396.697,22.55922021,2.209113344,-0.8580828275,-17.40080939,-2.075047435
396.6975,19.81247054,1.293530121,0.05750039565,-15.87483735,2.808063089
396.698,12.48780476,2.819502159,2.499055657,-10.99172683,7.385979204
396.6985,5.773527791,3.735085382,4.330222103,-7.634588342,10.74311769
396.699,4.55275016,3.124696567,3.41463888,-5.803421896,11.65870091
396.6995,5.468333383,1.598724528,1.888666842,-3.056672226,10.43792328
396.7,4.247555752,0.9883357131,2.19386125,-0.004728149245,8.301562427
396.7005,2.111194898,0.9883357131,2.19386125,1.216049482,5.860007166
396.701,6.078722198,0.3779468977,-0.247694012,2.131632705,1.28209105
396.7015,19.81247054,-0.2324419177,-4.825610128,5.488771189,-5.432185919
396.702,35.98777415,-0.5376363254,-7.877554205,10.98227053,-11.84126848
396.7025,43.61763435,-0.8428307331,-7.267165389,14.33940901,-13.06204611
396.703,39.95530145,-1.453219549,-5.130804535,12.81343697,-8.484129996
396.7035,30.79946922,-2.368802772,-3.299638089,9.151104082,-2.68543625
396.704,23.16960903,-2.673997179,-2.384054866,7.625132043,0.06131341924
396.7045,17.37091528,-2.368802772,-1.163277235,7.930326451,0.9768966423
396.705,9.435860683,-1.453219549,1.278278026,6.70954882,4.334035127
396.7055,-0.9407491788,-0.5376363254,4.025027696,2.131632705,9.21714565
396.706,-9.791387002,0.3779468977,4.025027696,-3.056672226,11.65870091
396.7065,-12.23294226,0.6831413054,0.3626948034,-5.498227488,10.13272887
396.707,-8.570609371,0.9883357131,-4.215221312,-3.361866634,5.860007166
396.7075,-5.518665294,2.514307752,-6.046387758,-0.004728149245,2.197674273
396.708,-9.180998187,5.566251829,-4.215221312,0.9108550739,1.892479865
396.7085,-17.11605279,7.092223867,-2.384054866,0.6056606662,4.334035127
396.709,-22.60955213,5.566251829,-3.910026904,0.6056606662,7.385979204
396.7095,-22.60955213,2.819502159,-5.435998943,3.047215928,8.606756835
396.71,-19.55760805,2.209113344,-3.910026904,4.878382374,6.775590389
396.7105,-17.7264416,3.429890975,-0.247694012,3.962799151,2.808063089
396.711,-18.03163601,4.650668606,2.19386125,1.521243889,-1.769853027
396.7115,-16.81085838,4.650668606,3.109444473,0.6056606662,-6.042574735
396.712,-12.84333108,3.124696567,3.109444473,1.216049482,-8.484129996
396.7125,-8.570609371,-1.148025141,2.804250065,2.131632705,-6.65296355
396.713,-7.044637333,-9.388274149,1.278278026,2.74202152,-2.075047435
396.7135,-8.570609371,-17.93371756,-0.5528884197,3.657604743,0.6717022346
396.714,-9.486192594,-20.98566164,-1.163277235,4.573187966,0.06131341924
396.7145,-7.960220556,-18.23891197,0.05750039565,3.657604743,-1.769853027
396.715,-6.434248517,-13.05060704,1.888666842,0.3004662585,-2.380241842
396.7155,-7.34983174,-8.777885333,2.499055657,-1.530700188,-2.075047435
396.716,-8.570609371,-6.031135664,2.19386125,-0.3099225569,-2.990630658
396.7165,-5.823859702,-3.89477481,0.9730836188,1.826438297,-5.126991512
396.717,1.500806083,-2.673997179,-0.247694012,0.6056606662,-5.432185919
396.7175,7.604694237,-2.063608364,-1.773666051,-3.361866634,-2.68543625
396.718,7.299499829,-0.2324419177,-1.773666051,-7.024199526,1.28209105
396.7185,2.721583714,2.819502159,0.05750039565,-7.634588342,4.944423942
396.719,-1.245943586,5.871446236,2.804250065,-6.413810711,6.775590389
396.7195,-3.992693256,7.092223867,4.330222103,-6.108616303,6.775590389
396.72,-5.823859702,7.092223867,4.330222103,-6.413810711,4.639229535
396.7205,-5.823859702,7.092223867,3.719833288,-5.498227488,0.6717022346
396.721,-2.466721217,7.092223867,3.109444473,-3.056672226,-2.990630658
396.7215,2.111194898,6.176640644,2.804250065,-0.3099225569,-5.432185919
396.722,6.078722198,4.04027979,1.888666842,0.6056606662,-5.737380327
396.7225,8.825471868,1.598724528,0.3626948034,0.3004662585,-5.737380327
396.723,11.87741594,-0.2324419177,-0.8580828275,-0.004728149245,-7.568546773
396.7235,14.0137768,-1.453219549,-1.773666051,-0.3099225569,-10.92568526
396.724,12.79299917,-1.758413956,-2.078860458,-0.3099225569,-12.7568517
396.7245,9.130666275,-1.453219549,-1.468471643,-0.9203113723,-11.23087967
396.725,6.078722198,-1.148025141,-1.468471643,-1.530700188,-8.178935589
396.7255,4.55275016,-1.148025141,-1.773666051,-1.22550578,-7.263352366
396.726,2.721583714,-1.148025141,-2.689249274,-0.004728149245,-8.178935589
396.7265,-0.6355547711,-0.2324419177,-2.689249274,0.6056606662,-8.484129996
396.727,-3.687498848,0.6831413054,-2.384054866,0.3004662585,-6.65296355
396.7275,-4.603082071,0.6831413054,-2.384054866,0.3004662585,-5.126991512
396.728,-5.518665294,-0.2324419177,-2.384054866,0.6056606662,-4.211408289
396.7285,-7.960220556,-1.148025141,-0.8580828275,0.9108550739,-3.295825065
396.729,-10.70697023,-0.2324419177,2.19386125,0.9108550739,-1.769853027
396.7295,-11.31735904,1.598724528,4.635416511,0.6056606662,-1.464658619
396.73,-11.31735904,2.819502159,4.635416511,-0.004728149245,-2.380241842
396.7305,-13.7589143,1.293530121,3.109444473,-0.9203113723,-1.159464212
396.731,-19.55760805,-1.758413956,2.499055657,-2.446283411,2.197674273
396.7315,-25.05110739,-2.979191587,3.109444473,-1.835894595,5.554812758
396.732,-28.10305146,-1.758413956,2.804250065,0.9108550739,5.860007166
396.7325,-27.49266265,-0.8428307331,1.278278026,3.962799151,4.639229535
396.733,-25.35630179,-1.453219549,0.6678892111,3.962799151,4.028840719
396.7335,-21.6939689,-2.368802772,1.888666842,1.826438297,3.418451904
396.734,-15.59008075,-2.063608364,2.19386125,1.521243889,0.6717022346
396.7345,-6.434248517,-0.8428307331,1.888666842,3.352410335,-2.990630658
396.735,2.111194898,-1.148025141,1.583472434,4.878382374,-4.516602696
396.7355,6.078722198,-2.368802772,2.804250065,4.878382374,-3.295825065
396.736,4.857944568,-2.979191587,2.499055657,4.267993559,-1.159464212
396.7365,2.111194898,-2.063608364,0.6678892111,3.962799151,0.06131341924
396.737,2.416389306,-1.148025141,-1.468471643,3.962799151,-0.2438809885
396.7375,5.773527791,-2.673997179,-2.689249274,2.436827112,-1.464658619
396.738,9.130666275,-5.115552441,-3.604832497,-0.004728149245,-3.601019473
396.7385,10.0462495,-7.251913295,-5.741193351,-2.751477819,-4.821797104
396.739,8.52027746,-7.251913295,-6.351582166,-3.667061042,-4.516602696
396.7395,6.383916606,-6.641524479,-3.604832497,-2.446283411,-3.295825065
396.74,4.857944568,-6.031135664,0.05750039565,-0.004728149245,-2.990630658
396.7405,3.942361344,-4.810358033,1.583472434,0.9108550739,-2.075047435
396.741,2.721583714,-3.589580402,1.583472434,0.3004662585,-0.2438809885
396.7415,2.111194898,-2.673997179,0.3626948034,-0.9203113723,1.28209105
396.742,2.721583714,-2.063608364,-0.8580828275,-2.751477819,0.9768966423
396.7425,3.331972529,0.07275248999,-2.384054866,-5.19303308,-0.2438809885
396.743,2.111194898,5.261057421,-1.468471643,-7.329393934,0.06131341924
396.7435,-0.9407491788,9.533779129,1.583472434,-7.634588342,1.892479865
396.744,-3.077110033,8.313001498,4.025027696,-4.887838672,2.808063089
396.7445,-1.245943586,2.819502159,3.109444473,0.3004662585,0.9768966423
396.745,1.806000491,-1.148025141,0.9730836188,5.488771189,-0.2438809885
396.7455,3.331972529,-0.8428307331,0.9730836188,7.930326451,0.6717022346
396.746,2.111194898,0.3779468977,2.804250065,6.70954882,3.418451904
396.7465,-0.02516595566,0.3779468977,3.719833288,3.962799151,4.639229535
396.747,-2.466721217,-1.148025141,2.804250065,1.216049482,4.334035127
396.7475,-6.12905411,-1.453219549,1.278278026,-0.004728149245,5.24961835
396.748,-8.570609371,-0.5376363254,0.05750039565,-0.3099225569,7.996368019
396.7485,-8.265414964,0.07275248999,0.05750039565,-0.9203113723,10.43792328
396.749,-6.12905411,-0.5376363254,0.05750039565,-1.530700188,9.827534466
396.7495,-4.603082071,-1.758413956,0.6678892111,-0.6151169646,7.080784796
396.75,-4.908276479,-1.758413956,0.05750039565,0.6056606662,4.028840719
396.7505,-5.823859702,-0.2324419177,-1.773666051,1.521243889,2.197674273
396.751,-7.044637333,0.6831413054,-3.604832497,0.6056606662,1.587285458
396.7515,-7.34983174,-0.2324419177,-3.910026904,-0.6151169646,2.197674273
396.752,-5.823859702,-1.758413956,-3.604832497,-0.9203113723,2.197674273
396.7525,-1.856332402,-2.673997179,-3.604832497,-0.004728149245,1.892479865
396.753,0.280028452,-2.063608364,-2.994443681,0.9108550739,1.28209105
396.7535,-0.02516595566,-0.8428307331,-0.5528884197,0.9108550739,0.06131341924
396.754,-1.856332402,-0.5376363254,1.278278026,0.3004662585,-1.769853027
396.7545,-0.9407491788,-0.5376363254,0.9730836188,0.6056606662,-3.601019473
396.755,1.806000491,0.07275248999,-0.8580828275,1.521243889,-3.906213881
396.7555,3.637166937,1.598724528,-2.689249274,2.74202152,-3.295825065
396.756,3.942361344,2.209113344,-2.689249274,3.352410335,-4.516602696
396.7565,5.773527791,1.293530121,-2.384054866,4.267993559,-7.873741181
396.757,9.435860683,0.3779468977,-1.773666051,5.183576782,-9.704907627
396.7575,11.26702713,1.293530121,0.05750039565,6.099160005,-8.178935589
396.758,9.741055091,3.735085382,0.6678892111,5.793965597,-7.263352366
396.7585,7.604694237,6.481835052,0.05750039565,4.878382374,-9.39971322
396.759,6.994305421,8.313001498,-1.468471643,4.573187966,-11.23087967
396.7595,6.689111014,10.14416794,-0.8580828275,5.183576782,-9.094518812
396.76,5.468333383,12.89091761,1.278278026,6.099160005,-4.821797104
396.7605,3.331972529,16.2480561,2.804250065,6.099160005,-3.906213881
396.761,2.721583714,18.99480577,3.109444473,5.183576782,-6.65296355
396.7615,3.026778121,19.30000018,2.804250065,3.657604743,-8.484129996
396.762,3.942361344,16.85844491,3.41463888,1.826438297,-8.178935589
396.7625,4.247555752,13.19611202,4.330222103,-0.3099225569,-7.263352366
396.763,3.331972529,10.75455676,4.330222103,-3.361866634,-7.263352366
396.7635,1.195611675,9.533779129,3.719833288,-5.803421896,-5.126991512
396.764,0.8904172674,7.092223867,2.19386125,-6.413810711,-2.075047435
396.7645,5.468333383,1.598724528,0.05750039565,-5.19303308,-2.380241842
396.765,12.48780476,-5.725941256,-2.078860458,-3.056672226,-7.263352366
396.7655,14.62416561,-12.13502382,-4.52041572,-0.9203113723,-10.31529644
396.766,8.52027746,-15.79735671,-5.741193351,-0.004728149245,-7.263352366
396.7665,-0.6355547711,-17.32332875,-5.741193351,0.3004662585,-0.8542698039
396.767,-7.044637333,-17.93371756,-4.52041572,-0.004728149245,6.165201573
396.7675,-10.70697023,-18.84930079,-2.689249274,0.9108550739,16.23661703
396.768,-17.42124719,-20.98566164,-1.773666051,2.436827112,32.41192064
396.7685,-28.40824587,-23.1220225,-1.468471643,4.573187966,48.89241865
396.769,-37.86927251,-22.81682809,-1.163277235,6.70954882,54.38591799
396.7695,-38.47966133,-18.23891197,-0.5528884197,7.319937636,44.92489135
396.77,-31.46018995,-9.693468556,0.05750039565,5.793965597,27.2236157
396.7705,-22.60955213,-0.5376363254,1.583472434,2.131632705,9.522340058
396.771,-16.81085838,5.871446236,3.719833288,-0.004728149245,-4.211408289
396.7715,-15.28488634,8.618195906,5.245805327,0.9108550739,-15.80879578
396.772,-15.59008075,8.618195906,4.635416511,3.047215928,-22.82826716
396.7725,-12.84333108,8.00780709,3.109444473,-0.004728149245,-22.21787834
396.773,-5.213470887,7.702612683,2.499055657,-9.465754788,-15.50360137
396.7735,3.026778121,6.787029459,3.41463888,-18.62158702,-8.789324404
396.774,7.604694237,4.345474198,3.109444473,-20.14755906,-7.263352366
396.7745,8.215083052,1.598724528,0.9730836188,-14.65405972,-8.178935589
396.775,10.96183272,0.9883357131,-0.5528884197,-10.0761436,-6.042574735
396.7755,16.45533206,0.3779468977,-0.247694012,-9.465754788,-0.5490753962
396.776,18.59169291,-1.148025141,1.278278026,-10.0761436,4.334035127
396.7765,14.0137768,-2.979191587,2.499055657,-7.634588342,7.080784796
396.777,6.994305421,-2.368802772,3.109444473,-3.056672226,11.0483121
396.7775,3.026778121,1.903918936,2.804250065,-0.004728149245,16.54181144
396.778,1.806000491,7.092223867,1.278278026,0.3004662585,19.2885611
396.7785,2.721583714,12.2805288,-0.247694012,0.3004662585,15.0158394
396.779,9.741055091,17.46883373,-2.078860458,0.9108550739,6.165201573
396.7795,23.16960903,20.82597221,-3.604832497,1.826438297,-1.159464212
396.78,33.8514133,20.2155834,-5.435998943,2.436827112,-4.211408289
396.7805,32.93583008,17.77402814,-6.961970981,3.657604743,-2.990630658
396.781,24.08519225,15.63766728,-6.656776574,4.267993559,1.28209105
396.7815,18.59169291,10.14416794,-5.130804535,3.657604743,6.470395981
396.782,19.50727614,-7.557107703,-5.130804535,2.74202152,10.13272887
396.7825,18.28649851,-36.24538203,-6.961970981,3.352410335,11.96389532
396.783,10.35144391,-60.35574023,-9.098331835,4.573187966,15.3210338
396.7835,1.195611675,-64.62846194,-9.708720651,4.573187966,19.59375551
396.784,-1.551137994,-49.36874156,-8.793137428,2.131632705,19.2885611
396.7845,0.8904172674,-29.22591065,-6.351582166,-0.004728149245,13.18467295
396.785,3.026778121,-15.1869679,-3.604832497,-0.3099225569,6.775590389
396.7855,1.195611675,-9.388274149,-1.773666051,-0.3099225569,4.944423942
396.786,-0.9407491788,-6.641524479,-1.468471643,-1.530700188,2.808063089
396.7865,-0.02516595566,-3.589580402,-0.8580828275,-4.887838672,-6.042574735
396.787,3.942361344,0.3779468977,1.278278026,-6.719005119,-17.94515664
396.7875,3.637166937,3.735085382,3.719833288,-5.498227488,-21.60748953
396.788,-6.12905411,4.345474198,3.109444473,-2.141089003,-17.63996223
396.7885,-21.6939689,3.429890975,0.3626948034,-0.004728149245,-14.89321256
396.789,-31.76538436,3.429890975,-0.5528884197,-0.9203113723,-17.33476782
396.7895,-32.07057876,5.566251829,0.05750039565,-2.751477819,-19.47112867
396.79,-28.71344028,6.481835052,0.6678892111,-3.361866634,-16.11399019
396.7905,-27.49266265,5.566251829,0.6678892111,-2.751477819,-10.62049085
396.791,-27.79785706,3.735085382,0.9730836188,-1.530700188,-5.737380327
396.7915,-25.6614962,3.124696567,2.19386125,-1.530700188,0.06131341924
396.792,-24.44071857,3.429890975,4.635416511,-3.361866634,6.470395981
396.7925,-26.57707943,4.955863013,7.38216618,-5.19303308,9.522340058
396.793,-27.49266265,7.702612683,8.908138219,-4.887838672,5.554812758
396.7935,-21.08358009,11.36494557,7.38216618,-1.835894595,-0.2438809885
396.794,-9.791387002,13.19611202,3.109444473,0.9108550739,-4.211408289
396.7945,-1.551137994,12.89091761,0.6678892111,2.131632705,-6.958157958
396.795,1.195611675,13.19611202,2.19386125,1.521243889,-10.92568526
396.7955,5.163138975,13.80650084,4.635416511,2.131632705,-12.14646289
396.796,12.48780476,12.89091761,3.109444473,5.488771189,-6.958157958
