"type","name","time_units","begin_time","frequency","count","units"
"signal","Ultium EMG-FLEX.CAPR.U RT","s",351.96000,2000,22000,"uV"

"time","value"
351.96000,5.183576782
351.96050,1.521243889
351.96100,-0.004728149245
351.96150,-0.3099225569
351.96200,-0.004728149245
351.96250,-0.004728149245
351.96300,-0.6151169646
351.96350,-0.004728149245
351.96400,1.216049482
351.96450,2.131632705
351.96500,2.436827112
351.96550,2.74202152
351.96600,3.047215928
351.96650,2.436827112
351.96700,2.131632705
351.96750,2.131632705
351.96800,2.131632705
351.96850,1.521243889
351.96900,-0.004728149245
351.96950,-0.6151169646
351.97000,-0.6151169646
351.97050,-0.9203113723
351.97100,-1.22550578
351.97150,-1.22550578
351.97200,-0.3099225569
351.97250,-0.004728149245
351.97300,-0.6151169646
351.97350,-1.530700188
351.97400,-1.835894595
351.97450,-1.835894595
351.97500,-3.056672226
351.97550,-3.667061042
351.97600,-3.361866634
351.97650,-2.141089003
351.97700,-0.9203113723
351.97750,-0.004728149245
351.97800,0.3004662585
351.97850,-0.004728149245
351.97900,-1.22550578
351.97950,-3.056672226
351.98000,-3.972255449
351.98050,-4.277449857
351.98100,-5.19303308
351.98150,-6.719005119
351.98200,-6.719005119
351.98250,-4.887838672
351.98300,-1.530700188
351.98350,2.131632705
351.98400,5.793965597
351.98450,6.70954882
351.98500,4.878382374
351.98550,2.436827112
351.98600,1.826438297
351.98650,3.047215928
351.98700,3.352410335
351.98750,1.521243889
351.98800,-0.6151169646
351.98850,-1.835894595
351.98900,-0.9203113723
351.98950,-0.004728149245
351.99000,-0.004728149245
351.99050,-0.004728149245
351.99100,0.3004662585
351.99150,1.216049482
351.99200,1.826438297
351.99250,1.826438297
351.99300,1.521243889
351.99350,1.521243889
351.99400,1.521243889
351.99450,1.216049482
351.99500,-0.004728149245
351.99550,-1.835894595
351.99600,-3.667061042
351.99650,-4.277449857
351.99700,-2.751477819
351.99750,-0.6151169646
351.99800,0.6056606662
351.99850,0.9108550739
351.99900,1.216049482
351.99950,1.521243889
352.00000,-0.004728149245
352.00050,-3.056672226
352.00100,-4.887838672
352.00150,-3.972255449
352.00200,-1.835894595
352.00250,-0.9203113723
352.00300,-0.3099225569
352.00350,2.131632705
352.00400,5.183576782
352.00450,5.793965597
352.00500,4.267993559
352.00550,2.131632705
352.00600,0.9108550739
352.00650,-0.6151169646
352.00700,-1.835894595
352.00750,-1.530700188
352.00800,-0.6151169646
352.00850,-0.9203113723
352.00900,-2.446283411
352.00950,-2.141089003
352.01000,-0.3099225569
352.01050,-0.004728149245
352.01100,-2.446283411
352.01150,-3.361866634
352.01200,-0.6151169646
352.01250,2.74202152
352.01300,3.352410335
352.01350,1.216049482
352.01400,0.3004662585
352.01450,0.9108550739
352.01500,1.216049482
352.01550,-0.004728149245
352.01600,-2.141089003
352.01650,-2.141089003
352.01700,-0.6151169646
352.01750,0.6056606662
352.01800,0.3004662585
352.01850,-0.6151169646
352.01900,-1.22550578
352.01950,-0.6151169646
352.02000,-0.004728149245
352.02050,0.3004662585
352.02100,-0.004728149245
352.02150,-0.6151169646
352.02200,-0.3099225569
352.02250,0.3004662585
352.02300,0.9108550739
352.02350,1.216049482
352.02400,1.216049482
352.02450,0.9108550739
352.02500,-0.004728149245
352.02550,-0.004728149245
352.02600,0.3004662585
352.02650,0.3004662585
352.02700,-0.004728149245
352.02750,-0.9203113723
352.02800,-0.6151169646
352.02850,-0.004728149245
352.02900,0.6056606662
352.02950,0.3004662585
352.03000,-0.004728149245
352.03050,-0.004728149245
352.03100,-0.004728149245
352.03150,-0.6151169646
352.03200,-0.9203113723
352.03250,-0.9203113723
352.03300,-1.835894595
352.03350,-3.361866634
352.03400,-4.582644265
352.03450,-4.582644265
352.03500,-3.361866634
352.03550,-2.141089003
352.03600,-0.3099225569
352.03650,2.436827112
352.03700,5.183576782
352.03750,5.488771189
352.03800,3.657604743
352.03850,1.521243889
352.03900,0.9108550739
352.03950,1.216049482
352.04000,1.521243889
352.04050,0.9108550739
352.04100,0.6056606662
352.04150,0.6056606662
352.04200,1.216049482
352.04250,1.521243889
352.04300,1.216049482
352.04350,0.3004662585
352.04400,-0.6151169646
352.04450,-1.835894595
352.04500,-3.972255449
352.04550,-6.413810711
352.04600,-7.634588342
352.04650,-4.582644265
352.04700,2.436827112
352.04750,10.0666873
352.04800,13.42382579
352.04850,11.59265934
352.04900,7.319937636
352.04950,3.962799151
352.05000,1.826438297
352.05050,-0.6151169646
352.05100,-3.361866634
352.05150,-3.667061042
352.05200,-0.3099225569
352.05250,4.573187966
352.05300,8.235520859
352.05350,8.845909674
352.05400,7.014743228
352.05450,3.657604743
352.05500,-0.004728149245
352.05550,-3.361866634
352.05600,-3.361866634
352.05650,-0.6151169646
352.05700,1.826438297
352.05750,1.826438297
352.05800,0.6056606662
352.05850,-0.004728149245
352.05900,0.3004662585
352.05950,0.3004662585
352.06000,0.6056606662
352.06050,0.3004662585
352.06100,-0.9203113723
352.06150,-3.667061042
352.06200,-4.582644265
352.06250,-1.530700188
352.06300,3.962799151
352.06350,7.930326451
352.06400,7.319937636
352.06450,3.962799151
352.06500,1.216049482
352.06550,-0.004728149245
352.06600,-0.3099225569
352.06650,0.3004662585
352.06700,2.131632705
352.06750,3.352410335
352.06800,3.352410335
352.06850,2.131632705
352.06900,2.436827112
352.06950,3.962799151
352.07000,5.183576782
352.07050,3.352410335
352.07100,-0.6151169646
352.07150,-4.887838672
352.07200,-7.329393934
352.07250,-8.244977157
352.07300,-8.244977157
352.07350,-7.329393934
352.07400,-5.19303308
352.07450,-4.582644265
352.07500,-5.803421896
352.07550,-5.803421896
352.07600,-1.530700188
352.07650,4.878382374
352.07700,9.45629849
352.07750,8.845909674
352.07800,5.183576782
352.07850,2.131632705
352.07900,0.6056606662
352.07950,-0.004728149245
352.08000,-0.9203113723
352.08050,-1.835894595
352.08100,-1.22550578
352.08150,0.6056606662
352.08200,2.74202152
352.08250,2.436827112
352.08300,-0.004728149245
352.08350,-3.056672226
352.08400,-3.667061042
352.08450,-1.530700188
352.08500,0.3004662585
352.08550,0.3004662585
352.08600,-0.004728149245
352.08650,0.6056606662
352.08700,2.436827112
352.08750,2.74202152
352.08800,1.826438297
352.08850,0.9108550739
352.08900,1.216049482
352.08950,1.826438297
352.09000,1.521243889
352.09050,0.3004662585
352.09100,-1.22550578
352.09150,-2.141089003
352.09200,-2.446283411
352.09250,-2.751477819
352.09300,-2.751477819
352.09350,-3.056672226
352.09400,-3.361866634
352.09450,-3.361866634
352.09500,-2.446283411
352.09550,-0.6151169646
352.09600,0.6056606662
352.09650,0.3004662585
352.09700,-0.9203113723
352.09750,-1.22550578
352.09800,-0.3099225569
352.09850,-0.004728149245
352.09900,-1.22550578
352.09950,-2.751477819
352.10000,-1.530700188
352.10050,0.9108550739
352.10100,2.74202152
352.10150,2.436827112
352.10200,1.216049482
352.10250,0.6056606662
352.10300,-0.004728149245
352.10350,-0.9203113723
352.10400,-1.835894595
352.10450,-2.141089003
352.10500,-2.446283411
352.10550,-3.361866634
352.10600,-4.277449857
352.10650,-5.19303308
352.10700,-5.498227488
352.10750,-5.803421896
352.10800,-4.582644265
352.10850,-2.141089003
352.10900,-0.004728149245
352.10950,-0.004728149245
352.11000,-1.530700188
352.11050,-2.141089003
352.11100,-0.9203113723
352.11150,-0.3099225569
352.11200,-1.835894595
352.11250,-4.277449857
352.11300,-5.498227488
352.11350,-5.19303308
352.11400,-5.19303308
352.11450,-6.108616303
352.11500,-6.413810711
352.11550,-5.498227488
352.11600,-4.277449857
352.11650,-2.751477819
352.11700,-0.9203113723
352.11750,2.436827112
352.11800,5.793965597
352.11850,6.70954882
352.11900,4.878382374
352.11950,1.826438297
352.12000,-0.3099225569
352.12050,-1.835894595
352.12100,-3.361866634
352.12150,-5.498227488
352.12200,-7.634588342
352.12250,-8.550171565
352.12300,-7.939782749
352.12350,-7.634588342
352.12400,-7.024199526
352.12450,-4.277449857
352.12500,1.521243889
352.12550,6.70954882
352.12600,7.014743228
352.12650,3.657604743
352.12700,1.521243889
352.12750,3.047215928
352.12800,5.183576782
352.12850,5.183576782
352.12900,3.047215928
352.12950,0.9108550739
352.13000,-0.004728149245
352.13050,-0.004728149245
352.13100,1.216049482
352.13150,2.74202152
352.13200,2.436827112
352.13250,0.3004662585
352.13300,-1.22550578
352.13350,-0.9203113723
352.13400,-0.004728149245
352.13450,-0.004728149245
352.13500,-0.3099225569
352.13550,-0.004728149245
352.13600,0.3004662585
352.13650,0.6056606662
352.13700,-0.004728149245
352.13750,-0.9203113723
352.13800,-0.6151169646
352.13850,0.6056606662
352.13900,3.047215928
352.13950,3.657604743
352.14000,1.826438297
352.14050,-0.9203113723
352.14100,-3.361866634
352.14150,-4.277449857
352.14200,-4.277449857
352.14250,-3.667061042
352.14300,-2.141089003
352.14350,-0.6151169646
352.14400,-0.3099225569
352.14450,-0.9203113723
352.14500,-0.9203113723
352.14550,-0.6151169646
352.14600,-0.9203113723
352.14650,-0.6151169646
352.14700,0.3004662585
352.14750,1.216049482
352.14800,0.3004662585
352.14850,-2.141089003
352.14900,-3.667061042
352.14950,-2.446283411
352.15000,-0.9203113723
352.15050,-0.9203113723
352.15100,-1.22550578
352.15150,-0.6151169646
352.15200,-0.3099225569
352.15250,-0.9203113723
352.15300,-1.835894595
352.15350,-0.9203113723
352.15400,0.6056606662
352.15450,2.74202152
352.15500,3.962799151
352.15550,5.183576782
352.15600,5.488771189
352.15650,4.573187966
352.15700,3.352410335
352.15750,2.436827112
352.15800,0.9108550739
352.15850,-1.835894595
352.15900,-3.972255449
352.15950,-3.667061042
352.16000,-2.141089003
352.16050,-2.446283411
352.16100,-3.667061042
352.16150,-2.751477819
352.16200,-0.004728149245
352.16250,2.131632705
352.16300,1.216049482
352.16350,0.3004662585
352.16400,0.6056606662
352.16450,1.521243889
352.16500,1.521243889
352.16550,1.521243889
352.16600,2.74202152
352.16650,3.352410335
352.16700,2.131632705
352.16750,0.9108550739
352.16800,1.216049482
352.16850,0.9108550739
352.16900,-0.9203113723
352.16950,-3.056672226
352.17000,-2.446283411
352.17050,-0.004728149245
352.17100,0.9108550739
352.17150,0.6056606662
352.17200,-0.004728149245
352.17250,-0.3099225569
352.17300,-1.22550578
352.17350,-1.530700188
352.17400,1.216049482
352.17450,6.099160005
352.17500,8.235520859
352.17550,6.404354412
352.17600,3.352410335
352.17650,2.436827112
352.17700,2.74202152
352.17750,1.521243889
352.17800,-0.004728149245
352.17850,-0.3099225569
352.17900,1.826438297
352.17950,4.267993559
352.18000,4.573187966
352.18050,2.131632705
352.18100,-0.004728149245
352.18150,-1.835894595
352.18200,-2.446283411
352.18250,-2.141089003
352.18300,-0.9203113723
352.18350,0.9108550739
352.18400,3.352410335
352.18450,4.878382374
352.18500,4.573187966
352.18550,3.352410335
352.18600,3.352410335
352.18650,5.183576782
352.18700,6.70954882
352.18750,6.099160005
352.18800,3.047215928
352.18850,1.216049482
352.18900,1.216049482
352.18950,0.9108550739
352.19000,-1.835894595
352.19050,-4.582644265
352.19100,-2.751477819
352.19150,2.74202152
352.19200,7.014743228
352.19250,6.70954882
352.19300,3.352410335
352.19350,0.9108550739
352.19400,-0.004728149245
352.19450,-0.004728149245
352.19500,-0.004728149245
352.19550,1.521243889
352.19600,3.657604743
352.19650,5.183576782
352.19700,6.099160005
352.19750,6.70954882
352.19800,7.014743228
352.19850,6.099160005
352.19900,3.962799151
352.19950,2.131632705
352.20000,1.521243889
352.20050,2.131632705
352.20100,3.047215928
352.20150,3.657604743
352.20200,4.267993559
352.20250,3.962799151
352.20300,3.047215928
352.20350,0.6056606662
352.20400,-1.530700188
352.20450,-3.056672226
352.20500,-2.751477819
352.20550,-1.835894595
352.20600,-2.141089003
352.20650,-3.667061042
352.20700,-4.277449857
352.20750,-3.056672226
352.20800,-1.530700188
352.20850,-0.9203113723
352.20900,-1.22550578
352.20950,-1.22550578
352.21000,-0.6151169646
352.21050,-0.3099225569
352.21100,-0.6151169646
352.21150,-2.141089003
352.21200,-4.277449857
352.21250,-6.108616303
352.21300,-5.498227488
352.21350,-3.056672226
352.21400,-0.9203113723
352.21450,-0.3099225569
352.21500,-0.004728149245
352.21550,1.216049482
352.21600,4.267993559
352.21650,6.70954882
352.21700,7.014743228
352.21750,5.793965597
352.21800,3.657604743
352.21850,0.9108550739
352.21900,-0.9203113723
352.21950,-0.3099225569
352.22000,1.826438297
352.22050,3.047215928
352.22100,1.521243889
352.22150,-0.6151169646
352.22200,-1.530700188
352.22250,-1.530700188
352.22300,-2.141089003
352.22350,-3.361866634
352.22400,-2.751477819
352.22450,-0.9203113723
352.22500,-0.004728149245
352.22550,-0.004728149245
352.22600,0.9108550739
352.22650,3.352410335
352.22700,3.657604743
352.22750,0.6056606662
352.22800,-2.751477819
352.22850,-3.667061042
352.22900,-2.141089003
352.22950,-1.835894595
352.23000,-3.972255449
352.23050,-6.719005119
352.23100,-7.024199526
352.23150,-4.887838672
352.23200,-2.751477819
352.23250,-2.446283411
352.23300,-3.361866634
352.23350,-3.972255449
352.23400,-5.19303308
352.23450,-7.024199526
352.23500,-9.465754788
352.23550,-10.0761436
352.23600,-8.550171565
352.23650,-5.498227488
352.23700,-2.446283411
352.23750,0.3004662585
352.23800,3.657604743
352.23850,4.878382374
352.23900,2.436827112
352.23950,-1.22550578
352.24000,-3.056672226
352.24050,-1.835894595
352.24100,-0.3099225569
352.24150,-1.22550578
352.24200,-3.056672226
352.24250,-3.056672226
352.24300,-1.530700188
352.24350,-0.9203113723
352.24400,-0.9203113723
352.24450,-0.9203113723
352.24500,-0.3099225569
352.24550,0.3004662585
352.24600,0.6056606662
352.24650,0.6056606662
352.24700,0.6056606662
352.24750,-0.004728149245
352.24800,-1.530700188
352.24850,-1.835894595
352.24900,-1.22550578
352.24950,-0.6151169646
352.25000,-0.9203113723
352.25050,-1.530700188
352.25100,-2.141089003
352.25150,-2.446283411
352.25200,-2.751477819
352.25250,-1.835894595
352.25300,-0.9203113723
352.25350,-0.004728149245
352.25400,0.3004662585
352.25450,0.9108550739
352.25500,0.9108550739
352.25550,0.3004662585
352.25600,-0.004728149245
352.25650,-0.6151169646
352.25700,-0.3099225569
352.25750,-0.004728149245
352.25800,-0.004728149245
352.25850,-1.530700188
352.25900,-2.446283411
352.25950,-2.446283411
352.26000,-0.6151169646
352.26050,1.216049482
352.26100,2.131632705
352.26150,1.826438297
352.26200,0.6056606662
352.26250,-1.22550578
352.26300,-3.056672226
352.26350,-3.056672226
352.26400,-1.530700188
352.26450,-0.004728149245
352.26500,0.3004662585
352.26550,-0.004728149245
352.26600,-0.3099225569
352.26650,-0.9203113723
352.26700,-1.530700188
352.26750,-1.835894595
352.26800,-2.446283411
352.26850,-3.361866634
352.26900,-4.582644265
352.26950,-3.667061042
352.27000,-0.6151169646
352.27050,2.131632705
352.27100,3.352410335
352.27150,3.352410335
352.27200,3.352410335
352.27250,3.047215928
352.27300,1.521243889
352.27350,-0.9203113723
352.27400,-3.361866634
352.27450,-5.19303308
352.27500,-6.413810711
352.27550,-6.413810711
352.27600,-5.19303308
352.27650,-3.056672226
352.27700,-0.3099225569
352.27750,2.436827112
352.27800,6.099160005
352.27850,8.235520859
352.27900,7.930326451
352.27950,6.404354412
352.28000,4.878382374
352.28050,4.573187966
352.28100,6.099160005
352.28150,8.540715266
352.28200,10.0666873
352.28250,8.845909674
352.28300,5.793965597
352.28350,2.436827112
352.28400,-0.004728149245
352.28450,-2.751477819
352.28500,-6.108616303
352.28550,-6.413810711
352.28600,-3.056672226
352.28650,0.6056606662
352.28700,2.436827112
352.28750,3.657604743
352.28800,6.404354412
352.28850,8.845909674
352.28900,7.930326451
352.28950,3.962799151
352.29000,1.216049482
352.29050,1.216049482
352.29100,2.436827112
352.29150,3.047215928
352.29200,3.047215928
352.29250,2.74202152
352.29300,1.826438297
352.29350,0.9108550739
352.29400,0.3004662585
352.29450,-0.3099225569
352.29500,-1.835894595
352.29550,-3.361866634
352.29600,-1.835894595
352.29650,2.131632705
352.29700,6.099160005
352.29750,6.404354412
352.29800,3.657604743
352.29850,0.9108550739
352.29900,-0.004728149245
352.29950,-0.004728149245
352.30000,-0.004728149245
352.30050,-0.3099225569
352.30100,-0.004728149245
352.30150,-0.004728149245
352.30200,-0.004728149245
352.30250,-0.004728149245
352.30300,-0.004728149245
352.30350,-0.6151169646
352.30400,-1.22550578
352.30450,-1.530700188
352.30500,-1.530700188
352.30550,-1.835894595
352.30600,-2.446283411
352.30650,-1.835894595
352.30700,-0.6151169646
352.30750,-0.004728149245
352.30800,-1.22550578
352.30850,-3.056672226
352.30900,-3.361866634
352.30950,-3.056672226
352.31000,-3.667061042
352.31050,-4.277449857
352.31100,-3.056672226
352.31150,-0.9203113723
352.31200,-0.004728149245
352.31250,-0.3099225569
352.31300,-0.6151169646
352.31350,0.3004662585
352.31400,1.216049482
352.31450,1.216049482
352.31500,0.6056606662
352.31550,-0.004728149245
352.31600,-0.6151169646
352.31650,-1.835894595
352.31700,-2.141089003
352.31750,-2.446283411
352.31800,-3.056672226
352.31850,-4.277449857
352.31900,-4.277449857
352.31950,-2.446283411
352.32000,-1.22550578
352.32050,-1.530700188
352.32100,-2.141089003
352.32150,-2.141089003
352.32200,-1.835894595
352.32250,-2.751477819
352.32300,-3.972255449
352.32350,-4.277449857
352.32400,-3.972255449
352.32450,-4.277449857
352.32500,-4.887838672
352.32550,-5.19303308
352.32600,-4.582644265
352.32650,-4.277449857
352.32700,-4.277449857
352.32750,-4.277449857
352.32800,-3.056672226
352.32850,-2.446283411
352.32900,-2.751477819
352.32950,-3.667061042
352.33000,-3.667061042
352.33050,-1.22550578
352.33100,2.131632705
352.33150,5.183576782
352.33200,5.183576782
352.33250,1.521243889
352.33300,-1.835894595
352.33350,-1.835894595
352.33400,1.216049482
352.33450,3.657604743
352.33500,3.047215928
352.33550,0.6056606662
352.33600,-0.004728149245
352.33650,0.9108550739
352.33700,0.6056606662
352.33750,-0.3099225569
352.33800,-0.3099225569
352.33850,1.216049482
352.33900,2.74202152
352.33950,2.74202152
352.34000,2.131632705
352.34050,2.131632705
352.34100,2.131632705
352.34150,1.521243889
352.34200,1.521243889
352.34250,2.74202152
352.34300,3.962799151
352.34350,3.962799151
352.34400,3.047215928
352.34450,0.9108550739
352.34500,-1.835894595
352.34550,-3.972255449
352.34600,-3.056672226
352.34650,-0.3099225569
352.34700,0.9108550739
352.34750,-0.004728149245
352.34800,-0.3099225569
352.34850,-0.004728149245
352.34900,1.216049482
352.34950,0.9108550739
352.35000,-0.004728149245
352.35050,-0.004728149245
352.35100,-0.9203113723
352.35150,-3.056672226
352.35200,-4.277449857
352.35250,-2.446283411
352.35300,0.9108550739
352.35350,3.962799151
352.35400,5.793965597
352.35450,7.930326451
352.35500,10.0666873
352.35550,10.37188171
352.35600,8.540715266
352.35650,7.014743228
352.35700,6.70954882
352.35750,6.404354412
352.35800,4.573187966
352.35850,1.826438297
352.35900,-0.6151169646
352.35950,-2.446283411
352.36000,-3.361866634
352.36050,-2.751477819
352.36100,-0.9203113723
352.36150,1.826438297
352.36200,5.183576782
352.36250,7.625132043
352.36300,7.625132043
352.36350,5.793965597
352.36400,3.047215928
352.36450,1.521243889
352.36500,1.521243889
352.36550,2.436827112
352.36600,3.047215928
352.36650,2.131632705
352.36700,-0.6151169646
352.36750,-4.277449857
352.36800,-6.108616303
352.36850,-5.803421896
352.36900,-4.887838672
352.36950,-4.887838672
352.37000,-3.972255449
352.37050,-0.004728149245
352.37100,5.183576782
352.37150,7.930326451
352.37200,7.014743228
352.37250,4.573187966
352.37300,3.352410335
352.37350,2.436827112
352.37400,-0.004728149245
352.37450,-2.446283411
352.37500,-3.667061042
352.37550,-3.361866634
352.37600,-3.361866634
352.37650,-4.582644265
352.37700,-4.887838672
352.37750,-3.056672226
352.37800,-0.6151169646
352.37850,-0.004728149245
352.37900,-0.004728149245
352.37950,0.6056606662
352.38000,1.826438297
352.38050,2.436827112
352.38100,1.521243889
352.38150,-0.3099225569
352.38200,-1.835894595
352.38250,-2.751477819
352.38300,-2.751477819
352.38350,-3.056672226
352.38400,-4.582644265
352.38450,-6.719005119
352.38500,-7.939782749
352.38550,-6.719005119
352.38600,-3.361866634
352.38650,-0.6151169646
352.38700,0.6056606662
352.38750,0.6056606662
352.38800,0.3004662585
352.38850,0.3004662585
352.38900,-0.004728149245
352.38950,-0.3099225569
352.39000,-0.9203113723
352.39050,-0.6151169646
352.39100,0.3004662585
352.39150,1.521243889
352.39200,0.6056606662
352.39250,-1.22550578
352.39300,-2.446283411
352.39350,-1.530700188
352.39400,-0.9203113723
352.39450,-2.446283411
352.39500,-5.19303308
352.39550,-5.498227488
352.39600,-3.361866634
352.39650,-0.9203113723
352.39700,-0.3099225569
352.39750,-0.9203113723
352.39800,-1.835894595
352.39850,-1.835894595
352.39900,-1.530700188
352.39950,-0.9203113723
352.40000,-0.6151169646
352.40050,-0.9203113723
352.40100,-0.9203113723
352.40150,-0.004728149245
352.40200,0.6056606662
352.40250,0.6056606662
352.40300,-0.3099225569
352.40350,-0.9203113723
352.40400,-0.6151169646
352.40450,-0.6151169646
352.40500,-2.141089003
352.40550,-4.277449857
352.40600,-5.19303308
352.40650,-5.498227488
352.40700,-5.803421896
352.40750,-5.498227488
352.40800,-5.19303308
352.40850,-4.887838672
352.40900,-3.972255449
352.40950,-1.22550578
352.41000,2.131632705
352.41050,4.267993559
352.41100,3.352410335
352.41150,2.131632705
352.41200,1.826438297
352.41250,2.131632705
352.41300,1.216049482
352.41350,-0.004728149245
352.41400,0.9108550739
352.41450,3.962799151
352.41500,6.099160005
352.41550,4.878382374
352.41600,1.521243889
352.41650,-0.004728149245
352.41700,-0.004728149245
352.41750,0.9108550739
352.41800,1.216049482
352.41850,1.826438297
352.41900,3.657604743
352.41950,4.878382374
352.42000,3.962799151
352.42050,2.131632705
352.42100,1.521243889
352.42150,1.826438297
352.42200,0.9108550739
352.42250,-1.22550578
352.42300,-3.361866634
352.42350,-4.277449857
352.42400,-4.582644265
352.42450,-3.056672226
352.42500,0.9108550739
352.42550,5.488771189
352.42600,7.014743228
352.42650,4.878382374
352.42700,3.352410335
352.42750,3.962799151
352.42800,4.573187966
352.42850,3.352410335
352.42900,2.436827112
352.42950,3.047215928
352.43000,3.657604743
352.43050,3.047215928
352.43100,3.047215928
352.43150,4.267993559
352.43200,4.878382374
352.43250,3.352410335
352.43300,1.521243889
352.43350,0.9108550739
352.43400,1.216049482
352.43450,0.3004662585
352.43500,-0.004728149245
352.43550,0.3004662585
352.43600,0.9108550739
352.43650,-0.3099225569
352.43700,-1.835894595
352.43750,-0.9203113723
352.43800,1.826438297
352.43850,3.962799151
352.43900,4.573187966
352.43950,3.962799151
352.44000,3.962799151
352.44050,3.657604743
352.44100,3.657604743
352.44150,3.657604743
352.44200,3.352410335
352.44250,2.436827112
352.44300,1.216049482
352.44350,1.826438297
352.44400,3.352410335
352.44450,3.352410335
352.44500,1.521243889
352.44550,-0.004728149245
352.44600,-0.004728149245
352.44650,0.6056606662
352.44700,-0.3099225569
352.44750,-3.056672226
352.44800,-5.803421896
352.44850,-7.634588342
352.44900,-8.855365973
352.44950,-10.38133801
352.45000,-10.99172683
352.45050,-10.0761436
352.45100,-9.16056038
352.45150,-7.939782749
352.45200,-5.19303308
352.45250,-0.004728149245
352.45300,6.099160005
352.45350,10.37188171
352.45400,10.98227053
352.45450,9.151104082
352.45500,5.793965597
352.45550,2.74202152
352.45600,0.9108550739
352.45650,-0.004728149245
352.45700,-0.3099225569
352.45750,-0.6151169646
352.45800,-0.6151169646
352.45850,-0.004728149245
352.45900,1.216049482
352.45950,2.131632705
352.46000,2.131632705
352.46050,0.9108550739
352.46100,-1.22550578
352.46150,-3.972255449
352.46200,-4.887838672
352.46250,-3.361866634
352.46300,-1.22550578
352.46350,-0.6151169646
352.46400,-0.6151169646
352.46450,-0.004728149245
352.46500,-0.004728149245
352.46550,-1.22550578
352.46600,-3.056672226
352.46650,-3.667061042
352.46700,-3.056672226
352.46750,-2.141089003
352.46800,-1.22550578
352.46850,0.9108550739
352.46900,3.657604743
352.46950,3.047215928
352.47000,-0.004728149245
352.47050,-1.530700188
352.47100,0.6056606662
352.47150,3.352410335
352.47200,3.047215928
352.47250,1.521243889
352.47300,1.521243889
352.47350,3.047215928
352.47400,3.047215928
352.47450,0.9108550739
352.47500,-0.004728149245
352.47550,-0.004728149245
352.47600,-0.3099225569
352.47650,-2.446283411
352.47700,-3.361866634
352.47750,-1.835894595
352.47800,-0.6151169646
352.47850,-1.22550578
352.47900,-2.751477819
352.47950,-3.056672226
352.48000,-3.056672226
352.48050,-3.667061042
352.48100,-4.582644265
352.48150,-4.277449857
352.48200,-3.056672226
352.48250,-1.835894595
352.48300,-1.530700188
352.48350,-1.22550578
352.48400,-0.9203113723
352.48450,-1.22550578
352.48500,-3.056672226
352.48550,-4.887838672
352.48600,-6.108616303
352.48650,-6.108616303
352.48700,-5.19303308
352.48750,-3.361866634
352.48800,-1.835894595
352.48850,-0.9203113723
352.48900,-0.6151169646
352.48950,-0.9203113723
352.49000,-0.6151169646
352.49050,-0.004728149245
352.49100,0.9108550739
352.49150,-0.004728149245
352.49200,-3.056672226
352.49250,-5.19303308
352.49300,-4.582644265
352.49350,-2.141089003
352.49400,-0.3099225569
352.49450,-0.004728149245
352.49500,1.216049482
352.49550,2.436827112
352.49600,1.521243889
352.49650,-0.9203113723
352.49700,-2.751477819
352.49750,-1.835894595
352.49800,-0.004728149245
352.49850,1.216049482
352.49900,0.6056606662
352.49950,-0.6151169646
352.50000,-1.530700188
352.50050,-0.6151169646
352.50100,1.521243889
352.50150,3.657604743
352.50200,3.352410335
352.50250,0.9108550739
352.50300,-1.22550578
352.50350,-1.22550578
352.50400,-0.3099225569
352.50450,0.6056606662
352.50500,3.047215928
352.50550,6.404354412
352.50600,8.235520859
352.50650,7.319937636
352.50700,5.183576782
352.50750,4.267993559
352.50800,4.267993559
352.50850,3.047215928
352.50900,0.9108550739
352.50950,-0.6151169646
352.51000,-2.751477819
352.51050,-5.19303308
352.51100,-6.413810711
352.51150,-4.582644265
352.51200,-1.530700188
352.51250,-0.004728149245
352.51300,0.9108550739
352.51350,2.131632705
352.51400,2.436827112
352.51450,0.6056606662
352.51500,-1.530700188
352.51550,-0.6151169646
352.51600,2.131632705
352.51650,3.657604743
352.51700,2.436827112
352.51750,0.9108550739
352.51800,0.6056606662
352.51850,1.216049482
352.51900,0.6056606662
352.51950,-0.3099225569
352.52000,-0.9203113723
352.52050,-0.9203113723
352.52100,-0.004728149245
352.52150,0.6056606662
352.52200,0.6056606662
352.52250,-0.9203113723
352.52300,-2.446283411
352.52350,-1.835894595
352.52400,-1.22550578
352.52450,-1.530700188
352.52500,-2.446283411
352.52550,-1.22550578
352.52600,0.9108550739
352.52650,2.74202152
352.52700,3.962799151
352.52750,5.183576782
352.52800,5.488771189
352.52850,3.657604743
352.52900,1.521243889
352.52950,1.521243889
352.53000,2.131632705
352.53050,0.3004662585
352.53100,-2.141089003
352.53150,-2.141089003
352.53200,0.3004662585
352.53250,1.216049482
352.53300,-0.3099225569
352.53350,-2.751477819
352.53400,-3.667061042
352.53450,-4.277449857
352.53500,-4.887838672
352.53550,-3.972255449
352.53600,-1.835894595
352.53650,-1.530700188
352.53700,-2.751477819
352.53750,-3.056672226
352.53800,-1.22550578
352.53850,-0.004728149245
352.53900,0.3004662585
352.53950,0.6056606662
352.54000,2.74202152
352.54050,4.573187966
352.54100,5.488771189
352.54150,6.404354412
352.54200,8.235520859
352.54250,10.0666873
352.54300,10.67707612
352.54350,10.67707612
352.54400,10.0666873
352.54450,7.625132043
352.54500,4.267993559
352.54550,1.521243889
352.54600,0.3004662585
352.54650,-0.004728149245
352.54700,-1.22550578
352.54750,-2.751477819
352.54800,-2.446283411
352.54850,-0.9203113723
352.54900,0.6056606662
352.54950,1.826438297
352.55000,2.131632705
352.55050,1.826438297
352.55100,2.436827112
352.55150,2.436827112
352.55200,0.3004662585
352.55250,-3.361866634
352.55300,-6.108616303
352.55350,-5.498227488
352.55400,-3.056672226
352.55450,-0.6151169646
352.55500,0.6056606662
352.55550,0.9108550739
352.55600,-1.22550578
352.55650,-6.413810711
352.55700,-10.38133801
352.55750,-9.16056038
352.55800,-3.667061042
352.55850,0.3004662585
352.55900,0.6056606662
352.55950,-0.004728149245
352.56000,-0.3099225569
352.56050,-0.3099225569
352.56100,-1.530700188
352.56150,-2.141089003
352.56200,-0.9203113723
352.56250,1.216049482
352.56300,1.826438297
352.56350,-1.22550578
352.56400,-5.803421896
352.56450,-7.634588342
352.56500,-3.667061042
352.56550,2.131632705
352.56600,4.573187966
352.56650,2.131632705
352.56700,-0.004728149245
352.56750,0.9108550739
352.56800,3.657604743
352.56850,3.962799151
352.56900,2.131632705
352.56950,1.826438297
352.57000,1.826438297
352.57050,-1.530700188
352.57100,-8.550171565
352.57150,-13.12808768
352.57200,-12.82289327
352.57250,-7.634588342
352.57300,-0.3099225569
352.57350,5.793965597
352.57400,8.235520859
352.57450,7.319937636
352.57500,6.70954882
352.57550,7.930326451
352.57600,4.573187966
352.57650,-6.719005119
352.57700,-20.75794787
352.57750,-24.72547517
352.57800,-17.7060038
352.57850,-9.465754788
352.57900,-7.329393934
352.57950,-8.244977157
352.58000,-7.634588342
352.58050,-6.719005119
352.58100,-7.329393934
352.58150,-8.244977157
352.58200,-6.719005119
352.58250,-5.498227488
352.58300,-6.719005119
352.58350,-8.855365973
352.58400,-9.770949196
352.58450,-10.0761436
352.58500,-10.68653242
352.58550,-10.0761436
352.58600,-6.108616303
352.58650,-0.004728149245
352.58700,5.793965597
352.58750,10.37188171
352.58800,11.28746494
352.58850,7.930326451
352.58900,2.131632705
352.58950,0.3004662585
352.59000,2.74202152
352.59050,4.878382374
352.59100,3.047215928
352.59150,-0.004728149245
352.59200,0.3004662585
352.59250,1.826438297
352.59300,2.131632705
352.59350,1.521243889
352.59400,2.131632705
352.59450,3.352410335
352.59500,3.352410335
352.59550,2.74202152
352.59600,3.352410335
352.59650,4.878382374
352.59700,6.099160005
352.59750,6.70954882
352.59800,7.319937636
352.59850,7.319937636
352.59900,6.099160005
352.59950,5.488771189
352.60000,5.488771189
352.60050,4.878382374
352.60100,2.74202152
352.60150,-0.004728149245
352.60200,-0.6151169646
352.60250,-0.004728149245
352.60300,0.6056606662
352.60350,1.216049482
352.60400,1.826438297
352.60450,1.826438297
352.60500,1.521243889
352.60550,1.826438297
352.60600,3.047215928
352.60650,3.962799151
352.60700,4.573187966
352.60750,4.878382374
352.60800,6.404354412
352.60850,8.235520859
352.60900,8.845909674
352.60950,7.625132043
352.61000,5.183576782
352.61050,2.74202152
352.61100,1.521243889
352.61150,2.436827112
352.61200,3.962799151
352.61250,3.047215928
352.61300,-0.004728149245
352.61350,-4.277449857
352.61400,-7.634588342
352.61450,-9.16056038
352.61500,-8.855365973
352.61550,-7.024199526
352.61600,-5.19303308
352.61650,-3.972255449
352.61700,-2.446283411
352.61750,0.6056606662
352.61800,6.099160005
352.61850,11.59265934
352.61900,14.33940901
352.61950,13.42382579
352.62000,10.37188171
352.62050,6.70954882
352.62100,3.962799151
352.62150,3.352410335
352.62200,3.657604743
352.62250,3.352410335
352.62300,2.131632705
352.62350,1.521243889
352.62400,1.826438297
352.62450,1.826438297
352.62500,0.3004662585
352.62550,-1.22550578
352.62600,-2.141089003
352.62650,-0.9203113723
352.62700,0.6056606662
352.62750,2.131632705
352.62800,2.74202152
352.62850,2.74202152
352.62900,2.436827112
352.62950,0.9108550739
352.63000,-1.530700188
352.63050,-3.972255449
352.63100,-4.887838672
352.63150,-3.972255449
352.63200,-2.446283411
352.63250,-0.9203113723
352.63300,-0.3099225569
352.63350,-0.9203113723
352.63400,-2.751477819
352.63450,-4.277449857
352.63500,-3.972255449
352.63550,-1.835894595
352.63600,0.6056606662
352.63650,1.521243889
352.63700,-0.004728149245
352.63750,-2.446283411
352.63800,-5.19303308
352.63850,-7.634588342
352.63900,-8.550171565
352.63950,-7.024199526
352.64000,-1.530700188
352.64050,6.099160005
352.64100,13.42382579
352.64150,16.47576987
352.64200,15.25499224
352.64250,10.67707612
352.64300,4.573187966
352.64350,-0.3099225569
352.64400,-2.446283411
352.64450,-2.141089003
352.64500,-0.9203113723
352.64550,-0.9203113723
352.64600,-1.22550578
352.64650,-0.3099225569
352.64700,0.9108550739
352.64750,0.9108550739
352.64800,-0.004728149245
352.64850,-0.6151169646
352.64900,-0.3099225569
352.64950,0.3004662585
352.65000,0.3004662585
352.65050,-0.004728149245
352.65100,-0.004728149245
352.65150,-0.3099225569
352.65200,-1.22550578
352.65250,-1.835894595
352.65300,-1.835894595
352.65350,-2.141089003
352.65400,-2.446283411
352.65450,-2.751477819
352.65500,-1.835894595
352.65550,-0.3099225569
352.65600,-0.004728149245
352.65650,-0.004728149245
352.65700,-0.004728149245
352.65750,-0.004728149245
352.65800,-0.3099225569
352.65850,-0.6151169646
352.65900,-1.22550578
352.65950,-1.22550578
352.66000,-0.6151169646
352.66050,0.3004662585
352.66100,1.216049482
352.66150,1.826438297
352.66200,1.826438297
352.66250,2.131632705
352.66300,3.047215928
352.66350,3.352410335
352.66400,2.74202152
352.66450,1.826438297
352.66500,0.9108550739
352.66550,-0.004728149245
352.66600,-0.004728149245
352.66650,1.216049482
352.66700,2.436827112
352.66750,1.826438297
352.66800,-1.22550578
352.66850,-4.277449857
352.66900,-4.887838672
352.66950,-3.972255449
352.67000,-3.361866634
352.67050,-3.667061042
352.67100,-2.751477819
352.67150,-0.9203113723
352.67200,0.6056606662
352.67250,1.826438297
352.67300,3.352410335
352.67350,4.878382374
352.67400,4.878382374
352.67450,2.74202152
352.67500,-0.004728149245
352.67550,-0.3099225569
352.67600,0.3004662585
352.67650,0.3004662585
352.67700,-0.9203113723
352.67750,-2.141089003
352.67800,-1.530700188
352.67850,-0.6151169646
352.67900,-1.835894595
352.67950,-4.582644265
352.68000,-5.498227488
352.68050,-3.972255449
352.68100,-3.056672226
352.68150,-3.667061042
352.68200,-3.972255449
352.68250,-2.446283411
352.68300,-0.004728149245
352.68350,0.9108550739
352.68400,-0.004728149245
352.68450,-1.22550578
352.68500,-2.141089003
352.68550,-2.446283411
352.68600,-2.446283411
352.68650,-1.530700188
352.68700,-1.22550578
352.68750,-1.835894595
352.68800,-3.056672226
352.68850,-3.667061042
352.68900,-3.972255449
352.68950,-3.361866634
352.69000,-1.835894595
352.69050,-0.9203113723
352.69100,-1.835894595
352.69150,-3.667061042
352.69200,-3.056672226
352.69250,0.3004662585
352.69300,2.74202152
352.69350,1.521243889
352.69400,-1.22550578
352.69450,-1.530700188
352.69500,0.6056606662
352.69550,3.657604743
352.69600,5.183576782
352.69650,5.793965597
352.69700,5.793965597
352.69750,5.488771189
352.69800,4.267993559
352.69850,3.047215928
352.69900,1.826438297
352.69950,0.6056606662
352.70000,-0.3099225569
352.70050,-1.835894595
352.70100,-2.446283411
352.70150,-2.141089003
352.70200,-0.3099225569
352.70250,1.826438297
352.70300,3.657604743
352.70350,4.267993559
352.70400,3.047215928
352.70450,0.6056606662
352.70500,-1.835894595
352.70550,-3.972255449
352.70600,-4.277449857
352.70650,-3.667061042
352.70700,-3.361866634
352.70750,-3.667061042
352.70800,-3.972255449
352.70850,-3.972255449
352.70900,-4.277449857
352.70950,-4.887838672
352.71000,-5.19303308
352.71050,-5.498227488
352.71100,-5.19303308
352.71150,-3.361866634
352.71200,-0.6151169646
352.71250,1.216049482
352.71300,1.216049482
352.71350,0.3004662585
352.71400,-0.3099225569
352.71450,-0.9203113723
352.71500,-1.835894595
352.71550,-3.056672226
352.71600,-3.667061042
352.71650,-3.056672226
352.71700,-2.141089003
352.71750,-0.9203113723
352.71800,-0.004728149245
352.71850,0.3004662585
352.71900,-0.004728149245
352.71950,-0.9203113723
352.72000,-1.835894595
352.72050,-1.835894595
352.72100,-1.22550578
352.72150,-1.835894595
352.72200,-3.972255449
352.72250,-5.498227488
352.72300,-5.498227488
352.72350,-4.887838672
352.72400,-5.498227488
352.72450,-7.024199526
352.72500,-7.024199526
352.72550,-4.582644265
352.72600,-2.141089003
352.72650,-1.22550578
352.72700,-1.22550578
352.72750,-1.22550578
352.72800,-1.22550578
352.72850,-0.9203113723
352.72900,0.9108550739
352.72950,5.488771189
352.73000,9.151104082
352.73050,10.37188171
352.73100,8.845909674
352.73150,6.404354412
352.73200,2.131632705
352.73250,-1.835894595
352.73300,-3.056672226
352.73350,1.216049482
352.73400,6.404354412
352.73450,5.488771189
352.73500,-2.141089003
352.73550,-10.38133801
352.73600,-12.21250446
352.73650,-7.634588342
352.73700,-1.530700188
352.73750,1.521243889
352.73800,1.826438297
352.73850,0.9108550739
352.73900,0.6056606662
352.73950,1.521243889
352.74000,3.047215928
352.74050,3.962799151
352.74100,4.573187966
352.74150,5.793965597
352.74200,7.014743228
352.74250,7.930326451
352.74300,7.319937636
352.74350,5.183576782
352.74400,2.131632705
352.74450,-0.6151169646
352.74500,-2.446283411
352.74550,-3.056672226
352.74600,-3.056672226
352.74650,-3.056672226
352.74700,-2.141089003
352.74750,-0.3099225569
352.74800,1.216049482
352.74850,2.131632705
352.74900,1.826438297
352.74950,2.131632705
352.75000,3.047215928
352.75050,2.436827112
352.75100,-0.6151169646
352.75150,-5.19303308
352.75200,-7.939782749
352.75250,-8.244977157
352.75300,-7.329393934
352.75350,-5.803421896
352.75400,-3.972255449
352.75450,-1.530700188
352.75500,-0.004728149245
352.75550,1.216049482
352.75600,2.74202152
352.75650,5.488771189
352.75700,8.235520859
352.75750,9.45629849
352.75800,8.235520859
352.75850,5.793965597
352.75900,3.047215928
352.75950,1.216049482
352.76000,1.216049482
352.76050,2.74202152
352.76100,4.267993559
352.76150,3.657604743
352.76200,0.6056606662
352.76250,-1.22550578
352.76300,-0.3099225569
352.76350,3.047215928
352.76400,6.099160005
352.76450,6.70954882
352.76500,4.878382374
352.76550,2.74202152
352.76600,0.6056606662
352.76650,-0.6151169646
352.76700,-0.6151169646
352.76750,0.6056606662
352.76800,1.826438297
352.76850,2.74202152
352.76900,3.962799151
352.76950,6.099160005
352.77000,8.235520859
352.77050,7.625132043
352.77100,3.657604743
352.77150,-0.6151169646
352.77200,-2.751477819
352.77250,-2.751477819
352.77300,-1.530700188
352.77350,-1.530700188
352.77400,-2.446283411
352.77450,-3.056672226
352.77500,-2.446283411
352.77550,-0.9203113723
352.77600,0.6056606662
352.77650,1.521243889
352.77700,1.216049482
352.77750,-0.004728149245
352.77800,-1.22550578
352.77850,-2.141089003
352.77900,-3.361866634
352.77950,-4.887838672
352.78000,-5.498227488
352.78050,-3.667061042
352.78100,-0.3099225569
352.78150,2.131632705
352.78200,2.436827112
352.78250,0.6056606662
352.78300,-0.9203113723
352.78350,-1.835894595
352.78400,-1.835894595
352.78450,-1.530700188
352.78500,-1.835894595
352.78550,-2.141089003
352.78600,-2.141089003
352.78650,-2.141089003
352.78700,-1.835894595
352.78750,-1.22550578
352.78800,-1.530700188
352.78850,-2.446283411
352.78900,-3.056672226
352.78950,-2.446283411
352.79000,-1.530700188
352.79050,-1.530700188
352.79100,-2.446283411
352.79150,-3.056672226
352.79200,-3.056672226
352.79250,-2.751477819
352.79300,-2.751477819
352.79350,-2.751477819
352.79400,-2.141089003
352.79450,-0.9203113723
352.79500,-0.004728149245
352.79550,0.3004662585
352.79600,0.9108550739
352.79650,0.9108550739
352.79700,0.3004662585
352.79750,-0.9203113723
352.79800,-1.530700188
352.79850,-0.3099225569
352.79900,1.521243889
352.79950,3.047215928
352.80000,2.74202152
352.80050,2.131632705
352.80100,2.436827112
352.80150,3.047215928
352.80200,2.74202152
352.80250,1.521243889
352.80300,0.9108550739
352.80350,1.521243889
352.80400,1.521243889
352.80450,0.6056606662
352.80500,-0.004728149245
352.80550,0.9108550739
352.80600,2.74202152
352.80650,3.962799151
352.80700,3.962799151
352.80750,3.962799151
352.80800,3.657604743
352.80850,2.436827112
352.80900,0.6056606662
352.80950,0.3004662585
352.81000,0.6056606662
352.81050,0.6056606662
352.81100,-0.004728149245
352.81150,-0.004728149245
352.81200,1.216049482
352.81250,2.436827112
352.81300,2.436827112
352.81350,1.521243889
352.81400,0.9108550739
352.81450,1.216049482
352.81500,1.826438297
352.81550,1.826438297
352.81600,1.216049482
352.81650,1.216049482
352.81700,1.826438297
352.81750,2.436827112
352.81800,2.436827112
352.81850,2.436827112
352.81900,3.047215928
352.81950,3.657604743
352.82000,3.047215928
352.82050,1.521243889
352.82100,0.9108550739
352.82150,2.131632705
352.82200,3.352410335
352.82250,2.74202152
352.82300,1.216049482
352.82350,-0.6151169646
352.82400,-2.446283411
352.82450,-3.667061042
352.82500,-3.361866634
352.82550,-2.141089003
352.82600,-0.9203113723
352.82650,-0.6151169646
352.82700,-0.9203113723
352.82750,-0.9203113723
352.82800,-0.9203113723
352.82850,-0.6151169646
352.82900,-0.6151169646
352.82950,-1.22550578
352.83000,-3.056672226
352.83050,-3.972255449
352.83100,-3.361866634
352.83150,-2.141089003
352.83200,-2.446283411
352.83250,-3.361866634
352.83300,-2.751477819
352.83350,-0.6151169646
352.83400,-0.004728149245
352.83450,-1.530700188
352.83500,-2.446283411
352.83550,-2.141089003
352.83600,-2.446283411
352.83650,-4.582644265
352.83700,-6.719005119
352.83750,-6.719005119
352.83800,-5.803421896
352.83850,-5.19303308
352.83900,-3.667061042
352.83950,-0.3099225569
352.84000,3.657604743
352.84050,7.014743228
352.84100,8.845909674
352.84150,9.761492897
352.84200,10.37188171
352.84250,9.761492897
352.84300,7.319937636
352.84350,2.74202152
352.84400,-2.751477819
352.84450,-6.413810711
352.84500,-5.803421896
352.84550,-1.835894595
352.84600,2.131632705
352.84650,3.962799151
352.84700,4.878382374
352.84750,5.793965597
352.84800,5.488771189
352.84850,2.74202152
352.84900,-0.6151169646
352.84950,-3.361866634
352.85000,-4.277449857
352.85050,-4.582644265
352.85100,-3.972255449
352.85150,-2.446283411
352.85200,-0.3099225569
352.85250,-0.004728149245
352.85300,-0.6151169646
352.85350,-1.835894595
352.85400,-1.530700188
352.85450,-0.004728149245
352.85500,1.216049482
352.85550,0.6056606662
352.85600,-0.9203113723
352.85650,-1.835894595
352.85700,-0.9203113723
352.85750,-0.004728149245
352.85800,-0.3099225569
352.85850,-2.751477819
352.85900,-5.803421896
352.85950,-7.939782749
352.86000,-7.939782749
352.86050,-5.803421896
352.86100,-1.22550578
352.86150,3.962799151
352.86200,7.625132043
352.86250,7.930326451
352.86300,6.404354412
352.86350,4.267993559
352.86400,1.216049482
352.86450,-3.056672226
352.86500,-7.329393934
352.86550,-8.244977157
352.86600,-6.413810711
352.86650,-4.582644265
352.86700,-4.887838672
352.86750,-5.803421896
352.86800,-5.498227488
352.86850,-3.667061042
352.86900,-1.835894595
352.86950,-1.530700188
352.87000,-3.361866634
352.87050,-5.19303308
352.87100,-4.887838672
352.87150,-1.835894595
352.87200,1.216049482
352.87250,2.436827112
352.87300,1.826438297
352.87350,1.216049482
352.87400,0.9108550739
352.87450,0.6056606662
352.87500,0.9108550739
352.87550,1.826438297
352.87600,2.74202152
352.87650,0.6056606662
352.87700,-4.582644265
352.87750,-9.16056038
352.87800,-8.855365973
352.87850,-3.972255449
352.87900,2.131632705
352.87950,7.014743228
352.88000,8.540715266
352.88050,7.319937636
352.88100,4.878382374
352.88150,2.74202152
352.88200,1.216049482
352.88250,0.6056606662
352.88300,0.9108550739
352.88350,1.521243889
352.88400,1.216049482
352.88450,0.3004662585
352.88500,-0.004728149245
352.88550,0.6056606662
352.88600,1.521243889
352.88650,1.216049482
352.88700,0.9108550739
352.88750,1.521243889
352.88800,1.826438297
352.88850,0.9108550739
352.88900,-0.3099225569
352.88950,-0.9203113723
352.89000,-0.3099225569
352.89050,-1.22550578
352.89100,-2.751477819
352.89150,-2.446283411
352.89200,-0.6151169646
352.89250,0.3004662585
352.89300,-0.6151169646
352.89350,-2.446283411
352.89400,-2.446283411
352.89450,-0.6151169646
352.89500,0.6056606662
352.89550,1.216049482
352.89600,1.216049482
352.89650,1.216049482
352.89700,1.216049482
352.89750,1.521243889
352.89800,1.826438297
352.89850,1.521243889
352.89900,0.6056606662
352.89950,-0.004728149245
352.90000,-0.3099225569
352.90050,-0.3099225569
352.90100,-0.3099225569
352.90150,-0.3099225569
352.90200,-0.3099225569
352.90250,-0.6151169646
352.90300,-0.6151169646
352.90350,-1.22550578
352.90400,-2.141089003
352.90450,-2.446283411
352.90500,-2.141089003
352.90550,-1.22550578
352.90600,-0.6151169646
352.90650,-0.6151169646
352.90700,-0.6151169646
352.90750,-0.6151169646
352.90800,-1.22550578
352.90850,-0.9203113723
352.90900,-0.004728149245
352.90950,0.9108550739
352.91000,-0.004728149245
352.91050,-0.9203113723
352.91100,-0.6151169646
352.91150,-0.004728149245
352.91200,-0.9203113723
352.91250,-2.751477819
352.91300,-3.056672226
352.91350,-1.22550578
352.91400,-0.004728149245
352.91450,-0.9203113723
352.91500,-2.141089003
352.91550,-1.22550578
352.91600,1.521243889
352.91650,4.573187966
352.91700,6.099160005
352.91750,6.099160005
352.91800,5.183576782
352.91850,4.878382374
352.91900,5.488771189
352.91950,6.099160005
352.92000,5.793965597
352.92050,4.573187966
352.92100,2.74202152
352.92150,1.826438297
352.92200,2.131632705
352.92250,3.657604743
352.92300,4.878382374
352.92350,4.573187966
352.92400,2.74202152
352.92450,1.216049482
352.92500,1.521243889
352.92550,3.047215928
352.92600,3.657604743
352.92650,2.436827112
352.92700,1.826438297
352.92750,2.131632705
352.92800,1.521243889
352.92850,-0.9203113723
352.92900,-3.361866634
352.92950,-3.667061042
352.93000,-1.530700188
352.93050,-0.004728149245
352.93100,0.6056606662
352.93150,0.9108550739
352.93200,0.9108550739
352.93250,-0.004728149245
352.93300,-2.141089003
352.93350,-3.972255449
352.93400,-4.277449857
352.93450,-3.667061042
352.93500,-1.835894595
352.93550,0.3004662585
352.93600,2.436827112
352.93650,1.826438297
352.93700,-0.004728149245
352.93750,-1.530700188
352.93800,-1.835894595
352.93850,-2.141089003
352.93900,-2.751477819
352.93950,-1.22550578
352.94000,2.436827112
352.94050,5.488771189
352.94100,4.267993559
352.94150,1.521243889
352.94200,0.6056606662
352.94250,1.521243889
352.94300,0.9108550739
352.94350,-0.9203113723
352.94400,-1.835894595
352.94450,0.3004662585
352.94500,3.047215928
352.94550,2.131632705
352.94600,-0.9203113723
352.94650,-3.056672226
352.94700,-2.751477819
352.94750,-1.22550578
352.94800,-0.6151169646
352.94850,-0.3099225569
352.94900,-0.004728149245
352.94950,0.6056606662
352.95000,0.6056606662
352.95050,-0.6151169646
352.95100,-2.141089003
352.95150,-1.835894595
352.95200,-0.9203113723
352.95250,-0.6151169646
352.95300,-1.835894595
352.95350,-2.751477819
352.95400,-2.751477819
352.95450,-2.446283411
352.95500,-1.835894595
352.95550,-0.9203113723
352.95600,-0.004728149245
352.95650,0.6056606662
352.95700,0.6056606662
352.95750,0.9108550739
352.95800,1.216049482
352.95850,0.9108550739
352.95900,-0.004728149245
352.95950,-1.22550578
352.96000,-2.141089003
352.96050,-1.530700188
352.96100,-0.3099225569
352.96150,0.3004662585
352.96200,0.9108550739
352.96250,1.826438297
352.96300,3.352410335
352.96350,3.352410335
352.96400,0.3004662585
352.96450,-2.751477819
352.96500,-4.277449857
352.96550,-3.667061042
352.96600,-3.056672226
352.96650,-3.361866634
352.96700,-1.835894595
352.96750,1.521243889
352.96800,4.267993559
352.96850,3.657604743
352.96900,1.826438297
352.96950,1.521243889
352.97000,1.826438297
352.97050,-0.004728149245
352.97100,-2.751477819
352.97150,-3.667061042
352.97200,-2.446283411
352.97250,-2.141089003
352.97300,-2.751477819
352.97350,-1.22550578
352.97400,3.657604743
352.97450,8.540715266
352.97500,9.761492897
352.97550,8.235520859
352.97600,5.793965597
352.97650,3.352410335
352.97700,1.216049482
352.97750,1.216049482
352.97800,3.962799151
352.97850,6.099160005
352.97900,4.267993559
352.97950,-0.3099225569
352.98000,-4.582644265
352.98050,-6.413810711
352.98100,-7.024199526
352.98150,-7.329393934
352.98200,-6.108616303
352.98250,-3.361866634
352.98300,-1.22550578
352.98350,-0.6151169646
352.98400,-0.004728149245
352.98450,1.826438297
352.98500,3.962799151
352.98550,3.962799151
352.98600,1.521243889
352.98650,-0.9203113723
352.98700,-3.056672226
352.98750,-3.972255449
352.98800,-4.582644265
352.98850,-4.887838672
352.98900,-5.498227488
352.98950,-5.803421896
352.99000,-3.972255449
352.99050,-0.6151169646
352.99100,2.74202152
352.99150,4.267993559
352.99200,3.047215928
352.99250,1.216049482
352.99300,-0.004728149245
352.99350,-0.004728149245
352.99400,0.6056606662
352.99450,3.047215928
352.99500,5.488771189
352.99550,6.404354412
352.99600,5.793965597
352.99650,5.183576782
352.99700,6.099160005
352.99750,7.625132043
352.99800,8.845909674
352.99850,8.845909674
352.99900,8.845909674
352.99950,8.540715266
353.00000,7.930326451
353.00050,7.014743228
353.00100,4.573187966
353.00150,-0.3099225569
353.00200,-6.413810711
353.00250,-8.244977157
353.00300,-4.582644265
353.00350,-0.6151169646
353.00400,-4.277449857
353.00450,-14.65405972
353.00500,-22.28391991
353.00550,-19.53717024
353.00600,-9.465754788
353.00650,-1.530700188
353.00700,-0.004728149245
353.00750,-0.9203113723
353.00800,-1.22550578
353.00850,-1.22550578
353.00900,-2.141089003
353.00950,-2.446283411
353.01000,-0.6151169646
353.01050,1.826438297
353.01100,2.74202152
353.01150,1.826438297
353.01200,0.3004662585
353.01250,-0.3099225569
353.01300,-0.3099225569
353.01350,0.6056606662
353.01400,3.352410335
353.01450,4.878382374
353.01500,3.047215928
353.01550,0.6056606662
353.01600,0.6056606662
353.01650,3.047215928
353.01700,3.962799151
353.01750,2.436827112
353.01800,0.9108550739
353.01850,1.216049482
353.01900,1.826438297
353.01950,0.9108550739
353.02000,-0.6151169646
353.02050,-1.22550578
353.02100,-1.22550578
353.02150,-2.446283411
353.02200,-4.277449857
353.02250,-4.277449857
353.02300,-3.056672226
353.02350,-1.835894595
353.02400,-1.22550578
353.02450,-0.3099225569
353.02500,-0.004728149245
353.02550,-2.446283411
353.02600,-7.939782749
353.02650,-10.99172683
353.02700,-7.939782749
353.02750,-1.22550578
353.02800,2.74202152
353.02850,2.436827112
353.02900,-0.004728149245
353.02950,-1.22550578
353.03000,-1.22550578
353.03050,-1.530700188
353.03100,-2.446283411
353.03150,-3.667061042
353.03200,-3.972255449
353.03250,-4.277449857
353.03300,-4.887838672
353.03350,-5.19303308
353.03400,-5.498227488
353.03450,-4.887838672
353.03500,-3.972255449
353.03550,-3.361866634
353.03600,-3.361866634
353.03650,-3.361866634
353.03700,-3.056672226
353.03750,-2.141089003
353.03800,-1.530700188
353.03850,-1.835894595
353.03900,-2.446283411
353.03950,-3.056672226
353.04000,-3.667061042
353.04050,-3.667061042
353.04100,-3.361866634
353.04150,-2.141089003
353.04200,-0.9203113723
353.04250,-0.9203113723
353.04300,-2.141089003
353.04350,-2.751477819
353.04400,-1.22550578
353.04450,0.6056606662
353.04500,1.521243889
353.04550,0.9108550739
353.04600,0.3004662585
353.04650,0.6056606662
353.04700,1.216049482
353.04750,0.9108550739
353.04800,-0.004728149245
353.04850,-0.9203113723
353.04900,-2.141089003
353.04950,-2.751477819
353.05000,-2.141089003
353.05050,-0.6151169646
353.05100,-0.3099225569
353.05150,-1.530700188
353.05200,-3.056672226
353.05250,-2.751477819
353.05300,-1.530700188
353.05350,-1.22550578
353.05400,-1.22550578
353.05450,-0.004728149245
353.05500,1.826438297
353.05550,2.74202152
353.05600,1.826438297
353.05650,0.6056606662
353.05700,0.3004662585
353.05750,-0.004728149245
353.05800,-0.6151169646
353.05850,-0.004728149245
353.05900,0.9108550739
353.05950,0.9108550739
353.06000,-0.004728149245
353.06050,-0.3099225569
353.06100,-0.004728149245
353.06150,0.3004662585
353.06200,-0.004728149245
353.06250,-0.3099225569
353.06300,-0.3099225569
353.06350,-0.3099225569
353.06400,-0.6151169646
353.06450,-0.004728149245
353.06500,1.216049482
353.06550,2.436827112
353.06600,2.436827112
353.06650,2.436827112
353.06700,3.352410335
353.06750,3.657604743
353.06800,3.047215928
353.06850,1.826438297
353.06900,1.216049482
353.06950,0.9108550739
353.07000,0.3004662585
353.07050,0.3004662585
353.07100,1.216049482
353.07150,2.74202152
353.07200,4.573187966
353.07250,6.404354412
353.07300,7.625132043
353.07350,7.625132043
353.07400,6.70954882
353.07450,6.099160005
353.07500,7.014743228
353.07550,8.235520859
353.07600,8.235520859
353.07650,6.404354412
353.07700,5.183576782
353.07750,4.878382374
353.07800,4.573187966
353.07850,3.047215928
353.07900,0.9108550739
353.07950,0.6056606662
353.08000,2.74202152
353.08050,5.488771189
353.08100,6.404354412
353.08150,5.793965597
353.08200,5.488771189
353.08250,5.793965597
353.08300,6.099160005
353.08350,6.099160005
353.08400,5.793965597
353.08450,5.793965597
353.08500,4.878382374
353.08550,4.573187966
353.08600,4.878382374
353.08650,5.183576782
353.08700,4.878382374
353.08750,4.267993559
353.08800,3.962799151
353.08850,3.352410335
353.08900,2.131632705
353.08950,0.9108550739
353.09000,1.216049482
353.09050,2.436827112
353.09100,2.74202152
353.09150,1.216049482
353.09200,-0.9203113723
353.09250,-2.141089003
353.09300,-1.22550578
353.09350,-0.004728149245
353.09400,1.521243889
353.09450,2.436827112
353.09500,3.047215928
353.09550,2.436827112
353.09600,0.3004662585
353.09650,-3.056672226
353.09700,-6.413810711
353.09750,-7.329393934
353.09800,-6.108616303
353.09850,-3.972255449
353.09900,-2.446283411
353.09950,-0.9203113723
353.10000,0.9108550739
353.10050,2.436827112
353.10100,3.047215928
353.10150,1.826438297
353.10200,-0.6151169646
353.10250,-3.056672226
353.10300,-4.277449857
353.10350,-3.667061042
353.10400,-1.835894595
353.10450,-0.004728149245
353.10500,1.521243889
353.10550,2.436827112
353.10600,2.74202152
353.10650,1.216049482
353.10700,-0.9203113723
353.10750,-3.667061042
353.10800,-5.498227488
353.10850,-6.108616303
353.10900,-6.108616303
353.10950,-6.719005119
353.11000,-8.244977157
353.11050,-11.29692123
353.11100,-14.34886531
353.11150,-15.26444853
353.11200,-13.12808768
353.11250,-8.550171565
353.11300,-3.972255449
353.11350,-0.9203113723
353.11400,0.3004662585
353.11450,0.6056606662
353.11500,0.9108550739
353.11550,3.047215928
353.11600,7.319937636
353.11650,11.28746494
353.11700,10.98227053
353.11750,7.319937636
353.11800,4.267993559
353.11850,4.267993559
353.11900,5.793965597
353.11950,5.488771189
353.12000,2.436827112
353.12050,-0.6151169646
353.12100,-1.835894595
353.12150,-1.22550578
353.12200,0.3004662585
353.12250,1.826438297
353.12300,2.74202152
353.12350,3.352410335
353.12400,4.878382374
353.12450,6.70954882
353.12500,7.625132043
353.12550,6.70954882
353.12600,4.878382374
353.12650,4.573187966
353.12700,6.099160005
353.12750,4.573187966
353.12800,-2.446283411
353.12850,-13.12808768
353.12900,-19.53717024
353.12950,-17.09561498
353.13000,-9.465754788
353.13050,-3.972255449
353.13100,-3.361866634
353.13150,-4.277449857
353.13200,-3.667061042
353.13250,-2.751477819
353.13300,-2.446283411
353.13350,-3.056672226
353.13400,-2.751477819
353.13450,-2.446283411
353.13500,-2.446283411
353.13550,-2.446283411
353.13600,-1.835894595
353.13650,-2.141089003
353.13700,-3.056672226
353.13750,-3.972255449
353.13800,-3.667061042
353.13850,-3.056672226
353.13900,-3.056672226
353.13950,-3.056672226
353.14000,-2.751477819
353.14050,-2.141089003
353.14100,-2.141089003
353.14150,-2.446283411
353.14200,-1.835894595
353.14250,-0.9203113723
353.14300,-0.6151169646
353.14350,-1.530700188
353.14400,-3.361866634
353.14450,-4.887838672
353.14500,-5.498227488
353.14550,-4.887838672
353.14600,-3.056672226
353.14650,-1.835894595
353.14700,-2.141089003
353.14750,-2.751477819
353.14800,-2.141089003
353.14850,-1.22550578
353.14900,-0.9203113723
353.14950,-1.530700188
353.15000,-1.22550578
353.15050,-0.3099225569
353.15100,0.3004662585
353.15150,0.3004662585
353.15200,0.9108550739
353.15250,1.521243889
353.15300,1.216049482
353.15350,0.6056606662
353.15400,0.3004662585
353.15450,0.3004662585
353.15500,0.3004662585
353.15550,0.6056606662
353.15600,2.131632705
353.15650,3.047215928
353.15700,1.826438297
353.15750,-0.004728149245
353.15800,-0.004728149245
353.15850,1.521243889
353.15900,1.826438297
353.15950,-0.3099225569
353.16000,-3.056672226
353.16050,-3.361866634
353.16100,-1.22550578
353.16150,0.3004662585
353.16200,0.6056606662
353.16250,0.6056606662
353.16300,0.9108550739
353.16350,0.6056606662
353.16400,-0.6151169646
353.16450,-1.530700188
353.16500,-0.9203113723
353.16550,0.3004662585
353.16600,0.6056606662
353.16650,-0.004728149245
353.16700,-0.9203113723
353.16750,0.3004662585
353.16800,3.047215928
353.16850,5.183576782
353.16900,4.878382374
353.16950,3.047215928
353.17000,2.436827112
353.17050,4.267993559
353.17100,6.70954882
353.17150,7.625132043
353.17200,6.70954882
353.17250,6.099160005
353.17300,4.878382374
353.17350,2.131632705
353.17400,-2.141089003
353.17450,-5.498227488
353.17500,-4.887838672
353.17550,-1.835894595
353.17600,0.3004662585
353.17650,1.216049482
353.17700,2.436827112
353.17750,4.573187966
353.17800,5.488771189
353.17850,4.267993559
353.17900,2.436827112
353.17950,1.521243889
353.18000,1.826438297
353.18050,2.74202152
353.18100,3.657604743
353.18150,3.657604743
353.18200,2.436827112
353.18250,1.216049482
353.18300,0.3004662585
353.18350,-0.004728149245
353.18400,-0.9203113723
353.18450,-1.835894595
353.18500,-1.530700188
353.18550,-0.6151169646
353.18600,-0.3099225569
353.18650,-1.22550578
353.18700,-2.446283411
353.18750,-1.530700188
353.18800,0.9108550739
353.18850,3.352410335
353.18900,3.962799151
353.18950,2.74202152
353.19000,1.521243889
353.19050,0.6056606662
353.19100,-0.004728149245
353.19150,-1.22550578
353.19200,-2.446283411
353.19250,-3.056672226
353.19300,-2.446283411
353.19350,-0.6151169646
353.19400,1.521243889
353.19450,2.74202152
353.19500,2.74202152
353.19550,2.436827112
353.19600,2.436827112
353.19650,2.74202152
353.19700,2.74202152
353.19750,2.436827112
353.19800,1.521243889
353.19850,0.3004662585
353.19900,-0.3099225569
353.19950,-1.22550578
353.20000,-1.835894595
353.20050,-1.835894595
353.20100,-2.141089003
353.20150,-2.141089003
353.20200,-1.835894595
353.20250,-2.141089003
353.20300,-2.446283411
353.20350,-3.056672226
353.20400,-3.056672226
353.20450,-3.667061042
353.20500,-4.887838672
353.20550,-7.024199526
353.20600,-9.16056038
353.20650,-8.550171565
353.20700,-4.582644265
353.20750,-0.004728149245
353.20800,2.74202152
353.20850,2.74202152
353.20900,1.216049482
353.20950,0.6056606662
353.21000,0.6056606662
353.21050,-0.004728149245
353.21100,-1.22550578
353.21150,-2.751477819
353.21200,-3.056672226
353.21250,-1.22550578
353.21300,2.436827112
353.21350,6.404354412
353.21400,9.151104082
353.21450,9.45629849
353.21500,7.930326451
353.21550,6.099160005
353.21600,4.878382374
353.21650,4.267993559
353.21700,3.352410335
353.21750,2.131632705
353.21800,0.9108550739
353.21850,0.3004662585
353.21900,-0.004728149245
353.21950,-0.3099225569
353.22000,-0.6151169646
353.22050,-0.9203113723
353.22100,-2.141089003
353.22150,-3.972255449
353.22200,-5.498227488
353.22250,-4.582644265
353.22300,-2.446283411
353.22350,-0.9203113723
353.22400,-0.3099225569
353.22450,0.6056606662
353.22500,1.826438297
353.22550,1.216049482
353.22600,-0.6151169646
353.22650,-1.530700188
353.22700,0.6056606662
353.22750,3.962799151
353.22800,4.878382374
353.22850,3.657604743
353.22900,2.74202152
353.22950,2.74202152
353.23000,1.826438297
353.23050,-0.004728149245
353.23100,-1.22550578
353.23150,-1.835894595
353.23200,-1.835894595
353.23250,-0.9203113723
353.23300,-0.004728149245
353.23350,-0.004728149245
353.23400,-0.3099225569
353.23450,-1.22550578
353.23500,-1.22550578
353.23550,-0.9203113723
353.23600,-1.530700188
353.23650,-3.056672226
353.23700,-3.667061042
353.23750,-3.972255449
353.23800,-5.19303308
353.23850,-7.024199526
353.23900,-6.719005119
353.23950,-3.667061042
353.24000,0.6056606662
353.24050,3.962799151
353.24100,5.488771189
353.24150,5.183576782
353.24200,3.047215928
353.24250,-0.004728149245
353.24300,-1.835894595
353.24350,-1.530700188
353.24400,-0.004728149245
353.24450,1.216049482
353.24500,3.352410335
353.24550,4.878382374
353.24600,5.183576782
353.24650,3.962799151
353.24700,2.436827112
353.24750,0.9108550739
353.24800,-0.004728149245
353.24850,-1.22550578
353.24900,-0.9203113723
353.24950,0.3004662585
353.25000,1.521243889
353.25050,1.826438297
353.25100,1.216049482
353.25150,0.6056606662
353.25200,-0.004728149245
353.25250,-0.6151169646
353.25300,-0.004728149245
353.25350,2.74202152
353.25400,3.962799151
353.25450,2.131632705
353.25500,-1.22550578
353.25550,-3.972255449
353.25600,-4.887838672
353.25650,-6.108616303
353.25700,-7.329393934
353.25750,-7.329393934
353.25800,-4.277449857
353.25850,-0.9203113723
353.25900,0.9108550739
353.25950,0.3004662585
353.26000,-0.3099225569
353.26050,-0.004728149245
353.26100,0.9108550739
353.26150,2.131632705
353.26200,2.131632705
353.26250,0.9108550739
353.26300,-0.004728149245
353.26350,-0.9203113723
353.26400,-1.835894595
353.26450,-3.056672226
353.26500,-3.361866634
353.26550,-3.056672226
353.26600,-2.141089003
353.26650,-1.22550578
353.26700,0.3004662585
353.26750,1.826438297
353.26800,2.131632705
353.26850,0.9108550739
353.26900,0.6056606662
353.26950,2.131632705
353.27000,3.657604743
353.27050,2.74202152
353.27100,0.3004662585
353.27150,-0.6151169646
353.27200,-0.3099225569
353.27250,0.6056606662
353.27300,0.9108550739
353.27350,0.3004662585
353.27400,-0.6151169646
353.27450,-1.835894595
353.27500,-2.141089003
353.27550,-1.22550578
353.27600,-1.835894595
353.27650,-3.972255449
353.27700,-5.498227488
353.27750,-4.887838672
353.27800,-3.056672226
353.27850,-3.056672226
353.27900,-4.277449857
353.27950,-3.056672226
353.28000,0.3004662585
353.28050,2.436827112
353.28100,0.9108550739
353.28150,-0.6151169646
353.28200,-0.6151169646
353.28250,-0.3099225569
353.28300,-1.22550578
353.28350,-2.446283411
353.28400,-2.141089003
353.28450,-1.22550578
353.28500,-1.835894595
353.28550,-1.530700188
353.28600,1.521243889
353.28650,5.183576782
353.28700,5.793965597
353.28750,2.74202152
353.28800,-0.004728149245
353.28850,-0.004728149245
353.28900,-0.004728149245
353.28950,-0.9203113723
353.29000,-0.9203113723
353.29050,-0.004728149245
353.29100,0.3004662585
353.29150,-0.004728149245
353.29200,-1.22550578
353.29250,-1.22550578
353.29300,-0.9203113723
353.29350,-0.9203113723
353.29400,-0.9203113723
353.29450,-0.6151169646
353.29500,-0.6151169646
353.29550,-1.530700188
353.29600,-1.530700188
353.29650,-0.6151169646
353.29700,-0.004728149245
353.29750,-0.9203113723
353.29800,-1.22550578
353.29850,-0.3099225569
353.29900,0.3004662585
353.29950,-0.004728149245
353.30000,-0.004728149245
353.30050,0.3004662585
353.30100,0.6056606662
353.30150,-0.3099225569
353.30200,-1.22550578
353.30250,-0.3099225569
353.30300,0.9108550739
353.30350,0.3004662585
353.30400,-0.6151169646
353.30450,-0.6151169646
353.30500,0.3004662585
353.30550,0.6056606662
353.30600,0.3004662585
353.30650,0.9108550739
353.30700,2.74202152
353.30750,3.962799151
353.30800,5.488771189
353.30850,8.235520859
353.30900,11.28746494
353.30950,12.20304816
353.31000,10.37188171
353.31050,7.625132043
353.31100,4.267993559
353.31150,-2.446283411
353.31200,-12.51769887
353.31250,-21.06314228
353.31300,-22.89430873
353.31350,-17.7060038
353.31400,-8.550171565
353.31450,-0.9203113723
353.31500,1.521243889
353.31550,-0.004728149245
353.31600,-1.530700188
353.31650,-1.22550578
353.31700,-0.6151169646
353.31750,-2.751477819
353.31800,-5.19303308
353.31850,-4.277449857
353.31900,-0.004728149245
353.31950,3.657604743
353.32000,5.183576782
353.32050,5.793965597
353.32100,6.404354412
353.32150,5.488771189
353.32200,2.436827112
353.32250,-0.004728149245
353.32300,-0.004728149245
353.32350,1.826438297
353.32400,3.352410335
353.32450,3.047215928
353.32500,1.826438297
353.32550,1.521243889
353.32600,2.436827112
353.32650,3.657604743
353.32700,3.657604743
353.32750,1.826438297
353.32800,0.6056606662
353.32850,0.9108550739
353.32900,1.521243889
353.32950,1.216049482
353.33000,-0.004728149245
353.33050,-0.004728149245
353.33100,0.9108550739
353.33150,1.826438297
353.33200,1.826438297
353.33250,1.521243889
353.33300,1.216049482
353.33350,0.9108550739
353.33400,0.9108550739
353.33450,2.131632705
353.33500,3.657604743
353.33550,3.962799151
353.33600,2.74202152
353.33650,0.9108550739
353.33700,-0.3099225569
353.33750,-2.141089003
353.33800,-3.361866634
353.33850,-4.582644265
353.33900,-5.498227488
353.33950,-6.413810711
353.34000,-5.19303308
353.34050,-0.3099225569
353.34100,5.793965597
353.34150,9.45629849
353.34200,8.235520859
353.34250,4.878382374
353.34300,1.521243889
353.34350,-0.6151169646
353.34400,-2.751477819
353.34450,-4.277449857
353.34500,-4.277449857
353.34550,-3.361866634
353.34600,-0.9203113723
353.34650,2.74202152
353.34700,6.099160005
353.34750,5.793965597
353.34800,2.131632705
353.34850,-0.6151169646
353.34900,-1.22550578
353.34950,-0.004728149245
353.35000,-0.004728149245
353.35050,-0.6151169646
353.35100,-0.3099225569
353.35150,0.6056606662
353.35200,1.216049482
353.35250,0.3004662585
353.35300,-0.9203113723
353.35350,-2.141089003
353.35400,-2.141089003
353.35450,-2.446283411
353.35500,-2.141089003
353.35550,-0.6151169646
353.35600,2.436827112
353.35650,5.488771189
353.35700,6.099160005
353.35750,3.962799151
353.35800,1.521243889
353.35850,1.216049482
353.35900,2.436827112
353.35950,3.657604743
353.36000,4.267993559
353.36050,4.267993559
353.36100,3.352410335
353.36150,2.131632705
353.36200,1.826438297
353.36250,1.826438297
353.36300,1.216049482
353.36350,-0.004728149245
353.36400,-1.530700188
353.36450,-1.530700188
353.36500,-0.6151169646
353.36550,-1.22550578
353.36600,-2.446283411
353.36650,-3.667061042
353.36700,-3.972255449
353.36750,-4.277449857
353.36800,-4.582644265
353.36850,-4.582644265
353.36900,-3.667061042
353.36950,-1.835894595
353.37000,-0.004728149245
353.37050,0.6056606662
353.37100,-0.3099225569
353.37150,-2.751477819
353.37200,-3.667061042
353.37250,-1.530700188
353.37300,0.3004662585
353.37350,-0.004728149245
353.37400,-0.6151169646
353.37450,-0.004728149245
353.37500,1.521243889
353.37550,1.826438297
353.37600,-0.004728149245
353.37650,-1.530700188
353.37700,-1.530700188
353.37750,-1.530700188
353.37800,-2.446283411
353.37850,-3.667061042
353.37900,-3.361866634
353.37950,-2.446283411
353.38000,-2.751477819
353.38050,-3.056672226
353.38100,-1.530700188
353.38150,1.521243889
353.38200,3.962799151
353.38250,3.962799151
353.38300,1.826438297
353.38350,-0.004728149245
353.38400,-0.9203113723
353.38450,-1.530700188
353.38500,-0.9203113723
353.38550,-0.004728149245
353.38600,1.216049482
353.38650,0.6056606662
353.38700,-0.9203113723
353.38750,-1.835894595
353.38800,-0.9203113723
353.38850,-0.004728149245
353.38900,-0.004728149245
353.38950,-1.530700188
353.39000,-2.141089003
353.39050,-1.530700188
353.39100,-0.3099225569
353.39150,-0.004728149245
353.39200,0.6056606662
353.39250,1.216049482
353.39300,1.521243889
353.39350,0.9108550739
353.39400,-0.004728149245
353.39450,-0.6151169646
353.39500,-0.6151169646
353.39550,-0.004728149245
353.39600,0.3004662585
353.39650,0.6056606662
353.39700,0.9108550739
353.39750,1.216049482
353.39800,1.216049482
353.39850,0.9108550739
353.39900,0.3004662585
353.39950,-0.3099225569
353.40000,-0.6151169646
353.40050,-0.6151169646
353.40100,-1.22550578
353.40150,-2.751477819
353.40200,-5.19303308
353.40250,-7.634588342
353.40300,-8.855365973
353.40350,-6.719005119
353.40400,-2.446283411
353.40450,2.131632705
353.40500,6.404354412
353.40550,8.845909674
353.40600,9.45629849
353.40650,8.845909674
353.40700,8.540715266
353.40750,8.845909674
353.40800,7.930326451
353.40850,4.267993559
353.40900,-0.3099225569
353.40950,-2.751477819
353.41000,-2.446283411
353.41050,-1.530700188
353.41100,-2.446283411
353.41150,-3.056672226
353.41200,-1.530700188
353.41250,1.216049482
353.41300,2.131632705
353.41350,0.3004662585
353.41400,-2.141089003
353.41450,-2.446283411
353.41500,0.6056606662
353.41550,6.70954882
353.41600,11.28746494
353.41650,10.98227053
353.41700,6.099160005
353.41750,-0.004728149245
353.41800,-2.751477819
353.41850,-1.835894595
353.41900,-0.6151169646
353.41950,-1.22550578
353.42000,-3.361866634
353.42050,-4.277449857
353.42100,-3.056672226
353.42150,-0.6151169646
353.42200,0.6056606662
353.42250,1.521243889
353.42300,1.826438297
353.42350,1.521243889
353.42400,0.3004662585
353.42450,-0.004728149245
353.42500,1.521243889
353.42550,3.962799151
353.42600,5.488771189
353.42650,6.404354412
353.42700,7.319937636
353.42750,7.319937636
353.42800,5.488771189
353.42850,1.521243889
353.42900,-0.6151169646
353.42950,-0.004728149245
353.43000,1.521243889
353.43050,0.3004662585
353.43100,-3.056672226
353.43150,-5.498227488
353.43200,-4.887838672
353.43250,-3.056672226
353.43300,-2.446283411
353.43350,-2.141089003
353.43400,-1.22550578
353.43450,-0.004728149245
353.43500,0.9108550739
353.43550,1.216049482
353.43600,1.521243889
353.43650,2.131632705
353.43700,1.216049482
353.43750,-0.9203113723
353.43800,-3.056672226
353.43850,-3.972255449
353.43900,-3.667061042
353.43950,-3.667061042
353.44000,-4.277449857
353.44050,-4.277449857
353.44100,-3.667061042
353.44150,-2.751477819
353.44200,-3.056672226
353.44250,-4.277449857
353.44300,-5.498227488
353.44350,-4.582644265
353.44400,-2.141089003
353.44450,-0.6151169646
353.44500,-0.6151169646
353.44550,-0.9203113723
353.44600,-0.6151169646
353.44650,-0.6151169646
353.44700,-2.141089003
353.44750,-4.887838672
353.44800,-6.108616303
353.44850,-6.413810711
353.44900,-7.024199526
353.44950,-8.244977157
353.45000,-7.329393934
353.45050,-3.056672226
353.45100,2.131632705
353.45150,5.183576782
353.45200,4.573187966
353.45250,2.74202152
353.45300,0.9108550739
353.45350,0.3004662585
353.45400,0.9108550739
353.45450,3.352410335
353.45500,6.099160005
353.45550,7.625132043
353.45600,7.014743228
353.45650,4.878382374
353.45700,3.047215928
353.45750,2.436827112
353.45800,2.74202152
353.45850,4.267993559
353.45900,7.319937636
353.45950,7.930326451
353.46000,2.436827112
353.46050,-8.855365973
353.46100,-18.31639261
353.46150,-18.92678143
353.46200,-11.29692123
353.46250,-3.056672226
353.46300,-0.3099225569
353.46350,-1.835894595
353.46400,-3.972255449
353.46450,-4.887838672
353.46500,-4.887838672
353.46550,-4.277449857
353.46600,-3.056672226
353.46650,-0.9203113723
353.46700,0.9108550739
353.46750,2.436827112
353.46800,2.436827112
353.46850,2.131632705
353.46900,1.826438297
353.46950,2.131632705
353.47000,1.826438297
353.47050,1.216049482
353.47100,1.216049482
353.47150,1.521243889
353.47200,0.9108550739
353.47250,-0.3099225569
353.47300,-0.6151169646
353.47350,-0.004728149245
353.47400,-0.004728149245
353.47450,-3.361866634
353.47500,-6.108616303
353.47550,-4.887838672
353.47600,-1.22550578
353.47650,-0.9203113723
353.47700,-3.667061042
353.47750,-5.498227488
353.47800,-3.361866634
353.47850,-0.3099225569
353.47900,1.216049482
353.47950,2.74202152
353.48000,4.878382374
353.48050,6.70954882
353.48100,5.183576782
353.48150,2.436827112
353.48200,0.6056606662
353.48250,0.6056606662
353.48300,0.9108550739
353.48350,-0.004728149245
353.48400,-0.9203113723
353.48450,-1.530700188
353.48500,-1.835894595
353.48550,-2.141089003
353.48600,-2.751477819
353.48650,-2.446283411
353.48700,-1.22550578
353.48750,-0.004728149245
353.48800,1.521243889
353.48850,2.436827112
353.48900,3.657604743
353.48950,5.183576782
353.49000,6.099160005
353.49050,5.183576782
353.49100,3.047215928
353.49150,2.74202152
353.49200,5.183576782
353.49250,7.930326451
353.49300,7.930326451
353.49350,5.183576782
353.49400,1.521243889
353.49450,-0.3099225569
353.49500,-0.004728149245
353.49550,0.6056606662
353.49600,1.216049482
353.49650,1.216049482
353.49700,-0.004728149245
353.49750,-1.22550578
353.49800,-1.22550578
353.49850,-0.004728149245
353.49900,2.131632705
353.49950,2.436827112
353.50000,0.3004662585
353.50050,-2.141089003
353.50100,-3.056672226
353.50150,-1.835894595
353.50200,-0.004728149245
353.50250,0.9108550739
353.50300,1.216049482
353.50350,0.6056606662
353.50400,-0.6151169646
353.50450,-2.751477819
353.50500,-4.277449857
353.50550,-3.972255449
353.50600,-2.751477819
353.50650,-1.835894595
353.50700,-2.751477819
353.50750,-3.972255449
353.50800,-3.667061042
353.50850,-2.141089003
353.50900,-0.6151169646
353.50950,-0.6151169646
353.51000,-1.530700188
353.51050,-2.141089003
353.51100,-2.141089003
353.51150,-1.835894595
353.51200,-0.6151169646
353.51250,-0.004728149245
353.51300,0.3004662585
353.51350,-0.6151169646
353.51400,-1.530700188
353.51450,-1.530700188
353.51500,-0.6151169646
353.51550,-0.004728149245
353.51600,0.6056606662
353.51650,1.216049482
353.51700,1.521243889
353.51750,0.9108550739
353.51800,-0.004728149245
353.51850,-0.004728149245
353.51900,0.3004662585
353.51950,-0.004728149245
353.52000,-1.22550578
353.52050,-3.056672226
353.52100,-3.667061042
353.52150,-2.141089003
353.52200,-0.3099225569
353.52250,0.3004662585
353.52300,-0.3099225569
353.52350,-1.22550578
353.52400,-0.9203113723
353.52450,0.6056606662
353.52500,2.74202152
353.52550,3.352410335
353.52600,3.047215928
353.52650,2.74202152
353.52700,2.74202152
353.52750,2.74202152
353.52800,1.826438297
353.52850,0.9108550739
353.52900,0.3004662585
353.52950,0.3004662585
353.53000,-0.004728149245
353.53050,-1.22550578
353.53100,-3.056672226
353.53150,-3.667061042
353.53200,-3.056672226
353.53250,-2.446283411
353.53300,-2.446283411
353.53350,-3.056672226
353.53400,-1.835894595
353.53450,-0.004728149245
353.53500,0.9108550739
353.53550,-0.3099225569
353.53600,-2.446283411
353.53650,-2.751477819
353.53700,-1.22550578
353.53750,-0.004728149245
353.53800,-0.3099225569
353.53850,-0.6151169646
353.53900,0.6056606662
353.53950,3.657604743
353.54000,7.014743228
353.54050,9.151104082
353.54100,9.45629849
353.54150,7.930326451
353.54200,5.488771189
353.54250,3.047215928
353.54300,1.216049482
353.54350,0.3004662585
353.54400,-0.004728149245
353.54450,-0.9203113723
353.54500,-1.835894595
353.54550,-2.141089003
353.54600,-0.6151169646
353.54650,1.521243889
353.54700,3.047215928
353.54750,2.436827112
353.54800,0.3004662585
353.54850,-2.141089003
353.54900,-4.887838672
353.54950,-7.634588342
353.55000,-7.939782749
353.55050,-5.803421896
353.55100,-2.446283411
353.55150,-0.6151169646
353.55200,-0.004728149245
353.55250,1.521243889
353.55300,5.488771189
353.55350,8.540715266
353.55400,7.625132043
353.55450,3.352410335
353.55500,-0.004728149245
353.55550,-1.530700188
353.55600,-1.530700188
353.55650,-0.9203113723
353.55700,0.9108550739
353.55750,3.962799151
353.55800,4.878382374
353.55850,3.047215928
353.55900,0.6056606662
353.55950,-0.004728149245
353.56000,0.3004662585
353.56050,0.3004662585
353.56100,-0.004728149245
353.56150,-0.004728149245
353.56200,-0.004728149245
353.56250,-1.22550578
353.56300,-3.972255449
353.56350,-4.887838672
353.56400,-3.667061042
353.56450,-2.446283411
353.56500,-3.667061042
353.56550,-6.108616303
353.56600,-5.498227488
353.56650,-0.9203113723
353.56700,4.878382374
353.56750,9.151104082
353.56800,9.45629849
353.56850,6.404354412
353.56900,3.352410335
353.56950,1.826438297
353.57000,2.436827112
353.57050,3.352410335
353.57100,3.657604743
353.57150,3.352410335
353.57200,2.436827112
353.57250,-0.004728149245
353.57300,-2.446283411
353.57350,-3.972255449
353.57400,-3.667061042
353.57450,-3.361866634
353.57500,-3.361866634
353.57550,-2.141089003
353.57600,0.6056606662
353.57650,3.352410335
353.57700,3.352410335
353.57750,0.9108550739
353.57800,-0.9203113723
353.57850,-1.530700188
353.57900,-1.835894595
353.57950,-2.141089003
353.58000,-3.056672226
353.58050,-3.056672226
353.58100,-1.530700188
353.58150,1.826438297
353.58200,5.183576782
353.58250,5.488771189
353.58300,3.962799151
353.58350,3.047215928
353.58400,3.962799151
353.58450,3.962799151
353.58500,2.131632705
353.58550,0.6056606662
353.58600,1.521243889
353.58650,3.047215928
353.58700,2.74202152
353.58750,1.216049482
353.58800,-0.004728149245
353.58850,-0.3099225569
353.58900,-0.6151169646
353.58950,-0.3099225569
353.59000,0.3004662585
353.59050,0.9108550739
353.59100,0.6056606662
353.59150,-0.004728149245
353.59200,-0.3099225569
353.59250,-0.004728149245
353.59300,0.3004662585
353.59350,-0.004728149245
353.59400,-0.6151169646
353.59450,-1.835894595
353.59500,-1.835894595
353.59550,-0.9203113723
353.59600,-0.004728149245
353.59650,0.9108550739
353.59700,2.436827112
353.59750,4.878382374
353.59800,6.099160005
353.59850,5.183576782
353.59900,3.047215928
353.59950,1.521243889
353.60000,1.216049482
353.60050,0.3004662585
353.60100,-0.004728149245
353.60150,0.3004662585
353.60200,-0.004728149245
353.60250,-1.530700188
353.60300,-3.667061042
353.60350,-3.667061042
353.60400,-2.141089003
353.60450,-2.141089003
353.60500,-3.056672226
353.60550,-3.667061042
353.60600,-2.751477819
353.60650,-1.530700188
353.60700,-0.3099225569
353.60750,-0.004728149245
353.60800,-0.004728149245
353.60850,-2.141089003
353.60900,-3.361866634
353.60950,-2.446283411
353.61000,-0.004728149245
353.61050,1.521243889
353.61100,2.74202152
353.61150,4.573187966
353.61200,4.878382374
353.61250,1.826438297
353.61300,-2.141089003
353.61350,-3.972255449
353.61400,-3.972255449
353.61450,-3.972255449
353.61500,-3.667061042
353.61550,-2.141089003
353.61600,-1.22550578
353.61650,-4.277449857
353.61700,-7.939782749
353.61750,-7.634588342
353.61800,-3.667061042
353.61850,-1.22550578
353.61900,-2.446283411
353.61950,-3.361866634
353.62000,-2.141089003
353.62050,-1.530700188
353.62100,-2.446283411
353.62150,-3.056672226
353.62200,-2.141089003
353.62250,-0.9203113723
353.62300,-1.22550578
353.62350,-1.835894595
353.62400,-0.6151169646
353.62450,0.6056606662
353.62500,0.9108550739
353.62550,-0.3099225569
353.62600,-1.22550578
353.62650,-0.9203113723
353.62700,-0.6151169646
353.62750,-1.22550578
353.62800,-2.141089003
353.62850,-1.530700188
353.62900,0.3004662585
353.62950,1.521243889
353.63000,1.216049482
353.63050,-0.004728149245
353.63100,-0.004728149245
353.63150,0.6056606662
353.63200,1.521243889
353.63250,2.74202152
353.63300,4.573187966
353.63350,5.793965597
353.63400,4.878382374
353.63450,2.74202152
353.63500,1.826438297
353.63550,2.74202152
353.63600,2.74202152
353.63650,0.3004662585
353.63700,-2.446283411
353.63750,-3.056672226
353.63800,-1.22550578
353.63850,0.6056606662
353.63900,1.826438297
353.63950,2.131632705
353.64000,2.131632705
353.64050,1.826438297
353.64100,2.131632705
353.64150,3.047215928
353.64200,3.047215928
353.64250,2.131632705
353.64300,1.826438297
353.64350,2.74202152
353.64400,3.352410335
353.64450,2.436827112
353.64500,0.6056606662
353.64550,-0.004728149245
353.64600,-0.3099225569
353.64650,-0.3099225569
353.64700,-0.004728149245
353.64750,0.6056606662
353.64800,-0.004728149245
353.64850,-2.446283411
353.64900,-4.277449857
353.64950,-3.667061042
353.65000,-2.751477819
353.65050,-3.667061042
353.65100,-4.582644265
353.65150,-1.835894595
353.65200,3.047215928
353.65250,6.099160005
353.65300,5.488771189
353.65350,4.573187966
353.65400,4.878382374
353.65450,3.962799151
353.65500,1.216049482
353.65550,-0.6151169646
353.65600,-0.9203113723
353.65650,-0.3099225569
353.65700,-0.004728149245
353.65750,-0.004728149245
353.65800,-0.004728149245
353.65850,-2.751477819
353.65900,-7.329393934
353.65950,-9.770949196
353.66000,-8.550171565
353.66050,-5.803421896
353.66100,-4.887838672
353.66150,-5.498227488
353.66200,-5.498227488
353.66250,-3.972255449
353.66300,-1.530700188
353.66350,1.826438297
353.66400,4.878382374
353.66450,5.488771189
353.66500,2.74202152
353.66550,-0.6151169646
353.66600,-2.141089003
353.66650,-1.22550578
353.66700,-0.6151169646
353.66750,-0.6151169646
353.66800,-0.004728149245
353.66850,0.9108550739
353.66900,-0.004728149245
353.66950,-2.141089003
353.67000,-4.582644265
353.67050,-5.498227488
353.67100,-4.887838672
353.67150,-2.141089003
353.67200,1.826438297
353.67250,6.099160005
353.67300,7.930326451
353.67350,7.014743228
353.67400,4.573187966
353.67450,2.74202152
353.67500,1.521243889
353.67550,-0.004728149245
353.67600,-0.6151169646
353.67650,-0.004728149245
353.67700,0.6056606662
353.67750,0.9108550739
353.67800,0.3004662585
353.67850,0.3004662585
353.67900,0.3004662585
353.67950,-0.6151169646
353.68000,-2.751477819
353.68050,-3.972255449
353.68100,-3.667061042
353.68150,-3.056672226
353.68200,-2.751477819
353.68250,-1.835894595
353.68300,-0.004728149245
353.68350,0.9108550739
353.68400,-0.004728149245
353.68450,-0.3099225569
353.68500,0.9108550739
353.68550,2.74202152
353.68600,2.436827112
353.68650,0.6056606662
353.68700,-0.3099225569
353.68750,-0.6151169646
353.68800,-0.9203113723
353.68850,-1.835894595
353.68900,-2.446283411
353.68950,-2.141089003
353.69000,-2.141089003
353.69050,-2.141089003
353.69100,-0.9203113723
353.69150,0.3004662585
353.69200,1.216049482
353.69250,0.6056606662
353.69300,-0.004728149245
353.69350,-0.004728149245
353.69400,0.9108550739
353.69450,0.9108550739
353.69500,0.3004662585
353.69550,0.3004662585
353.69600,1.216049482
353.69650,2.436827112
353.69700,3.657604743
353.69750,3.657604743
353.69800,2.131632705
353.69850,0.3004662585
353.69900,-0.004728149245
353.69950,1.216049482
353.70000,1.826438297
353.70050,1.216049482
353.70100,1.216049482
353.70150,1.521243889
353.70200,0.3004662585
353.70250,-2.446283411
353.70300,-5.19303308
353.70350,-4.887838672
353.70400,-2.751477819
353.70450,-1.835894595
353.70500,-2.446283411
353.70550,-2.446283411
353.70600,-0.9203113723
353.70650,0.3004662585
353.70700,0.3004662585
353.70750,-0.004728149245
353.70800,-0.3099225569
353.70850,-0.004728149245
353.70900,0.6056606662
353.70950,0.9108550739
353.71000,-0.004728149245
353.71050,-1.835894595
353.71100,-3.667061042
353.71150,-4.277449857
353.71200,-3.667061042
353.71250,-2.446283411
353.71300,-0.9203113723
353.71350,0.3004662585
353.71400,-0.004728149245
353.71450,-2.141089003
353.71500,-2.446283411
353.71550,0.6056606662
353.71600,5.183576782
353.71650,7.930326451
353.71700,8.540715266
353.71750,8.235520859
353.71800,7.930326451
353.71850,6.70954882
353.71900,5.183576782
353.71950,3.962799151
353.72000,3.047215928
353.72050,0.6056606662
353.72100,-2.141089003
353.72150,-2.751477819
353.72200,-1.530700188
353.72250,-0.6151169646
353.72300,-2.446283411
353.72350,-4.277449857
353.72400,-3.667061042
353.72450,-2.141089003
353.72500,-0.9203113723
353.72550,-0.6151169646
353.72600,-0.9203113723
353.72650,-1.835894595
353.72700,-3.056672226
353.72750,-4.277449857
353.72800,-5.19303308
353.72850,-5.19303308
353.72900,-5.19303308
353.72950,-4.887838672
353.73000,-3.667061042
353.73050,-1.835894595
353.73100,0.3004662585
353.73150,2.131632705
353.73200,2.74202152
353.73250,2.131632705
353.73300,1.216049482
353.73350,0.9108550739
353.73400,0.6056606662
353.73450,-0.004728149245
353.73500,-0.6151169646
353.73550,-0.004728149245
353.73600,0.9108550739
353.73650,0.9108550739
353.73700,-0.004728149245
353.73750,-0.3099225569
353.73800,-0.004728149245
353.73850,-0.9203113723
353.73900,-3.056672226
353.73950,-4.887838672
353.74000,-6.108616303
353.74050,-7.634588342
353.74100,-8.244977157
353.74150,-5.803421896
353.74200,0.3004662585
353.74250,5.793965597
353.74300,7.319937636
353.74350,4.573187966
353.74400,0.6056606662
353.74450,-1.835894595
353.74500,-3.667061042
353.74550,-4.277449857
353.74600,-2.446283411
353.74650,1.826438297
353.74700,6.70954882
353.74750,7.930326451
353.74800,5.183576782
353.74850,1.826438297
353.74900,1.521243889
353.74950,3.657604743
353.75000,5.488771189
353.75050,5.488771189
353.75100,4.878382374
353.75150,5.183576782
353.75200,3.962799151
353.75250,0.6056606662
353.75300,-2.141089003
353.75350,-1.22550578
353.75400,2.436827112
353.75450,6.099160005
353.75500,6.099160005
353.75550,3.047215928
353.75600,-0.3099225569
353.75650,-1.530700188
353.75700,-0.004728149245
353.75750,2.436827112
353.75800,2.436827112
353.75850,-0.6151169646
353.75900,-3.667061042
353.75950,-3.361866634
353.76000,-0.004728149245
353.76050,3.352410335
353.76100,5.183576782
353.76150,5.488771189
353.76200,5.183576782
353.76250,4.573187966
353.76300,4.573187966
353.76350,5.183576782
353.76400,5.793965597
353.76450,5.183576782
353.76500,3.962799151
353.76550,3.047215928
353.76600,1.521243889
353.76650,-0.3099225569
353.76700,-2.751477819
353.76750,-3.972255449
353.76800,-4.582644265
353.76850,-5.803421896
353.76900,-5.19303308
353.76950,-1.835894595
353.77000,2.74202152
353.77050,5.183576782
353.77100,4.267993559
353.77150,1.826438297
353.77200,-0.004728149245
353.77250,-0.9203113723
353.77300,-1.530700188
353.77350,-1.22550578
353.77400,-0.3099225569
353.77450,-0.004728149245
353.77500,0.3004662585
353.77550,0.9108550739
353.77600,1.521243889
353.77650,0.6056606662
353.77700,-1.530700188
353.77750,-3.972255449
353.77800,-5.19303308
353.77850,-4.887838672
353.77900,-2.446283411
353.77950,1.216049482
353.78000,4.878382374
353.78050,5.488771189
353.78100,2.74202152
353.78150,-0.004728149245
353.78200,-2.141089003
353.78250,-2.751477819
353.78300,-2.751477819
353.78350,-2.141089003
353.78400,-1.835894595
353.78450,-2.141089003
353.78500,-3.361866634
353.78550,-3.667061042
353.78600,-3.056672226
353.78650,-2.446283411
353.78700,-2.141089003
353.78750,-2.141089003
353.78800,-1.530700188
353.78850,-0.3099225569
353.78900,0.6056606662
353.78950,1.521243889
353.79000,1.521243889
353.79050,1.521243889
353.79100,1.521243889
353.79150,0.9108550739
353.79200,-1.22550578
353.79250,-4.277449857
353.79300,-4.887838672
353.79350,-2.446283411
353.79400,0.6056606662
353.79450,1.521243889
353.79500,0.6056606662
353.79550,-0.004728149245
353.79600,-0.9203113723
353.79650,-1.530700188
353.79700,-1.835894595
353.79750,-0.6151169646
353.79800,0.9108550739
353.79850,2.131632705
353.79900,3.352410335
353.79950,4.573187966
353.80000,5.793965597
353.80050,5.793965597
353.80100,4.267993559
353.80150,2.436827112
353.80200,0.9108550739
353.80250,-0.004728149245
353.80300,-0.6151169646
353.80350,-0.3099225569
353.80400,0.3004662585
353.80450,-0.004728149245
353.80500,-1.530700188
353.80550,-2.751477819
353.80600,-2.446283411
353.80650,-0.9203113723
353.80700,0.3004662585
353.80750,0.6056606662
353.80800,0.3004662585
353.80850,-0.3099225569
353.80900,-1.530700188
353.80950,-2.141089003
353.81000,-2.446283411
353.81050,-1.835894595
353.81100,-1.22550578
353.81150,-1.530700188
353.81200,-3.056672226
353.81250,-4.887838672
353.81300,-5.498227488
353.81350,-5.498227488
353.81400,-5.19303308
353.81450,-4.582644265
353.81500,-3.361866634
353.81550,-1.530700188
353.81600,0.6056606662
353.81650,3.657604743
353.81700,6.70954882
353.81750,7.930326451
353.81800,6.099160005
353.81850,3.352410335
353.81900,2.131632705
353.81950,2.436827112
353.82000,2.74202152
353.82050,1.826438297
353.82100,0.3004662585
353.82150,-0.6151169646
353.82200,-1.22550578
353.82250,-1.22550578
353.82300,-0.004728149245
353.82350,0.9108550739
353.82400,-0.004728149245
353.82450,-2.751477819
353.82500,-4.582644265
353.82550,-3.056672226
353.82600,-0.004728149245
353.82650,2.131632705
353.82700,2.74202152
353.82750,2.436827112
353.82800,1.521243889
353.82850,-0.004728149245
353.82900,-0.3099225569
353.82950,-0.004728149245
353.83000,-0.3099225569
353.83050,-2.141089003
353.83100,-3.972255449
353.83150,-3.361866634
353.83200,-1.22550578
353.83250,-0.3099225569
353.83300,-0.9203113723
353.83350,-1.835894595
353.83400,-1.530700188
353.83450,-1.835894595
353.83500,-2.751477819
353.83550,-3.056672226
353.83600,-1.530700188
353.83650,-0.9203113723
353.83700,-2.751477819
353.83750,-6.719005119
353.83800,-9.770949196
353.83850,-10.0761436
353.83900,-7.634588342
353.83950,-3.667061042
353.84000,-0.3099225569
353.84050,0.9108550739
353.84100,0.6056606662
353.84150,0.6056606662
353.84200,1.521243889
353.84250,1.216049482
353.84300,-0.004728149245
353.84350,0.6056606662
353.84400,3.962799151
353.84450,4.573187966
353.84500,-2.141089003
353.84550,-11.60211564
353.84600,-14.95925413
353.84650,-9.770949196
353.84700,-2.141089003
353.84750,1.216049482
353.84800,1.826438297
353.84850,2.131632705
353.84900,1.826438297
353.84950,0.3004662585
353.85000,-1.835894595
353.85050,-2.446283411
353.85100,-1.22550578
353.85150,-0.004728149245
353.85200,0.6056606662
353.85250,1.216049482
353.85300,2.131632705
353.85350,2.436827112
353.85400,1.826438297
353.85450,0.9108550739
353.85500,0.6056606662
353.85550,1.521243889
353.85600,1.826438297
353.85650,1.216049482
353.85700,-0.004728149245
353.85750,-0.9203113723
353.85800,-1.530700188
353.85850,-1.22550578
353.85900,-0.3099225569
353.85950,-0.004728149245
353.86000,-0.3099225569
353.86050,-1.22550578
353.86100,-0.6151169646
353.86150,1.216049482
353.86200,2.436827112
353.86250,0.9108550739
353.86300,-0.9203113723
353.86350,-0.6151169646
353.86400,1.216049482
353.86450,2.131632705
353.86500,0.3004662585
353.86550,-0.6151169646
353.86600,0.3004662585
353.86650,3.657604743
353.86700,6.404354412
353.86750,7.014743228
353.86800,6.404354412
353.86850,5.183576782
353.86900,3.962799151
353.86950,2.131632705
353.87000,0.6056606662
353.87050,0.6056606662
353.87100,1.826438297
353.87150,3.047215928
353.87200,2.436827112
353.87250,0.6056606662
353.87300,-0.004728149245
353.87350,0.9108550739
353.87400,1.826438297
353.87450,1.521243889
353.87500,0.3004662585
353.87550,-0.004728149245
353.87600,-0.004728149245
353.87650,-0.004728149245
353.87700,-1.530700188
353.87750,-2.751477819
353.87800,-1.22550578
353.87850,3.047215928
353.87900,8.235520859
353.87950,9.151104082
353.88000,5.793965597
353.88050,2.131632705
353.88100,1.521243889
353.88150,3.962799151
353.88200,7.625132043
353.88250,9.45629849
353.88300,8.845909674
353.88350,6.404354412
353.88400,3.352410335
353.88450,1.826438297
353.88500,3.047215928
353.88550,3.962799151
353.88600,2.74202152
353.88650,-0.004728149245
353.88700,-1.530700188
353.88750,-0.004728149245
353.88800,2.436827112
353.88850,3.352410335
353.88900,2.131632705
353.88950,0.3004662585
353.89000,-0.004728149245
353.89050,0.9108550739
353.89100,3.352410335
353.89150,5.183576782
353.89200,4.878382374
353.89250,2.436827112
353.89300,-0.004728149245
353.89350,-0.9203113723
353.89400,-0.004728149245
353.89450,1.521243889
353.89500,1.521243889
353.89550,-0.004728149245
353.89600,-1.530700188
353.89650,-3.056672226
353.89700,-4.582644265
353.89750,-5.498227488
353.89800,-5.498227488
353.89850,-4.887838672
353.89900,-4.887838672
353.89950,-5.498227488
353.90000,-5.19303308
353.90050,-3.361866634
353.90100,-1.22550578
353.90150,-0.3099225569
353.90200,-0.6151169646
353.90250,-0.9203113723
353.90300,-0.3099225569
353.90350,0.3004662585
353.90400,0.9108550739
353.90450,-0.004728149245
353.90500,-0.9203113723
353.90550,-0.9203113723
353.90600,0.6056606662
353.90650,2.436827112
353.90700,3.047215928
353.90750,3.352410335
353.90800,3.962799151
353.90850,3.352410335
353.90900,0.6056606662
353.90950,-2.141089003
353.91000,-2.751477819
353.91050,-1.22550578
353.91100,-0.004728149245
353.91150,-0.004728149245
353.91200,-0.3099225569
353.91250,-1.22550578
353.91300,-4.582644265
353.91350,-9.16056038
353.91400,-10.68653242
353.91450,-7.939782749
353.91500,-5.19303308
353.91550,-4.887838672
353.91600,-6.108616303
353.91650,-4.277449857
353.91700,-0.9203113723
353.91750,0.3004662585
353.91800,-1.22550578
353.91850,-3.972255449
353.91900,-4.582644265
353.91950,-3.972255449
353.92000,-4.582644265
353.92050,-6.719005119
353.92100,-8.244977157
353.92150,-7.329393934
353.92200,-4.277449857
353.92250,-1.530700188
353.92300,-0.3099225569
353.92350,-0.3099225569
353.92400,-0.3099225569
353.92450,-0.004728149245
353.92500,0.9108550739
353.92550,1.521243889
353.92600,1.826438297
353.92650,1.521243889
353.92700,1.216049482
353.92750,1.216049482
353.92800,0.9108550739
353.92850,-0.3099225569
353.92900,-1.530700188
353.92950,-1.835894595
353.93000,-1.22550578
353.93050,-1.22550578
353.93100,-2.141089003
353.93150,-2.751477819
353.93200,-2.751477819
353.93250,-2.446283411
353.93300,-1.530700188
353.93350,-0.3099225569
353.93400,1.216049482
353.93450,2.436827112
353.93500,2.436827112
353.93550,2.436827112
353.93600,3.657604743
353.93650,5.183576782
353.93700,5.793965597
353.93750,4.878382374
353.93800,3.047215928
353.93850,1.216049482
353.93900,0.6056606662
353.93950,1.521243889
353.94000,2.74202152
353.94050,3.962799151
353.94100,5.793965597
353.94150,8.235520859
353.94200,10.0666873
353.94250,10.67707612
353.94300,10.98227053
353.94350,10.0666873
353.94400,6.099160005
353.94450,-0.6151169646
353.94500,-6.413810711
353.94550,-5.803421896
353.94600,-0.6151169646
353.94650,1.216049482
353.94700,-3.056672226
353.94750,-8.855365973
353.94800,-9.465754788
353.94850,-5.498227488
353.94900,-1.835894595
353.94950,-0.9203113723
353.95000,-1.835894595
353.95050,-1.835894595
353.95100,-0.9203113723
353.95150,-0.004728149245
353.95200,-0.004728149245
353.95250,-0.004728149245
353.95300,-0.9203113723
353.95350,-1.530700188
353.95400,-0.9203113723
353.95450,-0.3099225569
353.95500,-0.6151169646
353.95550,-1.530700188
353.95600,-1.22550578
353.95650,-0.004728149245
353.95700,1.826438297
353.95750,2.436827112
353.95800,1.521243889
353.95850,-0.004728149245
353.95900,-0.6151169646
353.95950,-0.004728149245
353.96000,2.131632705
353.96050,4.267993559
353.96100,4.878382374
353.96150,3.962799151
353.96200,2.131632705
353.96250,0.3004662585
353.96300,0.6056606662
353.96350,2.436827112
353.96400,4.267993559
353.96450,4.267993559
353.96500,2.131632705
353.96550,-0.004728149245
353.96600,-1.530700188
353.96650,-1.530700188
353.96700,-1.22550578
353.96750,-0.6151169646
353.96800,-0.004728149245
353.96850,-0.6151169646
353.96900,-1.22550578
353.96950,-1.530700188
353.97000,-0.004728149245
353.97050,1.216049482
353.97100,1.826438297
353.97150,1.216049482
353.97200,-0.6151169646
353.97250,-3.056672226
353.97300,-4.582644265
353.97350,-4.277449857
353.97400,-3.361866634
353.97450,-4.277449857
353.97500,-7.024199526
353.97550,-7.634588342
353.97600,-5.19303308
353.97650,-3.056672226
353.97700,-4.887838672
353.97750,-9.770949196
353.97800,-12.21250446
353.97850,-10.38133801
353.97900,-6.413810711
353.97950,-2.141089003
353.98000,2.436827112
353.98050,8.235520859
353.98100,13.42382579
353.98150,15.56018664
353.98200,14.64460342
353.98250,12.20304816
353.98300,8.845909674
353.98350,5.488771189
353.98400,3.352410335
353.98450,2.131632705
353.98500,1.216049482
353.98550,0.6056606662
353.98600,-0.004728149245
353.98650,-0.004728149245
353.98700,-0.004728149245
353.98750,-1.22550578
353.98800,-2.141089003
353.98850,-2.141089003
353.98900,-1.530700188
353.98950,-1.835894595
353.99000,-2.141089003
353.99050,-2.446283411
353.99100,-2.446283411
353.99150,-2.751477819
353.99200,-3.667061042
353.99250,-4.277449857
353.99300,-4.582644265
353.99350,-4.582644265
353.99400,-3.667061042
353.99450,-2.446283411
353.99500,-1.530700188
353.99550,-2.141089003
353.99600,-2.751477819
353.99650,-1.530700188
353.99700,0.6056606662
353.99750,1.826438297
353.99800,0.3004662585
353.99850,-0.3099225569
353.99900,1.216049482
353.99950,4.267993559
354.00000,4.573187966
354.00050,1.521243889
354.00100,-0.9203113723
354.00150,-1.22550578
354.00200,-0.004728149245
354.00250,-0.004728149245
354.00300,-0.3099225569
354.00350,-0.3099225569
354.00400,0.3004662585
354.00450,1.826438297
354.00500,1.826438297
354.00550,0.6056606662
354.00600,0.3004662585
354.00650,1.216049482
354.00700,2.74202152
354.00750,3.352410335
354.00800,3.047215928
354.00850,2.74202152
354.00900,2.74202152
354.00950,1.216049482
354.01000,-0.6151169646
354.01050,-1.835894595
354.01100,-1.22550578
354.01150,-0.004728149245
354.01200,-0.3099225569
354.01250,-0.9203113723
354.01300,-0.3099225569
354.01350,0.9108550739
354.01400,1.216049482
354.01450,-0.004728149245
354.01500,-1.22550578
354.01550,-0.6151169646
354.01600,0.6056606662
354.01650,0.9108550739
354.01700,0.3004662585
354.01750,0.3004662585
354.01800,0.9108550739
354.01850,0.6056606662
354.01900,-0.004728149245
354.01950,-0.004728149245
354.02000,0.6056606662
354.02050,0.9108550739
354.02100,0.3004662585
354.02150,-0.3099225569
354.02200,-0.6151169646
354.02250,-0.9203113723
354.02300,-1.22550578
354.02350,-1.22550578
354.02400,-0.3099225569
354.02450,-0.004728149245
354.02500,-0.6151169646
354.02550,-1.22550578
354.02600,-0.3099225569
354.02650,0.9108550739
354.02700,0.6056606662
354.02750,-0.3099225569
354.02800,-0.004728149245
354.02850,2.131632705
354.02900,4.573187966
354.02950,5.793965597
354.03000,5.488771189
354.03050,4.878382374
354.03100,4.267993559
354.03150,3.047215928
354.03200,2.74202152
354.03250,3.962799151
354.03300,5.488771189
354.03350,6.099160005
354.03400,4.267993559
354.03450,1.521243889
354.03500,-0.6151169646
354.03550,-1.530700188
354.03600,-1.22550578
354.03650,-1.530700188
354.03700,-2.446283411
354.03750,-3.361866634
354.03800,-4.277449857
354.03850,-5.803421896
354.03900,-7.939782749
354.03950,-7.634588342
354.04000,-5.19303308
354.04050,-3.361866634
354.04100,-5.803421896
354.04150,-9.16056038
354.04200,-8.855365973
354.04250,-4.277449857
354.04300,-0.3099225569
354.04350,2.436827112
354.04400,7.014743228
354.04450,12.20304816
354.04500,13.11863138
354.04550,9.151104082
354.04600,7.319937636
354.04650,11.89785375
354.04700,17.6965475
354.04750,16.78096427
354.04800,10.98227053
354.04850,6.70954882
354.04900,5.183576782
354.04950,3.657604743
354.05000,0.6056606662
354.05050,0.3004662585
354.05100,3.352410335
354.05150,5.488771189
354.05200,3.657604743
354.05250,-0.004728149245
354.05300,-1.835894595
354.05350,-2.446283411
354.05400,-3.361866634
354.05450,-3.667061042
354.05500,-0.9203113723
354.05550,2.436827112
354.05600,2.436827112
354.05650,-2.751477819
354.05700,-8.244977157
354.05750,-8.244977157
354.05800,-5.19303308
354.05850,-5.19303308
354.05900,-9.770949196
354.05950,-13.7384765
354.06000,-12.51769887
354.06050,-8.244977157
354.06100,-4.277449857
354.06150,-2.141089003
354.06200,-0.6151169646
354.06250,-0.004728149245
354.06300,-0.004728149245
354.06350,-0.9203113723
354.06400,-2.141089003
354.06450,-3.056672226
354.06500,-3.361866634
354.06550,-3.361866634
354.06600,-2.446283411
354.06650,-1.22550578
354.06700,-0.9203113723
354.06750,-0.9203113723
354.06800,-1.22550578
354.06850,-1.530700188
354.06900,-2.446283411
354.06950,-3.361866634
354.07000,-3.972255449
354.07050,-4.582644265
354.07100,-5.19303308
354.07150,-5.498227488
354.07200,-4.887838672
354.07250,-3.667061042
354.07300,-2.751477819
354.07350,-2.446283411
354.07400,-2.141089003
354.07450,-1.835894595
354.07500,-1.530700188
354.07550,-0.6151169646
354.07600,-0.004728149245
354.07650,0.9108550739
354.07700,0.6056606662
354.07750,-0.004728149245
354.07800,-0.004728149245
354.07850,1.216049482
354.07900,2.74202152
354.07950,2.131632705
354.08000,-1.530700188
354.08050,-6.108616303
354.08100,-8.244977157
354.08150,-7.024199526
354.08200,-5.19303308
354.08250,-4.277449857
354.08300,-3.972255449
354.08350,-3.361866634
354.08400,-2.141089003
354.08450,-1.530700188
354.08500,-1.22550578
354.08550,-0.6151169646
354.08600,-0.6151169646
354.08650,-1.22550578
354.08700,-1.835894595
354.08750,-0.9203113723
354.08800,0.9108550739
354.08850,2.436827112
354.08900,2.74202152
354.08950,2.131632705
354.09000,1.521243889
354.09050,1.521243889
354.09100,1.521243889
354.09150,1.521243889
354.09200,1.826438297
354.09250,1.216049482
354.09300,0.9108550739
354.09350,0.3004662585
354.09400,-0.004728149245
354.09450,-0.004728149245
354.09500,0.3004662585
354.09550,1.826438297
354.09600,2.436827112
354.09650,2.131632705
354.09700,1.216049482
354.09750,1.521243889
354.09800,2.436827112
354.09850,3.047215928
354.09900,2.436827112
354.09950,1.216049482
354.10000,0.6056606662
354.10050,-0.004728149245
354.10100,-0.3099225569
354.10150,-0.004728149245
354.10200,0.6056606662
354.10250,1.826438297
354.10300,1.826438297
354.10350,0.9108550739
354.10400,-0.004728149245
354.10450,-0.004728149245
354.10500,-0.004728149245
354.10550,-0.004728149245
354.10600,0.3004662585
354.10650,0.9108550739
354.10700,0.3004662585
354.10750,-0.9203113723
354.10800,-1.835894595
354.10850,-0.9203113723
354.10900,-0.004728149245
354.10950,-0.004728149245
354.11000,-0.9203113723
354.11050,-1.22550578
354.11100,-0.6151169646
354.11150,-0.004728149245
354.11200,-0.3099225569
354.11250,-0.9203113723
354.11300,-1.22550578
354.11350,-1.22550578
354.11400,-0.6151169646
354.11450,-0.004728149245
354.11500,-0.3099225569
354.11550,-0.6151169646
354.11600,-0.9203113723
354.11650,-0.004728149245
354.11700,1.216049482
354.11750,1.521243889
354.11800,0.6056606662
354.11850,-0.3099225569
354.11900,-0.3099225569
354.11950,0.3004662585
354.12000,0.6056606662
354.12050,0.3004662585
354.12100,-0.004728149245
354.12150,0.6056606662
354.12200,2.436827112
354.12250,3.657604743
354.12300,3.657604743
354.12350,2.436827112
354.12400,1.216049482
354.12450,0.9108550739
354.12500,0.9108550739
354.12550,1.216049482
354.12600,1.521243889
354.12650,1.216049482
354.12700,0.6056606662
354.12750,-0.3099225569
354.12800,-0.9203113723
354.12850,-0.3099225569
354.12900,0.3004662585
354.12950,0.9108550739
354.13000,1.216049482
354.13050,1.826438297
354.13100,2.74202152
354.13150,3.047215928
354.13200,2.74202152
354.13250,2.131632705
354.13300,2.436827112
354.13350,3.047215928
354.13400,4.267993559
354.13450,4.267993559
354.13500,3.047215928
354.13550,1.216049482
354.13600,-0.004728149245
354.13650,-0.3099225569
354.13700,-0.004728149245
354.13750,0.9108550739
354.13800,0.3004662585
354.13850,-1.835894595
354.13900,-4.582644265
354.13950,-4.277449857
354.14000,-2.141089003
354.14050,-3.056672226
354.14100,-10.38133801
354.14150,-19.53717024
354.14200,-21.36833669
354.14250,-12.21250446
354.14300,0.9108550739
354.14350,10.0666873
354.14400,12.50824257
354.14450,11.59265934
354.14500,11.59265934
354.14550,11.59265934
354.14600,10.0666873
354.14650,7.930326451
354.14700,7.625132043
354.14750,9.761492897
354.14800,10.37188171
354.14850,7.319937636
354.14900,2.436827112
354.14950,0.6056606662
354.15000,2.131632705
354.15050,4.267993559
354.15100,4.573187966
354.15150,2.74202152
354.15200,0.6056606662
354.15250,-1.22550578
354.15300,-3.056672226
354.15350,-3.056672226
354.15400,-1.22550578
354.15450,-0.004728149245
354.15500,-0.004728149245
354.15550,-1.530700188
354.15600,-2.446283411
354.15650,-1.835894595
354.15700,-1.835894595
354.15750,-3.056672226
354.15800,-3.056672226
354.15850,-0.6151169646
354.15900,2.436827112
354.15950,4.573187966
354.16000,4.267993559
354.16050,2.436827112
354.16100,-0.004728149245
354.16150,-1.530700188
354.16200,-1.530700188
354.16250,-0.004728149245
354.16300,2.74202152
354.16350,4.573187966
354.16400,3.352410335
354.16450,0.6056606662
354.16500,-1.22550578
354.16550,-1.530700188
354.16600,-0.6151169646
354.16650,-0.004728149245
354.16700,-0.3099225569
354.16750,-0.9203113723
354.16800,-1.530700188
354.16850,-2.751477819
354.16900,-3.972255449
354.16950,-4.277449857
354.17000,-3.056672226
354.17050,-1.835894595
354.17100,-2.446283411
354.17150,-3.972255449
354.17200,-5.19303308
354.17250,-5.19303308
354.17300,-4.582644265
354.17350,-4.582644265
354.17400,-5.19303308
354.17450,-5.498227488
354.17500,-4.277449857
354.17550,-2.751477819
354.17600,-2.141089003
354.17650,-3.361866634
354.17700,-5.498227488
354.17750,-5.803421896
354.17800,-3.972255449
354.17850,-2.141089003
354.17900,-2.446283411
354.17950,-3.056672226
354.18000,-2.141089003
354.18050,0.3004662585
354.18100,1.826438297
354.18150,1.826438297
354.18200,0.6056606662
354.18250,-0.004728149245
354.18300,0.3004662585
354.18350,0.9108550739
354.18400,1.216049482
354.18450,0.9108550739
354.18500,-0.004728149245
354.18550,-0.3099225569
354.18600,-0.004728149245
354.18650,1.216049482
354.18700,2.131632705
354.18750,1.521243889
354.18800,0.9108550739
354.18850,1.216049482
354.18900,2.131632705
354.18950,1.826438297
354.19000,1.216049482
354.19050,0.9108550739
354.19100,1.521243889
354.19150,2.131632705
354.19200,2.131632705
354.19250,1.521243889
354.19300,1.216049482
354.19350,0.6056606662
354.19400,-0.004728149245
354.19450,-0.9203113723
354.19500,-1.835894595
354.19550,-2.446283411
354.19600,-2.751477819
354.19650,-2.141089003
354.19700,-0.9203113723
354.19750,-0.6151169646
354.19800,-1.835894595
354.19850,-3.361866634
354.19900,-3.361866634
354.19950,-3.056672226
354.20000,-3.361866634
354.20050,-3.361866634
354.20100,-2.446283411
354.20150,-1.835894595
354.20200,-3.972255449
354.20250,-6.108616303
354.20300,-3.972255449
354.20350,1.216049482
354.20400,5.793965597
354.20450,6.70954882
354.20500,7.625132043
354.20550,10.67707612
354.20600,13.11863138
354.20650,10.37188171
354.20700,4.573187966
354.20750,1.216049482
354.20800,2.131632705
354.20850,3.657604743
354.20900,4.878382374
354.20950,6.70954882
354.21000,7.625132043
354.21050,5.183576782
354.21100,-0.3099225569
354.21150,-5.19303308
354.21200,-5.803421896
354.21250,-3.972255449
354.21300,-2.751477819
354.21350,-2.751477819
354.21400,-1.835894595
354.21450,0.6056606662
354.21500,3.657604743
354.21550,4.573187966
354.21600,3.962799151
354.21650,3.352410335
354.21700,4.573187966
354.21750,7.319937636
354.21800,7.930326451
354.21850,5.488771189
354.21900,1.216049482
354.21950,-1.22550578
354.22000,-0.6151169646
354.22050,2.74202152
354.22100,7.014743228
354.22150,8.845909674
354.22200,6.404354412
354.22250,0.3004662585
354.22300,-5.803421896
354.22350,-8.550171565
354.22400,-7.939782749
354.22450,-6.413810711
354.22500,-5.498227488
354.22550,-3.972255449
354.22600,-1.22550578
354.22650,0.6056606662
354.22700,1.216049482
354.22750,0.9108550739
354.22800,0.6056606662
354.22850,0.6056606662
354.22900,-0.004728149245
354.22950,-1.530700188
354.23000,-2.141089003
354.23050,-1.835894595
354.23100,-1.530700188
354.23150,-1.22550578
354.23200,-0.9203113723
354.23250,-0.3099225569
354.23300,-0.9203113723
354.23350,-2.751477819
354.23400,-4.277449857
354.23450,-3.972255449
354.23500,-2.446283411
354.23550,-0.9203113723
354.23600,-1.22550578
354.23650,-2.141089003
354.23700,-2.446283411
354.23750,-1.530700188
354.23800,-0.3099225569
354.23850,0.3004662585
354.23900,0.9108550739
354.23950,0.6056606662
354.24000,0.3004662585
354.24050,-0.004728149245
354.24100,-0.004728149245
354.24150,0.3004662585
354.24200,0.3004662585
354.24250,-0.004728149245
354.24300,-0.004728149245
354.24350,-0.6151169646
354.24400,-1.835894595
354.24450,-3.667061042
354.24500,-3.361866634
354.24550,-0.3099225569
354.24600,2.436827112
354.24650,2.74202152
354.24700,1.216049482
354.24750,0.6056606662
354.24800,1.826438297
354.24850,3.047215928
354.24900,2.74202152
354.24950,1.521243889
354.25000,0.6056606662
354.25050,-0.004728149245
354.25100,-1.22550578
354.25150,-1.835894595
354.25200,-2.141089003
354.25250,-2.751477819
354.25300,-3.667061042
354.25350,-4.582644265
354.25400,-4.277449857
354.25450,-3.361866634
354.25500,-2.751477819
354.25550,-1.22550578
354.25600,0.6056606662
354.25650,1.826438297
354.25700,1.521243889
354.25750,0.6056606662
354.25800,0.3004662585
354.25850,0.6056606662
354.25900,0.9108550739
354.25950,0.3004662585
354.26000,-0.004728149245
354.26050,-0.6151169646
354.26100,-0.6151169646
354.26150,-0.3099225569
354.26200,-0.6151169646
354.26250,-1.530700188
354.26300,-2.141089003
354.26350,-2.141089003
354.26400,-1.835894595
354.26450,-1.530700188
354.26500,-0.6151169646
354.26550,0.6056606662
354.26600,1.216049482
354.26650,-0.004728149245
354.26700,-0.6151169646
354.26750,-0.004728149245
354.26800,0.9108550739
354.26850,0.6056606662
354.26900,-0.6151169646
354.26950,-1.22550578
354.27000,-1.22550578
354.27050,-1.530700188
354.27100,-2.446283411
354.27150,-1.835894595
354.27200,-0.004728149245
354.27250,2.131632705
354.27300,2.436827112
354.27350,1.826438297
354.27400,0.6056606662
354.27450,-0.6151169646
354.27500,-1.835894595
354.27550,-2.141089003
354.27600,-1.530700188
354.27650,-1.22550578
354.27700,-1.835894595
354.27750,-1.835894595
354.27800,-0.004728149245
354.27850,1.826438297
354.27900,2.436827112
354.27950,1.521243889
354.28000,-0.3099225569
354.28050,-3.056672226
354.28100,-4.277449857
354.28150,-3.361866634
354.28200,-1.22550578
354.28250,0.3004662585
354.28300,1.521243889
354.28350,2.74202152
354.28400,3.657604743
354.28450,4.267993559
354.28500,4.573187966
354.28550,5.488771189
354.28600,5.488771189
354.28650,3.657604743
354.28700,1.216049482
354.28750,-0.004728149245
354.28800,0.6056606662
354.28850,2.131632705
354.28900,2.436827112
354.28950,1.216049482
354.29000,-1.835894595
354.29050,-5.498227488
354.29100,-7.329393934
354.29150,-5.803421896
354.29200,-3.056672226
354.29250,-0.9203113723
354.29300,0.3004662585
354.29350,2.74202152
354.29400,6.099160005
354.29450,8.235520859
354.29500,7.930326451
354.29550,7.319937636
354.29600,7.319937636
354.29650,7.014743228
354.29700,4.878382374
354.29750,2.74202152
354.29800,1.521243889
354.29850,1.216049482
354.29900,0.9108550739
354.29950,0.6056606662
354.30000,0.6056606662
354.30050,-0.004728149245
354.30100,-0.9203113723
354.30150,-1.530700188
354.30200,-0.9203113723
354.30250,-1.530700188
354.30300,-4.277449857
354.30350,-5.498227488
354.30400,-3.056672226
354.30450,-0.004728149245
354.30500,-0.6151169646
354.30550,-4.582644265
354.30600,-6.413810711
354.30650,-3.972255449
354.30700,-0.9203113723
354.30750,-1.22550578
354.30800,-3.667061042
354.30850,-5.498227488
354.30900,-5.498227488
354.30950,-4.582644265
354.31000,-2.751477819
354.31050,-1.530700188
354.31100,-0.6151169646
354.31150,-0.004728149245
354.31200,0.9108550739
354.31250,1.521243889
354.31300,0.3004662585
354.31350,-1.530700188
354.31400,-2.446283411
354.31450,-1.835894595
354.31500,-1.835894595
354.31550,-3.361866634
354.31600,-4.887838672
354.31650,-5.803421896
354.31700,-7.024199526
354.31750,-7.939782749
354.31800,-5.19303308
354.31850,-0.004728149245
354.31900,3.962799151
354.31950,4.878382374
354.32000,4.573187966
354.32050,4.267993559
354.32100,3.047215928
354.32150,1.216049482
354.32200,0.9108550739
354.32250,3.047215928
354.32300,4.267993559
354.32350,2.74202152
354.32400,1.521243889
354.32450,1.826438297
354.32500,2.436827112
354.32550,1.826438297
354.32600,0.6056606662
354.32650,0.3004662585
354.32700,-0.004728149245
354.32750,-0.9203113723
354.32800,-1.835894595
354.32850,-2.446283411
354.32900,-4.277449857
354.32950,-6.108616303
354.33000,-4.887838672
354.33050,-0.3099225569
354.33100,3.047215928
354.33150,3.352410335
354.33200,2.131632705
354.33250,2.436827112
354.33300,2.74202152
354.33350,1.521243889
354.33400,-0.3099225569
354.33450,-2.446283411
354.33500,-4.277449857
354.33550,-5.19303308
354.33600,-2.751477819
354.33650,2.131632705
354.33700,6.099160005
354.33750,5.488771189
354.33800,2.436827112
354.33850,0.9108550739
354.33900,0.9108550739
354.33950,0.3004662585
354.34000,-0.6151169646
354.34050,-0.9203113723
354.34100,0.3004662585
354.34150,1.826438297
354.34200,1.826438297
354.34250,1.826438297
354.34300,1.826438297
354.34350,1.826438297
354.34400,1.216049482
354.34450,-0.004728149245
354.34500,-0.3099225569
354.34550,-1.22550578
354.34600,-2.751477819
354.34650,-4.277449857
354.34700,-4.887838672
354.34750,-3.972255449
354.34800,-2.446283411
354.34850,-1.835894595
354.34900,-3.056672226
354.34950,-5.498227488
354.35000,-7.329393934
354.35050,-6.719005119
354.35100,-4.277449857
354.35150,-1.835894595
354.35200,-1.835894595
354.35250,-2.446283411
354.35300,-1.530700188
354.35350,1.521243889
354.35400,5.183576782
354.35450,6.404354412
354.35500,4.573187966
354.35550,2.74202152
354.35600,3.657604743
354.35650,5.793965597
354.35700,5.793965597
354.35750,3.352410335
354.35800,0.6056606662
354.35850,1.216049482
354.35900,4.267993559
354.35950,5.488771189
354.36000,4.573187966
354.36050,3.962799151
354.36100,5.488771189
354.36150,5.488771189
354.36200,0.3004662585
354.36250,-7.939782749
354.36300,-12.51769887
354.36350,-9.16056038
354.36400,-2.446283411
354.36450,1.216049482
354.36500,1.826438297
354.36550,2.436827112
354.36600,3.352410335
354.36650,2.74202152
354.36700,1.521243889
354.36750,1.826438297
354.36800,3.352410335
354.36850,3.657604743
354.36900,1.216049482
354.36950,-1.22550578
354.37000,-0.9203113723
354.37050,0.9108550739
354.37100,1.521243889
354.37150,0.3004662585
354.37200,-0.6151169646
354.37250,0.3004662585
354.37300,3.047215928
354.37350,5.183576782
354.37400,5.488771189
354.37450,4.573187966
354.37500,3.657604743
354.37550,2.436827112
354.37600,0.9108550739
354.37650,0.6056606662
354.37700,1.521243889
354.37750,2.74202152
354.37800,3.352410335
354.37850,3.352410335
354.37900,3.352410335
354.37950,3.352410335
354.38000,3.352410335
354.38050,2.74202152
354.38100,1.216049482
354.38150,-0.6151169646
354.38200,-2.446283411
354.38250,-2.751477819
354.38300,-1.835894595
354.38350,-1.530700188
354.38400,-2.446283411
354.38450,-3.361866634
354.38500,-2.751477819
354.38550,-1.530700188
354.38600,-1.22550578
354.38650,-2.141089003
354.38700,-3.056672226
354.38750,-3.056672226
354.38800,-3.056672226
354.38850,-3.972255449
354.38900,-5.498227488
354.38950,-5.803421896
354.39000,-4.277449857
354.39050,-1.530700188
354.39100,-0.004728149245
354.39150,0.9108550739
354.39200,0.9108550739
354.39250,0.9108550739
354.39300,0.9108550739
354.39350,0.9108550739
354.39400,-0.004728149245
354.39450,-0.6151169646
354.39500,-0.9203113723
354.39550,-0.6151169646
354.39600,-0.3099225569
354.39650,-0.004728149245
354.39700,0.3004662585
354.39750,1.521243889
354.39800,2.436827112
354.39850,-0.004728149245
354.39900,-4.887838672
354.39950,-9.465754788
354.40000,-10.0761436
354.40050,-7.634588342
354.40100,-5.803421896
354.40150,-5.19303308
354.40200,-4.887838672
354.40250,-4.277449857
354.40300,-3.667061042
354.40350,-2.751477819
354.40400,-0.3099225569
354.40450,2.131632705
354.40500,3.047215928
354.40550,2.436827112
354.40600,1.826438297
354.40650,1.521243889
354.40700,-0.004728149245
354.40750,-1.835894595
354.40800,-0.9203113723
354.40850,3.352410335
354.40900,7.625132043
354.40950,8.235520859
354.41000,5.488771189
354.41050,3.352410335
354.41100,3.352410335
354.41150,3.657604743
354.41200,3.047215928
354.41250,1.521243889
354.41300,-0.004728149245
354.41350,-0.9203113723
354.41400,-1.530700188
354.41450,-1.530700188
354.41500,-0.9203113723
354.41550,-0.004728149245
354.41600,1.826438297
354.41650,2.74202152
354.41700,2.131632705
354.41750,0.9108550739
354.41800,0.3004662585
354.41850,2.131632705
354.41900,4.267993559
354.41950,4.878382374
354.42000,4.573187966
354.42050,4.573187966
354.42100,4.878382374
354.42150,4.878382374
354.42200,4.267993559
354.42250,3.657604743
354.42300,3.352410335
354.42350,3.657604743
354.42400,3.962799151
354.42450,4.267993559
354.42500,3.657604743
354.42550,1.216049482
354.42600,-1.22550578
354.42650,-3.361866634
354.42700,-3.361866634
354.42750,-2.141089003
354.42800,-0.9203113723
354.42850,-0.3099225569
354.42900,-0.6151169646
354.42950,-0.9203113723
354.43000,-0.9203113723
354.43050,-0.9203113723
354.43100,-1.22550578
354.43150,-1.22550578
354.43200,-1.22550578
354.43250,-1.22550578
354.43300,-0.9203113723
354.43350,-0.6151169646
354.43400,0.3004662585
354.43450,0.3004662585
354.43500,-1.835894595
354.43550,-5.498227488
354.43600,-7.329393934
354.43650,-5.498227488
354.43700,-3.667061042
354.43750,-4.277449857
354.43800,-6.719005119
354.43850,-7.024199526
354.43900,-3.361866634
354.43950,1.826438297
354.44000,5.793965597
354.44050,7.014743228
354.44100,7.014743228
354.44150,7.625132043
354.44200,8.540715266
354.44250,7.930326451
354.44300,5.183576782
354.44350,2.131632705
354.44400,0.6056606662
354.44450,0.6056606662
354.44500,0.6056606662
354.44550,-0.004728149245
354.44600,-1.835894595
354.44650,-2.751477819
354.44700,-2.446283411
354.44750,-3.056672226
354.44800,-6.108616303
354.44850,-9.16056038
354.44900,-9.770949196
354.44950,-8.244977157
354.45000,-7.634588342
354.45050,-9.16056038
354.45100,-9.465754788
354.45150,-4.887838672
354.45200,3.352410335
354.45250,10.98227053
354.45300,14.03421461
354.45350,14.03421461
354.45400,13.42382579
354.45450,12.50824257
354.45500,10.67707612
354.45550,7.625132043
354.45600,5.488771189
354.45650,3.962799151
354.45700,2.131632705
354.45750,-0.004728149245
354.45800,-1.835894595
354.45850,-2.141089003
354.45900,-0.9203113723
354.45950,-0.004728149245
354.46000,0.3004662585
354.46050,-0.004728149245
354.46100,-0.6151169646
354.46150,-0.9203113723
354.46200,-1.22550578
354.46250,-1.835894595
354.46300,-3.361866634
354.46350,-4.887838672
354.46400,-6.108616303
354.46450,-5.803421896
354.46500,-4.887838672
354.46550,-3.972255449
354.46600,-4.277449857
354.46650,-4.277449857
354.46700,-3.972255449
354.46750,-3.972255449
354.46800,-5.19303308
354.46850,-6.413810711
354.46900,-6.108616303
354.46950,-3.972255449
354.47000,-2.446283411
354.47050,-2.141089003
354.47100,-1.530700188
354.47150,0.6056606662
354.47200,3.047215928
354.47250,3.047215928
354.47300,-0.004728149245
354.47350,-3.056672226
354.47400,-4.582644265
354.47450,-3.972255449
354.47500,-2.446283411
354.47550,-1.530700188
354.47600,-1.835894595
354.47650,-1.530700188
354.47700,-1.530700188
354.47750,-2.446283411
354.47800,-3.972255449
354.47850,-4.277449857
354.47900,-1.22550578
354.47950,2.131632705
354.48000,3.352410335
354.48050,2.131632705
354.48100,2.131632705
354.48150,3.657604743
354.48200,3.657604743
354.48250,2.131632705
354.48300,2.131632705
354.48350,4.267993559
354.48400,3.047215928
354.48450,-4.277449857
354.48500,-13.12808768
354.48550,-15.26444853
354.48600,-10.68653242
354.48650,-4.887838672
354.48700,-2.446283411
354.48750,-1.835894595
354.48800,-1.835894595
354.48850,-1.530700188
354.48900,-1.530700188
354.48950,-1.835894595
354.49000,-2.141089003
354.49050,-2.446283411
354.49100,-0.6151169646
354.49150,3.352410335
354.49200,7.625132043
354.49250,8.845909674
354.49300,7.014743228
354.49350,5.488771189
354.49400,5.183576782
354.49450,4.573187966
354.49500,2.74202152
354.49550,1.521243889
354.49600,2.131632705
354.49650,2.74202152
354.49700,1.826438297
354.49750,0.6056606662
354.49800,0.9108550739
354.49850,1.521243889
354.49900,0.9108550739
354.49950,-0.6151169646
354.50000,-1.530700188
354.50050,-0.9203113723
354.50100,-0.6151169646
354.50150,-1.530700188
354.50200,-3.056672226
354.50250,-4.277449857
354.50300,-4.277449857
354.50350,-2.751477819
354.50400,-0.6151169646
354.50450,0.3004662585
354.50500,-0.004728149245
354.50550,-0.004728149245
354.50600,0.3004662585
354.50650,1.826438297
354.50700,3.352410335
354.50750,4.267993559
354.50800,3.962799151
354.50850,2.436827112
354.50900,0.6056606662
354.50950,-0.004728149245
354.51000,-0.004728149245
354.51050,-0.3099225569
354.51100,-2.141089003
354.51150,-2.141089003
354.51200,-0.9203113723
354.51250,-1.22550578
354.51300,-3.667061042
354.51350,-5.498227488
354.51400,-4.887838672
354.51450,-5.498227488
354.51500,-8.855365973
354.51550,-10.68653242
354.51600,-6.108616303
354.51650,2.131632705
354.51700,7.625132043
354.51750,8.540715266
354.51800,9.45629849
354.51850,11.28746494
354.51900,10.0666873
354.51950,5.488771189
354.52000,2.74202152
354.52050,4.573187966
354.52100,6.099160005
354.52150,3.657604743
354.52200,0.3004662585
354.52250,-0.004728149245
354.52300,1.521243889
354.52350,2.436827112
354.52400,1.521243889
354.52450,2.436827112
354.52500,4.573187966
354.52550,6.404354412
354.52600,6.404354412
354.52650,5.183576782
354.52700,3.962799151
354.52750,2.74202152
354.52800,2.436827112
354.52850,3.047215928
354.52900,3.352410335
354.52950,2.436827112
354.53000,0.9108550739
354.53050,-0.004728149245
354.53100,-0.004728149245
354.53150,0.6056606662
354.53200,0.9108550739
354.53250,-0.004728149245
354.53300,-2.141089003
354.53350,-5.498227488
354.53400,-7.024199526
354.53450,-5.803421896
354.53500,-3.972255449
354.53550,-4.277449857
354.53600,-6.413810711
354.53650,-7.939782749
354.53700,-6.108616303
354.53750,-1.530700188
354.53800,1.521243889
354.53850,1.216049482
354.53900,-0.3099225569
354.53950,-0.004728149245
354.54000,2.436827112
354.54050,4.878382374
354.54100,4.267993559
354.54150,1.521243889
354.54200,0.3004662585
354.54250,0.9108550739
354.54300,0.6056606662
354.54350,-1.22550578
354.54400,-3.667061042
354.54450,-3.972255449
354.54500,-2.751477819
354.54550,-1.22550578
354.54600,-0.9203113723
354.54650,-1.22550578
354.54700,-2.141089003
354.54750,-2.141089003
354.54800,-1.22550578
354.54850,0.9108550739
354.54900,2.74202152
354.54950,2.74202152
354.55000,0.9108550739
354.55050,-0.9203113723
354.55100,-2.446283411
354.55150,-3.667061042
354.55200,-3.972255449
354.55250,-3.056672226
354.55300,-1.835894595
354.55350,-0.6151169646
354.55400,-0.6151169646
354.55450,-0.9203113723
354.55500,-1.22550578
354.55550,-2.141089003
354.55600,-3.667061042
354.55650,-4.277449857
354.55700,-2.751477819
354.55750,-0.004728149245
354.55800,1.521243889
354.55850,0.9108550739
354.55900,0.9108550739
354.55950,2.74202152
354.56000,4.878382374
354.56050,5.488771189
354.56100,4.573187966
354.56150,4.267993559
354.56200,4.267993559
354.56250,3.047215928
354.56300,1.521243889
354.56350,0.9108550739
354.56400,1.216049482
354.56450,0.9108550739
354.56500,-0.004728149245
354.56550,-0.004728149245
354.56600,-0.004728149245
354.56650,-0.3099225569
354.56700,-0.3099225569
354.56750,-0.004728149245
354.56800,0.3004662585
354.56850,-0.004728149245
354.56900,-0.6151169646
354.56950,-1.22550578
354.57000,-2.141089003
354.57050,-3.056672226
354.57100,-3.972255449
354.57150,-3.972255449
354.57200,-2.751477819
354.57250,-1.22550578
354.57300,-0.004728149245
354.57350,0.3004662585
