"type","name","time_units","begin_time","frequency","count","units"
"signal","Ultium EMG-BRACHIORAD. RT","s",362.96000,2000,22000,"uV"

"time","value"
362.96000,13.40338798
362.96050,15.84494324
362.96100,14.31897121
362.96150,7.909888645
362.96200,-0.3303603634
362.96250,-7.655026148
362.96300,-12.23294226
362.96350,-13.14852549
362.96400,-10.09658141
362.96450,-5.213470887
362.96500,-2.16152681
362.96550,-3.992693256
362.96600,-6.739442925
362.96650,-2.771915625
362.96700,9.130666275
362.96750,22.25402581
362.96800,26.22155311
362.96850,21.03324818
362.96900,14.0137768
362.96950,9.435860683
362.97000,5.468333383
362.97050,-0.6355547711
362.97100,-6.434248517
362.97150,-7.34983174
362.97200,-3.687498848
362.97250,-1.245943586
362.97300,-3.992693256
362.97350,-9.791387002
362.97400,-13.7589143
362.97450,-13.14852549
362.97500,-9.791387002
362.97550,-8.265414964
362.97600,-10.40177582
362.97650,-13.7589143
362.97700,-16.50566397
362.97750,-18.64202483
362.97800,-21.99916331
362.97850,-25.6614962
362.97900,-27.18746824
362.97950,-25.35630179
362.98000,-19.55760805
362.98050,-10.09658141
362.98100,1.500806083
362.98150,12.18261035
362.98200,17.06572088
362.98250,16.45533206
362.98300,12.18261035
362.98350,7.299499829
362.98400,2.721583714
362.98450,1.806000491
362.98500,6.078722198
362.98550,13.40338798
362.98600,18.28649851
362.98650,17.9813041
362.98700,16.45533206
362.98750,16.76052647
362.98800,17.37091528
362.98850,16.45533206
362.98900,13.40338798
362.98950,10.96183272
362.99000,10.0462495
362.99050,9.435860683
362.99100,8.215083052
362.99150,6.994305421
362.99200,5.468333383
362.99250,4.857944568
362.99300,7.604694237
362.99350,14.92936002
362.99400,21.64363699
362.99450,20.42285936
362.99500,8.825471868
362.99550,-5.823859702
362.99600,-15.89527516
362.99650,-17.42124719
362.99700,-14.67449753
362.99750,-12.53813667
362.99800,-11.62255345
362.99850,-11.62255345
362.99900,-11.62255345
362.99950,-11.01216463
363.00000,-9.486192594
363.00050,-7.044637333
363.00100,-4.603082071
363.00150,-3.38230444
363.00200,-3.077110033
363.00250,-2.466721217
363.00300,-0.9407491788
363.00350,0.8904172674
363.00400,2.416389306
363.00450,3.026778121
363.00500,3.331972529
363.00550,3.942361344
363.00600,4.857944568
363.00650,4.857944568
363.00700,3.942361344
363.00750,3.331972529
363.00800,3.942361344
363.00850,4.247555752
363.00900,4.247555752
363.00950,3.637166937
363.01000,2.111194898
363.01050,0.280028452
363.01100,-0.9407491788
363.01150,-1.551137994
363.01200,-2.466721217
363.01250,-5.213470887
363.01300,-8.570609371
363.01350,-9.180998187
363.01400,-6.434248517
363.01450,-4.603082071
363.01500,-6.434248517
363.01550,-9.486192594
363.01600,-10.70697023
363.01650,-10.09658141
363.01700,-10.40177582
363.01750,-12.23294226
363.01800,-14.06410871
363.01850,-14.36930312
363.01900,-14.67449753
363.01950,-15.28488634
363.02000,-14.97969193
363.02050,-12.53813667
363.02100,-8.570609371
363.02150,-3.992693256
363.02200,-0.02516595566
363.02250,2.416389306
363.02300,3.026778121
363.02350,1.195611675
363.02400,-2.16152681
363.02450,-3.992693256
363.02500,-0.02516595566
363.02550,10.65663831
363.02600,21.33844258
363.02650,24.39038666
363.02700,19.20208173
363.02750,12.48780476
363.02800,9.130666275
363.02850,8.215083052
363.02900,5.468333383
363.02950,1.500806083
363.03000,0.280028452
363.03050,0.280028452
363.03100,-0.6355547711
363.03150,-3.992693256
363.03200,-4.908276479
363.03250,-1.551137994
363.03300,0.8904172674
363.03350,-1.856332402
363.03400,-9.791387002
363.03450,-15.89527516
363.03500,-14.97969193
363.03550,-8.875803779
363.03600,-4.908276479
363.03650,-7.655026148
363.03700,-13.7589143
363.03750,-17.7264416
363.03800,-19.86280246
363.03850,-24.13552416
363.03900,-28.71344028
363.03950,-25.35630179
363.04000,-10.09658141
363.04050,8.215083052
363.04100,19.20208173
363.04150,19.20208173
363.04200,13.70858239
363.04250,8.215083052
363.04300,4.247555752
363.04350,3.026778121
363.04400,5.163138975
363.04450,8.52027746
363.04500,9.741055091
363.04550,8.52027746
363.04600,7.909888645
363.04650,8.825471868
363.04700,10.0462495
363.04750,10.35144391
363.04800,10.96183272
363.04850,10.0462495
363.04900,7.299499829
363.04950,4.55275016
363.05000,4.55275016
363.05050,4.857944568
363.05100,0.5852228597
363.05150,-7.655026148
363.05200,-12.53813667
363.05250,-10.70697023
363.05300,-7.044637333
363.05350,-7.34983174
363.05400,-9.180998187
363.05450,-5.213470887
363.05500,6.078722198
363.05550,18.89688732
363.05600,26.22155311
363.05650,26.22155311
363.05700,21.64363699
363.05750,16.45533206
363.05800,11.87741594
363.05850,7.299499829
363.05900,0.8904172674
363.05950,-7.044637333
363.06000,-15.59008075
363.06050,-21.38877449
363.06100,-22.91474653
363.06150,-20.16799686
363.06200,-13.45371989
363.06250,-5.213470887
363.06300,1.806000491
363.06350,6.383916606
363.06400,7.909888645
363.06450,6.994305421
363.06500,5.163138975
363.06550,4.857944568
363.06600,6.689111014
363.06650,8.215083052
363.06700,7.909888645
363.06750,5.773527791
363.06800,4.55275016
363.06850,4.857944568
363.06900,3.637166937
363.06950,-0.02516595566
363.07000,-2.771915625
363.07050,-2.466721217
363.07100,-0.02516595566
363.07150,1.500806083
363.07200,1.500806083
363.07250,0.8904172674
363.07300,0.280028452
363.07350,-1.245943586
363.07400,-4.603082071
363.07450,-8.265414964
363.07500,-11.62255345
363.07550,-14.97969193
363.07600,-16.81085838
363.07650,-17.11605279
363.07700,-16.81085838
363.07750,-16.81085838
363.07800,-15.89527516
363.07850,-11.92774786
363.07900,-6.739442925
363.07950,-3.38230444
363.08000,-3.687498848
363.08050,-5.518665294
363.08100,-6.434248517
363.08150,-6.434248517
363.08200,-4.603082071
363.08250,0.8904172674
363.08300,10.35144391
363.08350,17.37091528
363.08400,18.59169291
363.08450,15.23455443
363.08500,11.87741594
363.08550,9.741055091
363.08600,8.52027746
363.08650,8.215083052
363.08700,9.130666275
363.08750,10.96183272
363.08800,11.57222154
363.08850,10.96183272
363.08900,10.0462495
363.08950,8.825471868
363.09000,7.909888645
363.09050,7.909888645
363.09100,7.604694237
363.09150,5.163138975
363.09200,0.8904172674
363.09250,-2.466721217
363.09300,-5.213470887
363.09350,-9.180998187
363.09400,-13.45371989
363.09450,-14.36930312
363.09500,-10.09658141
363.09550,-5.213470887
363.09600,-3.38230444
363.09650,-4.297887663
363.09700,-4.297887663
363.09750,-5.213470887
363.09800,-9.486192594
363.09850,-14.36930312
363.09900,-15.59008075
363.09950,-12.23294226
363.10000,-7.960220556
363.10050,-4.603082071
363.10100,-1.551137994
363.10150,0.5852228597
363.10200,0.5852228597
363.10250,-0.02516595566
363.10300,1.195611675
363.10350,4.857944568
363.10400,7.604694237
363.10450,7.909888645
363.10500,7.909888645
363.10550,9.435860683
363.10600,10.35144391
363.10650,9.130666275
363.10700,7.604694237
363.10750,7.604694237
363.10800,8.825471868
363.10850,11.57222154
363.10900,15.53974884
363.10950,18.89688732
363.11000,18.59169291
363.11050,13.70858239
363.11100,7.604694237
363.11150,3.026778121
363.11200,0.5852228597
363.11250,-0.9407491788
363.11300,-1.856332402
363.11350,-2.771915625
363.11400,-5.213470887
363.11450,-8.875803779
363.11500,-11.62255345
363.11550,-12.23294226
363.11600,-12.53813667
363.11650,-13.7589143
363.11700,-14.06410871
363.11750,-13.14852549
363.11800,-12.84333108
363.11850,-13.45371989
363.11900,-13.14852549
363.11950,-13.45371989
363.12000,-16.81085838
363.12050,-22.91474653
363.12100,-24.44071857
363.12150,-18.64202483
363.12200,-9.486192594
363.12250,-3.077110033
363.12300,2.721583714
363.12350,11.26702713
363.12400,18.59169291
363.12450,19.20208173
363.12500,13.09819358
363.12550,8.215083052
363.12600,8.825471868
363.12650,13.40338798
363.12700,18.28649851
363.12750,22.25402581
363.12800,23.77999785
363.12850,22.55922021
363.12900,21.33844258
363.12950,23.16960903
363.13000,24.39038666
363.13050,19.50727614
363.13100,9.130666275
363.13150,-0.02516595566
363.13200,-3.687498848
363.13250,-6.434248517
363.13300,-11.01216463
363.13350,-14.97969193
363.13400,-13.14852549
363.13450,-6.434248517
363.13500,-0.02516595566
363.13550,1.500806083
363.13600,-3.992693256
363.13650,-18.03163601
363.13700,-34.51213403
363.13750,-41.83679981
363.13800,-34.20693962
363.13850,-19.25241364
363.13900,-11.31735904
363.13950,-14.36930312
363.14000,-16.81085838
363.14050,-8.875803779
363.14100,4.55275016
363.14150,10.35144391
363.14200,3.942361344
363.14250,-4.297887663
363.14300,-1.856332402
363.14350,14.0137768
363.14400,34.46180211
363.14450,46.97477283
363.14500,47.89035605
363.14550,42.39685671
363.14600,35.98777415
363.14650,31.10466363
363.14700,26.22155311
363.14750,21.64363699
363.14800,18.89688732
363.14850,17.9813041
363.14900,16.45533206
363.14950,14.0137768
363.15000,11.57222154
363.15050,8.825471868
363.15100,4.55275016
363.15150,-0.6355547711
363.15200,-3.077110033
363.15250,-1.245943586
363.15300,0.280028452
363.15350,-0.9407491788
363.15400,-4.603082071
363.15450,-6.739442925
363.15500,-7.655026148
363.15550,-11.01216463
363.15600,-16.20046956
363.15650,-20.16799686
363.15700,-21.6939689
363.15750,-23.21994094
363.15800,-25.96669061
363.15850,-26.88227383
363.15900,-24.44071857
363.15950,-19.55760805
363.16000,-12.84333108
363.16050,-5.213470887
363.16100,2.721583714
363.16150,9.130666275
363.16200,12.48780476
363.16250,14.92936002
363.16300,18.89688732
363.16350,22.25402581
363.16400,21.64363699
363.16450,16.76052647
363.16500,8.52027746
363.16550,-0.02516595566
363.16600,-7.044637333
363.16650,-11.01216463
363.16700,-10.70697023
363.16750,-7.960220556
363.16800,-6.12905411
363.16850,-5.213470887
363.16900,-4.603082071
363.16950,-2.771915625
363.17000,-0.3303603634
363.17050,1.500806083
363.17100,2.721583714
363.17150,1.500806083
363.17200,-2.16152681
363.17250,-7.34983174
363.17300,-11.01216463
363.17350,-11.62255345
363.17400,-12.23294226
363.17450,-14.36930312
363.17500,-17.11605279
363.17550,-17.42124719
363.17600,-16.20046956
363.17650,-16.20046956
363.17700,-18.03163601
363.17750,-18.33683042
363.17800,-15.28488634
363.17850,-11.92774786
363.17900,-11.01216463
363.17950,-11.62255345
363.18000,-9.791387002
363.18050,-5.823859702
363.18100,-3.077110033
363.18150,-4.297887663
363.18200,-6.739442925
363.18250,-6.739442925
363.18300,-3.687498848
363.18350,0.280028452
363.18400,3.331972529
363.18450,4.247555752
363.18500,3.637166937
363.18550,4.55275016
363.18600,6.078722198
363.18650,6.689111014
363.18700,5.468333383
363.18750,4.857944568
363.18800,8.825471868
363.18850,14.62416561
363.18900,18.28649851
363.18950,17.06572088
363.19000,13.40338798
363.19050,10.0462495
363.19100,7.299499829
363.19150,4.857944568
363.19200,2.416389306
363.19250,-0.02516595566
363.19300,-3.687498848
363.19350,-7.34983174
363.19400,-9.791387002
363.19450,-10.40177582
363.19500,-11.31735904
363.19550,-14.06410871
363.19600,-17.7264416
363.19650,-17.7264416
363.19700,-12.23294226
363.19750,-3.992693256
363.19800,1.500806083
363.19850,2.111194898
363.19900,-0.9407491788
363.19950,-3.992693256
363.20000,-3.992693256
363.20050,-2.466721217
363.20100,-1.551137994
363.20150,-2.466721217
363.20200,-3.687498848
363.20250,-3.687498848
363.20300,-2.466721217
363.20350,-1.551137994
363.20400,-0.3303603634
363.20450,1.195611675
363.20500,3.637166937
363.20550,8.215083052
363.20600,14.62416561
363.20650,21.33844258
363.20700,25.00077548
363.20750,24.08519225
363.20800,20.42285936
363.20850,16.45533206
363.20900,14.31897121
363.20950,13.70858239
363.21000,12.79299917
363.21050,11.87741594
363.21100,10.35144391
363.21150,7.909888645
363.21200,4.857944568
363.21250,1.500806083
363.21300,-0.9407491788
363.21350,-2.771915625
363.21400,-3.992693256
363.21450,-5.213470887
363.21500,-6.739442925
363.21550,-8.265414964
363.21600,-10.09658141
363.21650,-11.31735904
363.21700,-11.92774786
363.21750,-12.23294226
363.21800,-12.53813667
363.21850,-13.14852549
363.21900,-13.7589143
363.21950,-14.06410871
363.22000,-13.14852549
363.22050,-11.01216463
363.22100,-7.960220556
363.22150,-5.213470887
363.22200,-3.077110033
363.22250,-1.856332402
363.22300,-0.02516595566
363.22350,2.111194898
363.22400,4.857944568
363.22450,7.299499829
363.22500,8.215083052
363.22550,7.909888645
363.22600,7.604694237
363.22650,7.604694237
363.22700,7.299499829
363.22750,6.078722198
363.22800,4.55275016
363.22850,4.247555752
363.22900,3.942361344
363.22950,1.806000491
363.23000,-1.551137994
363.23050,-2.771915625
363.23100,-0.9407491788
363.23150,0.8904172674
363.23200,1.500806083
363.23250,0.5852228597
363.23300,-0.3303603634
363.23350,-1.551137994
363.23400,-4.297887663
363.23450,-7.044637333
363.23500,-9.791387002
363.23550,-11.31735904
363.23600,-12.53813667
363.23650,-13.45371989
363.23700,-16.20046956
363.23750,-20.47319127
363.23800,-21.6939689
363.23850,-15.28488634
363.23900,-3.38230444
363.23950,6.689111014
363.24000,10.35144391
363.24050,9.741055091
363.24100,8.825471868
363.24150,7.909888645
363.24200,6.383916606
363.24250,4.857944568
363.24300,4.857944568
363.24350,5.773527791
363.24400,6.383916606
363.24450,7.604694237
363.24500,9.130666275
363.24550,10.35144391
363.24600,10.65663831
363.24650,11.26702713
363.24700,11.87741594
363.24750,10.35144391
363.24800,8.215083052
363.24850,7.604694237
363.24900,9.130666275
363.24950,9.130666275
363.25000,5.163138975
363.25050,0.280028452
363.25100,-1.245943586
363.25150,-0.9407491788
363.25200,-1.245943586
363.25250,-1.551137994
363.25300,0.280028452
363.25350,3.942361344
363.25400,5.773527791
363.25450,3.942361344
363.25500,0.280028452
363.25550,-2.771915625
363.25600,-5.518665294
363.25650,-7.34983174
363.25700,-7.960220556
363.25750,-7.960220556
363.25800,-7.34983174
363.25850,-7.34983174
363.25900,-7.655026148
363.25950,-8.570609371
363.26000,-9.180998187
363.26050,-9.791387002
363.26100,-11.92774786
363.26150,-16.81085838
363.26200,-22.91474653
363.26250,-24.13552416
363.26300,-17.42124719
363.26350,-7.655026148
363.26400,-1.856332402
363.26450,-1.856332402
363.26500,-3.687498848
363.26550,-2.16152681
363.26600,2.111194898
363.26650,7.604694237
363.26700,11.87741594
363.26750,14.92936002
363.26800,17.37091528
363.26850,22.55922021
363.26900,29.883886
363.26950,33.24102448
363.27000,27.13713633
363.27050,15.23455443
363.27100,5.163138975
363.27150,-0.3303603634
363.27200,-4.908276479
363.27250,-5.213470887
363.27300,5.468333383
363.27350,25.00077548
363.27400,38.42932941
363.27450,35.98777415
363.27500,25.00077548
363.27550,17.37091528
363.27600,15.84494324
363.27650,15.23455443
363.27700,13.09819358
363.27750,10.65663831
363.27800,5.773527791
363.27850,-3.077110033
363.27900,-11.92774786
363.27950,-14.67449753
363.28000,-11.92774786
363.28050,-9.791387002
363.28100,-9.791387002
363.28150,-8.265414964
363.28200,-5.213470887
363.28250,-4.297887663
363.28300,-6.12905411
363.28350,-7.655026148
363.28400,-6.12905411
363.28450,-3.38230444
363.28500,-0.3303603634
363.28550,2.416389306
363.28600,4.55275016
363.28650,4.55275016
363.28700,3.026778121
363.28750,3.637166937
363.28800,5.773527791
363.28850,6.994305421
363.28900,6.383916606
363.28950,6.078722198
363.29000,6.078722198
363.29050,5.773527791
363.29100,4.247555752
363.29150,2.416389306
363.29200,0.280028452
363.29250,-3.077110033
363.29300,-7.655026148
363.29350,-11.92774786
363.29400,-15.28488634
363.29450,-18.33683042
363.29500,-18.94721923
363.29550,-16.20046956
363.29600,-12.53813667
363.29650,-11.92774786
363.29700,-16.20046956
363.29750,-21.99916331
363.29800,-25.05110739
363.29850,-25.35630179
363.29900,-23.83032976
363.29950,-20.47319127
363.30000,-14.67449753
363.30050,-8.265414964
363.30100,-3.687498848
363.30150,-1.245943586
363.30200,-0.02516595566
363.30250,0.5852228597
363.30300,0.5852228597
363.30350,0.8904172674
363.30400,2.111194898
363.30450,3.637166937
363.30500,5.163138975
363.30550,6.994305421
363.30600,9.435860683
363.30650,11.26702713
363.30700,10.65663831
363.30750,9.130666275
363.30800,8.52027746
363.30850,9.130666275
363.30900,8.215083052
363.30950,6.078722198
363.31000,3.942361344
363.31050,2.111194898
363.31100,-1.245943586
363.31150,-5.213470887
363.31200,-5.213470887
363.31250,-0.6355547711
363.31300,2.416389306
363.31350,0.5852228597
363.31400,-2.771915625
363.31450,-3.077110033
363.31500,-1.245943586
363.31550,-3.077110033
363.31600,-7.960220556
363.31650,-11.31735904
363.31700,-10.40177582
363.31750,-8.875803779
363.31800,-8.570609371
363.31850,-9.791387002
363.31900,-11.62255345
363.31950,-14.06410871
363.32000,-14.67449753
363.32050,-10.70697023
363.32100,-3.38230444
363.32150,0.280028452
363.32200,-1.245943586
363.32250,-5.213470887
363.32300,-5.823859702
363.32350,-2.466721217
363.32400,2.416389306
363.32450,7.604694237
363.32500,11.57222154
363.32550,13.09819358
363.32600,11.87741594
363.32650,10.96183272
363.32700,12.18261035
363.32750,14.0137768
363.32800,14.31897121
363.32850,13.70858239
363.32900,12.48780476
363.32950,11.26702713
363.33000,10.35144391
363.33050,9.741055091
363.33100,8.825471868
363.33150,5.163138975
363.33200,-0.9407491788
363.33250,-5.213470887
363.33300,-4.603082071
363.33350,-1.245943586
363.33400,-0.9407491788
363.33450,-3.687498848
363.33500,-4.908276479
363.33550,-3.687498848
363.33600,-3.38230444
363.33650,-7.044637333
363.33700,-11.31735904
363.33750,-13.14852549
363.33800,-13.45371989
363.33850,-15.59008075
363.33900,-17.42124719
363.33950,-14.36930312
363.34000,-5.518665294
363.34050,2.721583714
363.34100,6.078722198
363.34150,4.857944568
363.34200,3.942361344
363.34250,3.637166937
363.34300,1.806000491
363.34350,-1.551137994
363.34400,-2.466721217
363.34450,2.111194898
363.34500,10.0462495
363.34550,16.15013765
363.34600,19.20208173
363.34650,20.11766495
363.34700,18.28649851
363.34750,14.31897121
363.34800,10.65663831
363.34850,9.435860683
363.34900,9.741055091
363.34950,7.909888645
363.35000,4.55275016
363.35050,1.806000491
363.35100,0.8904172674
363.35150,-0.6355547711
363.35200,-3.38230444
363.35250,-4.297887663
363.35300,-2.16152681
363.35350,-0.3303603634
363.35400,-1.856332402
363.35450,-6.12905411
363.35500,-10.09658141
363.35550,-12.23294226
363.35600,-13.14852549
363.35650,-14.67449753
363.35700,-16.50566397
363.35750,-17.7264416
363.35800,-16.81085838
363.35850,-13.7589143
363.35900,-11.01216463
363.35950,-11.01216463
363.36000,-13.14852549
363.36050,-14.97969193
363.36100,-15.59008075
363.36150,-14.97969193
363.36200,-11.92774786
363.36250,-5.518665294
363.36300,3.637166937
363.36350,11.87741594
363.36400,15.84494324
363.36450,16.45533206
363.36500,16.76052647
363.36550,17.67610969
363.36600,17.9813041
363.36650,16.76052647
363.36700,14.92936002
363.36750,12.79299917
363.36800,10.0462495
363.36850,6.994305421
363.36900,4.247555752
363.36950,2.721583714
363.37000,2.721583714
363.37050,2.111194898
363.37100,-1.245943586
363.37150,-7.044637333
363.37200,-11.01216463
363.37250,-7.960220556
363.37300,-0.6355547711
363.37350,3.331972529
363.37400,0.8904172674
363.37450,-3.38230444
363.37500,-3.38230444
363.37550,1.806000491
363.37600,6.689111014
363.37650,7.299499829
363.37700,3.331972529
363.37750,-1.856332402
363.37800,-7.044637333
363.37850,-11.01216463
363.37900,-12.53813667
363.37950,-12.84333108
363.38000,-13.45371989
363.38050,-14.36930312
363.38100,-12.53813667
363.38150,-7.655026148
363.38200,-2.466721217
363.38250,0.280028452
363.38300,0.8904172674
363.38350,2.111194898
363.38400,4.247555752
363.38450,6.689111014
363.38500,6.383916606
363.38550,3.942361344
363.38600,1.195611675
363.38650,3.026778121
363.38700,10.96183272
363.38750,21.9488314
363.38800,29.27349718
363.38850,29.57869159
363.38900,26.52674751
363.38950,24.39038666
363.39000,24.08519225
363.39050,22.86441462
363.39100,20.42285936
363.39150,17.06572088
363.39200,10.35144391
363.39250,-1.551137994
363.39300,-17.11605279
363.39350,-27.79785706
363.39400,-30.23941232
363.39450,-29.6290235
363.39500,-31.46018995
363.39550,-33.2913564
363.39600,-28.40824587
363.39650,-16.81085838
363.39700,-7.044637333
363.39750,-4.603082071
363.39800,-5.213470887
363.39850,-3.077110033
363.39900,-0.02516595566
363.39950,-1.245943586
363.40000,-7.34983174
363.40050,-12.23294226
363.40100,-11.31735904
363.40150,-5.823859702
363.40200,-0.02516595566
363.40250,5.163138975
363.40300,10.65663831
363.40350,15.23455443
363.40400,16.15013765
363.40450,13.70858239
363.40500,11.26702713
363.40550,10.0462495
363.40600,9.130666275
363.40650,7.604694237
363.40700,5.468333383
363.40750,4.55275016
363.40800,6.689111014
363.40850,10.35144391
363.40900,12.48780476
363.40950,10.0462495
363.41000,3.942361344
363.41050,-0.6355547711
363.41100,0.8904172674
363.41150,7.299499829
363.41200,12.48780476
363.41250,11.57222154
363.41300,5.468333383
363.41350,-1.245943586
363.41400,-6.12905411
363.41450,-8.265414964
363.41500,-7.655026148
363.41550,-5.518665294
363.41600,-3.687498848
363.41650,-5.213470887
363.41700,-9.791387002
363.41750,-15.28488634
363.41800,-18.94721923
363.41850,-19.55760805
363.41900,-18.03163601
363.41950,-15.89527516
363.42000,-13.14852549
363.42050,-11.31735904
363.42100,-10.70697023
363.42150,-11.92774786
363.42200,-12.84333108
363.42250,-11.31735904
363.42300,-6.739442925
363.42350,-0.9407491788
363.42400,2.416389306
363.42450,3.026778121
363.42500,1.806000491
363.42550,3.331972529
363.42600,8.215083052
363.42650,12.79299917
363.42700,12.79299917
363.42750,9.435860683
363.42800,8.825471868
363.42850,11.87741594
363.42900,13.70858239
363.42950,13.09819358
363.43000,14.92936002
363.43050,21.33844258
363.43100,25.61116429
363.43150,20.42285936
363.43200,7.604694237
363.43250,-3.077110033
363.43300,-7.655026148
363.43350,-7.044637333
363.43400,-3.992693256
363.43450,0.280028452
363.43500,3.026778121
363.43550,1.806000491
363.43600,-3.38230444
363.43650,-8.875803779
363.43700,-10.09658141
363.43750,-7.34983174
363.43800,-2.16152681
363.43850,2.111194898
363.43900,2.416389306
363.43950,-1.245943586
363.44000,-4.603082071
363.44050,-4.908276479
363.44100,-5.213470887
363.44150,-8.875803779
363.44200,-13.45371989
363.44250,-12.53813667
363.44300,-6.434248517
363.44350,-0.9407491788
363.44400,2.111194898
363.44450,6.689111014
363.44500,13.09819358
363.44550,18.59169291
363.44600,21.33844258
363.44650,23.16960903
363.44700,23.47480344
363.44750,18.28649851
363.44800,8.825471868
363.44850,2.111194898
363.44900,2.111194898
363.44950,2.721583714
363.45000,-0.6355547711
363.45050,-6.12905411
363.45100,-7.044637333
363.45150,-3.992693256
363.45200,-3.077110033
363.45250,-5.518665294
363.45300,-6.434248517
363.45350,-5.213470887
363.45400,-5.518665294
363.45450,-8.570609371
363.45500,-9.486192594
363.45550,-5.823859702
363.45600,-1.245943586
363.45650,-1.856332402
363.45700,-7.960220556
363.45750,-14.06410871
363.45800,-16.50566397
363.45850,-15.89527516
363.45900,-15.28488634
363.45950,-15.89527516
363.46000,-16.50566397
363.46050,-16.20046956
363.46100,-14.06410871
363.46150,-11.31735904
363.46200,-9.486192594
363.46250,-8.265414964
363.46300,-5.823859702
363.46350,-2.466721217
363.46400,-0.02516595566
363.46450,1.195611675
363.46500,2.111194898
363.46550,3.026778121
363.46600,3.637166937
363.46650,3.942361344
363.46700,5.468333383
363.46750,7.909888645
363.46800,10.65663831
363.46850,13.09819358
363.46900,16.15013765
363.46950,19.81247054
363.47000,23.47480344
363.47050,25.9163587
363.47100,26.83194192
363.47150,25.00077548
363.47200,18.89688732
363.47250,7.909888645
363.47300,-3.992693256
363.47350,-12.84333108
363.47400,-17.7264416
363.47450,-19.25241364
363.47500,-16.50566397
363.47550,-10.70697023
363.47600,-5.518665294
363.47650,-5.213470887
363.47700,-9.486192594
363.47750,-13.7589143
363.47800,-15.28488634
363.47850,-15.59008075
363.47900,-17.7264416
363.47950,-21.6939689
363.48000,-23.52513535
363.48050,-18.33683042
363.48100,-7.34983174
363.48150,4.247555752
363.48200,11.26702713
363.48250,12.18261035
363.48300,10.35144391
363.48350,9.130666275
363.48400,8.825471868
363.48450,9.130666275
363.48500,9.741055091
363.48550,10.35144391
363.48600,10.35144391
363.48650,9.435860683
363.48700,9.741055091
363.48750,11.87741594
363.48800,14.0137768
363.48850,14.92936002
363.48900,14.0137768
363.48950,12.79299917
363.49000,11.26702713
363.49050,9.435860683
363.49100,7.909888645
363.49150,6.383916606
363.49200,4.247555752
363.49250,1.806000491
363.49300,0.8904172674
363.49350,1.500806083
363.49400,1.195611675
363.49450,-1.245943586
363.49500,-4.908276479
363.49550,-6.434248517
363.49600,-6.12905411
363.49650,-6.739442925
363.49700,-8.875803779
363.49750,-10.09658141
363.49800,-10.09658141
363.49850,-9.791387002
363.49900,-10.40177582
363.49950,-11.31735904
363.50000,-11.92774786
363.50050,-11.31735904
363.50100,-8.265414964
363.50150,-3.077110033
363.50200,1.806000491
363.50250,3.942361344
363.50300,3.637166937
363.50350,3.637166937
363.50400,4.55275016
363.50450,4.857944568
363.50500,4.247555752
363.50550,3.942361344
363.50600,5.468333383
363.50650,7.299499829
363.50700,8.825471868
363.50750,9.435860683
363.50800,8.825471868
363.50850,6.689111014
363.50900,3.637166937
363.50950,2.416389306
363.51000,2.416389306
363.51050,2.111194898
363.51100,-0.02516595566
363.51150,-3.077110033
363.51200,-4.908276479
363.51250,-5.823859702
363.51300,-7.34983174
363.51350,-7.960220556
363.51400,-5.823859702
363.51450,-1.551137994
363.51500,1.500806083
363.51550,2.416389306
363.51600,1.500806083
363.51650,-0.6355547711
363.51700,-3.38230444
363.51750,-5.823859702
363.51800,-7.34983174
363.51850,-8.875803779
363.51900,-10.09658141
363.51950,-10.70697023
363.52000,-12.23294226
363.52050,-14.36930312
363.52100,-15.59008075
363.52150,-12.84333108
363.52200,-6.434248517
363.52250,-0.02516595566
363.52300,3.331972529
363.52350,5.468333383
363.52400,8.825471868
363.52450,12.48780476
363.52500,13.40338798
363.52550,11.57222154
363.52600,8.215083052
363.52650,5.468333383
363.52700,2.416389306
363.52750,-0.3303603634
363.52800,-2.466721217
363.52850,-1.856332402
363.52900,1.806000491
363.52950,7.909888645
363.53000,11.87741594
363.53050,8.825471868
363.53100,-0.6355547711
363.53150,-9.180998187
363.53200,-7.655026148
363.53250,3.942361344
363.53300,16.45533206
363.53350,19.20208173
363.53400,11.26702713
363.53450,-0.02516595566
363.53500,-7.044637333
363.53550,-9.791387002
363.53600,-9.791387002
363.53650,-9.486192594
363.53700,-8.570609371
363.53750,-6.434248517
363.53800,-3.077110033
363.53850,0.5852228597
363.53900,3.942361344
363.53950,4.55275016
363.54000,2.111194898
363.54050,-1.856332402
363.54100,-4.908276479
363.54150,-3.992693256
363.54200,-0.6355547711
363.54250,2.721583714
363.54300,4.55275016
363.54350,5.468333383
363.54400,5.773527791
363.54450,5.163138975
363.54500,3.331972529
363.54550,3.026778121
363.54600,4.857944568
363.54650,7.909888645
363.54700,8.52027746
363.54750,5.773527791
363.54800,1.500806083
363.54850,-2.466721217
363.54900,-8.265414964
363.54950,-16.20046956
363.55000,-22.60955213
363.55050,-20.47319127
363.55100,-8.570609371
363.55150,5.773527791
363.55200,14.31897121
363.55250,14.31897121
363.55300,11.57222154
363.55350,10.35144391
363.55400,10.35144391
363.55450,8.52027746
363.55500,4.55275016
363.55550,0.8904172674
363.55600,-0.9407491788
363.55650,-1.856332402
363.55700,-2.16152681
363.55750,-2.466721217
363.55800,-3.077110033
363.55850,-4.908276479
363.55900,-7.34983174
363.55950,-7.655026148
363.56000,-6.12905411
363.56050,-5.518665294
363.56100,-7.044637333
363.56150,-8.570609371
363.56200,-6.434248517
363.56250,-0.9407491788
363.56300,3.942361344
363.56350,5.468333383
363.56400,4.55275016
363.56450,2.721583714
363.56500,1.500806083
363.56550,0.280028452
363.56600,-0.02516595566
363.56650,-0.6355547711
363.56700,-0.6355547711
363.56750,-0.02516595566
363.56800,2.111194898
363.56850,6.078722198
363.56900,9.741055091
363.56950,10.65663831
363.57000,8.52027746
363.57050,4.857944568
363.57100,1.195611675
363.57150,-1.245943586
363.57200,-2.16152681
363.57250,-1.551137994
363.57300,-0.3303603634
363.57350,-1.551137994
363.57400,-4.297887663
363.57450,-6.12905411
363.57500,-5.213470887
363.57550,-2.466721217
363.57600,-0.02516595566
363.57650,0.280028452
363.57700,-0.02516595566
363.57750,0.280028452
363.57800,4.247555752
363.57850,10.35144391
363.57900,14.0137768
363.57950,10.35144391
363.58000,0.8904172674
363.58050,-8.875803779
363.58100,-14.06410871
363.58150,-14.06410871
363.58200,-10.70697023
363.58250,-6.434248517
363.58300,-1.856332402
363.58350,2.111194898
363.58400,5.468333383
363.58450,7.299499829
363.58500,7.604694237
363.58550,6.689111014
363.58600,5.468333383
363.58650,4.247555752
363.58700,4.247555752
363.58750,4.247555752
363.58800,4.247555752
363.58850,4.247555752
363.58900,4.55275016
363.58950,4.247555752
363.59000,3.331972529
363.59050,1.500806083
363.59100,-0.02516595566
363.59150,-1.551137994
363.59200,-3.687498848
363.59250,-6.12905411
363.59300,-7.960220556
363.59350,-9.791387002
363.59400,-11.31735904
363.59450,-11.92774786
363.59500,-11.92774786
363.59550,-12.23294226
363.59600,-14.97969193
363.59650,-19.55760805
363.59700,-23.21994094
363.59750,-24.74591298
363.59800,-24.74591298
363.59850,-24.44071857
363.59900,-21.38877449
363.59950,-14.36930312
363.60000,-5.213470887
363.60050,1.195611675
363.60100,4.247555752
363.60150,4.55275016
363.60200,4.857944568
363.60250,5.163138975
363.60300,5.773527791
363.60350,6.689111014
363.60400,7.604694237
363.60450,8.825471868
363.60500,9.435860683
363.60550,9.741055091
363.60600,10.35144391
363.60650,11.26702713
363.60700,11.57222154
363.60750,10.0462495
363.60800,8.215083052
363.60850,6.689111014
363.60900,6.078722198
363.60950,3.942361344
363.61000,-0.02516595566
363.61050,-5.213470887
363.61100,-9.791387002
363.61150,-13.7589143
363.61200,-15.89527516
363.61250,-14.06410871
363.61300,-8.265414964
363.61350,-2.466721217
363.61400,-0.9407491788
363.61450,-3.687498848
363.61500,-8.265414964
363.61550,-12.84333108
363.61600,-17.7264416
363.61650,-21.6939689
363.61700,-19.86280246
363.61750,-11.01216463
363.61800,0.280028452
363.61850,8.215083052
363.61900,11.57222154
363.61950,13.09819358
363.62000,14.31897121
363.62050,13.40338798
363.62100,8.52027746
363.62150,-0.02516595566
363.62200,-8.875803779
363.62250,-14.06410871
363.62300,-14.36930312
363.62350,-12.84333108
363.62400,-12.84333108
363.62450,-12.84333108
363.62500,-8.570609371
363.62550,3.026778121
363.62600,19.81247054
363.62650,35.68257975
363.62700,43.31243994
363.62750,39.65010705
363.62800,28.35791396
363.62850,20.11766495
363.62900,20.42285936
363.62950,24.69558107
363.63000,24.39038666
363.63050,17.37091528
363.63100,10.35144391
363.63150,6.994305421
363.63200,4.247555752
363.63250,0.280028452
363.63300,-1.245943586
363.63350,0.280028452
363.63400,2.111194898
363.63450,-0.02516595566
363.63500,-5.213470887
363.63550,-10.09658141
363.63600,-11.01216463
363.63650,-9.180998187
363.63700,-6.739442925
363.63750,-5.213470887
363.63800,-6.12905411
363.63850,-8.570609371
363.63900,-10.40177582
363.63950,-11.01216463
363.64000,-10.70697023
363.64050,-10.09658141
363.64100,-7.044637333
363.64150,-2.16152681
363.64200,1.806000491
363.64250,2.721583714
363.64300,2.416389306
363.64350,3.637166937
363.64400,5.468333383
363.64450,6.383916606
363.64500,6.383916606
363.64550,6.689111014
363.64600,7.604694237
363.64650,7.909888645
363.64700,7.299499829
363.64750,6.994305421
363.64800,6.994305421
363.64850,6.689111014
363.64900,6.078722198
363.64950,4.55275016
363.65000,3.026778121
363.65050,1.195611675
363.65100,0.5852228597
363.65150,1.806000491
363.65200,3.331972529
363.65250,3.026778121
363.65300,1.195611675
363.65350,-0.9407491788
363.65400,-3.687498848
363.65450,-6.434248517
363.65500,-8.570609371
363.65550,-9.180998187
363.65600,-9.486192594
363.65650,-11.62255345
363.65700,-15.89527516
363.65750,-19.55760805
363.65800,-21.6939689
363.65850,-21.08358009
363.65900,-17.7264416
363.65950,-10.40177582
363.66000,-1.551137994
363.66050,3.026778121
363.66100,1.195611675
363.66150,-4.908276479
363.66200,-9.791387002
363.66250,-9.486192594
363.66300,-6.434248517
363.66350,-4.603082071
363.66400,-4.297887663
363.66450,-1.856332402
363.66500,6.078722198
363.66550,16.15013765
363.66600,21.33844258
363.66650,19.50727614
363.66700,14.92936002
363.66750,13.09819358
363.66800,13.70858239
363.66850,13.09819358
363.66900,10.65663831
363.66950,10.0462495
363.67000,12.18261035
363.67050,14.62416561
363.67100,15.84494324
363.67150,17.37091528
363.67200,19.81247054
363.67250,20.42285936
363.67300,15.84494324
363.67350,8.825471868
363.67400,3.637166937
363.67450,-0.02516595566
363.67500,-6.739442925
363.67550,-15.28488634
363.67600,-21.38877449
363.67650,-21.99916331
363.67700,-20.16799686
363.67750,-19.86280246
363.67800,-20.77838568
363.67850,-21.38877449
363.67900,-20.77838568
363.67950,-18.94721923
363.68000,-16.50566397
363.68050,-12.53813667
363.68100,-7.34983174
363.68150,-2.16152681
363.68200,3.026778121
363.68250,7.909888645
363.68300,9.435860683
363.68350,6.689111014
363.68400,1.806000491
363.68450,-0.02516595566
363.68500,3.331972529
363.68550,9.435860683
363.68600,14.31897121
363.68650,16.45533206
363.68700,16.45533206
363.68750,15.23455443
363.68800,13.40338798
363.68850,11.26702713
363.68900,10.0462495
363.68950,8.825471868
363.69000,6.078722198
363.69050,2.721583714
363.69100,1.195611675
363.69150,2.721583714
363.69200,5.163138975
363.69250,5.163138975
363.69300,3.026778121
363.69350,-0.02516595566
363.69400,-2.466721217
363.69450,-5.518665294
363.69500,-7.960220556
363.69550,-8.875803779
363.69600,-8.570609371
363.69650,-8.570609371
363.69700,-9.486192594
363.69750,-10.09658141
363.69800,-10.40177582
363.69850,-10.70697023
363.69900,-11.62255345
363.69950,-11.62255345
363.70000,-11.31735904
363.70050,-11.62255345
363.70100,-11.92774786
363.70150,-9.791387002
363.70200,-5.213470887
363.70250,0.280028452
363.70300,5.163138975
363.70350,10.0462495
363.70400,13.09819358
363.70450,12.48780476
363.70500,6.994305421
363.70550,0.5852228597
363.70600,-4.603082071
363.70650,-9.180998187
363.70700,-12.23294226
363.70750,-8.570609371
363.70800,5.163138975
363.70850,22.86441462
363.70900,32.02024685
363.70950,29.27349718
363.71000,20.72805377
363.71050,14.92936002
363.71100,12.18261035
363.71150,8.825471868
363.71200,3.637166937
363.71250,-0.3303603634
363.71300,-2.771915625
363.71350,-4.603082071
363.71400,-7.655026148
363.71450,-11.62255345
363.71500,-14.67449753
363.71550,-15.89527516
363.71600,-14.97969193
363.71650,-14.36930312
363.71700,-14.97969193
363.71750,-15.59008075
363.71800,-14.06410871
363.71850,-11.01216463
363.71900,-9.180998187
363.71950,-10.70697023
363.72000,-12.84333108
363.72050,-13.45371989
363.72100,-12.53813667
363.72150,-11.01216463
363.72200,-7.655026148
363.72250,-1.856332402
363.72300,3.026778121
363.72350,5.468333383
363.72400,7.909888645
363.72450,12.79299917
363.72500,18.59169291
363.72550,20.42285936
363.72600,17.9813041
363.72650,14.92936002
363.72700,13.70858239
363.72750,13.09819358
363.72800,11.26702713
363.72850,10.0462495
363.72900,10.0462495
363.72950,9.130666275
363.73000,4.857944568
363.73050,-1.551137994
363.73100,-7.960220556
363.73150,-13.7589143
363.73200,-19.86280246
363.73250,-24.74591298
363.73300,-23.52513535
363.73350,-12.23294226
363.73400,5.773527791
363.73450,21.33844258
363.73500,25.9163587
363.73550,19.20208173
363.73600,7.909888645
363.73650,-0.02516595566
363.73700,-4.908276479
363.73750,-9.486192594
363.73800,-14.36930312
363.73850,-16.50566397
363.73900,-14.36930312
363.73950,-10.40177582
363.74000,-7.960220556
363.74050,-8.265414964
363.74100,-8.875803779
363.74150,-8.265414964
363.74200,-5.213470887
363.74250,0.280028452
363.74300,6.994305421
363.74350,11.57222154
363.74400,11.57222154
363.74450,7.909888645
363.74500,4.247555752
363.74550,2.416389306
363.74600,1.195611675
363.74650,-0.02516595566
363.74700,-0.02516595566
363.74750,5.773527791
363.74800,17.67610969
363.74850,30.49427481
363.74900,38.12413501
363.74950,39.34491264
363.75000,35.37738534
363.75050,28.96830278
363.75100,20.42285936
363.75150,10.96183272
363.75200,1.195611675
363.75250,-7.960220556
363.75300,-15.28488634
363.75350,-18.33683042
363.75400,-15.59008075
363.75450,-10.40177582
363.75500,-7.655026148
363.75550,-9.791387002
363.75600,-13.45371989
363.75650,-15.89527516
363.75700,-17.42124719
363.75750,-19.55760805
363.75800,-22.60955213
363.75850,-23.83032976
363.75900,-21.99916331
363.75950,-18.03163601
363.76000,-11.62255345
363.76050,-3.992693256
363.76100,1.806000491
363.76150,3.637166937
363.76200,0.8904172674
363.76250,-3.077110033
363.76300,-5.213470887
363.76350,-5.518665294
363.76400,-4.297887663
363.76450,-1.245943586
363.76500,4.55275016
363.76550,12.18261035
363.76600,17.9813041
363.76650,19.20208173
363.76700,17.06572088
363.76750,13.70858239
363.76800,11.26702713
363.76850,9.130666275
363.76900,6.383916606
363.76950,3.331972529
363.77000,0.280028452
363.77050,-1.551137994
363.77100,-2.771915625
363.77150,-3.992693256
363.77200,-6.434248517
363.77250,-9.180998187
363.77300,-10.09658141
363.77350,-9.180998187
363.77400,-8.265414964
363.77450,-8.570609371
363.77500,-9.180998187
363.77550,-9.486192594
363.77600,-9.791387002
363.77650,-10.40177582
363.77700,-11.01216463
363.77750,-10.40177582
363.77800,-8.875803779
363.77850,-8.265414964
363.77900,-8.570609371
363.77950,-8.875803779
363.78000,-7.655026148
363.78050,-6.12905411
363.78100,-5.213470887
363.78150,-5.213470887
363.78200,-4.297887663
363.78250,-0.9407491788
363.78300,3.637166937
363.78350,7.909888645
363.78400,10.0462495
363.78450,10.35144391
363.78500,9.741055091
363.78550,8.825471868
363.78600,7.299499829
363.78650,6.078722198
363.78700,5.468333383
363.78750,4.55275016
363.78800,1.500806083
363.78850,-1.551137994
363.78900,-0.3303603634
363.78950,6.689111014
363.79000,15.23455443
363.79050,18.89688732
363.79100,16.45533206
363.79150,10.96183272
363.79200,5.773527791
363.79250,0.8904172674
363.79300,-3.077110033
363.79350,-6.12905411
363.79400,-7.960220556
363.79450,-10.09658141
363.79500,-13.14852549
363.79550,-15.89527516
363.79600,-17.11605279
363.79650,-16.81085838
363.79700,-16.50566397
363.79750,-15.89527516
363.79800,-13.45371989
363.79850,-9.486192594
363.79900,-6.12905411
363.79950,-3.992693256
363.80000,-2.771915625
363.80050,-1.551137994
363.80100,-2.466721217
363.80150,-5.823859702
363.80200,-7.655026148
363.80250,-4.603082071
363.80300,0.8904172674
363.80350,3.942361344
363.80400,3.026778121
363.80450,3.331972529
363.80500,9.741055091
363.80550,19.50727614
363.80600,26.52674751
363.80650,27.13713633
363.80700,23.47480344
363.80750,18.89688732
363.80800,14.62416561
363.80850,11.26702713
363.80900,9.435860683
363.80950,8.52027746
363.81000,7.604694237
363.81050,4.857944568
363.81100,0.280028452
363.81150,-3.687498848
363.81200,-4.603082071
363.81250,-1.551137994
363.81300,2.111194898
363.81350,2.416389306
363.81400,-0.9407491788
363.81450,-5.518665294
363.81500,-8.265414964
363.81550,-8.875803779
363.81600,-8.265414964
363.81650,-7.960220556
363.81700,-7.655026148
363.81750,-7.960220556
363.81800,-8.875803779
363.81850,-10.70697023
363.81900,-11.62255345
363.81950,-10.70697023
363.82000,-8.265414964
363.82050,-5.823859702
363.82100,-4.603082071
363.82150,-5.518665294
363.82200,-7.044637333
363.82250,-7.34983174
363.82300,-5.823859702
363.82350,-3.992693256
363.82400,-3.38230444
363.82450,-3.38230444
363.82500,-2.16152681
363.82550,0.5852228597
363.82600,3.331972529
363.82650,5.773527791
363.82700,9.435860683
363.82750,15.23455443
363.82800,21.03324818
363.82850,24.69558107
363.82900,26.52674751
363.82950,27.13713633
363.83000,25.00077548
363.83050,19.50727614
363.83100,13.40338798
363.83150,9.435860683
363.83200,7.299499829
363.83250,3.026778121
363.83300,-3.077110033
363.83350,-7.960220556
363.83400,-8.875803779
363.83450,-7.34983174
363.83500,-6.434248517
363.83550,-6.739442925
363.83600,-6.434248517
363.83650,-3.687498848
363.83700,1.195611675
363.83750,5.163138975
363.83800,3.026778121
363.83850,-3.992693256
363.83900,-11.62255345
363.83950,-14.67449753
363.84000,-15.89527516
363.84050,-17.7264416
363.84100,-17.7264416
363.84150,-10.70697023
363.84200,2.721583714
363.84250,14.62416561
363.84300,19.81247054
363.84350,19.50727614
363.84400,18.28649851
363.84450,17.06572088
363.84500,14.92936002
363.84550,11.26702713
363.84600,6.994305421
363.84650,2.111194898
363.84700,-1.856332402
363.84750,-2.466721217
363.84800,1.195611675
363.84850,3.942361344
363.84900,0.5852228597
363.84950,-6.739442925
363.85000,-10.09658141
363.85050,-3.687498848
363.85100,8.825471868
363.85150,18.89688732
363.85200,20.42285936
363.85250,14.31897121
363.85300,6.078722198
363.85350,-0.02516595566
363.85400,-4.603082071
363.85450,-8.265414964
363.85500,-11.01216463
363.85550,-13.14852549
363.85600,-15.89527516
363.85650,-18.64202483
363.85700,-18.03163601
363.85750,-11.62255345
363.85800,-0.6355547711
363.85850,9.741055091
363.85900,16.15013765
363.85950,17.9813041
363.86000,17.37091528
363.86050,14.92936002
363.86100,10.35144391
363.86150,3.331972529
363.86200,-4.908276479
363.86250,-11.92774786
363.86300,-14.36930312
363.86350,-12.23294226
363.86400,-9.791387002
363.86450,-9.791387002
363.86500,-10.40177582
363.86550,-6.434248517
363.86600,3.637166937
363.86650,16.45533206
363.86700,24.69558107
363.86750,24.69558107
363.86800,18.59169291
363.86850,10.96183272
363.86900,6.383916606
363.86950,7.299499829
363.87000,10.0462495
363.87050,10.0462495
363.87100,4.857944568
363.87150,-1.856332402
363.87200,-6.12905411
363.87250,-7.655026148
363.87300,-10.40177582
363.87350,-14.36930312
363.87400,-15.89527516
363.87450,-13.45371989
363.87500,-11.01216463
363.87550,-12.53813667
363.87600,-16.20046956
363.87650,-16.81085838
363.87700,-13.14852549
363.87750,-8.875803779
363.87800,-6.739442925
363.87850,-6.739442925
363.87900,-8.265414964
363.87950,-11.01216463
363.88000,-12.53813667
363.88050,-9.791387002
363.88100,-4.603082071
363.88150,-3.38230444
363.88200,-7.655026148
363.88250,-11.62255345
363.88300,-10.09658141
363.88350,-4.908276479
363.88400,-0.6355547711
363.88450,3.026778121
363.88500,7.299499829
363.88550,10.65663831
363.88600,8.825471868
363.88650,4.55275016
363.88700,3.331972529
363.88750,6.078722198
363.88800,9.435860683
363.88850,10.0462495
363.88900,7.299499829
363.88950,3.331972529
363.89000,-0.9407491788
363.89050,-2.771915625
363.89100,0.280028452
363.89150,7.604694237
363.89200,13.70858239
363.89250,14.92936002
363.89300,11.57222154
363.89350,5.773527791
363.89400,-0.02516595566
363.89450,-4.297887663
363.89500,-5.823859702
363.89550,-6.434248517
363.89600,-8.570609371
363.89650,-11.01216463
363.89700,-11.62255345
363.89750,-11.01216463
363.89800,-11.92774786
363.89850,-14.36930312
363.89900,-14.97969193
363.89950,-13.14852549
363.90000,-10.40177582
363.90050,-8.875803779
363.90100,-7.044637333
363.90150,-4.603082071
363.90200,-2.771915625
363.90250,-1.856332402
363.90300,-0.9407491788
363.90350,-0.02516595566
363.90400,-0.02516595566
363.90450,-0.3303603634
363.90500,0.280028452
363.90550,4.247555752
363.90600,9.435860683
363.90650,13.70858239
363.90700,15.23455443
363.90750,14.0137768
363.90800,10.96183272
363.90850,8.825471868
363.90900,8.215083052
363.90950,7.604694237
363.91000,5.773527791
363.91050,3.942361344
363.91100,3.331972529
363.91150,3.637166937
363.91200,2.721583714
363.91250,0.5852228597
363.91300,-1.245943586
363.91350,-3.38230444
363.91400,-5.823859702
363.91450,-7.960220556
363.91500,-9.486192594
363.91550,-9.791387002
363.91600,-10.09658141
363.91650,-10.40177582
363.91700,-10.09658141
363.91750,-9.486192594
363.91800,-9.180998187
363.91850,-8.875803779
363.91900,-8.570609371
363.91950,-8.875803779
363.92000,-9.180998187
363.92050,-7.34983174
363.92100,-3.077110033
363.92150,-0.02516595566
363.92200,0.5852228597
363.92250,0.280028452
363.92300,1.806000491
363.92350,4.247555752
363.92400,5.163138975
363.92450,6.383916606
363.92500,8.52027746
363.92550,8.215083052
363.92600,1.500806083
363.92650,-5.823859702
363.92700,-5.213470887
363.92750,3.942361344
363.92800,12.79299917
363.92850,13.09819358
363.92900,7.909888645
363.92950,3.637166937
363.93000,2.111194898
363.93050,0.8904172674
363.93100,-0.02516595566
363.93150,-0.6355547711
363.93200,-0.02516595566
363.93250,1.500806083
363.93300,4.247555752
363.93350,6.078722198
363.93400,5.163138975
363.93450,2.111194898
363.93500,-0.3303603634
363.93550,-1.856332402
363.93600,-5.518665294
363.93650,-12.53813667
363.93700,-18.94721923
363.93750,-21.99916331
363.93800,-20.47319127
363.93850,-15.28488634
363.93900,-6.434248517
363.93950,3.331972529
363.94000,8.52027746
363.94050,5.773527791
363.94100,-0.6355547711
363.94150,-5.823859702
363.94200,-6.434248517
363.94250,-4.603082071
363.94300,-1.245943586
363.94350,2.721583714
363.94400,7.604694237
363.94450,14.31897121
363.94500,23.16960903
363.94550,33.24102448
363.94600,39.03971823
363.94650,36.90335738
363.94700,28.96830278
363.94750,21.33844258
363.94800,16.15013765
363.94850,11.57222154
363.94900,4.857944568
363.94950,-0.9407491788
363.95000,-2.771915625
363.95050,-1.551137994
363.95100,-2.771915625
363.95150,-7.044637333
363.95200,-8.875803779
363.95250,-3.992693256
363.95300,4.247555752
363.95350,8.52027746
363.95400,5.163138975
363.95450,-1.856332402
363.95500,-7.960220556
363.95550,-11.62255345
363.95600,-14.36930312
363.95650,-14.97969193
363.95700,-12.53813667
363.95750,-8.265414964
363.95800,-4.908276479
363.95850,-4.908276479
363.95900,-7.655026148
363.95950,-10.09658141
363.96000,-10.70697023
363.96050,-9.486192594
363.96100,-7.960220556
363.96150,-6.739442925
363.96200,-6.12905411
363.96250,-5.213470887
363.96300,-2.466721217
363.96350,1.500806083
363.96400,6.689111014
363.96450,11.57222154
363.96500,14.62416561
363.96550,15.84494324
363.96600,15.84494324
363.96650,14.92936002
363.96700,12.48780476
363.96750,9.435860683
363.96800,6.994305421
363.96850,4.55275016
363.96900,0.5852228597
363.96950,-3.38230444
363.97000,-5.518665294
363.97050,-3.992693256
363.97100,-1.551137994
363.97150,-0.9407491788
363.97200,-2.16152681
363.97250,-4.297887663
363.97300,-7.044637333
363.97350,-8.875803779
363.97400,-8.570609371
363.97450,-5.823859702
363.97500,-4.297887663
363.97550,-6.434248517
363.97600,-10.70697023
363.97650,-12.23294226
363.97700,-9.791387002
363.97750,-5.518665294
363.97800,-3.38230444
363.97850,-4.908276479
363.97900,-7.960220556
363.97950,-9.180998187
363.98000,-7.960220556
363.98050,-7.34983174
363.98100,-8.875803779
363.98150,-8.875803779
363.98200,-1.245943586
363.98250,13.40338798
363.98300,25.61116429
363.98350,26.83194192
363.98400,17.67610969
363.98450,6.383916606
363.98500,0.5852228597
363.98550,3.026778121
363.98600,11.26702713
363.98650,19.50727614
363.98700,22.55922021
363.98750,18.28649851
363.98800,9.741055091
363.98850,3.026778121
363.98900,1.806000491
363.98950,5.163138975
363.99000,10.65663831
363.99050,14.0137768
363.99100,12.48780476
363.99150,6.078722198
363.99200,-0.02516595566
363.99250,-2.16152681
363.99300,1.806000491
363.99350,7.909888645
363.99400,10.96183272
363.99450,9.741055091
363.99500,5.468333383
363.99550,0.5852228597
363.99600,-4.297887663
363.99650,-8.875803779
363.99700,-12.23294226
363.99750,-14.36930312
363.99800,-16.20046956
363.99850,-19.55760805
363.99900,-23.21994094
363.99950,-26.88227383
364.00000,-32.07057876
364.00050,-37.5640781
364.00100,-38.78485573
364.00150,-32.07057876
364.00200,-19.25241364
364.00250,-5.823859702
364.00300,5.468333383
364.00350,16.76052647
364.00400,25.00077548
364.00450,26.22155311
364.00500,20.11766495
364.00550,13.09819358
364.00600,10.0462495
364.00650,8.52027746
364.00700,7.299499829
364.00750,6.689111014
364.00800,7.909888645
364.00850,7.909888645
364.00900,5.163138975
364.00950,3.026778121
364.01000,4.247555752
364.01050,6.383916606
364.01100,5.163138975
364.01150,1.806000491
364.01200,0.280028452
364.01250,-0.02516595566
364.01300,-2.16152681
364.01350,-6.739442925
364.01400,-8.570609371
364.01450,-5.518665294
364.01500,-3.38230444
364.01550,-7.044637333
364.01600,-14.06410871
364.01650,-18.94721923
364.01700,-19.25241364
364.01750,-18.03163601
364.01800,-16.81085838
364.01850,-14.06410871
364.01900,-9.791387002
364.01950,-4.908276479
364.02000,-0.6355547711
364.02050,1.806000491
364.02100,2.111194898
364.02150,1.500806083
364.02200,0.5852228597
364.02250,-0.02516595566
364.02300,-0.6355547711
364.02350,0.5852228597
364.02400,6.689111014
364.02450,15.23455443
364.02500,20.11766495
364.02550,18.59169291
364.02600,13.40338798
364.02650,10.35144391
364.02700,10.96183272
364.02750,12.48780476
364.02800,13.40338798
364.02850,13.09819358
364.02900,11.57222154
364.02950,7.604694237
364.03000,2.111194898
364.03050,-1.551137994
364.03100,-1.245943586
364.03150,2.416389306
364.03200,6.383916606
364.03250,7.604694237
364.03300,5.163138975
364.03350,-0.02516595566
364.03400,-3.992693256
364.03450,-6.739442925
364.03500,-7.960220556
364.03550,-10.09658141
364.03600,-12.53813667
364.03650,-13.45371989
364.03700,-11.92774786
364.03750,-8.875803779
364.03800,-7.044637333
364.03850,-7.34983174
364.03900,-9.180998187
364.03950,-9.791387002
364.04000,-8.265414964
364.04050,-5.518665294
364.04100,-4.603082071
364.04150,-5.823859702
364.04200,-6.12905411
364.04250,-4.297887663
364.04300,-1.245943586
364.04350,0.8904172674
364.04400,2.416389306
364.04450,3.637166937
364.04500,4.857944568
364.04550,5.468333383
364.04600,5.773527791
364.04650,6.689111014
364.04700,7.604694237
364.04750,7.299499829
364.04800,7.299499829
364.04850,7.604694237
364.04900,7.909888645
364.04950,7.299499829
364.05000,6.383916606
364.05050,5.773527791
364.05100,3.637166937
364.05150,-0.3303603634
364.05200,-5.213470887
364.05250,-7.044637333
364.05300,-6.434248517
364.05350,-6.739442925
364.05400,-8.570609371
364.05450,-8.875803779
364.05500,-5.518665294
364.05550,-1.856332402
364.05600,-1.245943586
364.05650,-4.603082071
364.05700,-8.265414964
364.05750,-10.40177582
364.05800,-11.62255345
364.05850,-13.7589143
364.05900,-15.89527516
364.05950,-16.81085838
364.06000,-15.89527516
364.06050,-13.45371989
364.06100,-9.791387002
364.06150,-5.518665294
364.06200,-3.687498848
364.06250,-6.739442925
364.06300,-11.62255345
364.06350,-11.92774786
364.06400,-2.466721217
364.06450,11.87741594
364.06500,22.86441462
364.06550,25.9163587
364.06600,22.86441462
364.06650,16.76052647
364.06700,9.435860683
364.06750,4.247555752
364.06800,4.55275016
364.06850,8.825471868
364.06900,11.26702713
364.06950,8.825471868
364.07000,7.299499829
364.07050,11.87741594
364.07100,19.81247054
364.07150,23.16960903
364.07200,18.59169291
364.07250,9.435860683
364.07300,1.806000491
364.07350,-1.856332402
364.07400,-3.077110033
364.07450,-4.603082071
364.07500,-8.570609371
364.07550,-14.67449753
364.07600,-19.86280246
364.07650,-21.99916331
364.07700,-22.60955213
364.07750,-23.21994094
364.07800,-23.83032976
364.07850,-23.21994094
364.07900,-21.08358009
364.07950,-19.55760805
364.08000,-18.03163601
364.08050,-14.97969193
364.08100,-11.31735904
364.08150,-8.570609371
364.08200,-6.739442925
364.08250,-3.38230444
364.08300,1.500806083
364.08350,6.994305421
364.08400,11.57222154
364.08450,15.84494324
364.08500,19.20208173
364.08550,20.42285936
364.08600,20.11766495
364.08650,18.28649851
364.08700,14.62416561
364.08750,9.435860683
364.08800,6.689111014
364.08850,12.18261035
364.08900,24.39038666
364.08950,35.07219093
364.09000,37.51374619
364.09050,33.8514133
364.09100,29.27349718
364.09150,27.74752515
364.09200,27.74752515
364.09250,27.13713633
364.09300,23.77999785
364.09350,16.15013765
364.09400,5.468333383
364.09450,-5.213470887
364.09500,-14.97969193
364.09550,-23.52513535
364.09600,-30.23941232
364.09650,-32.68096758
364.09700,-30.54460673
364.09750,-28.71344028
364.09800,-31.15499554
364.09850,-35.12252284
364.09900,-31.76538436
364.09950,-16.20046956
364.10000,4.857944568
364.10050,19.20208173
364.10100,19.20208173
364.10150,9.741055091
364.10200,0.8904172674
364.10250,-1.245943586
364.10300,-0.02516595566
364.10350,0.8904172674
364.10400,2.111194898
364.10450,4.247555752
364.10500,6.994305421
364.10550,7.604694237
364.10600,6.078722198
364.10650,5.773527791
364.10700,8.52027746
364.10750,12.79299917
364.10800,15.23455443
364.10850,13.70858239
364.10900,10.0462495
364.10950,8.52027746
364.11000,10.35144391
364.11050,13.40338798
364.11100,14.62416561
364.11150,12.48780476
364.11200,9.435860683
364.11250,6.689111014
364.11300,3.637166937
364.11350,0.280028452
364.11400,-1.856332402
364.11450,-3.077110033
364.11500,-4.908276479
364.11550,-8.570609371
364.11600,-11.62255345
364.11650,-13.14852549
364.11700,-14.36930312
364.11750,-17.11605279
364.11800,-20.16799686
364.11850,-20.77838568
364.11900,-18.33683042
364.11950,-15.28488634
364.12000,-12.53813667
364.12050,-11.62255345
364.12100,-12.53813667
364.12150,-13.45371989
364.12200,-12.53813667
364.12250,-8.875803779
364.12300,-5.213470887
364.12350,-3.992693256
364.12400,-3.38230444
364.12450,-0.3303603634
364.12500,5.773527791
364.12550,11.87741594
364.12600,15.23455443
364.12650,16.15013765
364.12700,16.15013765
364.12750,16.15013765
364.12800,16.45533206
364.12850,15.53974884
364.12900,13.09819358
364.12950,10.0462495
364.13000,8.52027746
364.13050,7.299499829
364.13100,3.637166937
364.13150,-2.771915625
364.13200,-9.791387002
364.13250,-13.14852549
364.13300,-12.84333108
364.13350,-11.92774786
364.13400,-13.14852549
364.13450,-13.7589143
364.13500,-11.31735904
364.13550,-6.12905411
364.13600,-1.551137994
364.13650,-0.9407491788
364.13700,-3.687498848
364.13750,-7.044637333
364.13800,-8.265414964
364.13850,-8.570609371
364.13900,-7.960220556
364.13950,-7.044637333
364.14000,-3.992693256
364.14050,-0.3303603634
364.14100,0.8904172674
364.14150,-1.245943586
364.14200,-4.908276479
364.14250,-7.044637333
364.14300,-6.434248517
364.14350,-2.771915625
364.14400,3.026778121
364.14450,9.130666275
364.14500,11.87741594
364.14550,9.435860683
364.14600,3.942361344
364.14650,1.500806083
364.14700,3.637166937
364.14750,7.604694237
364.14800,8.825471868
364.14850,7.299499829
364.14900,5.773527791
364.14950,6.383916606
364.15000,8.215083052
364.15050,9.435860683
364.15100,9.435860683
364.15150,9.435860683
364.15200,9.741055091
364.15250,10.35144391
364.15300,11.57222154
364.15350,11.87741594
364.15400,8.825471868
364.15450,2.111194898
364.15500,-3.38230444
364.15550,-3.687498848
364.15600,2.111194898
364.15650,11.26702713
364.15700,17.9813041
364.15750,18.89688732
364.15800,12.18261035
364.15850,-0.02516595566
364.15900,-11.01216463
364.15950,-14.36930312
364.16000,-11.92774786
364.16050,-12.23294226
364.16100,-21.08358009
364.16150,-33.90174521
364.16200,-41.5316054
364.16250,-40.00563336
364.16300,-32.68096758
364.16350,-25.35630179
364.16400,-21.6939689
364.16450,-21.6939689
364.16500,-23.52513535
364.16550,-26.27188502
364.16600,-29.93421791
364.16650,-32.68096758
364.16700,-31.46018995
364.16750,-25.05110739
364.16800,-16.20046956
364.16850,-7.655026148
364.16900,0.8904172674
364.16950,12.18261035
364.17000,22.86441462
364.17050,26.52674751
364.17100,19.50727614
364.17150,8.52027746
364.17200,1.195611675
364.17250,-0.02516595566
364.17300,-0.02516595566
364.17350,-2.466721217
364.17400,-7.960220556
364.17450,-13.14852549
364.17500,-14.36930312
364.17550,-10.70697023
364.17600,-4.908276479
364.17650,-0.6355547711
364.17700,1.195611675
364.17750,1.500806083
364.17800,0.280028452
364.17850,-1.551137994
364.17900,-1.245943586
364.17950,3.942361344
364.18000,11.87741594
364.18050,15.84494324
364.18100,14.0137768
364.18150,10.35144391
364.18200,9.741055091
364.18250,11.26702713
364.18300,12.18261035
364.18350,10.35144391
364.18400,7.299499829
364.18450,6.078722198
364.18500,10.0462495
364.18550,19.50727614
364.18600,28.66310837
364.18650,29.883886
364.18700,22.86441462
364.18750,15.84494324
364.18800,14.0137768
364.18850,15.23455443
364.18900,14.92936002
364.18950,13.09819358
364.19000,12.18261035
364.19050,10.65663831
364.19100,6.383916606
364.19150,1.500806083
364.19200,-0.3303603634
364.19250,-0.6355547711
364.19300,-1.856332402
364.19350,-5.213470887
364.19400,-8.265414964
364.19450,-11.31735904
364.19500,-15.28488634
364.19550,-17.7264416
364.19600,-15.59008075
364.19650,-9.486192594
364.19700,-3.687498848
364.19750,-0.3303603634
364.19800,1.195611675
364.19850,3.942361344
364.19900,6.994305421
364.19950,9.130666275
364.20000,10.35144391
364.20050,10.65663831
364.20100,9.741055091
364.20150,6.689111014
364.20200,3.637166937
364.20250,2.111194898
364.20300,0.5852228597
364.20350,-0.6355547711
364.20400,-0.02516595566
364.20450,4.55275016
364.20500,11.57222154
364.20550,15.53974884
364.20600,15.84494324
364.20650,15.84494324
364.20700,17.67610969
364.20750,20.42285936
364.20800,21.64363699
364.20850,20.42285936
364.20900,17.9813041
364.20950,13.70858239
364.21000,7.299499829
364.21050,-0.02516595566
364.21100,-3.077110033
364.21150,-1.245943586
364.21200,2.721583714
364.21250,4.857944568
364.21300,3.942361344
364.21350,3.942361344
364.21400,6.689111014
364.21450,9.130666275
364.21500,7.299499829
364.21550,1.500806083
364.21600,-3.687498848
364.21650,-7.34983174
364.21700,-11.01216463
364.21750,-15.89527516
364.21800,-19.25241364
364.21850,-18.64202483
364.21900,-15.28488634
364.21950,-13.45371989
364.22000,-13.45371989
364.22050,-11.92774786
364.22100,-7.655026148
364.22150,-3.687498848
364.22200,-3.38230444
364.22250,-5.213470887
364.22300,-5.823859702
364.22350,-3.992693256
364.22400,-1.856332402
364.22450,-0.02516595566
364.22500,1.195611675
364.22550,1.195611675
364.22600,-1.245943586
364.22650,-6.434248517
364.22700,-10.09658141
364.22750,-10.09658141
364.22800,-7.044637333
364.22850,-3.687498848
364.22900,-0.9407491788
364.22950,2.416389306
364.23000,7.299499829
364.23050,12.48780476
364.23100,15.23455443
364.23150,13.70858239
364.23200,8.52027746
364.23250,2.721583714
364.23300,-1.551137994
364.23350,-3.992693256
364.23400,-5.518665294
364.23450,-7.960220556
364.23500,-10.70697023
364.23550,-11.92774786
364.23600,-11.31735904
364.23650,-11.31735904
364.23700,-13.7589143
364.23750,-16.81085838
364.23800,-18.33683042
364.23850,-17.42124719
364.23900,-16.20046956
364.23950,-16.81085838
364.24000,-18.33683042
364.24050,-18.94721923
364.24100,-16.50566397
364.24150,-10.70697023
364.24200,-2.466721217
364.24250,5.773527791
364.24300,11.57222154
364.24350,15.23455443
364.24400,18.28649851
364.24450,21.03324818
364.24500,21.64363699
364.24550,18.89688732
364.24600,14.62416561
364.24650,12.18261035
364.24700,10.96183272
364.24750,9.130666275
364.24800,5.773527791
364.24850,1.806000491
364.24900,-1.856332402
364.24950,-7.044637333
364.25000,-13.7589143
364.25050,-18.64202483
364.25100,-18.94721923
364.25150,-14.36930312
364.25200,-7.960220556
364.25250,-1.856332402
364.25300,1.500806083
364.25350,0.8904172674
364.25400,-1.856332402
364.25450,-4.297887663
364.25500,-4.908276479
364.25550,-5.823859702
364.25600,-8.875803779
364.25650,-11.92774786
364.25700,-13.45371989
364.25750,-14.67449753
364.25800,-17.7264416
364.25850,-19.86280246
364.25900,-17.11605279
364.25950,-12.53813667
364.26000,-11.92774786
364.26050,-14.97969193
364.26100,-15.28488634
364.26150,-9.791387002
364.26200,-1.856332402
364.26250,3.331972529
364.26300,6.383916606
364.26350,8.215083052
364.26400,9.741055091
364.26450,11.87741594
364.26500,16.76052647
364.26550,22.86441462
364.26600,26.22155311
364.26650,24.39038666
364.26700,19.81247054
364.26750,15.84494324
364.26800,13.09819358
364.26850,10.65663831
364.26900,8.215083052
364.26950,5.468333383
364.27000,2.111194898
364.27050,-0.6355547711
364.27100,-1.551137994
364.27150,-3.077110033
364.27200,-8.875803779
364.27250,-16.20046956
364.27300,-17.11605279
364.27350,-8.570609371
364.27400,2.111194898
364.27450,6.383916606
364.27500,3.026778121
364.27550,-3.38230444
364.27600,-9.180998187
364.27650,-14.67449753
364.27700,-19.55760805
364.27750,-22.60955213
364.27800,-21.6939689
364.27850,-15.89527516
364.27900,-5.213470887
364.27950,5.773527791
364.28000,11.57222154
364.28050,9.435860683
364.28100,2.721583714
364.28150,-0.3303603634
364.28200,3.331972529
364.28250,11.26702713
364.28300,16.15013765
364.28350,14.92936002
364.28400,10.65663831
364.28450,7.604694237
364.28500,6.078722198
364.28550,3.637166937
364.28600,-0.02516595566
364.28650,-4.603082071
364.28700,-8.570609371
364.28750,-10.40177582
364.28800,-7.655026148
364.28850,0.5852228597
364.28900,10.96183272
364.28950,18.28649851
364.29000,20.72805377
364.29050,21.33844258
364.29100,23.16960903
364.29150,24.08519225
364.29200,22.55922021
364.29250,18.89688732
364.29300,15.53974884
364.29350,12.79299917
364.29400,8.215083052
364.29450,1.500806083
364.29500,-4.603082071
364.29550,-7.960220556
364.29600,-7.34983174
364.29650,-6.12905411
364.29700,-7.044637333
364.29750,-8.875803779
364.29800,-7.34983174
364.29850,-1.551137994
364.29900,3.331972529
364.29950,4.247555752
364.30000,1.500806083
364.30050,-0.6355547711
364.30100,-0.6355547711
364.30150,-0.02516595566
364.30200,0.280028452
364.30250,-0.3303603634
364.30300,-1.856332402
364.30350,-1.551137994
364.30400,2.721583714
364.30450,10.65663831
364.30500,17.06572088
364.30550,18.28649851
364.30600,16.15013765
364.30650,14.31897121
364.30700,12.18261035
364.30750,8.215083052
364.30800,3.026778121
364.30850,-0.02516595566
364.30900,-2.771915625
364.30950,-8.570609371
364.31000,-15.89527516
364.31050,-19.86280246
364.31100,-17.7264416
364.31150,-13.45371989
364.31200,-9.486192594
364.31250,-4.908276479
364.31300,0.280028452
364.31350,3.942361344
364.31400,3.637166937
364.31450,1.195611675
364.31500,-0.9407491788
364.31550,-3.992693256
364.31600,-10.09658141
364.31650,-18.33683042
364.31700,-26.57707943
364.31750,-33.90174521
364.31800,-41.83679981
364.31850,-47.02510474
364.31900,-43.97316066
364.31950,-32.37577317
364.32000,-19.25241364
364.32050,-11.01216463
364.32100,-5.213470887
364.32150,1.195611675
364.32200,8.825471868
364.32250,14.31897121
364.32300,18.28649851
364.32350,22.86441462
364.32400,27.13713633
364.32450,26.22155311
364.32500,19.81247054
364.32550,13.70858239
364.32600,13.40338798
364.32650,16.76052647
364.32700,19.20208173
364.32750,16.76052647
364.32800,11.57222154
364.32850,8.52027746
364.32900,11.26702713
364.32950,18.89688732
364.33000,26.83194192
364.33050,30.18908041
364.33100,27.44233074
364.33150,20.42285936
364.33200,13.40338798
364.33250,7.909888645
364.33300,3.637166937
364.33350,-0.3303603634
364.33400,-5.518665294
364.33450,-9.791387002
364.33500,-11.01216463
364.33550,-10.09658141
364.33600,-11.31735904
364.33650,-15.28488634
364.33700,-19.55760805
364.33750,-21.38877449
364.33800,-21.99916331
364.33850,-21.08358009
364.33900,-16.20046956
364.33950,-5.518665294
364.34000,4.247555752
364.34050,7.909888645
364.34100,6.078722198
364.34150,4.857944568
364.34200,7.299499829
364.34250,9.130666275
364.34300,6.994305421
364.34350,4.247555752
364.34400,4.247555752
364.34450,6.078722198
364.34500,6.689111014
364.34550,5.468333383
364.34600,5.163138975
364.34650,5.163138975
364.34700,4.55275016
364.34750,3.942361344
364.34800,4.247555752
364.34850,3.942361344
364.34900,1.806000491
364.34950,-1.551137994
364.35000,-3.077110033
364.35050,-2.466721217
364.35100,-1.245943586
364.35150,-1.551137994
364.35200,-2.16152681
364.35250,-2.771915625
364.35300,-5.213470887
364.35350,-8.875803779
364.35400,-11.62255345
364.35450,-11.31735904
364.35500,-10.40177582
364.35550,-10.70697023
364.35600,-12.53813667
364.35650,-14.06410871
364.35700,-14.67449753
364.35750,-14.97969193
364.35800,-15.28488634
364.35850,-14.67449753
364.35900,-12.53813667
364.35950,-9.791387002
364.36000,-7.044637333
364.36050,-4.603082071
364.36100,-2.466721217
364.36150,-1.551137994
364.36200,-1.856332402
364.36250,-2.16152681
364.36300,-1.551137994
364.36350,-0.02516595566
364.36400,2.111194898
364.36450,3.942361344
364.36500,4.247555752
364.36550,3.942361344
364.36600,4.55275016
364.36650,5.773527791
364.36700,6.383916606
364.36750,6.383916606
364.36800,6.078722198
364.36850,6.689111014
364.36900,6.689111014
364.36950,5.468333383
364.37000,4.247555752
364.37050,3.637166937
364.37100,1.500806083
364.37150,-4.297887663
364.37200,-11.31735904
364.37250,-12.23294226
364.37300,-6.12905411
364.37350,-0.02516595566
364.37400,-0.02516595566
364.37450,-4.603082071
364.37500,-11.01216463
364.37550,-16.50566397
364.37600,-20.77838568
364.37650,-21.08358009
364.37700,-15.59008075
364.37750,-7.044637333
364.37800,-2.466721217
364.37850,-4.908276479
364.37900,-9.486192594
364.37950,-11.31735904
364.38000,-9.486192594
364.38050,-8.570609371
364.38100,-11.31735904
364.38150,-15.28488634
364.38200,-15.28488634
364.38250,-7.044637333
364.38300,6.078722198
364.38350,17.06572088
364.38400,19.81247054
364.38450,16.76052647
364.38500,13.70858239
364.38550,13.70858239
364.38600,14.31897121
364.38650,13.09819358
364.38700,9.435860683
364.38750,5.163138975
364.38800,3.637166937
364.38850,7.604694237
364.38900,16.45533206
364.38950,24.69558107
364.39000,26.22155311
364.39050,21.64363699
364.39100,17.37091528
364.39150,16.76052647
364.39200,16.45533206
364.39250,12.18261035
364.39300,6.078722198
364.39350,2.721583714
364.39400,2.416389306
364.39450,1.195611675
364.39500,-0.6355547711
364.39550,-1.245943586
364.39600,-1.856332402
364.39650,-7.044637333
364.39700,-16.81085838
364.39750,-26.57707943
364.39800,-32.98616199
364.39850,-39.70043896
364.39900,-46.41471593
364.39950,-44.88874389
364.40000,-25.6614962
364.40050,5.773527791
364.40100,34.15660771
364.40150,46.97477283
364.40200,45.7539952
364.40250,37.8189406
364.40300,29.57869159
364.40350,23.16960903
364.40400,18.89688732
364.40450,15.84494324
364.40500,13.70858239
364.40550,12.48780476
364.40600,12.48780476
364.40650,12.48780476
364.40700,11.26702713
364.40750,9.741055091
364.40800,9.435860683
364.40850,10.0462495
364.40900,7.604694237
364.40950,2.111194898
364.41000,-1.245943586
364.41050,-0.02516595566
364.41100,3.331972529
364.41150,5.468333383
364.41200,4.247555752
364.41250,0.5852228597
364.41300,-4.297887663
364.41350,-8.875803779
364.41400,-11.01216463
364.41450,-11.62255345
364.41500,-13.14852549
364.41550,-14.67449753
364.41600,-13.7589143
364.41650,-10.70697023
364.41700,-9.486192594
364.41750,-12.23294226
364.41800,-16.50566397
364.41850,-19.25241364
364.41900,-21.99916331
364.41950,-25.05110739
364.42000,-25.35630179
364.42050,-19.55760805
364.42100,-11.62255345
364.42150,-6.739442925
364.42200,-5.823859702
364.42250,-5.213470887
364.42300,-3.38230444
364.42350,-0.9407491788
364.42400,1.195611675
364.42450,4.55275016
364.42500,7.299499829
364.42550,7.909888645
364.42600,7.604694237
364.42650,8.52027746
364.42700,10.0462495
364.42750,8.825471868
364.42800,5.468333383
364.42850,2.721583714
364.42900,2.111194898
364.42950,1.806000491
364.43000,0.8904172674
364.43050,1.806000491
364.43100,4.55275016
364.43150,5.163138975
364.43200,2.111194898
364.43250,-1.856332402
364.43300,-4.297887663
364.43350,-4.603082071
364.43400,-4.908276479
364.43450,-3.992693256
364.43500,-0.9407491788
364.43550,1.195611675
364.43600,-0.02516595566
364.43650,-5.213470887
364.43700,-9.180998187
364.43750,-9.180998187
364.43800,-7.044637333
364.43850,-5.213470887
364.43900,-4.603082071
364.43950,-4.297887663
364.44000,-4.297887663
364.44050,-3.992693256
364.44100,-4.297887663
364.44150,-5.823859702
364.44200,-7.655026148
364.44250,-7.34983174
364.44300,-3.077110033
364.44350,2.416389306
364.44400,5.773527791
364.44450,5.163138975
364.44500,3.942361344
364.44550,4.247555752
364.44600,5.163138975
364.44650,5.468333383
364.44700,4.55275016
364.44750,2.416389306
364.44800,-0.02516595566
364.44850,-0.02516595566
364.44900,5.163138975
364.44950,12.48780476
364.45000,14.92936002
364.45050,10.65663831
364.45100,4.857944568
364.45150,4.247555752
364.45200,7.909888645
364.45250,10.96183272
364.45300,10.96183272
364.45350,10.35144391
364.45400,10.96183272
364.45450,12.18261035
364.45500,12.79299917
364.45550,11.57222154
364.45600,7.909888645
364.45650,3.026778121
364.45700,-2.466721217
364.45750,-9.486192594
364.45800,-16.50566397
364.45850,-21.6939689
364.45900,-21.99916331
364.45950,-18.03163601
364.46000,-13.7589143
364.46050,-11.01216463
364.46100,-8.265414964
364.46150,-4.908276479
364.46200,-2.771915625
364.46250,-2.16152681
364.46300,-1.245943586
364.46350,0.8904172674
364.46400,3.026778121
364.46450,3.331972529
364.46500,2.721583714
364.46550,3.026778121
364.46600,4.55275016
364.46650,5.773527791
364.46700,6.689111014
364.46750,6.994305421
364.46800,7.909888645
364.46850,10.0462495
364.46900,12.79299917
364.46950,13.40338798
364.47000,9.741055091
364.47050,2.416389306
364.47100,-3.38230444
364.47150,-5.213470887
364.47200,-5.213470887
364.47250,-7.960220556
364.47300,-14.06410871
364.47350,-18.03163601
364.47400,-16.81085838
364.47450,-9.791387002
364.47500,-0.3303603634
364.47550,7.909888645
364.47600,12.79299917
364.47650,13.09819358
364.47700,9.130666275
364.47750,4.247555752
364.47800,0.280028452
364.47850,-2.771915625
364.47900,-6.739442925
364.47950,-8.875803779
364.48000,-5.823859702
364.48050,1.806000491
364.48100,7.604694237
364.48150,5.773527791
364.48200,0.5852228597
364.48250,-0.02516595566
364.48300,6.689111014
364.48350,14.0137768
364.48400,15.23455443
364.48450,11.57222154
364.48500,7.299499829
364.48550,4.55275016
364.48600,3.026778121
364.48650,1.500806083
364.48700,-1.856332402
364.48750,-11.01216463
364.48800,-23.21994094
364.48850,-28.71344028
364.48900,-20.16799686
364.48950,-3.38230444
364.49000,7.909888645
364.49050,9.741055091
364.49100,10.0462495
364.49150,16.15013765
364.49200,24.39038666
364.49250,26.22155311
364.49300,20.11766495
364.49350,12.79299917
364.49400,8.52027746
364.49450,5.773527791
364.49500,1.500806083
364.49550,-3.687498848
364.49600,-7.655026148
364.49650,-10.09658141
364.49700,-12.53813667
364.49750,-16.81085838
364.49800,-20.77838568
364.49850,-21.6939689
364.49900,-21.08358009
364.49950,-21.99916331
364.50000,-24.13552416
364.50050,-23.52513535
364.50100,-15.59008075
364.50150,-3.992693256
364.50200,3.942361344
364.50250,5.773527791
364.50300,3.942361344
364.50350,3.026778121
364.50400,5.468333383
364.50450,8.825471868
364.50500,10.96183272
364.50550,12.18261035
364.50600,12.79299917
364.50650,11.87741594
364.50700,9.435860683
364.50750,5.773527791
364.50800,2.416389306
364.50850,0.8904172674
364.50900,-0.02516595566
364.50950,-0.9407491788
364.51000,-3.992693256
364.51050,-8.570609371
364.51100,-12.53813667
364.51150,-12.53813667
364.51200,-8.265414964
364.51250,-2.466721217
364.51300,-0.3303603634
364.51350,-3.38230444
364.51400,-8.570609371
364.51450,-9.791387002
364.51500,-5.213470887
364.51550,2.111194898
364.51600,6.689111014
364.51650,5.468333383
364.51700,0.5852228597
364.51750,-3.687498848
364.51800,-5.823859702
364.51850,-7.044637333
364.51900,-8.265414964
364.51950,-9.180998187
364.52000,-9.791387002
364.52050,-10.70697023
364.52100,-12.23294226
364.52150,-11.62255345
364.52200,-8.265414964
364.52250,-3.38230444
364.52300,-0.02516595566
364.52350,0.280028452
364.52400,-0.3303603634
364.52450,-0.6355547711
364.52500,-0.02516595566
364.52550,2.111194898
364.52600,5.773527791
364.52650,9.130666275
364.52700,10.65663831
364.52750,11.26702713
364.52800,12.18261035
364.52850,12.48780476
364.52900,10.65663831
364.52950,7.604694237
364.53000,5.468333383
364.53050,5.468333383
364.53100,5.468333383
364.53150,4.247555752
364.53200,1.500806083
364.53250,-0.9407491788
364.53300,-3.38230444
364.53350,-6.12905411
364.53400,-8.875803779
364.53450,-11.01216463
364.53500,-11.31735904
364.53550,-8.875803779
364.53600,-5.823859702
364.53650,-5.518665294
364.53700,-9.180998187
364.53750,-13.14852549
364.53800,-12.84333108
364.53850,-7.960220556
364.53900,-2.771915625
364.53950,-0.3303603634
364.54000,-0.9407491788
364.54050,-2.16152681
364.54100,-1.856332402
364.54150,-0.02516595566
364.54200,3.331972529
364.54250,9.130666275
364.54300,15.84494324
364.54350,20.11766495
364.54400,17.37091528
364.54450,8.52027746
364.54500,-0.02516595566
364.54550,-4.297887663
364.54600,-6.434248517
364.54650,-10.40177582
364.54700,-14.36930312
364.54750,-11.31735904
364.54800,1.806000491
364.54850,17.9813041
364.54900,26.22155311
364.54950,24.69558107
364.55000,18.28649851
364.55050,11.87741594
364.55100,5.163138975
364.55150,-2.466721217
364.55200,-7.960220556
364.55250,-8.570609371
364.55300,-6.12905411
364.55350,-5.518665294
364.55400,-7.34983174
364.55450,-7.655026148
364.55500,-4.603082071
364.55550,0.8904172674
364.55600,5.468333383
364.55650,8.215083052
364.55700,10.65663831
364.55750,13.70858239
364.55800,17.37091528
364.55850,19.20208173
364.55900,17.9813041
364.55950,13.40338798
364.56000,6.078722198
364.56050,-1.856332402
364.56100,-8.570609371
364.56150,-11.62255345
364.56200,-11.31735904
364.56250,-9.486192594
364.56300,-7.34983174
364.56350,-4.908276479
364.56400,-2.466721217
364.56450,-0.9407491788
364.56500,-0.9407491788
364.56550,-0.02516595566
364.56600,4.247555752
364.56650,11.87741594
364.56700,18.89688732
364.56750,21.03324818
364.56800,19.20208173
364.56850,15.84494324
364.56900,14.0137768
364.56950,12.48780476
364.57000,9.741055091
364.57050,6.078722198
364.57100,3.637166937
364.57150,4.247555752
364.57200,6.383916606
364.57250,7.299499829
364.57300,5.163138975
364.57350,0.5852228597
364.57400,-3.38230444
364.57450,-6.434248517
364.57500,-8.570609371
364.57550,-10.70697023
364.57600,-12.84333108
364.57650,-14.06410871
364.57700,-13.45371989
364.57750,-12.53813667
364.57800,-12.84333108
364.57850,-14.36930312
364.57900,-14.97969193
364.57950,-13.7589143
364.58000,-12.84333108
364.58050,-13.45371989
364.58100,-13.7589143
364.58150,-12.53813667
364.58200,-9.486192594
364.58250,-6.12905411
364.58300,-2.466721217
364.58350,2.111194898
364.58400,7.604694237
364.58450,10.65663831
364.58500,7.909888645
364.58550,-0.02516595566
364.58600,-7.960220556
364.58650,-9.180998187
364.58700,-3.38230444
364.58750,3.637166937
364.58800,8.825471868
364.58850,14.0137768
364.58900,21.33844258
364.58950,27.13713633
364.59000,26.22155311
364.59050,19.20208173
364.59100,12.48780476
364.59150,8.825471868
364.59200,5.773527791
364.59250,2.416389306
364.59300,0.8904172674
364.59350,1.195611675
364.59400,-0.9407491788
364.59450,-6.12905411
364.59500,-9.486192594
364.59550,-8.875803779
364.59600,-7.34983174
364.59650,-7.655026148
364.59700,-7.960220556
364.59750,-7.044637333
364.59800,-8.875803779
364.59850,-14.67449753
364.59900,-18.94721923
364.59950,-16.20046956
364.60000,-11.62255345
364.60050,-12.53813667
364.60100,-17.42124719
364.60150,-17.11605279
364.60200,-8.570609371
364.60250,-0.02516595566
364.60300,2.416389306
364.60350,1.500806083
364.60400,3.942361344
364.60450,10.96183272
364.60500,15.84494324
364.60550,15.84494324
364.60600,11.57222154
364.60650,5.773527791
364.60700,0.280028452
364.60750,-2.16152681
364.60800,-0.6355547711
364.60850,4.857944568
364.60900,10.96183272
364.60950,12.79299917
364.61000,10.0462495
364.61050,6.383916606
364.61100,3.942361344
364.61150,1.500806083
364.61200,-2.16152681
364.61250,-6.739442925
364.61300,-8.875803779
364.61350,-9.180998187
364.61400,-10.09658141
364.61450,-12.84333108
364.61500,-14.06410871
364.61550,-12.84333108
364.61600,-11.01216463
364.61650,-10.40177582
364.61700,-9.486192594
364.61750,-6.12905411
364.61800,-3.077110033
364.61850,-2.16152681
364.61900,-3.077110033
364.61950,-3.077110033
364.62000,-3.992693256
364.62050,-7.960220556
364.62100,-12.53813667
364.62150,-12.84333108
364.62200,-10.40177582
364.62250,-11.31735904
364.62300,-16.50566397
364.62350,-18.33683042
364.62400,-11.62255345
364.62450,0.5852228597
364.62500,10.96183272
364.62550,16.76052647
364.62600,20.11766495
364.62650,22.55922021
364.62700,22.55922021
364.62750,19.20208173
364.62800,14.31897121
364.62850,10.96183272
364.62900,11.26702713
364.62950,14.62416561
364.63000,16.76052647
364.63050,14.0137768
364.63100,6.689111014
364.63150,-0.02516595566
364.63200,-4.908276479
364.63250,-8.265414964
364.63300,-9.791387002
364.63350,-7.655026148
364.63400,-2.771915625
364.63450,0.8904172674
364.63500,0.280028452
364.63550,-3.077110033
364.63600,-8.265414964
364.63650,-15.28488634
364.63700,-22.91474653
364.63750,-26.88227383
364.63800,-23.21994094
364.63850,-14.36930312
364.63900,-6.12905411
364.63950,-1.245943586
364.64000,1.806000491
364.64050,6.078722198
364.64100,8.52027746
364.64150,6.383916606
364.64200,2.111194898
364.64250,-0.3303603634
364.64300,-0.02516595566
364.64350,0.280028452
364.64400,-0.3303603634
364.64450,-0.02516595566
364.64500,4.55275016
364.64550,11.57222154
364.64600,15.53974884
364.64650,13.70858239
364.64700,10.35144391
364.64750,10.35144391
364.64800,13.40338798
364.64850,14.92936002
364.64900,13.09819358
364.64950,10.96183272
364.65000,10.65663831
364.65050,11.57222154
364.65100,11.26702713
364.65150,9.130666275
364.65200,6.994305421
364.65250,4.857944568
364.65300,3.331972529
364.65350,1.500806083
364.65400,-0.3303603634
364.65450,-2.466721217
364.65500,-3.992693256
364.65550,-4.603082071
364.65600,-4.603082071
364.65650,-5.213470887
364.65700,-6.739442925
364.65750,-7.960220556
364.65800,-9.486192594
364.65850,-10.70697023
364.65900,-11.01216463
364.65950,-10.70697023
364.66000,-9.180998187
364.66050,-8.265414964
364.66100,-8.265414964
364.66150,-8.265414964
364.66200,-6.739442925
364.66250,-4.908276479
364.66300,-4.297887663
364.66350,-3.38230444
364.66400,-0.6355547711
364.66450,3.026778121
364.66500,5.163138975
364.66550,4.55275016
364.66600,4.247555752
364.66650,6.383916606
364.66700,9.130666275
364.66750,8.52027746
364.66800,5.773527791
364.66850,5.468333383
364.66900,8.215083052
364.66950,9.741055091
364.67000,7.299499829
364.67050,2.111194898
364.67100,-0.3303603634
364.67150,0.8904172674
364.67200,5.468333383
364.67250,12.18261035
364.67300,18.28649851
364.67350,20.72805377
364.67400,17.06572088
364.67450,11.26702713
364.67500,8.215083052
364.67550,6.078722198
364.67600,-1.856332402
364.67650,-17.11605279
364.67700,-30.54460673
364.67750,-31.15499554
364.67800,-18.94721923
364.67850,-5.518665294
364.67900,-1.245943586
364.67950,-7.655026148
364.68000,-17.11605279
364.68050,-21.99916331
364.68100,-19.25241364
364.68150,-13.14852549
364.68200,-7.655026148
364.68250,-5.213470887
364.68300,-4.908276479
364.68350,-6.12905411
364.68400,-7.34983174
364.68450,-3.687498848
364.68500,7.909888645
364.68550,24.39038666
364.68600,36.29296856
364.68650,38.42932941
364.68700,33.24102448
364.68750,25.00077548
364.68800,17.06572088
364.68850,9.130666275
364.68900,2.111194898
364.68950,-3.077110033
364.69000,-5.823859702
364.69050,-5.213470887
364.69100,0.280028452
364.69150,9.130666275
364.69200,16.76052647
364.69250,19.20208173
364.69300,16.76052647
364.69350,11.26702713
364.69400,4.55275016
364.69450,-0.9407491788
364.69500,-5.213470887
364.69550,-7.655026148
364.69600,-9.180998187
364.69650,-10.70697023
364.69700,-12.53813667
364.69750,-14.67449753
364.69800,-15.89527516
364.69850,-14.67449753
364.69900,-11.31735904
364.69950,-9.486192594
364.70000,-10.40177582
364.70050,-11.92774786
364.70100,-11.31735904
364.70150,-8.570609371
364.70200,-6.434248517
364.70250,-5.518665294
364.70300,-4.908276479
364.70350,-5.213470887
364.70400,-6.434248517
364.70450,-7.044637333
364.70500,-5.213470887
364.70550,-1.551137994
364.70600,1.806000491
364.70650,3.026778121
364.70700,2.416389306
364.70750,2.416389306
364.70800,3.637166937
364.70850,4.857944568
364.70900,4.857944568
364.70950,4.55275016
364.71000,4.247555752
364.71050,3.331972529
364.71100,1.500806083
364.71150,-0.6355547711
364.71200,-2.771915625
364.71250,-4.908276479
364.71300,-7.655026148
364.71350,-9.180998187
364.71400,-7.655026148
364.71450,-4.297887663
364.71500,-2.16152681
364.71550,-2.466721217
364.71600,-3.077110033
364.71650,-3.38230444
364.71700,-5.213470887
364.71750,-8.875803779
364.71800,-11.62255345
364.71850,-11.92774786
364.71900,-11.31735904
364.71950,-10.40177582
364.72000,-9.791387002
364.72050,-9.791387002
364.72100,-9.486192594
364.72150,-7.960220556
364.72200,-3.992693256
364.72250,-0.02516595566
364.72300,2.111194898
364.72350,2.721583714
364.72400,4.857944568
364.72450,10.0462495
364.72500,16.45533206
364.72550,22.25402581
364.72600,25.30596988
364.72650,24.39038666
364.72700,19.20208173
364.72750,14.92936002
364.72800,14.62416561
364.72850,16.76052647
364.72900,16.76052647
364.72950,14.92936002
364.73000,14.92936002
364.73050,16.76052647
364.73100,16.76052647
364.73150,13.40338798
364.73200,10.0462495
364.73250,8.52027746
364.73300,5.773527791
364.73350,-0.02516595566
364.73400,-5.213470887
364.73450,-7.34983174
364.73500,-7.044637333
364.73550,-7.960220556
364.73600,-10.09658141
364.73650,-11.92774786
364.73700,-12.84333108
364.73750,-14.06410871
364.73800,-16.20046956
364.73850,-18.33683042
364.73900,-19.25241364
364.73950,-19.55760805
364.74000,-18.64202483
364.74050,-15.59008075
364.74100,-9.180998187
364.74150,-0.3303603634
364.74200,5.468333383
364.74250,6.078722198
364.74300,2.416389306
364.74350,-0.02516595566
364.74400,0.5852228597
364.74450,2.721583714
364.74500,3.942361344
364.74550,4.247555752
364.74600,5.163138975
364.74650,5.468333383
364.74700,3.637166937
364.74750,1.806000491
364.74800,1.500806083
364.74850,1.500806083
364.74900,-0.02516595566
364.74950,-2.466721217
364.75000,-3.992693256
364.75050,-5.518665294
364.75100,-9.180998187
364.75150,-13.7589143
364.75200,-14.97969193
364.75250,-11.62255345
364.75300,-7.044637333
364.75350,-3.687498848
364.75400,-0.3303603634
364.75450,3.637166937
364.75500,6.994305421
364.75550,5.773527791
364.75600,0.5852228597
364.75650,-4.603082071
364.75700,-7.34983174
364.75750,-6.12905411
364.75800,-2.16152681
364.75850,1.806000491
364.75900,4.55275016
364.75950,6.078722198
364.76000,8.825471868
364.76050,12.48780476
364.76100,14.31897121
364.76150,11.87741594
364.76200,5.468333383
364.76250,-2.466721217
364.76300,-11.01216463
364.76350,-17.11605279
364.76400,-17.11605279
364.76450,-11.31735904
364.76500,-3.992693256
364.76550,0.5852228597
364.76600,3.026778121
364.76650,5.163138975
364.76700,6.994305421
364.76750,7.604694237
364.76800,7.909888645
364.76850,9.130666275
364.76900,10.35144391
364.76950,9.130666275
364.77000,5.163138975
364.77050,1.500806083
364.77100,-0.02516595566
364.77150,-1.551137994
364.77200,-2.771915625
364.77250,-1.856332402
364.77300,-0.02516595566
364.77350,1.500806083
364.77400,-0.02516595566
364.77450,-3.992693256
364.77500,-7.655026148
364.77550,-9.791387002
364.77600,-10.40177582
364.77650,-10.40177582
364.77700,-9.791387002
364.77750,-9.180998187
364.77800,-8.875803779
364.77850,-7.960220556
364.77900,-7.655026148
364.77950,-8.570609371
364.78000,-9.180998187
364.78050,-8.265414964
364.78100,-4.908276479
364.78150,-2.466721217
364.78200,-1.856332402
364.78250,-1.245943586
364.78300,0.5852228597
364.78350,2.721583714
364.78400,3.026778121
364.78450,2.111194898
364.78500,2.721583714
364.78550,2.721583714
364.78600,0.5852228597
364.78650,-0.02516595566
364.78700,6.078722198
364.78750,18.28649851
364.78800,26.52674751
364.78850,24.39038666
364.78900,17.06572088
364.78950,14.0137768
364.79000,17.9813041
364.79050,21.64363699
364.79100,17.9813041
364.79150,8.215083052
364.79200,-1.856332402
364.79250,-9.180998187
364.79300,-11.92774786
364.79350,-9.791387002
364.79400,-2.466721217
364.79450,6.689111014
364.79500,13.70858239
364.79550,14.62416561
364.79600,9.130666275
364.79650,1.195611675
364.79700,-3.687498848
364.79750,-4.297887663
364.79800,-2.771915625
364.79850,-3.38230444
364.79900,-7.044637333
364.79950,-11.31735904
364.80000,-14.67449753
364.80050,-19.25241364
364.80100,-23.21994094
364.80150,-20.47319127
364.80200,-8.265414964
364.80250,6.383916606
364.80300,13.70858239
364.80350,10.35144391
364.80400,2.721583714
364.80450,-3.992693256
364.80500,-9.180998187
364.80550,-11.92774786
364.80600,-8.265414964
364.80650,2.111194898
364.80700,15.23455443
364.80750,26.22155311
364.80800,31.71505245
364.80850,30.18908041
364.80900,23.16960903
364.80950,16.15013765
364.81000,15.23455443
364.81050,17.9813041
364.81100,16.15013765
364.81150,6.689111014
364.81200,-2.771915625
364.81250,-4.908276479
364.81300,-1.245943586
364.81350,0.280028452
364.81400,-1.245943586
364.81450,-2.466721217
364.81500,-0.9407491788
364.81550,-0.3303603634
364.81600,-2.16152681
364.81650,-5.213470887
364.81700,-6.739442925
364.81750,-7.34983174
364.81800,-8.265414964
364.81850,-8.875803779
364.81900,-9.180998187
364.81950,-9.180998187
364.82000,-9.791387002
364.82050,-9.486192594
364.82100,-8.265414964
364.82150,-7.34983174
364.82200,-7.044637333
364.82250,-7.044637333
364.82300,-5.823859702
364.82350,-3.077110033
364.82400,-0.6355547711
364.82450,-0.02516595566
364.82500,-0.02516595566
364.82550,-0.02516595566
364.82600,2.416389306
364.82650,5.163138975
364.82700,6.078722198
364.82750,5.163138975
364.82800,3.637166937
364.82850,3.942361344
364.82900,4.55275016
364.82950,3.026778121
364.83000,0.8904172674
364.83050,1.806000491
364.83100,6.383916606
364.83150,9.435860683
364.83200,7.299499829
364.83250,1.195611675
364.83300,-1.551137994
364.83350,-0.02516595566
364.83400,1.500806083
364.83450,-1.551137994
364.83500,-7.960220556
364.83550,-11.92774786
364.83600,-12.23294226
364.83650,-11.01216463
364.83700,-10.40177582
364.83750,-10.09658141
364.83800,-9.791387002
364.83850,-10.09658141
364.83900,-11.62255345
364.83950,-12.53813667
364.84000,-11.62255345
364.84050,-10.09658141
364.84100,-9.486192594
364.84150,-9.486192594
364.84200,-8.570609371
364.84250,-5.823859702
364.84300,-3.077110033
364.84350,-1.551137994
364.84400,-1.856332402
364.84450,-1.856332402
364.84500,0.8904172674
364.84550,7.604694237
364.84600,14.92936002
364.84650,18.28649851
364.84700,16.45533206
364.84750,11.87741594
364.84800,8.52027746
364.84850,7.299499829
364.84900,5.773527791
364.84950,2.721583714
364.85000,-0.6355547711
364.85050,-0.9407491788
364.85100,3.026778121
364.85150,10.0462495
364.85200,14.62416561
364.85250,14.92936002
364.85300,12.48780476
364.85350,7.299499829
364.85400,-1.551137994
364.85450,-13.45371989
364.85500,-22.30435772
364.85550,-22.60955213
364.85600,-15.28488634
364.85650,-6.739442925
364.85700,-0.3303603634
364.85750,3.331972529
364.85800,4.247555752
364.85850,0.280028452
364.85900,-7.34983174
364.85950,-14.67449753
364.86000,-17.7264416
364.86050,-16.50566397
364.86100,-12.23294226
364.86150,-3.687498848
364.86200,6.383916606
364.86250,13.70858239
364.86300,14.0137768
364.86350,10.96183272
364.86400,9.435860683
364.86450,9.435860683
364.86500,7.299499829
364.86550,1.806000491
364.86600,-3.992693256
364.86650,-7.960220556
364.86700,-8.875803779
364.86750,-5.823859702
364.86800,3.026778121
364.86850,14.92936002
364.86900,23.16960903
364.86950,23.16960903
364.87000,18.59169291
364.87050,17.67610969
364.87100,23.16960903
364.87150,29.883886
364.87200,30.49427481
364.87250,25.61116429
364.87300,19.50727614
364.87350,13.09819358
364.87400,2.416389306
364.87450,-12.84333108
364.87500,-26.57707943
364.87550,-31.46018995
364.87600,-27.79785706
364.87650,-21.99916331
364.87700,-19.25241364
364.87750,-19.55760805
364.87800,-19.86280246
364.87850,-17.7264416
364.87900,-13.14852549
364.87950,-7.044637333
364.88000,-2.466721217
364.88050,0.5852228597
364.88100,3.637166937
364.88150,8.215083052
364.88200,10.96183272
364.88250,8.825471868
364.88300,4.55275016
364.88350,2.721583714
364.88400,4.247555752
364.88450,5.468333383
364.88500,3.942361344
364.88550,2.111194898
364.88600,2.721583714
364.88650,4.857944568
364.88700,5.773527791
364.88750,4.857944568
364.88800,3.942361344
364.88850,2.416389306
364.88900,-0.3303603634
364.88950,-3.077110033
364.89000,-2.16152681
364.89050,3.331972529
364.89100,9.130666275
364.89150,9.435860683
364.89200,3.942361344
364.89250,-0.9407491788
364.89300,-1.245943586
364.89350,0.280028452
364.89400,-0.02516595566
364.89450,-4.297887663
364.89500,-8.265414964
364.89550,-10.09658141
364.89600,-11.01216463
364.89650,-13.45371989
364.89700,-16.20046956
364.89750,-17.42124719
364.89800,-16.50566397
364.89850,-14.97969193
364.89900,-12.53813667
364.89950,-9.486192594
364.90000,-7.044637333
364.90050,-5.823859702
364.90100,-5.213470887
364.90150,-3.687498848
364.90200,-1.551137994
364.90250,-0.02516595566
364.90300,0.5852228597
364.90350,1.195611675
364.90400,1.806000491
364.90450,3.026778121
364.90500,3.942361344
364.90550,2.721583714
364.90600,-0.9407491788
364.90650,-6.434248517
364.90700,-11.31735904
364.90750,-14.67449753
364.90800,-16.20046956
364.90850,-14.67449753
364.90900,-9.180998187
364.90950,-2.771915625
364.91000,-0.02516595566
364.91050,-0.3303603634
364.91100,-0.3303603634
364.91150,2.416389306
364.91200,5.773527791
364.91250,5.773527791
364.91300,3.331972529
364.91350,1.500806083
364.91400,0.5852228597
364.91450,-0.9407491788
364.91500,-4.603082071
364.91550,-7.960220556
364.91600,-9.180998187
364.91650,-9.791387002
364.91700,-10.09658141
364.91750,-10.09658141
364.91800,-9.791387002
364.91850,-10.09658141
364.91900,-11.01216463
364.91950,-11.31735904
364.92000,-9.486192594
364.92050,-5.823859702
364.92100,-1.245943586
364.92150,2.111194898
364.92200,4.247555752
364.92250,4.55275016
364.92300,5.163138975
364.92350,7.604694237
364.92400,11.57222154
364.92450,15.84494324
364.92500,18.28649851
364.92550,18.28649851
364.92600,16.76052647
364.92650,15.23455443
364.92700,14.92936002
364.92750,16.15013765
364.92800,16.45533206
364.92850,15.23455443
364.92900,13.09819358
364.92950,11.57222154
364.93000,10.65663831
364.93050,8.52027746
364.93100,5.773527791
364.93150,3.942361344
364.93200,4.247555752
364.93250,5.163138975
364.93300,4.857944568
364.93350,3.637166937
364.93400,2.416389306
364.93450,0.5852228597
364.93500,-1.856332402
364.93550,-4.297887663
364.93600,-5.518665294
364.93650,-5.823859702
364.93700,-6.739442925
364.93750,-7.655026148
364.93800,-7.34983174
364.93850,-6.739442925
364.93900,-7.044637333
364.93950,-8.265414964
364.94000,-8.265414964
364.94050,-6.434248517
364.94100,-5.213470887
364.94150,-5.518665294
364.94200,-5.213470887
364.94250,-2.771915625
364.94300,0.5852228597
364.94350,3.637166937
364.94400,5.773527791
364.94450,5.468333383
364.94500,2.111194898
364.94550,-1.856332402
364.94600,-3.077110033
364.94650,-1.245943586
364.94700,1.195611675
364.94750,5.468333383
364.94800,12.79299917
364.94850,22.55922021
364.94900,28.96830278
364.94950,28.96830278
364.95000,23.77999785
364.95050,14.92936002
364.95100,4.55275016
364.95150,-3.38230444
364.95200,-2.16152681
364.95250,6.994305421
364.95300,15.53974884
364.95350,15.23455443
364.95400,9.435860683
364.95450,4.857944568
364.95500,2.721583714
364.95550,0.280028452
364.95600,-2.466721217
364.95650,-5.213470887
364.95700,-7.044637333
364.95750,-7.655026148
364.95800,-5.213470887
364.95850,0.8904172674
364.95900,5.468333383
364.95950,3.026778121
364.96000,-3.687498848
364.96050,-8.265414964
364.96100,-7.34983174
364.96150,-3.687498848
364.96200,0.5852228597
364.96250,5.163138975
364.96300,7.604694237
364.96350,5.773527791
364.96400,1.806000491
364.96450,-1.245943586
364.96500,-4.908276479
364.96550,-11.01216463
364.96600,-15.59008075
364.96650,-11.62255345
364.96700,0.280028452
364.96750,9.741055091
364.96800,10.35144391
364.96850,6.078722198
364.96900,3.026778121
364.96950,-0.3303603634
364.97000,-7.655026148
364.97050,-13.7589143
364.97100,-9.180998187
364.97150,4.55275016
364.97200,16.15013765
364.97250,15.23455443
364.97300,5.468333383
364.97350,-2.16152681
364.97400,-3.687498848
364.97450,-1.856332402
364.97500,0.5852228597
364.97550,3.942361344
364.97600,7.909888645
364.97650,8.825471868
364.97700,3.637166937
364.97750,-4.908276479
364.97800,-11.01216463
364.97850,-13.45371989
364.97900,-16.50566397
364.97950,-22.30435772
364.98000,-25.6614962
364.98050,-20.16799686
364.98100,-7.655026148
364.98150,3.026778121
364.98200,6.078722198
364.98250,3.026778121
364.98300,-0.6355547711
364.98350,-3.38230444
364.98400,-5.213470887
364.98450,-5.518665294
364.98500,-3.992693256
364.98550,-2.16152681
364.98600,-1.856332402
364.98650,-2.771915625
364.98700,-2.466721217
364.98750,0.280028452
364.98800,6.383916606
364.98850,14.92936002
364.98900,22.55922021
364.98950,25.30596988
364.99000,22.55922021
364.99050,17.67610969
364.99100,14.31897121
364.99150,12.79299917
364.99200,10.0462495
364.99250,4.857944568
364.99300,-1.856332402
364.99350,-10.40177582
364.99400,-18.64202483
364.99450,-22.60955213
364.99500,-20.47319127
364.99550,-14.97969193
364.99600,-11.92774786
364.99650,-13.7589143
364.99700,-16.81085838
364.99750,-17.42124719
364.99800,-16.20046956
364.99850,-14.36930312
364.99900,-12.53813667
364.99950,-10.09658141
365.00000,-8.265414964
365.00050,-7.655026148
365.00100,-8.265414964
365.00150,-8.265414964
365.00200,-7.655026148
365.00250,-6.12905411
365.00300,-4.297887663
365.00350,-2.16152681
365.00400,-0.3303603634
365.00450,0.5852228597
365.00500,1.500806083
365.00550,2.416389306
365.00600,2.721583714
365.00650,2.721583714
365.00700,4.247555752
365.00750,7.909888645
365.00800,11.87741594
365.00850,13.40338798
365.00900,12.79299917
365.00950,11.87741594
365.01000,11.57222154
365.01050,10.35144391
365.01100,7.604694237
365.01150,4.857944568
365.01200,3.026778121
365.01250,2.111194898
365.01300,0.8904172674
365.01350,-0.3303603634
365.01400,-1.245943586
365.01450,-1.856332402
365.01500,-3.38230444
365.01550,-7.044637333
365.01600,-11.01216463
365.01650,-13.14852549
365.01700,-12.23294226
365.01750,-11.01216463
365.01800,-12.23294226
365.01850,-14.97969193
365.01900,-15.28488634
365.01950,-12.84333108
365.02000,-10.40177582
365.02050,-11.01216463
365.02100,-12.53813667
365.02150,-12.84333108
365.02200,-11.92774786
365.02250,-10.09658141
365.02300,-6.434248517
365.02350,0.280028452
365.02400,9.435860683
365.02450,17.67610969
365.02500,23.47480344
365.02550,26.22155311
365.02600,25.9163587
365.02650,21.9488314
365.02700,16.45533206
365.02750,12.48780476
365.02800,9.435860683
365.02850,5.773527791
365.02900,2.416389306
365.02950,0.8904172674
365.03000,0.5852228597
365.03050,-3.077110033
365.03100,-11.01216463
365.03150,-17.11605279
365.03200,-14.36930312
365.03250,-4.908276479
365.03300,3.637166937
365.03350,6.689111014
365.03400,6.383916606
365.03450,6.078722198
365.03500,5.163138975
365.03550,2.111194898
365.03600,-1.245943586
365.03650,-2.466721217
365.03700,-1.856332402
365.03750,-0.9407491788
365.03800,-0.9407491788
365.03850,-0.6355547711
365.03900,-2.16152681
365.03950,-5.518665294
365.04000,-8.875803779
365.04050,-8.570609371
365.04100,-8.265414964
365.04150,-12.53813667
365.04200,-19.55760805
365.04250,-21.38877449
365.04300,-15.28488634
365.04350,-8.570609371
365.04400,-7.960220556
365.04450,-10.40177582
365.04500,-7.960220556
365.04550,1.500806083
365.04600,12.48780476
365.04650,19.81247054
365.04700,21.33844258
365.04750,18.89688732
365.04800,15.23455443
365.04850,15.53974884
365.04900,20.72805377
365.04950,25.9163587
365.05000,24.39038666
365.05050,17.06572088
365.05100,9.435860683
365.05150,3.942361344
365.05200,-0.02516595566
365.05250,-3.077110033
365.05300,-2.466721217
365.05350,0.280028452
365.05400,0.5852228597
365.05450,-3.992693256
365.05500,-9.486192594
365.05550,-10.09658141
365.05600,-6.739442925
365.05650,-5.518665294
365.05700,-8.875803779
365.05750,-13.14852549
365.05800,-13.14852549
365.05850,-8.265414964
365.05900,-2.466721217
365.05950,0.280028452
365.06000,-0.02516595566
365.06050,-0.6355547711
365.06100,-0.02516595566
365.06150,1.195611675
365.06200,1.500806083
365.06250,-0.02516595566
365.06300,-0.9407491788
365.06350,0.8904172674
365.06400,6.078722198
365.06450,12.48780476
365.06500,16.76052647
365.06550,17.9813041
365.06600,17.06572088
365.06650,15.53974884
365.06700,13.70858239
365.06750,11.87741594
365.06800,10.0462495
365.06850,9.130666275
365.06900,7.909888645
365.06950,5.163138975
365.07000,0.8904172674
365.07050,-2.466721217
365.07100,-3.992693256
365.07150,-4.603082071
365.07200,-6.12905411
365.07250,-9.180998187
365.07300,-10.40177582
365.07350,-7.655026148
365.07400,-1.551137994
365.07450,3.331972529
365.07500,3.026778121
365.07550,-3.687498848
365.07600,-12.23294226
365.07650,-15.59008075
365.07700,-11.62255345
365.07750,-5.823859702
365.07800,-3.687498848
365.07850,-5.518665294
365.07900,-8.265414964
365.07950,-10.70697023
365.08000,-13.7589143
365.08050,-15.59008075
365.08100,-13.14852549
365.08150,-5.518665294
365.08200,1.806000491
365.08250,5.163138975
365.08300,4.55275016
365.08350,3.026778121
365.08400,3.331972529
365.08450,5.163138975
365.08500,6.689111014
365.08550,6.689111014
365.08600,7.299499829
365.08650,11.87741594
365.08700,20.11766495
365.08750,27.44233074
365.08800,30.18908041
365.08850,28.96830278
365.08900,26.83194192
365.08950,24.08519225
365.09000,17.9813041
365.09050,7.909888645
365.09100,-4.603082071
365.09150,-16.81085838
365.09200,-23.83032976
365.09250,-22.91474653
365.09300,-14.67449753
365.09350,-4.297887663
365.09400,3.331972529
365.09450,8.825471868
365.09500,13.40338798
365.09550,14.92936002
365.09600,10.96183272
365.09650,2.416389306
365.09700,-5.213470887
365.09750,-9.180998187
365.09800,-9.486192594
365.09850,-9.486192594
365.09900,-10.09658141
365.09950,-11.01216463
365.10000,-11.62255345
365.10050,-10.40177582
365.10100,-9.180998187
365.10150,-9.486192594
365.10200,-10.70697023
365.10250,-10.70697023
365.10300,-7.34983174
365.10350,-2.466721217
365.10400,1.195611675
365.10450,3.026778121
365.10500,3.026778121
365.10550,3.026778121
365.10600,4.247555752
365.10650,7.299499829
365.10700,10.96183272
365.10750,11.57222154
365.10800,9.130666275
365.10850,6.383916606
365.10900,5.468333383
365.10950,4.857944568
365.11000,3.026778121
365.11050,0.5852228597
365.11100,-0.3303603634
365.11150,-0.3303603634
365.11200,-1.245943586
365.11250,-4.603082071
365.11300,-8.875803779
365.11350,-12.23294226
365.11400,-12.84333108
365.11450,-13.14852549
365.11500,-17.42124719
365.11550,-23.83032976
365.11600,-24.44071857
365.11650,-14.06410871
365.11700,-1.551137994
365.11750,-0.02516595566
365.11800,-9.486192594
365.11850,-17.7264416
365.11900,-14.97969193
365.11950,-6.12905411
365.12000,-2.16152681
365.12050,-6.12905411
365.12100,-13.7589143
365.12150,-17.7264416
365.12200,-14.67449753
365.12250,-2.466721217
365.12300,14.62416561
365.12350,28.05271955
365.12400,30.79946922
365.12450,25.61116429
365.12500,19.20208173
365.12550,15.84494324
365.12600,14.31897121
365.12650,13.09819358
365.12700,12.79299917
365.12750,12.18261035
365.12800,10.96183272
365.12850,10.0462495
365.12900,10.65663831
365.12950,11.26702713
365.13000,10.35144391
365.13050,9.130666275
365.13100,8.52027746
365.13150,7.604694237
365.13200,3.942361344
365.13250,-1.856332402
365.13300,-6.739442925
365.13350,-8.570609371
365.13400,-9.791387002
365.13450,-13.14852549
365.13500,-18.03163601
365.13550,-20.47319127
365.13600,-17.11605279
365.13650,-8.875803779
365.13700,-1.245943586
365.13750,0.280028452
365.13800,-3.077110033
365.13850,-7.044637333
365.13900,-8.570609371
365.13950,-8.265414964
365.14000,-8.570609371
365.14050,-7.960220556
365.14100,-5.213470887
365.14150,-1.856332402
365.14200,-0.02516595566
365.14250,0.8904172674
365.14300,2.111194898
365.14350,3.637166937
365.14400,3.942361344
365.14450,3.637166937
365.14500,5.773527791
365.14550,10.96183272
365.14600,15.84494324
365.14650,16.45533206
365.14700,12.79299917
365.14750,7.604694237
365.14800,3.026778121
365.14850,-0.3303603634
365.14900,-1.551137994
365.14950,1.195611675
365.15000,9.435860683
365.15050,18.59169291
365.15100,21.9488314
365.15150,17.37091528
365.15200,8.52027746
365.15250,-0.9407491788
365.15300,-10.40177582
365.15350,-18.03163601
365.15400,-20.47319127
365.15450,-15.59008075
365.15500,-7.34983174
365.15550,-2.466721217
365.15600,-3.687498848
365.15650,-7.960220556
365.15700,-12.23294226
365.15750,-15.59008075
365.15800,-17.42124719
365.15850,-17.7264416
365.15900,-16.81085838
365.15950,-15.89527516
365.16000,-14.67449753
365.16050,-11.92774786
365.16100,-7.34983174
365.16150,-3.077110033
365.16200,-0.02516595566
365.16250,2.721583714
365.16300,5.163138975
365.16350,6.078722198
365.16400,3.942361344
365.16450,2.111194898
365.16500,1.806000491
365.16550,0.5852228597
365.16600,-2.466721217
365.16650,-5.213470887
365.16700,-1.245943586
365.16750,9.741055091
365.16800,22.25402581
365.16850,30.18908041
365.16900,32.63063567
365.16950,30.49427481
365.17000,25.30596988
365.17050,17.37091528
365.17100,7.299499829
365.17150,-3.992693256
365.17200,-16.50566397
365.17250,-25.6614962
365.17300,-24.13552416
365.17350,-11.31735904
365.17400,3.026778121
365.17450,8.52027746
365.17500,3.637166937
365.17550,-4.603082071
365.17600,-11.01216463
365.17650,-12.53813667
365.17700,-9.486192594
365.17750,-3.992693256
365.17800,0.5852228597
365.17850,1.195611675
365.17900,-1.245943586
365.17950,-3.687498848
365.18000,-5.518665294
365.18050,-7.34983174
365.18100,-8.265414964
365.18150,-7.655026148
365.18200,-6.434248517
365.18250,-6.12905411
365.18300,-5.823859702
365.18350,-3.077110033
365.18400,0.280028452
365.18450,0.5852228597
365.18500,-1.551137994
365.18550,-1.856332402
365.18600,2.111194898
365.18650,8.825471868
365.18700,14.92936002
365.18750,21.33844258
365.18800,27.74752515
365.18850,32.32544126
365.18900,32.02024685
365.18950,26.83194192
365.19000,18.59169291
365.19050,8.825471868
365.19100,-0.3303603634
365.19150,-8.265414964
365.19200,-14.06410871
365.19250,-16.50566397
365.19300,-14.97969193
365.19350,-10.70697023
365.19400,-7.655026148
365.19450,-8.265414964
365.19500,-11.31735904
365.19550,-13.14852549
365.19600,-11.62255345
365.19650,-8.570609371
365.19700,-5.518665294
365.19750,-3.077110033
365.19800,-1.856332402
365.19850,-2.771915625
365.19900,-5.823859702
365.19950,-8.875803779
365.20000,-10.70697023
365.20050,-9.791387002
365.20100,-6.739442925
365.20150,-3.687498848
365.20200,-2.466721217
365.20250,-2.771915625
365.20300,-1.856332402
365.20350,0.5852228597
365.20400,2.416389306
365.20450,2.721583714
365.20500,2.721583714
365.20550,3.331972529
365.20600,3.942361344
365.20650,3.331972529
365.20700,2.416389306
365.20750,3.331972529
365.20800,5.468333383
365.20850,8.215083052
365.20900,11.87741594
365.20950,16.15013765
365.21000,17.67610969
365.21050,14.31897121
365.21100,8.215083052
365.21150,3.026778121
365.21200,0.280028452
365.21250,-0.9407491788
365.21300,-2.466721217
365.21350,-3.38230444
365.21400,-3.687498848
365.21450,-4.603082071
365.21500,-6.739442925
365.21550,-9.180998187
365.21600,-11.01216463
365.21650,-12.84333108
365.21700,-14.36930312
365.21750,-14.67449753
365.21800,-13.7589143
365.21850,-13.14852549
365.21900,-13.14852549
365.21950,-13.7589143
365.22000,-12.84333108
365.22050,-10.70697023
365.22100,-8.265414964
365.22150,-5.518665294
365.22200,-2.16152681
365.22250,1.195611675
365.22300,4.857944568
365.22350,7.909888645
365.22400,10.35144391
365.22450,11.57222154
365.22500,11.26702713
365.22550,10.96183272
365.22600,12.79299917
365.22650,15.53974884
365.22700,15.84494324
365.22750,12.79299917
365.22800,10.0462495
365.22850,10.96183272
365.22900,13.40338798
365.22950,13.70858239
365.23000,11.26702713
365.23050,9.741055091
365.23100,9.130666275
365.23150,7.299499829
365.23200,3.942361344
365.23250,1.806000491
365.23300,2.416389306
365.23350,3.026778121
365.23400,0.5852228597
365.23450,-3.38230444
365.23500,-6.434248517
365.23550,-7.655026148
365.23600,-8.875803779
365.23650,-10.40177582
365.23700,-11.31735904
365.23750,-11.62255345
365.23800,-11.92774786
365.23850,-12.23294226
365.23900,-12.23294226
365.23950,-12.23294226
365.24000,-12.53813667
365.24050,-12.53813667
365.24100,-10.40177582
365.24150,-7.044637333
365.24200,-4.297887663
365.24250,-2.466721217
365.24300,-0.9407491788
365.24350,1.500806083
365.24400,4.55275016
365.24450,6.994305421
365.24500,7.909888645
365.24550,6.689111014
365.24600,5.163138975
365.24650,4.857944568
365.24700,4.55275016
365.24750,3.026778121
365.24800,0.8904172674
365.24850,2.416389306
365.24900,6.994305421
365.24950,10.65663831
365.25000,9.130666275
365.25050,4.247555752
365.25100,0.280028452
365.25150,0.280028452
365.25200,4.857944568
365.25250,11.57222154
365.25300,15.23455443
365.25350,11.87741594
365.25400,1.500806083
365.25450,-9.180998187
365.25500,-16.20046956
365.25550,-20.47319127
365.25600,-25.6614962
365.25650,-32.37577317
365.25700,-37.5640781
365.25750,-38.17446692
365.25800,-32.68096758
365.25850,-20.16799686
365.25900,-3.077110033
365.25950,13.40338798
365.26000,24.69558107
365.26050,28.96830278
365.26100,28.05271955
365.26150,25.00077548
365.26200,21.33844258
365.26250,19.81247054
365.26300,22.55922021
365.26350,28.35791396
365.26400,32.93583008
365.26450,32.93583008
365.26500,27.74752515
365.26550,19.20208173
365.26600,9.741055091
365.26650,1.500806083
365.26700,-2.466721217
365.26750,-2.466721217
365.26800,0.280028452
365.26850,5.163138975
365.26900,10.65663831
365.26950,16.45533206
365.27000,19.81247054
365.27050,18.59169291
365.27100,12.48780476
365.27150,3.942361344
365.27200,-3.38230444
365.27250,-9.180998187
365.27300,-13.14852549
365.27350,-13.7589143
365.27400,-8.570609371
365.27450,1.500806083
365.27500,10.0462495
365.27550,9.741055091
365.27600,0.280028452
365.27650,-10.40177582
365.27700,-14.97969193
365.27750,-13.7589143
365.27800,-12.84333108
365.27850,-14.97969193
365.27900,-16.81085838
365.27950,-14.97969193
365.28000,-11.92774786
365.28050,-12.53813667
365.28100,-16.50566397
365.28150,-18.03163601
365.28200,-13.45371989
365.28250,-4.603082071
365.28300,2.721583714
365.28350,5.163138975
365.28400,2.416389306
365.28450,-3.077110033
365.28500,-9.180998187
365.28550,-12.84333108
365.28600,-13.7589143
365.28650,-12.53813667
365.28700,-9.791387002
365.28750,-4.908276479
365.28800,1.500806083
365.28850,8.215083052
365.28900,11.26702713
365.28950,10.65663831
365.29000,8.52027746
365.29050,7.299499829
365.29100,6.078722198
365.29150,3.026778121
365.29200,-0.9407491788
365.29250,-4.297887663
365.29300,-4.297887663
365.29350,-1.551137994
365.29400,1.195611675
365.29450,1.195611675
365.29500,-1.856332402
365.29550,-6.739442925
365.29600,-10.40177582
365.29650,-10.70697023
365.29700,-8.265414964
365.29750,-6.739442925
365.29800,-7.960220556
365.29850,-10.40177582
365.29900,-11.01216463
365.29950,-9.180998187
365.30000,-6.739442925
365.30050,-5.213470887
365.30100,-4.603082071
365.30150,-2.466721217
365.30200,-0.02516595566
365.30250,0.8904172674
365.30300,0.8904172674
365.30350,0.8904172674
365.30400,2.416389306
365.30450,4.55275016
365.30500,5.163138975
365.30550,5.468333383
365.30600,6.994305421
365.30650,8.825471868
365.30700,8.825471868
365.30750,6.689111014
365.30800,5.163138975
365.30850,6.689111014
365.30900,8.825471868
365.30950,8.52027746
365.31000,4.247555752
365.31050,-0.6355547711
365.31100,-3.992693256
365.31150,-4.603082071
365.31200,-3.38230444
365.31250,-1.245943586
365.31300,0.8904172674
365.31350,2.111194898
365.31400,-0.02516595566
365.31450,-5.823859702
365.31500,-12.23294226
365.31550,-14.36930312
365.31600,-11.62255345
365.31650,-7.34983174
365.31700,-4.297887663
365.31750,-1.856332402
365.31800,1.500806083
365.31850,5.468333383
365.31900,7.909888645
365.31950,7.299499829
365.32000,5.163138975
365.32050,2.111194898
365.32100,-0.3303603634
365.32150,-2.16152681
365.32200,-1.245943586
365.32250,1.195611675
365.32300,3.942361344
365.32350,5.468333383
365.32400,6.994305421
365.32450,8.52027746
365.32500,9.741055091
365.32550,9.741055091
365.32600,8.825471868
365.32650,8.215083052
365.32700,8.52027746
365.32750,9.435860683
365.32800,9.741055091
365.32850,8.825471868
365.32900,6.689111014
365.32950,3.637166937
365.33000,-0.02516595566
365.33050,-3.38230444
365.33100,-4.603082071
365.33150,-2.771915625
365.33200,-0.02516595566
365.33250,1.806000491
365.33300,3.331972529
365.33350,4.247555752
365.33400,3.942361344
365.33450,0.5852228597
365.33500,-3.687498848
365.33550,-7.044637333
365.33600,-9.180998187
365.33650,-10.70697023
365.33700,-11.31735904
365.33750,-10.09658141
365.33800,-8.875803779
365.33850,-8.875803779
365.33900,-9.486192594
365.33950,-9.486192594
365.34000,-8.570609371
365.34050,-8.265414964
365.34100,-7.34983174
365.34150,-3.077110033
365.34200,2.721583714
365.34250,5.773527791
365.34300,4.857944568
365.34350,4.247555752
365.34400,7.299499829
365.34450,11.87741594
365.34500,14.31897121
365.34550,12.18261035
365.34600,6.078722198
365.34650,-2.771915625
365.34700,-12.53813667
365.34750,-16.81085838
365.34800,-12.23294226
365.34850,-0.6355547711
365.34900,11.87741594
365.34950,20.11766495
365.35000,21.64363699
365.35050,17.06572088
365.35100,10.35144391
365.35150,4.247555752
365.35200,-1.551137994
365.35250,-9.486192594
365.35300,-16.81085838
365.35350,-17.42124719
365.35400,-9.180998187
365.35450,1.806000491
365.35500,8.825471868
365.35550,9.130666275
365.35600,5.163138975
365.35650,0.5852228597
365.35700,-3.992693256
365.35750,-8.265414964
365.35800,-12.84333108
365.35850,-16.81085838
365.35900,-18.64202483
365.35950,-16.50566397
365.36000,-13.45371989
365.36050,-12.53813667
365.36100,-13.14852549
365.36150,-10.40177582
365.36200,-3.077110033
365.36250,2.721583714
365.36300,3.637166937
365.36350,2.111194898
365.36400,3.026778121
365.36450,5.468333383
365.36500,6.383916606
365.36550,5.163138975
365.36600,4.55275016
365.36650,4.55275016
365.36700,3.942361344
365.36750,3.026778121
365.36800,2.721583714
365.36850,2.416389306
365.36900,1.806000491
365.36950,2.111194898
365.37000,4.857944568
365.37050,6.689111014
365.37100,3.331972529
365.37150,-2.771915625
365.37200,-5.518665294
365.37250,-1.245943586
365.37300,6.994305421
365.37350,13.70858239
365.37400,14.92936002
365.37450,11.26702713
365.37500,5.468333383
365.37550,1.195611675
365.37600,-0.02516595566
365.37650,-0.3303603634
365.37700,-0.9407491788
365.37750,-1.856332402
365.37800,-1.551137994
365.37850,-0.9407491788
365.37900,-1.551137994
365.37950,-3.992693256
365.38000,-7.34983174
365.38050,-10.09658141
365.38100,-11.31735904
365.38150,-10.40177582
365.38200,-8.875803779
365.38250,-7.960220556
365.38300,-8.570609371
365.38350,-10.09658141
365.38400,-9.791387002
365.38450,-6.739442925
365.38500,-2.771915625
365.38550,-0.02516595566
365.38600,-0.02516595566
365.38650,-0.02516595566
365.38700,1.195611675
365.38750,2.721583714
365.38800,2.111194898
365.38850,0.280028452
365.38900,1.195611675
365.38950,5.773527791
365.39000,9.435860683
365.39050,7.909888645
365.39100,2.416389306
365.39150,-2.771915625
365.39200,-8.265414964
365.39250,-13.7589143
365.39300,-15.59008075
365.39350,-8.570609371
365.39400,4.247555752
365.39450,14.62416561
365.39500,17.06572088
365.39550,14.0137768
365.39600,10.65663831
365.39650,7.604694237
365.39700,3.331972529
365.39750,-1.551137994
365.39800,-5.518665294
365.39850,-7.655026148
365.39900,-7.960220556
365.39950,-7.044637333
365.40000,-7.34983174
365.40050,-9.486192594
365.40100,-11.92774786
365.40150,-12.84333108
365.40200,-11.92774786
365.40250,-10.40177582
365.40300,-6.12905411
365.40350,1.806000491
365.40400,9.741055091
365.40450,10.65663831
365.40500,6.994305421
365.40550,7.909888645
365.40600,18.59169291
365.40650,31.71505245
365.40700,35.68257975
365.40750,29.883886
365.40800,22.55922021
365.40850,18.89688732
365.40900,17.67610969
365.40950,14.62416561
365.41000,10.65663831
365.41050,8.825471868
365.41100,8.52027746
365.41150,7.299499829
365.41200,3.331972529
365.41250,-1.245943586
365.41300,-6.12905411
365.41350,-10.40177582
365.41400,-14.97969193
365.41450,-18.33683042
365.41500,-19.86280246
365.41550,-18.94721923
365.41600,-15.89527516
365.41650,-11.92774786
365.41700,-7.044637333
365.41750,-2.466721217
365.41800,-1.551137994
365.41850,-4.908276479
365.41900,-9.180998187
365.41950,-10.40177582
365.42000,-7.34983174
365.42050,-4.297887663
365.42100,-3.687498848
365.42150,-3.992693256
365.42200,-1.245943586
365.42250,4.55275016
365.42300,10.35144391
365.42350,12.79299917
365.42400,11.87741594
365.42450,9.435860683
365.42500,7.299499829
365.42550,6.383916606
365.42600,6.078722198
365.42650,6.994305421
365.42700,8.215083052
365.42750,8.825471868
365.42800,7.604694237
365.42850,4.857944568
365.42900,2.721583714
365.42950,3.942361344
365.43000,6.994305421
365.43050,7.299499829
365.43100,1.500806083
365.43150,-8.265414964
365.43200,-15.89527516
365.43250,-16.81085838
365.43300,-12.53813667
365.43350,-8.570609371
365.43400,-8.875803779
365.43450,-12.23294226
365.43500,-13.45371989
365.43550,-8.265414964
365.43600,0.8904172674
365.43650,6.994305421
365.43700,3.637166937
365.43750,-6.12905411
365.43800,-15.89527516
365.43850,-19.25241364
365.43900,-15.89527516
365.43950,-8.570609371
365.44000,0.8904172674
365.44050,11.26702713
365.44100,19.20208173
365.44150,21.9488314
365.44200,20.42285936
365.44250,18.89688732
365.44300,19.81247054
365.44350,20.42285936
365.44400,17.37091528
365.44450,11.87741594
365.44500,7.604694237
365.44550,7.909888645
365.44600,10.65663831
365.44650,12.18261035
365.44700,13.09819358
365.44750,15.53974884
365.44800,19.81247054
365.44850,22.86441462
365.44900,23.16960903
365.44950,21.64363699
365.45000,21.03324818
365.45050,19.20208173
365.45100,14.31897121
365.45150,5.468333383
365.45200,-5.518665294
365.45250,-18.03163601
365.45300,-29.01863469
365.45350,-33.2913564
365.45400,-29.6290235
365.45450,-21.99916331
365.45500,-16.20046956
365.45550,-13.14852549
365.45600,-10.09658141
365.45650,-6.12905411
365.45700,-4.297887663
365.45750,-6.739442925
365.45800,-11.01216463
365.45850,-14.67449753
365.45900,-17.42124719
365.45950,-19.55760805
365.46000,-21.38877449
365.46050,-22.60955213
365.46100,-23.52513535
365.46150,-23.21994094
365.46200,-20.47319127
365.46250,-14.67449753
365.46300,-7.34983174
365.46350,0.5852228597
365.46400,7.604694237
365.46450,11.87741594
365.46500,12.18261035
365.46550,9.741055091
365.46600,8.52027746
365.46650,9.130666275
365.46700,9.435860683
365.46750,6.994305421
365.46800,3.637166937
365.46850,2.111194898
365.46900,3.637166937
365.46950,5.773527791
365.47000,5.773527791
365.47050,3.637166937
365.47100,1.195611675
365.47150,-0.02516595566
365.47200,-0.9407491788
365.47250,-1.856332402
365.47300,-3.687498848
365.47350,-5.823859702
365.47400,-7.044637333
365.47450,-7.960220556
365.47500,-9.486192594
365.47550,-11.62255345
365.47600,-13.14852549
365.47650,-14.06410871
365.47700,-15.28488634
365.47750,-17.42124719
365.47800,-18.33683042
365.47850,-16.20046956
365.47900,-11.92774786
365.47950,-9.486192594
365.48000,-10.40177582
365.48050,-12.53813667
365.48100,-11.92774786
365.48150,-7.655026148
365.48200,-2.466721217
365.48250,-0.02516595566
365.48300,-0.9407491788
365.48350,-2.16152681
365.48400,-0.3303603634
365.48450,4.55275016
365.48500,8.215083052
365.48550,7.604694237
365.48600,5.773527791
365.48650,6.994305421
365.48700,9.435860683
365.48750,7.299499829
365.48800,0.5852228597
365.48850,-3.992693256
365.48900,-1.551137994
365.48950,3.637166937
365.49000,7.604694237
365.49050,9.130666275
365.49100,11.87741594
365.49150,13.70858239
365.49200,11.57222154
365.49250,5.773527791
365.49300,0.280028452
365.49350,-2.771915625
365.49400,-5.823859702
365.49450,-9.791387002
365.49500,-12.53813667
365.49550,-12.23294226
365.49600,-8.570609371
365.49650,-3.077110033
365.49700,1.806000491
365.49750,3.942361344
365.49800,1.195611675
365.49850,-4.297887663
365.49900,-7.34983174
365.49950,-5.213470887
365.50000,-1.245943586
365.50050,0.280028452
365.50100,0.8904172674
365.50150,3.331972529
365.50200,7.604694237
365.50250,11.26702713
365.50300,10.65663831
365.50350,7.299499829
365.50400,6.078722198
365.50450,9.741055091
365.50500,14.62416561
365.50550,15.53974884
365.50600,10.96183272
365.50650,6.078722198
365.50700,4.55275016
365.50750,3.942361344
365.50800,0.5852228597
365.50850,-3.687498848
365.50900,-3.077110033
365.50950,4.857944568
365.51000,14.31897121
365.51050,16.76052647
365.51100,11.26702713
365.51150,3.331972529
365.51200,0.280028452
365.51250,2.416389306
365.51300,5.773527791
365.51350,6.383916606
365.51400,3.637166937
365.51450,0.5852228597
365.51500,1.195611675
365.51550,5.163138975
365.51600,8.52027746
365.51650,8.825471868
365.51700,5.163138975
365.51750,0.5852228597
365.51800,-2.16152681
365.51850,-3.687498848
365.51900,-4.297887663
365.51950,-5.213470887
365.52000,-5.823859702
365.52050,-5.823859702
365.52100,-4.908276479
365.52150,-3.687498848
365.52200,-3.077110033
365.52250,-2.466721217
365.52300,-0.3303603634
365.52350,2.721583714
365.52400,6.383916606
365.52450,8.52027746
365.52500,8.52027746
365.52550,8.52027746
365.52600,8.825471868
365.52650,9.741055091
365.52700,9.130666275
365.52750,7.909888645
365.52800,7.299499829
365.52850,7.909888645
365.52900,8.215083052
365.52950,7.604694237
365.53000,6.994305421
365.53050,6.689111014
365.53100,5.163138975
365.53150,2.416389306
365.53200,-1.245943586
365.53250,-3.687498848
365.53300,-4.603082071
365.53350,-4.908276479
365.53400,-5.518665294
365.53450,-6.434248517
365.53500,-7.044637333
365.53550,-7.044637333
365.53600,-7.044637333
365.53650,-8.265414964
365.53700,-10.09658141
365.53750,-11.92774786
365.53800,-12.23294226
365.53850,-11.92774786
365.53900,-11.62255345
365.53950,-12.53813667
365.54000,-13.45371989
365.54050,-13.14852549
365.54100,-11.92774786
365.54150,-10.09658141
365.54200,-7.34983174
365.54250,-3.992693256
365.54300,-0.3303603634
365.54350,2.416389306
365.54400,3.331972529
365.54450,3.026778121
365.54500,2.416389306
365.54550,3.026778121
365.54600,5.163138975
365.54650,7.299499829
365.54700,7.909888645
365.54750,7.299499829
365.54800,6.994305421
365.54850,7.604694237
365.54900,8.825471868
365.54950,8.825471868
365.55000,7.604694237
365.55050,5.163138975
365.55100,1.500806083
365.55150,-1.856332402
365.55200,-3.687498848
365.55250,-5.823859702
365.55300,-10.09658141
365.55350,-16.50566397
365.55400,-20.77838568
365.55450,-20.16799686
365.55500,-16.81085838
365.55550,-14.36930312
365.55600,-13.7589143
365.55650,-14.36930312
365.55700,-13.45371989
365.55750,-10.40177582
365.55800,-6.12905411
365.55850,-4.908276479
365.55900,-8.570609371
365.55950,-14.67449753
365.56000,-17.7264416
365.56050,-15.59008075
365.56100,-10.70697023
365.56150,-4.908276479
365.56200,2.111194898
365.56250,11.57222154
365.56300,19.20208173
365.56350,21.64363699
365.56400,19.81247054
365.56450,18.89688732
365.56500,20.11766495
365.56550,21.64363699
365.56600,21.33844258
365.56650,20.72805377
365.56700,22.25402581
365.56750,24.08519225
365.56800,23.47480344
365.56850,19.81247054
365.56900,15.84494324
365.56950,14.0137768
365.57000,13.40338798
365.57050,11.26702713
365.57100,7.909888645
365.57150,4.857944568
365.57200,2.111194898
365.57250,-0.02516595566
365.57300,-0.6355547711
365.57350,-0.02516595566
365.57400,-0.3303603634
365.57450,-3.992693256
365.57500,-8.265414964
365.57550,-9.791387002
365.57600,-10.70697023
365.57650,-14.36930312
365.57700,-18.03163601
365.57750,-15.59008075
365.57800,-7.655026148
365.57850,-2.771915625
365.57900,-5.518665294
365.57950,-11.01216463
365.58000,-11.92774786
365.58050,-9.486192594
365.58100,-8.265414964
365.58150,-8.265414964
365.58200,-6.12905411
365.58250,-1.245943586
365.58300,3.026778121
365.58350,5.163138975
365.58400,5.163138975
365.58450,3.942361344
365.58500,1.195611675
365.58550,-0.02516595566
365.58600,1.500806083
365.58650,5.773527791
365.58700,8.52027746
365.58750,7.299499829
365.58800,4.55275016
365.58850,4.55275016
365.58900,7.604694237
365.58950,9.741055091
365.59000,9.130666275
365.59050,7.299499829
365.59100,6.078722198
365.59150,5.468333383
365.59200,3.637166937
365.59250,1.195611675
365.59300,-0.02516595566
365.59350,0.280028452
365.59400,-0.6355547711
365.59450,-3.687498848
365.59500,-6.739442925
365.59550,-7.960220556
365.59600,-9.486192594
365.59650,-13.14852549
365.59700,-16.50566397
365.59750,-16.50566397
365.59800,-12.23294226
365.59850,-7.655026148
365.59900,-5.518665294
365.59950,-6.739442925
365.60000,-10.09658141
365.60050,-13.14852549
365.60100,-12.23294226
365.60150,-7.044637333
365.60200,-0.3303603634
365.60250,2.721583714
365.60300,1.806000491
365.60350,0.5852228597
365.60400,1.195611675
365.60450,3.637166937
365.60500,6.078722198
365.60550,7.909888645
365.60600,8.825471868
365.60650,9.130666275
365.60700,8.52027746
365.60750,7.299499829
365.60800,6.383916606
365.60850,5.773527791
365.60900,5.773527791
365.60950,6.383916606
365.61000,7.604694237
365.61050,8.52027746
365.61100,6.994305421
365.61150,3.637166937
365.61200,0.280028452
365.61250,-0.3303603634
365.61300,-0.6355547711
365.61350,-3.077110033
365.61400,-8.265414964
365.61450,-15.28488634
365.61500,-21.38877449
365.61550,-23.83032976
365.61600,-21.6939689
365.61650,-17.11605279
365.61700,-14.67449753
365.61750,-15.89527516
365.61800,-17.7264416
365.61850,-17.11605279
365.61900,-14.97969193
365.61950,-13.45371989
365.62000,-10.40177582
