time,Brachiarod, EXt Carp,EXT DIG,Flex CarpU,Flex Carp R
362.96,13.40338798,1.903918936,-7.877554205,-2.141089003,-0.8542698039
362.9605,15.84494324,0.3779468977,-8.48794302,-2.446283411,-2.075047435
362.961,14.31897121,-0.2324419177,-6.656776574,-0.3099225569,-0.8542698039
362.9615,7.909888645,-0.2324419177,-3.910026904,1.521243889,1.892479865
362.962,-0.3303603634,1.293530121,-2.078860458,3.352410335,3.723646312
362.9625,-7.655026148,3.124696567,-2.078860458,4.878382374,3.113257496
362.963,-12.23294226,4.345474198,-2.689249274,6.404354412,3.113257496
362.9635,-13.14852549,5.261057421,-2.689249274,5.488771189,5.24961835
362.964,-10.09658141,4.345474198,-2.384054866,1.521243889,7.080784796
362.9645,-5.213470887,2.819502159,-1.468471643,-2.751477819,6.470395981
362.965,-2.16152681,2.209113344,0.9730836188,-5.19303308,5.554812758
362.9655,-3.992693256,4.650668606,4.940610919,-5.498227488,7.385979204
362.966,-6.739442925,7.092223867,5.856194142,-5.19303308,9.21714565
362.9665,-2.771915625,6.787029459,2.19386125,-4.277449857,6.165201573
362.967,9.130666275,3.735085382,-2.689249274,-1.835894595,0.06131341924
362.9675,22.25402581,0.9883357131,-4.825610128,1.216049482,-3.295825065
362.968,26.22155311,0.3779468977,-3.910026904,2.436827112,-0.8542698039
362.9685,21.03324818,-0.2324419177,-2.689249274,0.9108550739,2.808063089
362.969,14.0137768,-0.5376363254,-2.994443681,-0.6151169646,3.723646312
362.9695,9.435860683,-0.2324419177,-2.689249274,-0.3099225569,2.502868681
362.97,5.468333383,1.903918936,-0.8580828275,0.3004662585,2.808063089
362.9705,-0.6355547711,3.429890975,0.9730836188,-0.6151169646,3.418451904
362.971,-6.434248517,3.735085382,1.888666842,-3.056672226,2.197674273
362.9715,-7.34983174,2.819502159,0.6678892111,-3.667061042,0.06131341924
362.972,-3.687498848,1.903918936,0.05750039565,-1.530700188,-1.159464212
362.9725,-1.245943586,0.6831413054,0.05750039565,-0.004728149245,-0.8542698039
362.973,-3.992693256,-0.2324419177,1.583472434,-0.004728149245,0.06131341924
362.9735,-9.791387002,0.3779468977,2.804250065,-0.9203113723,0.3665078269
362.974,-13.7589143,1.903918936,2.19386125,-0.9203113723,1.587285458
362.9745,-13.14852549,1.598724528,0.05750039565,-0.9203113723,2.197674273
362.975,-9.791387002,0.07275248999,-1.468471643,-1.22550578,0.3665078269
362.9755,-8.265414964,-0.5376363254,-1.468471643,-1.835894595,-2.380241842
362.976,-10.40177582,-0.2324419177,-0.8580828275,-2.141089003,-2.990630658
362.9765,-13.7589143,0.3779468977,-0.8580828275,-3.056672226,0.06131341924
362.977,-16.50566397,0.07275248999,-0.8580828275,-4.277449857,3.723646312
362.9775,-18.64202483,0.07275248999,0.6678892111,-4.887838672,5.24961835
362.978,-21.99916331,1.293530121,4.025027696,-4.582644265,4.028840719
362.9785,-25.6614962,2.819502159,6.466582957,-4.277449857,4.334035127
362.979,-27.18746824,3.735085382,6.771777365,-4.582644265,6.470395981
362.9795,-25.35630179,4.345474198,5.856194142,-5.19303308,7.080784796
362.98,-19.55760805,4.955863013,4.330222103,-4.582644265,1.892479865
362.9805,-10.09658141,4.955863013,2.19386125,-2.751477819,-7.263352366
362.981,1.500806083,4.345474198,-0.247694012,-0.004728149245,-14.58801815
362.9815,12.18261035,3.429890975,-1.468471643,3.352410335,-15.80879578
362.982,17.06572088,2.819502159,-1.163277235,6.70954882,-12.14646289
362.9825,16.45533206,2.209113344,-0.247694012,7.014743228,-8.789324404
362.983,12.18261035,1.598724528,0.05750039565,4.878382374,-7.263352366
362.9835,7.299499829,1.293530121,1.278278026,2.436827112,-5.432185919
362.984,2.721583714,1.598724528,4.025027696,0.6056606662,-2.380241842
362.9845,1.806000491,2.209113344,6.771777365,-0.9203113723,0.9768966423
362.985,6.078722198,2.819502159,7.38216618,-3.361866634,2.808063089
362.9855,13.40338798,3.429890975,5.856194142,-4.277449857,3.418451904
362.986,18.28649851,3.735085382,4.330222103,-2.141089003,4.028840719
362.9865,17.9813041,3.124696567,4.025027696,0.3004662585,4.334035127
362.987,16.45533206,2.209113344,3.41463888,0.6056606662,3.723646312
362.9875,16.76052647,1.598724528,0.9730836188,-0.3099225569,1.892479865
362.988,17.37091528,1.293530121,-1.773666051,0.9108550739,-0.5490753962
362.9885,16.45533206,0.9883357131,-2.994443681,4.267993559,-3.295825065
362.989,13.40338798,0.07275248999,-1.163277235,5.793965597,-4.821797104
362.9895,10.96183272,-0.2324419177,0.6678892111,3.352410335,-3.906213881
362.99,10.0462495,-0.8428307331,0.3626948034,0.6056606662,-2.380241842
362.9905,9.435860683,-1.148025141,-1.773666051,0.9108550739,-3.906213881
362.991,8.215083052,-2.063608364,-3.604832497,3.047215928,-11.23087967
362.9915,6.994305421,-3.284385995,-2.994443681,3.962799151,-19.16593427
362.992,5.468333383,-4.199969218,-1.468471643,3.657604743,-20.99710071
362.9925,4.857944568,-4.505163626,-2.384054866,4.573187966,-16.4191846
362.993,7.604694237,-5.115552441,-5.435998943,6.404354412,-9.704907627
362.9935,14.92936002,-6.031135664,-7.267165389,6.404354412,-4.516602696
362.994,21.64363699,-7.557107703,-7.572359797,3.962799151,0.3665078269
362.9945,20.42285936,-8.472690926,-6.961970981,2.436827112,6.775590389
362.995,8.825471868,-7.86230211,-6.351582166,4.267993559,12.87947854
362.9955,-5.823859702,-5.725941256,-5.130804535,5.793965597,14.71064499
362.996,-15.89527516,-4.199969218,-2.689249274,3.962799151,11.96389532
362.9965,-17.42124719,-3.589580402,-0.8580828275,0.3004662585,6.470395981
362.997,-14.67449753,-2.979191587,-0.8580828275,-0.3099225569,0.9768966423
362.9975,-12.53813667,-1.453219549,-1.773666051,1.216049482,-2.380241842
362.998,-11.62255345,0.07275248999,-2.078860458,2.436827112,-2.990630658
362.9985,-11.62255345,-0.2324419177,-1.468471643,1.216049482,-2.075047435
362.999,-11.62255345,-1.453219549,-1.163277235,-0.004728149245,-1.159464212
362.9995,-11.01216463,-2.063608364,-1.163277235,-0.004728149245,-0.8542698039
363.0,-9.486192594,-0.8428307331,-0.247694012,-0.004728149245,-0.2438809885
363.0005,-7.044637333,-0.2324419177,0.05750039565,-0.9203113723,1.28209105
363.001,-4.603082071,-0.5376363254,0.05750039565,-1.530700188,2.502868681
363.0015,-3.38230444,-1.453219549,0.05750039565,-1.22550578,2.197674273
363.002,-3.077110033,-1.148025141,0.3626948034,-0.9203113723,0.6717022346
363.0025,-2.466721217,-0.5376363254,0.9730836188,-1.530700188,0.06131341924
363.003,-0.9407491788,-0.8428307331,0.6678892111,-2.141089003,0.06131341924
363.0035,0.8904172674,-1.758413956,0.05750039565,-1.835894595,-0.5490753962
363.004,2.416389306,-1.453219549,0.3626948034,-1.835894595,-1.159464212
363.0045,3.026778121,-1.148025141,1.583472434,-2.751477819,-0.8542698039
363.005,3.331972529,-1.453219549,1.888666842,-4.277449857,0.06131341924
363.0055,3.942361344,-2.368802772,1.583472434,-4.277449857,0.6717022346
363.006,4.857944568,-1.453219549,1.583472434,-3.056672226,0.3665078269
363.0065,4.857944568,0.3779468977,2.19386125,-2.751477819,-0.2438809885
363.007,3.942361344,0.9883357131,2.19386125,-3.361866634,-0.5490753962
363.0075,3.331972529,-0.2324419177,0.9730836188,-3.056672226,-0.5490753962
363.008,3.942361344,-1.758413956,0.05750039565,-1.835894595,-0.2438809885
363.0085,4.247555752,-2.368802772,0.05750039565,-1.835894595,0.06131341924
363.009,4.247555752,-2.368802772,0.05750039565,-3.361866634,-0.2438809885
363.0095,3.637166937,-2.979191587,0.05750039565,-4.277449857,-0.2438809885
363.01,2.111194898,-3.589580402,0.05750039565,-3.667061042,0.06131341924
363.0105,0.280028452,-3.589580402,0.3626948034,-3.056672226,1.28209105
363.011,-0.9407491788,-4.199969218,0.05750039565,-3.667061042,1.587285458
363.0115,-1.551137994,-5.115552441,0.05750039565,-5.19303308,0.3665078269
363.012,-2.466721217,-6.031135664,1.888666842,-5.803421896,0.06131341924
363.0125,-5.213470887,-6.336330072,4.025027696,-6.108616303,1.587285458
363.013,-8.570609371,-5.725941256,3.41463888,-6.108616303,4.028840719
363.0135,-9.180998187,-4.810358033,0.05750039565,-4.887838672,3.723646312
363.014,-6.434248517,-3.284385995,-2.078860458,-2.446283411,0.3665078269
363.0145,-4.603082071,-2.673997179,-1.163277235,-0.9203113723,-2.075047435
363.015,-6.434248517,-2.979191587,0.05750039565,-0.9203113723,-1.464658619
363.0155,-9.486192594,-4.199969218,0.05750039565,-2.141089003,0.6717022346
363.016,-10.70697023,-4.810358033,-0.5528884197,-2.446283411,2.197674273
363.0165,-10.09658141,-4.505163626,0.05750039565,-2.446283411,2.808063089
363.017,-10.40177582,-3.89477481,1.278278026,-2.751477819,3.113257496
363.0175,-12.23294226,-3.589580402,0.6678892111,-2.446283411,3.723646312
363.018,-14.06410871,-2.979191587,0.05750039565,-1.835894595,4.028840719
363.0185,-14.36930312,-2.063608364,1.278278026,-1.835894595,3.723646312
363.019,-14.67449753,-1.453219549,3.719833288,-2.751477819,3.418451904
363.0195,-15.28488634,-1.758413956,3.719833288,-3.361866634,4.028840719
363.02,-14.97969193,-1.453219549,1.888666842,-3.056672226,3.418451904
363.0205,-12.53813667,-1.148025141,0.9730836188,-2.751477819,0.3665078269
363.021,-8.570609371,-1.148025141,0.6678892111,-3.667061042,-3.295825065
363.0215,-3.992693256,-2.673997179,-1.163277235,-3.972255449,-4.821797104
363.022,-0.02516595566,-3.89477481,-3.910026904,-1.835894595,-2.380241842
363.0225,2.416389306,-4.199969218,-4.825610128,0.3004662585,0.6717022346
363.023,3.026778121,-3.589580402,-2.994443681,1.216049482,3.418451904
363.0235,1.195611675,-3.284385995,-1.163277235,0.9108550739,5.554812758
363.024,-2.16152681,-2.979191587,0.3626948034,-0.004728149245,8.606756835
363.0245,-3.992693256,-2.063608364,2.19386125,-0.6151169646,10.74311769
363.025,-0.02516595566,-0.8428307331,2.804250065,-0.6151169646,7.385979204
363.0255,10.65663831,-0.2324419177,0.05750039565,1.521243889,-1.769853027
363.026,21.33844258,-0.2324419177,-3.910026904,6.099160005,-10.92568526
363.0265,24.39038666,-1.758413956,-3.604832497,8.845909674,-13.36724052
363.027,19.20208173,-3.284385995,0.3626948034,7.319937636,-8.484129996
363.0275,12.48780476,-3.589580402,2.804250065,4.573187966,-2.380241842
363.028,9.130666275,-2.368802772,0.3626948034,4.267993559,0.06131341924
363.0285,8.215083052,-0.5376363254,-1.773666051,6.404354412,-0.5490753962
363.029,5.468333383,0.6831413054,-0.5528884197,7.319937636,-1.464658619
363.0295,1.500806083,1.598724528,0.9730836188,5.793965597,-0.8542698039
363.03,0.280028452,2.209113344,0.05750039565,3.657604743,0.9768966423
363.0305,0.280028452,2.209113344,-1.163277235,1.826438297,3.723646312
363.031,-0.6355547711,1.293530121,0.05750039565,-0.9203113723,5.554812758
363.0315,-3.992693256,0.07275248999,2.19386125,-4.887838672,6.165201573
363.032,-4.908276479,-0.2324419177,1.888666842,-6.108616303,4.334035127
363.0325,-1.551137994,0.07275248999,-0.5528884197,-1.835894595,-0.8542698039
363.033,0.8904172674,1.598724528,-1.773666051,4.573187966,-7.873741181
363.0335,-1.856332402,1.903918936,-0.8580828275,7.319937636,-10.31529644
363.034,-9.791387002,0.07275248999,0.05750039565,1.521243889,-5.432185919
363.0345,-15.89527516,-1.148025141,-0.247694012,-8.855365973,2.808063089
363.035,-14.97969193,-1.758413956,-1.468471643,-15.87483735,5.554812758
363.0355,-8.875803779,-1.148025141,-2.078860458,-13.43328209,0.6717022346
363.036,-4.908276479,-0.8428307331,-2.994443681,-5.498227488,-3.906213881
363.0365,-7.655026148,-1.453219549,-2.994443681,0.9108550739,-1.769853027
363.037,-13.7589143,-1.453219549,-1.468471643,2.436827112,3.723646312
363.0375,-17.7264416,-0.2324419177,0.3626948034,1.216049482,5.24961835
363.038,-19.86280246,1.293530121,1.888666842,0.6056606662,3.418451904
363.0385,-24.13552416,2.209113344,4.025027696,-0.004728149245,5.860007166
363.039,-28.71344028,2.819502159,7.992554996,-1.835894595,11.65870091
363.0395,-25.35630179,3.735085382,10.43411026,-3.056672226,11.96389532
363.04,-10.09658141,4.04027979,7.687360588,-0.9203113723,2.808063089
363.0405,8.215083052,2.209113344,1.278278026,2.74202152,-6.65296355
363.041,19.20208173,-0.2324419177,-2.994443681,5.793965597,-8.789324404
363.0415,19.20208173,-1.148025141,-2.689249274,6.404354412,-4.516602696
363.042,13.70858239,0.07275248999,-1.163277235,6.099160005,-1.464658619
363.0425,8.215083052,1.598724528,-0.8580828275,5.488771189,-1.464658619
363.043,4.247555752,1.903918936,-0.247694012,5.183576782,-1.464658619
363.0435,3.026778121,1.293530121,0.9730836188,4.878382374,-0.8542698039
363.044,5.163138975,1.293530121,1.583472434,4.573187966,-1.769853027
363.0445,8.52027746,1.598724528,-0.247694012,3.962799151,-3.906213881
363.045,9.741055091,1.293530121,-3.299638089,2.74202152,-3.906213881
363.0455,8.52027746,-0.2324419177,-3.299638089,0.9108550739,-1.464658619
363.046,7.909888645,-1.453219549,-1.773666051,-0.3099225569,-0.2438809885
363.0465,8.825471868,-1.453219549,-2.078860458,-1.22550578,-1.464658619
363.047,10.0462495,-1.148025141,-4.215221312,-0.9203113723,-2.990630658
363.0475,10.35144391,-1.148025141,-5.435998943,-0.3099225569,-2.68543625
363.048,10.96183272,-1.453219549,-4.215221312,0.3004662585,-1.769853027
363.0485,10.0462495,-0.8428307331,-1.468471643,0.9108550739,-1.464658619
363.049,7.299499829,-0.2324419177,0.3626948034,0.9108550739,0.06131341924
363.0495,4.55275016,-0.2324419177,1.888666842,0.6056606662,3.113257496
363.05,4.55275016,-1.758413956,2.499055657,0.6056606662,6.775590389
363.0505,4.857944568,-2.368802772,2.499055657,0.3004662585,9.522340058
363.051,0.5852228597,-2.063608364,2.804250065,-0.9203113723,11.65870091
363.0515,-7.655026148,-1.148025141,3.719833288,-3.361866634,13.79506177
363.052,-12.53813667,-1.453219549,3.719833288,-4.887838672,14.71064499
363.0525,-10.70697023,-2.368802772,1.583472434,-4.277449857,12.87947854
363.053,-7.044637333,-2.673997179,-0.8580828275,-3.056672226,9.522340058
363.0535,-7.34983174,-2.368802772,-1.163277235,-2.751477819,6.165201573
363.054,-9.180998187,-2.368802772,1.583472434,-3.972255449,3.418451904
363.0545,-5.213470887,-2.979191587,4.025027696,-4.887838672,0.06131341924
363.055,6.078722198,-3.589580402,3.109444473,-3.972255449,-2.68543625
363.0555,18.89688732,-4.810358033,0.05750039565,-0.6151169646,-4.211408289
363.056,26.22155311,-6.031135664,-1.773666051,2.436827112,-3.295825065
363.0565,26.22155311,-6.336330072,-1.468471643,4.267993559,-2.075047435
363.057,21.64363699,-5.115552441,-0.5528884197,4.267993559,-2.075047435
363.0575,16.45533206,-2.673997179,0.05750039565,2.436827112,-3.906213881
363.058,11.87741594,-0.5376363254,0.9730836188,-0.004728149245,-6.042574735
363.0585,7.299499829,0.07275248999,2.19386125,-0.9203113723,-6.65296355
363.059,0.8904172674,0.3779468977,1.888666842,-0.004728149245,-5.737380327
363.0595,-7.044637333,-0.2324419177,0.05750039565,2.131632705,-2.68543625
363.06,-15.59008075,-1.148025141,-1.773666051,4.267993559,0.3665078269
363.0605,-21.38877449,-1.453219549,-1.773666051,6.404354412,2.197674273
363.061,-22.91474653,-0.8428307331,-0.8580828275,7.930326451,0.6717022346
363.0615,-20.16799686,0.07275248999,-0.5528884197,7.014743228,-1.769853027
363.062,-13.45371989,0.07275248999,-0.5528884197,2.436827112,-3.295825065
363.0625,-5.213470887,-0.2324419177,-0.5528884197,-3.361866634,-2.68543625
363.063,1.806000491,-0.8428307331,-0.8580828275,-6.413810711,-2.380241842
363.0635,6.383916606,-2.368802772,-0.8580828275,-5.19303308,-2.990630658
363.064,7.909888645,-4.199969218,-0.5528884197,-3.361866634,-3.601019473
363.0645,6.994305421,-5.725941256,0.05750039565,-3.972255449,-2.68543625
363.065,5.163138975,-5.725941256,0.3626948034,-4.887838672,-0.8542698039
363.0655,4.857944568,-3.89477481,0.6678892111,-3.361866634,-0.8542698039
363.066,6.689111014,-1.758413956,0.9730836188,-0.004728149245,-1.464658619
363.0665,8.215083052,-0.5376363254,0.9730836188,1.826438297,-2.075047435
363.067,7.909888645,-0.2324419177,0.05750039565,1.521243889,-1.464658619
363.0675,5.773527791,0.3779468977,-2.078860458,0.6056606662,-1.159464212
363.068,4.55275016,0.9883357131,-3.604832497,-0.004728149245,-0.8542698039
363.0685,4.857944568,1.598724528,-2.689249274,-0.6151169646,0.06131341924
363.069,3.637166937,2.514307752,0.05750039565,-1.530700188,0.9768966423
363.0695,-0.02516595566,3.124696567,1.888666842,-1.835894595,0.9768966423
363.07,-2.771915625,3.124696567,2.19386125,-0.9203113723,0.3665078269
363.0705,-2.466721217,2.819502159,1.583472434,0.3004662585,0.06131341924
363.071,-0.02516595566,2.514307752,1.278278026,1.521243889,0.06131341924
363.0715,1.500806083,2.819502159,1.278278026,2.131632705,0.06131341924
363.072,1.500806083,3.124696567,0.6678892111,2.131632705,-0.2438809885
363.0725,0.8904172674,3.124696567,0.3626948034,0.9108550739,0.06131341924
363.073,0.280028452,3.429890975,0.9730836188,-0.004728149245,0.06131341924
363.0735,-1.245943586,4.345474198,2.499055657,0.9108550739,-1.159464212
363.074,-4.603082071,5.566251829,3.109444473,1.216049482,-3.295825065
363.0745,-8.265414964,5.566251829,1.888666842,-0.004728149245,-2.990630658
363.075,-11.62255345,4.955863013,0.6678892111,-1.22550578,-0.8542698039
363.0755,-14.97969193,4.04027979,0.6678892111,-0.9203113723,1.28209105
363.076,-16.81085838,3.429890975,1.888666842,0.6056606662,2.502868681
363.0765,-17.11605279,2.209113344,2.19386125,1.216049482,3.113257496
363.077,-16.81085838,-0.2324419177,1.888666842,-0.3099225569,3.418451904
363.0775,-16.81085838,-2.063608364,2.19386125,-2.141089003,3.418451904
363.078,-15.89527516,-2.368802772,3.109444473,-1.835894595,3.113257496
363.0785,-11.92774786,-1.148025141,3.41463888,-0.6151169646,2.808063089
363.079,-6.739442925,0.07275248999,2.19386125,-0.3099225569,2.502868681
363.0795,-3.38230444,0.9883357131,0.6678892111,-0.004728149245,0.9768966423
363.08,-3.687498848,1.293530121,0.05750039565,-0.3099225569,-0.2438809885
363.0805,-5.518665294,1.598724528,0.05750039565,-1.22550578,0.6717022346
363.081,-6.434248517,2.209113344,0.6678892111,-3.361866634,3.723646312
363.0815,-6.434248517,2.819502159,2.19386125,-4.582644265,5.554812758
363.082,-4.603082071,3.124696567,3.41463888,-3.056672226,4.639229535
363.0825,0.8904172674,2.514307752,2.804250065,-0.004728149245,1.28209105
363.083,10.35144391,2.514307752,-0.247694012,2.74202152,-1.769853027
363.0835,17.37091528,3.124696567,-3.299638089,3.962799151,-5.126991512
363.084,18.59169291,4.04027979,-4.52041572,3.962799151,-6.958157958
363.0845,15.23455443,3.124696567,-4.215221312,2.74202152,-6.958157958
363.085,11.87741594,1.598724528,-3.299638089,1.826438297,-4.821797104
363.0855,9.741055091,1.903918936,-1.773666051,0.6056606662,-2.380241842
363.086,8.52027746,3.124696567,0.05750039565,-0.9203113723,-0.2438809885
363.0865,8.215083052,3.429890975,0.9730836188,-2.446283411,0.9768966423
363.087,9.130666275,1.598724528,1.278278026,-2.446283411,1.892479865
363.0875,10.96183272,0.6831413054,0.9730836188,-0.6151169646,1.587285458
363.088,11.57222154,1.293530121,0.6678892111,0.3004662585,0.6717022346
363.0885,10.96183272,2.514307752,0.9730836188,-0.004728149245,0.9768966423
363.089,10.0462495,2.209113344,1.583472434,-1.530700188,2.808063089
363.0895,8.825471868,1.903918936,2.499055657,-1.530700188,4.028840719
363.09,7.909888645,3.124696567,2.804250065,-0.3099225569,3.113257496
363.0905,7.909888645,4.650668606,1.583472434,-0.004728149245,0.9768966423
363.091,7.604694237,4.650668606,0.3626948034,-0.3099225569,-0.5490753962
363.0915,5.163138975,3.124696567,0.6678892111,-0.9203113723,-0.8542698039
363.092,0.8904172674,2.514307752,2.499055657,-0.3099225569,0.06131341924
363.0925,-2.466721217,2.819502159,3.109444473,0.3004662585,1.892479865
363.093,-5.213470887,3.429890975,2.499055657,-0.004728149245,4.334035127
363.0935,-9.180998187,4.04027979,2.804250065,-0.9203113723,5.554812758
363.094,-13.45371989,4.345474198,5.245805327,-0.6151169646,5.24961835
363.0945,-14.36930312,3.735085382,6.771777365,0.9108550739,3.723646312
363.095,-10.09658141,3.429890975,5.245805327,2.74202152,0.9768966423
363.0955,-5.213470887,4.04027979,2.19386125,3.352410335,-2.380241842
363.096,-3.38230444,5.261057421,0.05750039565,3.352410335,-4.821797104
363.0965,-4.297887663,5.261057421,-0.8580828275,2.74202152,-4.821797104
363.097,-4.297887663,3.735085382,-2.078860458,1.826438297,-3.295825065
363.0975,-5.213470887,2.819502159,-2.078860458,1.216049482,-2.075047435
363.098,-9.486192594,1.598724528,-0.5528884197,0.9108550739,-0.5490753962
363.0985,-14.36930312,-2.979191587,0.3626948034,2.436827112,3.418451904
363.099,-15.59008075,-10.91424619,-0.8580828275,4.878382374,8.606756835
363.0995,-12.23294226,-15.1869679,-2.994443681,6.099160005,8.911951243
363.1,-7.960220556,-11.524635,-2.384054866,4.878382374,3.113257496
363.1005,-4.603082071,-3.589580402,-0.247694012,2.436827112,-3.601019473
363.101,-1.551137994,0.9883357131,0.3626948034,0.6056606662,-6.042574735
363.1015,0.5852228597,0.9883357131,-1.163277235,0.3004662585,-3.906213881
363.102,0.5852228597,0.3779468977,-2.689249274,0.9108550739,-1.464658619
363.1025,-0.02516595566,1.903918936,-2.078860458,0.9108550739,-0.8542698039
363.103,1.195611675,3.429890975,-1.163277235,0.9108550739,-1.464658619
363.1035,4.857944568,3.429890975,-1.163277235,1.521243889,-2.990630658
363.104,7.604694237,3.124696567,-0.8580828275,1.521243889,-4.516602696
363.1045,7.909888645,4.345474198,0.05750039565,0.6056606662,-5.126991512
363.105,7.909888645,7.702612683,0.3626948034,-0.004728149245,-4.211408289
363.1055,9.435860683,11.67013998,-0.247694012,0.9108550739,-3.906213881
363.106,10.35144391,15.33247288,-0.8580828275,2.74202152,-6.347769142
363.1065,9.130666275,17.16363932,0.05750039565,4.267993559,-8.789324404
363.107,7.604694237,17.46883373,0.9730836188,3.962799151,-8.178935589
363.1075,7.604694237,17.16363932,0.3626948034,2.74202152,-5.432185919
363.108,8.825471868,15.94286169,-0.8580828275,1.826438297,-4.516602696
363.1085,11.57222154,13.50130643,-1.773666051,2.131632705,-6.042574735
363.109,15.53974884,9.533779129,-2.384054866,3.352410335,-6.347769142
363.1095,18.89688732,5.261057421,-3.910026904,3.962799151,-2.990630658
363.11,18.59169291,2.209113344,-5.741193351,3.047215928,1.28209105
363.1105,13.70858239,-0.2324419177,-6.046387758,1.826438297,3.723646312
363.111,7.604694237,-4.505163626,-5.130804535,1.826438297,4.028840719
363.1115,3.026778121,-10.60905178,-5.130804535,3.047215928,4.639229535
363.112,0.5852228597,-17.93371756,-6.046387758,3.047215928,7.385979204
363.1125,-0.9407491788,-24.64799453,-6.046387758,1.216049482,10.74311769
363.113,-1.856332402,-27.69993861,-5.435998943,-1.530700188,11.65870091
363.1135,-2.771915625,-24.95318894,-5.741193351,-4.277449857,8.301562427
363.114,-5.213470887,-17.93371756,-6.351582166,-5.19303308,3.113257496
363.1145,-8.875803779,-11.82982941,-6.046387758,-3.972255449,-0.5490753962
363.115,-11.62255345,-10.30385737,-4.52041572,-2.141089003,-0.5490753962
363.1155,-12.23294226,-11.82982941,-3.604832497,-1.22550578,1.892479865
363.116,-12.53813667,-11.82982941,-3.299638089,-1.530700188,4.028840719
363.1165,-13.7589143,-9.388274149,-2.689249274,-1.22550578,3.113257496
363.117,-14.06410871,-7.86230211,-0.8580828275,0.6056606662,1.28209105
363.1175,-13.14852549,-7.86230211,0.05750039565,2.131632705,1.587285458
363.118,-12.84333108,-8.472690926,0.05750039565,1.216049482,3.723646312
363.1185,-13.45371989,-8.167496518,0.05750039565,-0.6151169646,4.944423942
363.119,-13.14852549,-7.86230211,-0.247694012,-2.141089003,5.24961835
363.1195,-13.45371989,-9.083079741,-0.247694012,-3.361866634,6.470395981
363.12,-16.81085838,-9.388274149,0.05750039565,-4.582644265,8.911951243
363.1205,-22.91474653,-6.641524479,1.888666842,-4.582644265,9.827534466
363.121,-24.44071857,-2.368802772,4.025027696,-2.446283411,6.470395981
363.1215,-18.64202483,0.07275248999,4.025027696,-2.141089003,1.892479865
363.122,-9.486192594,0.07275248999,2.499055657,-7.329393934,0.3665078269
363.1225,-3.077110033,-0.2324419177,0.9730836188,-14.0436709,2.197674273
363.123,2.721583714,0.07275248999,0.3626948034,-14.65405972,1.28209105
363.1235,11.26702713,0.6831413054,-1.163277235,-7.329393934,-5.126991512
363.124,18.59169291,0.9883357131,-4.215221312,0.3004662585,-13.06204611
363.1245,19.20208173,0.3779468977,-6.046387758,3.047215928,-15.50360137
363.125,13.09819358,0.07275248999,-5.130804535,0.9108550739,-10.92568526
363.1255,8.215083052,0.3779468977,-2.689249274,-0.9203113723,-5.432185919
363.126,8.825471868,0.3779468977,-0.5528884197,-1.835894595,-3.601019473
363.1265,13.40338798,-0.2324419177,0.05750039565,-2.141089003,-4.821797104
363.127,18.28649851,-0.5376363254,-0.247694012,-2.751477819,-3.906213881
363.1275,22.25402581,-0.8428307331,-0.8580828275,-2.141089003,0.06131341924
363.128,23.77999785,-0.2324419177,-0.247694012,-0.9203113723,5.860007166
363.1285,22.55922021,0.07275248999,1.888666842,-0.004728149245,9.21714565
363.129,21.33844258,-0.5376363254,2.804250065,2.131632705,8.301562427
363.1295,23.16960903,-1.148025141,0.3626948034,5.488771189,4.028840719
363.13,24.39038666,-0.8428307331,-3.299638089,7.625132043,0.06131341924
363.1305,19.50727614,0.07275248999,-4.825610128,6.70954882,-1.769853027
363.131,9.130666275,0.9883357131,-3.604832497,3.352410335,-0.8542698039
363.1315,-0.02516595566,1.903918936,-1.468471643,1.521243889,0.6717022346
363.132,-3.687498848,3.124696567,-0.247694012,1.216049482,1.587285458
363.1325,-6.434248517,4.04027979,1.278278026,0.3004662585,2.197674273
363.133,-11.01216463,3.735085382,3.41463888,-2.446283411,2.808063089
363.1335,-14.97969193,2.514307752,4.635416511,-5.498227488,2.502868681
363.134,-13.14852549,2.209113344,3.109444473,-5.803421896,0.06131341924
363.1345,-6.434248517,2.209113344,0.3626948034,-3.056672226,-2.990630658
363.135,-0.02516595566,1.293530121,-2.384054866,-0.004728149245,-3.906213881
363.1355,1.500806083,-0.8428307331,-4.825610128,1.521243889,-1.159464212
363.136,-3.992693256,-2.063608364,-4.52041572,-0.3099225569,5.24961835
363.1365,-18.03163601,-0.5376363254,0.6678892111,-3.972255449,13.18467295
363.137,-34.51213403,2.819502159,9.518527034,-6.719005119,18.9833667
363.1375,-41.83679981,7.092223867,15.62241519,-5.803421896,18.9833667
363.138,-34.20693962,9.228584721,13.79124874,-1.835894595,11.0483121
363.1385,-19.25241364,9.838973536,7.076971773,2.131632705,0.3665078269
363.139,-11.31735904,8.923390313,2.804250065,3.657604743,-5.126991512
363.1395,-14.36930312,8.618195906,4.025027696,2.131632705,-4.821797104
363.14,-16.81085838,9.228584721,6.771777365,0.6056606662,-4.516602696
363.1405,-8.875803779,9.838973536,4.940610919,1.826438297,-9.39971322
363.141,4.55275016,8.923390313,0.05750039565,4.573187966,-14.89321256
363.1415,10.35144391,7.092223867,-2.078860458,5.488771189,-13.06204611
363.142,3.942361344,5.261057421,2.499055657,2.436827112,-3.601019473
363.1425,-4.297887663,3.735085382,9.823721442,-1.22550578,4.944423942
363.143,-1.856332402,1.293530121,11.65488789,-2.446283411,4.334035127
363.1435,14.0137768,-1.758413956,6.16138855,-1.530700188,-5.126991512
363.144,34.46180211,-3.589580402,-2.078860458,-0.3099225569,-17.02957341
363.1445,46.97477283,-2.979191587,-8.182748612,0.3004662585,-24.96462801
363.145,47.89035605,-1.758413956,-10.62430387,1.826438297,-25.57501683
363.1455,42.39685671,-2.368802772,-10.31910947,3.657604743,-20.99710071
363.146,35.98777415,-3.284385995,-8.182748612,4.573187966,-15.19840697
363.1465,31.10466363,-2.368802772,-5.435998943,3.047215928,-11.23087967
363.147,26.22155311,-0.5376363254,-2.994443681,1.216049482,-8.789324404
363.1475,21.64363699,0.07275248999,-1.468471643,0.6056606662,-5.126991512
363.148,18.89688732,-0.2324419177,-0.5528884197,1.521243889,-1.159464212
363.1485,17.9813041,-0.2324419177,0.05750039565,2.131632705,0.3665078269
363.149,16.45533206,0.6831413054,0.3626948034,2.131632705,-0.5490753962
363.1495,14.0137768,1.293530121,0.05750039565,2.131632705,-2.380241842
363.15,11.57222154,0.3779468977,-0.5528884197,2.436827112,-2.990630658
363.1505,8.825471868,-0.2324419177,0.05750039565,2.436827112,-2.380241842
363.151,4.55275016,-0.2324419177,0.6678892111,0.9108550739,-1.159464212
363.1515,-0.6355547711,0.3779468977,1.888666842,-1.22550578,-0.2438809885
363.152,-3.077110033,0.3779468977,2.804250065,-2.141089003,-0.8542698039
363.1525,-1.245943586,-0.5376363254,2.499055657,-0.004728149245,-3.601019473
363.153,0.280028452,-1.453219549,0.6678892111,2.131632705,-7.873741181
363.1535,-0.9407491788,-1.148025141,-1.468471643,1.826438297,-9.094518812
363.154,-4.603082071,-0.2324419177,-4.215221312,-0.6151169646,-6.65296355
363.1545,-6.739442925,-1.148025141,-6.961970981,-3.056672226,-2.68543625
363.155,-7.655026148,-3.89477481,-8.182748612,-3.361866634,-0.8542698039
363.1555,-11.01216463,-5.725941256,-7.267165389,-2.751477819,-0.2438809885
363.156,-16.20046956,-5.115552441,-3.910026904,-3.361866634,0.06131341924
363.1565,-20.16799686,-2.979191587,-0.5528884197,-4.277449857,1.892479865
363.157,-21.6939689,-1.758413956,0.9730836188,-4.277449857,3.418451904
363.1575,-23.21994094,-1.758413956,1.888666842,-3.056672226,5.24961835
363.158,-25.96669061,-1.758413956,3.109444473,-2.751477819,7.080784796
363.1585,-26.88227383,-0.2324419177,4.940610919,-3.056672226,8.301562427
363.159,-24.44071857,1.598724528,5.856194142,-2.751477819,7.385979204
363.1595,-19.55760805,2.819502159,5.245805327,-2.141089003,5.24961835
363.16,-12.84333108,2.514307752,4.025027696,-1.22550578,3.418451904
363.1605,-5.213470887,1.598724528,3.109444473,0.6056606662,1.587285458
363.161,2.721583714,0.9883357131,2.499055657,3.657604743,-0.5490753962
363.1615,9.130666275,0.07275248999,1.888666842,4.878382374,-3.906213881
363.162,12.48780476,-0.8428307331,1.583472434,3.047215928,-5.432185919
363.1625,14.92936002,-1.758413956,1.278278026,0.3004662585,-3.906213881
363.163,18.89688732,-1.148025141,0.6678892111,-0.3099225569,-0.5490753962
363.1635,22.25402581,0.9883357131,0.6678892111,0.3004662585,2.502868681
363.164,21.64363699,2.819502159,0.6678892111,0.6056606662,3.418451904
363.1645,16.76052647,2.209113344,0.3626948034,0.6056606662,2.808063089
363.165,8.52027746,-0.2324419177,-0.5528884197,1.521243889,2.197674273
363.1655,-0.02516595566,-1.758413956,-1.773666051,4.267993559,3.723646312
363.166,-7.044637333,-1.758413956,-2.078860458,6.099160005,6.775590389
363.1665,-11.01216463,-0.8428307331,-1.468471643,6.404354412,9.522340058
363.167,-10.70697023,-0.2324419177,-1.163277235,5.488771189,9.21714565
363.1675,-7.960220556,0.6831413054,-0.8580828275,3.962799151,6.775590389
363.168,-6.12905411,0.9883357131,0.05750039565,1.826438297,5.24961835
363.1685,-5.213470887,0.9883357131,1.583472434,-0.6151169646,5.24961835
363.169,-4.603082071,0.07275248999,3.41463888,-3.056672226,5.24961835
363.1695,-2.771915625,-0.5376363254,4.635416511,-3.361866634,2.808063089
363.17,-0.3303603634,-0.5376363254,4.940610919,-1.530700188,0.06131341924
363.1705,1.500806083,-1.453219549,3.41463888,0.3004662585,-1.769853027
363.171,2.721583714,-3.284385995,1.278278026,1.826438297,-0.5490753962
363.1715,1.500806083,-5.115552441,0.6678892111,1.216049482,0.9768966423
363.172,-2.16152681,-4.810358033,1.583472434,-0.004728149245,1.892479865
363.1725,-7.34983174,-2.979191587,2.499055657,-0.3099225569,1.892479865
363.173,-11.01216463,-2.368802772,2.19386125,-0.3099225569,1.892479865
363.1735,-11.62255345,-2.979191587,1.278278026,-0.3099225569,2.808063089
363.174,-12.23294226,-3.589580402,1.583472434,-0.3099225569,3.418451904
363.1745,-14.36930312,-3.284385995,1.583472434,-0.3099225569,2.808063089
363.175,-17.11605279,-2.979191587,1.278278026,-0.004728149245,0.9768966423
363.1755,-17.42124719,-3.589580402,0.6678892111,-0.004728149245,0.06131341924
363.176,-16.20046956,-4.505163626,0.05750039565,-0.6151169646,0.9768966423
363.1765,-16.20046956,-4.810358033,-0.247694012,-0.9203113723,2.808063089
363.177,-18.03163601,-4.810358033,-0.8580828275,-0.6151169646,3.418451904
363.1775,-18.33683042,-4.199969218,-1.163277235,-0.004728149245,2.502868681
363.178,-15.28488634,-3.589580402,-0.5528884197,-0.004728149245,1.28209105
363.1785,-11.92774786,-2.979191587,-0.247694012,-0.004728149245,0.9768966423
363.179,-11.01216463,-2.979191587,-1.163277235,0.6056606662,0.06131341924
363.1795,-11.62255345,-3.284385995,-2.689249274,0.9108550739,-1.159464212
363.18,-9.791387002,-3.89477481,-2.994443681,0.6056606662,-1.769853027
363.1805,-5.823859702,-3.89477481,-2.078860458,-0.3099225569,-0.5490753962
363.181,-3.077110033,-3.89477481,-0.5528884197,-1.22550578,0.6717022346
363.1815,-4.297887663,-2.979191587,0.3626948034,-1.530700188,1.28209105
363.182,-6.739442925,-1.453219549,1.278278026,-1.22550578,1.28209105
363.1825,-6.739442925,-0.5376363254,1.888666842,-0.3099225569,2.197674273
363.183,-3.687498848,-0.2324419177,1.583472434,0.6056606662,2.197674273
363.1835,0.280028452,-0.2324419177,0.9730836188,1.216049482,-0.2438809885
363.184,3.331972529,1.293530121,0.3626948034,1.216049482,-4.211408289
363.1845,4.247555752,3.429890975,0.05750039565,0.6056606662,-5.126991512
363.185,3.637166937,4.345474198,0.05750039565,-0.004728149245,-3.295825065
363.1855,4.55275016,3.735085382,-0.247694012,-0.6151169646,-2.68543625
363.186,6.078722198,2.819502159,0.05750039565,-0.6151169646,-4.211408289
363.1865,6.689111014,3.429890975,0.6678892111,-0.004728149245,-4.211408289
363.187,5.468333383,4.345474198,0.6678892111,-0.004728149245,-0.8542698039
363.1875,4.857944568,4.650668606,0.05750039565,-0.3099225569,1.892479865
363.188,8.825471868,4.04027979,0.05750039565,-1.22550578,2.197674273
363.1885,14.62416561,2.514307752,0.3626948034,-1.22550578,0.9768966423
363.189,18.28649851,0.07275248999,-0.247694012,-0.3099225569,2.197674273
363.1895,17.06572088,-2.063608364,-1.773666051,-0.004728149245,5.24961835
363.19,13.40338798,-3.284385995,-2.384054866,-0.004728149245,7.385979204
363.1905,10.0462495,-2.673997179,-1.773666051,-0.3099225569,7.385979204
363.191,7.299499829,-1.148025141,-0.8580828275,-0.004728149245,7.080784796
363.1915,4.857944568,-0.5376363254,-1.163277235,-0.3099225569,6.165201573
363.192,2.416389306,-0.5376363254,-1.468471643,-1.530700188,4.944423942
363.1925,-0.02516595566,-1.148025141,-1.163277235,-2.751477819,3.418451904
363.193,-3.687498848,-1.758413956,-0.247694012,-2.446283411,3.113257496
363.1935,-7.34983174,-1.148025141,-0.5528884197,-1.530700188,3.418451904
363.194,-9.791387002,0.07275248999,-1.773666051,-1.22550578,3.113257496
363.1945,-10.40177582,1.598724528,-2.689249274,-1.835894595,3.113257496
363.195,-11.31735904,0.6831413054,-2.078860458,-3.361866634,4.639229535
363.1955,-14.06410871,-1.453219549,-0.5528884197,-4.887838672,7.080784796
363.196,-17.7264416,-2.979191587,0.9730836188,-5.19303308,7.691173612
363.1965,-17.7264416,-2.063608364,1.583472434,-3.056672226,5.24961835
363.197,-12.23294226,-0.5376363254,1.278278026,-0.004728149245,2.197674273
363.1975,-3.992693256,-0.8428307331,0.05750039565,2.74202152,0.3665078269
363.198,1.500806083,-2.063608364,-1.163277235,3.352410335,0.06131341924
363.1985,2.111194898,-2.368802772,-1.773666051,3.352410335,-0.8542698039
363.199,-0.9407491788,-1.453219549,-1.468471643,3.352410335,-2.380241842
363.1995,-3.992693256,-1.148025141,-0.8580828275,2.74202152,-3.295825065
363.2,-3.992693256,-1.453219549,0.05750039565,0.3004662585,-2.68543625
363.2005,-2.466721217,-1.453219549,0.05750039565,-1.22550578,-1.159464212
363.201,-1.551137994,-0.5376363254,0.05750039565,-0.6151169646,0.3665078269
363.2015,-2.466721217,0.07275248999,0.05750039565,0.3004662585,1.587285458
363.202,-3.687498848,0.3779468977,0.6678892111,-0.3099225569,2.197674273
363.2025,-3.687498848,0.6831413054,1.278278026,-3.056672226,2.808063089
363.203,-2.466721217,0.6831413054,1.583472434,-4.277449857,3.418451904
363.2035,-1.551137994,0.3779468977,1.278278026,-3.361866634,3.418451904
363.204,-0.3303603634,0.07275248999,1.278278026,-3.056672226,2.808063089
363.2045,1.195611675,1.293530121,1.888666842,-4.582644265,1.892479865
363.205,3.637166937,2.819502159,2.804250065,-4.887838672,0.06131341924
363.2055,8.215083052,2.819502159,2.804250065,-2.141089003,-2.380241842
363.206,14.62416561,0.9883357131,1.888666842,1.826438297,-4.821797104
363.2065,21.33844258,-0.5376363254,0.9730836188,3.962799151,-5.432185919
363.207,25.00077548,-1.148025141,0.6678892111,3.962799151,-4.516602696
363.2075,24.08519225,-0.5376363254,1.278278026,3.047215928,-2.68543625
363.208,20.42285936,0.07275248999,2.19386125,2.436827112,-0.8542698039
363.2085,16.45533206,0.3779468977,2.19386125,1.826438297,0.06131341924
363.209,14.31897121,0.6831413054,1.583472434,0.9108550739,0.3665078269
363.2095,13.70858239,0.9883357131,1.583472434,-0.004728149245,0.06131341924
363.21,12.79299917,1.293530121,2.499055657,-0.004728149245,-0.8542698039
363.2105,11.87741594,1.293530121,2.804250065,-0.004728149245,-1.159464212
363.211,10.35144391,1.293530121,2.19386125,-0.004728149245,-0.5490753962
363.2115,7.909888645,0.3779468977,1.583472434,-0.004728149245,0.3665078269
363.212,4.857944568,-0.2324419177,1.583472434,-0.3099225569,1.28209105
363.2125,1.500806083,0.07275248999,1.888666842,-0.3099225569,0.6717022346
363.213,-0.9407491788,0.6831413054,1.278278026,-0.3099225569,-0.5490753962
363.2135,-2.771915625,0.3779468977,0.3626948034,-0.3099225569,-2.075047435
363.214,-3.992693256,-0.5376363254,0.6678892111,-0.004728149245,-2.380241842
363.2145,-5.213470887,-1.758413956,1.278278026,-0.004728149245,-1.464658619
363.215,-6.739442925,-1.758413956,1.278278026,0.3004662585,-0.8542698039
363.2155,-8.265414964,-1.148025141,0.9730836188,0.6056606662,-1.464658619
363.216,-10.09658141,-0.2324419177,0.6678892111,0.6056606662,-1.769853027
363.2165,-11.31735904,-0.2324419177,0.6678892111,0.3004662585,-1.464658619
363.217,-11.92774786,-0.2324419177,1.278278026,0.3004662585,-1.769853027
363.2175,-12.23294226,-0.2324419177,2.19386125,0.6056606662,-2.68543625
363.218,-12.53813667,-1.148025141,2.804250065,0.6056606662,-2.990630658
363.2185,-13.14852549,-2.368802772,2.499055657,-0.004728149245,-2.075047435
363.219,-13.7589143,-2.368802772,2.19386125,-0.3099225569,-1.159464212
363.2195,-14.06410871,-1.148025141,1.888666842,-0.004728149245,-1.769853027
363.22,-13.14852549,-0.2324419177,2.19386125,0.3004662585,-3.295825065
363.2205,-11.01216463,-0.2324419177,2.19386125,0.3004662585,-3.906213881
363.221,-7.960220556,-0.2324419177,2.19386125,0.3004662585,-3.906213881
363.2215,-5.213470887,0.3779468977,1.888666842,1.216049482,-3.906213881
363.222,-3.077110033,0.9883357131,1.278278026,2.436827112,-3.906213881
363.2225,-1.856332402,0.9883357131,0.05750039565,3.657604743,-3.295825065
363.223,-0.02516595566,0.6831413054,-0.5528884197,3.962799151,-2.380241842
363.2235,2.111194898,-0.2324419177,-0.247694012,3.047215928,-1.769853027
363.224,4.857944568,-1.453219549,0.6678892111,1.521243889,-2.075047435
363.2245,7.299499829,-2.673997179,0.9730836188,0.3004662585,-2.380241842
363.225,8.215083052,-1.453219549,0.05750039565,0.3004662585,-2.075047435
363.2255,7.909888645,0.6831413054,-0.8580828275,0.9108550739,-2.380241842
363.226,7.604694237,0.9883357131,-0.8580828275,0.9108550739,-2.68543625
363.2265,7.604694237,-0.5376363254,0.3626948034,-0.004728149245,-2.380241842
363.227,7.299499829,-2.063608364,1.888666842,-0.6151169646,-2.075047435
363.2275,6.078722198,-1.758413956,2.19386125,-0.004728149245,-2.990630658
363.228,4.55275016,-1.148025141,1.583472434,0.6056606662,-4.211408289
363.2285,4.247555752,-1.148025141,1.278278026,0.9108550739,-3.906213881
363.229,3.942361344,-1.453219549,1.278278026,0.6056606662,-2.380241842
363.2295,1.806000491,-0.2324419177,2.19386125,0.6056606662,-1.159464212
363.23,-1.551137994,1.293530121,3.109444473,-0.004728149245,-1.769853027
363.2305,-2.771915625,0.6831413054,3.109444473,-0.9203113723,-2.990630658
363.231,-0.9407491788,-0.5376363254,1.888666842,-0.9203113723,-4.516602696
363.2315,0.8904172674,-0.8428307331,0.3626948034,2.74202152,-6.65296355
363.232,1.500806083,0.3779468977,0.05750039565,7.625132043,-7.263352366
363.2325,0.5852228597,0.07275248999,0.05750039565,6.70954882,-3.601019473
363.233,-0.3303603634,-2.368802772,-0.5528884197,-3.667061042,3.418451904
363.2335,-1.551137994,-5.420746849,-2.078860458,-18.31639261,9.21714565
363.234,-4.297887663,-6.336330072,-2.994443681,-26.25144721,9.522340058
363.2345,-7.044637333,-5.725941256,-2.994443681,-23.50469754,7.385979204
363.235,-9.791387002,-5.420746849,-3.299638089,-15.26444853,7.080784796
363.2355,-11.31735904,-5.725941256,-4.215221312,-8.550171565,7.691173612
363.236,-12.53813667,-6.031135664,-4.52041572,-6.413810711,7.080784796
363.2365,-13.45371989,-5.420746849,-2.994443681,-6.108616303,5.860007166
363.237,-16.20046956,-2.979191587,-0.247694012,-5.498227488,6.165201573
363.2375,-20.47319127,-0.5376363254,2.19386125,-4.887838672,7.691173612
363.238,-21.6939689,0.6831413054,2.804250065,-4.887838672,5.554812758
363.2385,-15.28488634,0.3779468977,0.6678892111,-3.056672226,-0.8542698039
363.239,-3.38230444,-0.2324419177,-2.078860458,0.9108550739,-6.65296355
363.2395,6.689111014,-0.2324419177,-4.215221312,5.488771189,-7.873741181
363.24,10.35144391,-0.5376363254,-4.52041572,6.404354412,-6.042574735
363.2405,9.741055091,-0.8428307331,-3.299638089,4.267993559,-5.126991512
363.241,8.825471868,-0.2324419177,-2.384054866,3.047215928,-5.737380327
363.2415,7.909888645,0.9883357131,-2.384054866,4.267993559,-5.432185919
363.242,6.383916606,2.514307752,-2.078860458,5.183576782,-3.295825065
363.2425,4.857944568,2.819502159,-0.8580828275,3.352410335,-1.464658619
363.243,4.857944568,2.819502159,0.05750039565,0.3004662585,-0.8542698039
363.2435,5.773527791,2.819502159,0.05750039565,-0.9203113723,-0.8542698039
363.244,6.383916606,2.514307752,0.3626948034,-0.3099225569,0.06131341924
363.2445,7.604694237,1.903918936,0.3626948034,-0.004728149245,1.892479865
363.245,9.130666275,2.514307752,0.6678892111,-0.3099225569,3.113257496
363.2455,10.35144391,4.04027979,-0.247694012,-0.3099225569,2.197674273
363.246,10.65663831,5.566251829,-2.078860458,0.3004662585,-0.5490753962
363.2465,11.26702713,5.566251829,-2.689249274,1.216049482,-2.68543625
363.247,11.87741594,5.566251829,-0.8580828275,1.521243889,-1.464658619
363.2475,10.35144391,6.176640644,1.278278026,0.9108550739,1.28209105
363.248,8.215083052,6.787029459,2.19386125,0.3004662585,2.808063089
363.2485,7.604694237,5.871446236,1.583472434,0.6056606662,1.892479865
363.249,9.130666275,4.04027979,0.9730836188,1.521243889,0.3665078269
363.2495,9.130666275,3.124696567,1.888666842,2.436827112,1.28209105
363.25,5.163138975,3.735085382,3.41463888,2.436827112,2.808063089
363.2505,0.280028452,4.650668606,4.025027696,2.436827112,2.808063089
363.251,-1.245943586,4.650668606,3.41463888,3.047215928,1.892479865
363.2515,-0.9407491788,4.04027979,2.499055657,3.352410335,1.28209105
363.252,-1.245943586,3.429890975,1.888666842,2.436827112,0.9768966423
363.2525,-1.551137994,1.903918936,1.583472434,-0.004728149245,-0.8542698039
363.253,0.280028452,0.3779468977,-0.247694012,-1.22550578,-3.906213881
363.2535,3.942361344,-0.5376363254,-3.604832497,-0.004728149245,-5.432185919
363.254,5.773527791,-1.148025141,-6.961970981,3.047215928,-4.821797104
363.2545,3.942361344,-2.063608364,-8.793137428,3.657604743,-3.906213881
363.255,0.280028452,-2.979191587,-9.098331835,1.826438297,-3.906213881
363.2555,-2.771915625,-2.979191587,-9.098331835,-0.004728149245,-4.211408289
363.256,-5.518665294,-1.453219549,-8.793137428,-0.004728149245,-4.211408289
363.2565,-7.34983174,-0.2324419177,-7.267165389,1.216049482,-3.906213881
363.257,-7.960220556,0.07275248999,-4.52041572,2.74202152,-2.380241842
363.2575,-7.960220556,-0.2324419177,-2.689249274,2.74202152,0.06131341924
363.258,-7.34983174,-0.5376363254,-2.994443681,2.131632705,3.418451904
363.2585,-7.34983174,0.07275248999,-3.604832497,1.826438297,5.24961835
363.259,-7.655026148,0.6831413054,-3.299638089,2.131632705,5.554812758
363.2595,-8.570609371,-0.2324419177,-2.689249274,1.826438297,6.165201573
363.26,-9.180998187,-2.063608364,-2.689249274,0.9108550739,7.996368019
363.2605,-9.791387002,-2.368802772,-2.384054866,-0.3099225569,10.13272887
363.261,-11.92774786,-0.8428307331,0.05750039565,-1.835894595,11.96389532
363.2615,-16.81085838,0.3779468977,3.719833288,-2.751477819,13.48986736
363.262,-22.91474653,0.3779468977,5.550999734,-4.582644265,12.87947854
363.2625,-24.13552416,0.6831413054,4.940610919,-6.413810711,7.080784796
363.263,-17.42124719,2.209113344,3.109444473,-6.719005119,-1.159464212
363.2635,-7.655026148,4.650668606,1.583472434,-3.972255449,-6.958157958
363.264,-1.856332402,7.092223867,0.6678892111,-0.9203113723,-6.042574735
363.2645,-1.856332402,8.00780709,0.6678892111,-0.3099225569,-2.380241842
363.265,-3.687498848,8.618195906,1.278278026,-1.22550578,-2.075047435
363.2655,-2.16152681,8.618195906,0.3626948034,-0.9203113723,-6.347769142
363.266,2.111194898,7.397418275,-1.773666051,2.131632705,-10.31529644
363.2665,7.604694237,5.566251829,-3.604832497,5.488771189,-10.01010203
363.267,11.87741594,4.04027979,-2.994443681,5.793965597,-6.042574735
363.2675,14.92936002,2.514307752,-1.468471643,4.267993559,-2.380241842
363.268,17.37091528,-0.2324419177,-3.299638089,3.962799151,-2.380241842
363.2685,22.55922021,-2.979191587,-7.267165389,6.404354412,-5.737380327
363.269,29.883886,-4.199969218,-8.793137428,8.845909674,-7.873741181
363.2695,33.24102448,-3.284385995,-5.741193351,8.540715266,-5.432185919
363.27,27.13713633,-2.063608364,-2.384054866,5.183576782,1.892479865
363.2705,15.23455443,-2.673997179,-0.5528884197,1.216049482,11.3535065
363.271,5.163138975,-4.505163626,1.278278026,-1.530700188,18.9833667
363.2715,-0.3303603634,-5.420746849,5.856194142,-3.361866634,22.64569959
363.272,-4.908276479,-3.89477481,8.602943811,-4.277449857,20.50933874
363.2725,-5.213470887,-1.453219549,4.940610919,-4.277449857,11.96389532
363.273,5.468333383,-0.5376363254,-2.689249274,-1.22550578,0.06131341924
363.2735,25.00077548,-1.758413956,-8.48794302,3.047215928,-7.263352366
363.274,38.42932941,-3.589580402,-8.182748612,6.099160005,-6.042574735
363.2745,35.98777415,-3.284385995,-3.910026904,6.404354412,-0.2438809885
363.275,25.00077548,-1.758413956,-1.163277235,4.267993559,2.197674273
363.2755,17.37091528,-1.453219549,-1.468471643,3.047215928,-0.5490753962
363.276,15.84494324,-4.810358033,-4.825610128,3.657604743,-4.211408289
363.2765,15.23455443,-11.21944059,-8.793137428,5.488771189,-3.601019473
363.277,13.09819358,-16.71293993,-11.8450815,8.540715266,0.06131341924
363.2775,10.65663831,-19.1544952,-11.8450815,12.20304816,3.418451904
363.278,5.773527791,-18.23891197,-9.403526243,14.33940901,4.028840719
363.2785,-3.077110033,-15.1869679,-6.351582166,13.42382579,3.418451904
363.279,-11.92774786,-11.21944059,-3.910026904,8.540715266,3.418451904
363.2795,-14.67449753,-8.472690926,-1.773666051,3.047215928,3.723646312
363.28,-11.92774786,-6.946718887,0.05750039565,0.3004662585,3.418451904
363.2805,-9.791387002,-6.336330072,1.278278026,-0.004728149245,2.197674273
363.281,-9.791387002,-4.810358033,0.9730836188,0.9108550739,0.3665078269
363.2815,-8.265414964,-2.673997179,0.05750039565,1.216049482,-0.5490753962
363.282,-5.213470887,-1.148025141,0.05750039565,0.6056606662,-1.464658619
363.2825,-4.297887663,-0.8428307331,1.583472434,-0.004728149245,-1.159464212
363.283,-6.12905411,-0.2324419177,4.025027696,-0.6151169646,-0.5490753962
363.2835,-7.655026148,0.6831413054,5.245805327,-2.141089003,0.06131341924
363.284,-6.12905411,0.3779468977,5.245805327,-2.751477819,0.06131341924
363.2845,-3.38230444,-0.2324419177,4.635416511,-1.835894595,-1.464658619
363.285,-0.3303603634,-0.2324419177,4.330222103,-0.3099225569,-4.211408289
363.2855,2.416389306,1.293530121,4.330222103,0.3004662585,-6.958157958
363.286,4.55275016,3.124696567,4.635416511,0.6056606662,-7.873741181
363.2865,4.55275016,3.429890975,4.330222103,2.436827112,-7.263352366
363.287,3.026778121,2.514307752,3.719833288,4.878382374,-6.347769142
363.2875,3.637166937,1.598724528,3.41463888,4.878382374,-5.432185919
363.288,5.773527791,0.3779468977,3.109444473,0.3004662585,-3.601019473
363.2885,6.994305421,-0.8428307331,2.499055657,-5.803421896,-0.8542698039
363.289,6.383916606,-2.368802772,1.583472434,-8.550171565,0.9768966423
363.2895,6.078722198,-2.368802772,1.278278026,-5.803421896,1.28209105
363.29,6.078722198,-1.148025141,2.19386125,-2.141089003,0.06131341924
363.2905,5.773527791,-1.148025141,3.109444473,-0.3099225569,-1.464658619
363.291,4.247555752,-2.063608364,1.888666842,-0.6151169646,-2.68543625
363.2915,2.416389306,-2.063608364,-0.247694012,-0.9203113723,-2.68543625
363.292,0.280028452,-1.148025141,-1.773666051,-1.22550578,-1.769853027
363.2925,-3.077110033,-0.2324419177,-1.468471643,-1.530700188,0.06131341924
363.293,-7.655026148,0.07275248999,0.05750039565,-2.141089003,2.197674273
363.2935,-11.92774786,0.07275248999,2.19386125,-2.751477819,3.113257496
363.294,-15.28488634,0.6831413054,3.41463888,-2.446283411,1.892479865
363.2945,-18.33683042,1.903918936,3.109444473,-2.141089003,-1.159464212
363.295,-18.94721923,2.514307752,0.9730836188,-0.9203113723,-3.906213881
363.2955,-16.20046956,2.514307752,-0.8580828275,0.6056606662,-4.211408289
363.296,-12.53813667,1.903918936,-1.163277235,1.826438297,-2.380241842
363.2965,-11.92774786,1.598724528,0.05750039565,1.216049482,-0.2438809885
363.297,-16.20046956,0.9883357131,0.9730836188,-0.6151169646,1.28209105
363.2975,-21.99916331,0.3779468977,1.278278026,-3.056672226,2.502868681
363.298,-25.05110739,0.07275248999,2.499055657,-3.972255449,2.808063089
363.2985,-25.35630179,1.293530121,4.635416511,-3.361866634,1.28209105
363.299,-23.83032976,3.429890975,6.466582957,-2.446283411,-1.464658619
363.2995,-20.47319127,5.566251829,5.245805327,-1.835894595,-4.516602696
363.3,-14.67449753,6.176640644,1.888666842,-0.9203113723,-6.347769142
363.3005,-8.265414964,5.261057421,0.05750039565,-0.004728149245,-7.263352366
363.301,-3.687498848,4.650668606,0.9730836188,1.216049482,-7.568546773
363.3015,-1.245943586,4.345474198,1.888666842,0.9108550739,-7.263352366
363.302,-0.02516595566,4.345474198,1.278278026,-0.004728149245,-5.126991512
363.3025,0.5852228597,4.650668606,0.6678892111,-0.3099225569,-2.990630658
363.303,0.5852228597,5.261057421,1.888666842,-0.004728149245,-2.075047435
363.3035,0.8904172674,6.176640644,4.025027696,-0.004728149245,-2.075047435
363.304,2.111194898,6.787029459,4.025027696,-0.6151169646,-1.769853027
363.3045,3.637166937,6.787029459,1.888666842,-1.22550578,-1.464658619
363.305,5.163138975,6.481835052,0.05750039565,-0.9203113723,-1.159464212
363.3055,6.994305421,5.261057421,0.3626948034,-0.004728149245,-1.159464212
363.306,9.435860683,3.429890975,0.9730836188,-0.3099225569,0.06131341924
363.3065,11.26702713,2.209113344,0.9730836188,-2.141089003,1.587285458
363.307,10.65663831,2.209113344,0.3626948034,-3.056672226,1.587285458
363.3075,9.130666275,2.514307752,0.3626948034,-2.751477819,0.6717022346
363.308,8.52027746,1.598724528,0.05750039565,-1.835894595,0.6717022346
363.3085,9.130666275,0.3779468977,-0.247694012,-1.835894595,2.502868681
363.309,8.215083052,0.07275248999,-0.5528884197,-2.141089003,3.418451904
363.3095,6.078722198,0.07275248999,0.05750039565,-2.141089003,1.587285458
363.31,3.942361344,-0.5376363254,0.05750039565,-1.835894595,0.06131341924
363.3105,2.111194898,-1.453219549,0.05750039565,-2.141089003,0.9768966423
363.311,-1.245943586,-0.5376363254,0.6678892111,-3.361866634,4.028840719
363.3115,-5.213470887,0.3779468977,1.888666842,-4.277449857,4.639229535
363.312,-5.213470887,0.3779468977,1.888666842,-4.277449857,2.808063089
363.3125,-0.6355547711,-1.148025141,0.3626948034,-3.361866634,2.502868681
363.313,2.416389306,-2.368802772,0.05750039565,-3.361866634,6.775590389
363.3135,0.5852228597,-2.063608364,0.6678892111,-3.667061042,11.96389532
363.314,-2.771915625,-2.063608364,1.278278026,-4.277449857,12.26908973
363.3145,-3.077110033,-2.979191587,0.05750039565,-4.277449857,7.080784796
363.315,-1.245943586,-2.979191587,-1.468471643,-3.972255449,1.28209105
363.3155,-3.077110033,-0.8428307331,-1.773666051,-3.667061042,-0.8542698039
363.316,-7.960220556,0.07275248999,-0.5528884197,-2.751477819,0.06131341924
363.3165,-11.31735904,-0.2324419177,-0.247694012,-0.9203113723,1.587285458
363.317,-10.40177582,-1.148025141,-0.5528884197,0.3004662585,3.113257496
363.3175,-8.875803779,-0.2324419177,-0.247694012,0.6056606662,3.723646312
363.318,-8.570609371,0.6831413054,0.05750039565,0.3004662585,2.502868681
363.3185,-9.791387002,0.6831413054,0.05750039565,-0.004728149245,1.28209105
363.319,-11.62255345,0.07275248999,0.9730836188,-0.9203113723,2.197674273
363.3195,-14.06410871,0.3779468977,2.804250065,-2.751477819,5.24961835
363.32,-14.67449753,1.293530121,4.025027696,-4.277449857,7.385979204
363.3205,-10.70697023,1.598724528,2.499055657,-3.361866634,5.554812758
363.321,-3.38230444,1.903918936,0.05750039565,-0.9203113723,1.587285458
363.3215,0.280028452,3.429890975,0.3626948034,-0.004728149245,0.06131341924
363.322,-1.245943586,5.261057421,3.41463888,-0.9203113723,1.28209105
363.3225,-5.213470887,5.871446236,6.16138855,-1.835894595,2.197674273
363.323,-5.823859702,5.261057421,6.16138855,-0.9203113723,0.6717022346
363.3235,-2.466721217,4.955863013,4.330222103,-0.004728149245,-1.159464212
363.324,2.416389306,4.345474198,1.888666842,0.3004662585,-1.769853027
363.3245,7.604694237,2.819502159,-0.5528884197,-0.004728149245,-0.8542698039
363.325,11.57222154,1.293530121,-2.078860458,-0.004728149245,0.06131341924
363.3255,13.09819358,1.598724528,-1.468471643,0.6056606662,0.3665078269
363.326,11.87741594,2.514307752,0.6678892111,0.3004662585,0.06131341924
363.3265,10.96183272,2.514307752,0.9730836188,-0.6151169646,-2.68543625
363.327,12.18261035,1.293530121,-0.5528884197,-0.6151169646,-6.042574735
363.3275,14.0137768,0.9883357131,-1.773666051,-0.3099225569,-7.873741181
363.328,14.31897121,2.209113344,-1.468471643,-0.004728149245,-7.263352366
363.3285,13.70858239,2.514307752,-1.163277235,-0.004728149245,-6.042574735
363.329,12.48780476,2.209113344,-2.078860458,0.3004662585,-4.821797104
363.3295,11.26702713,2.209113344,-2.384054866,1.521243889,-3.295825065
363.33,10.35144391,2.209113344,-0.5528884197,1.521243889,-0.8542698039
363.3305,9.741055091,1.903918936,1.888666842,0.6056606662,0.06131341924
363.331,8.825471868,0.6831413054,2.804250065,0.6056606662,0.06131341924
363.3315,5.163138975,0.3779468977,2.804250065,2.74202152,-0.2438809885
363.332,-0.9407491788,1.293530121,2.804250065,3.962799151,0.06131341924
363.3325,-5.213470887,1.903918936,2.804250065,2.74202152,0.3665078269
363.333,-4.603082071,1.598724528,1.278278026,1.521243889,-1.769853027
363.3335,-1.245943586,1.598724528,0.05750039565,4.267993559,-5.432185919
363.334,-0.9407491788,2.209113344,0.3626948034,7.930326451,-6.958157958
363.3345,-3.687498848,1.903918936,0.9730836188,6.099160005,-4.211408289
363.335,-4.908276479,-0.2324419177,-0.247694012,-2.446283411,0.06131341924
363.3355,-3.687498848,-1.758413956,-3.299638089,-10.68653242,3.418451904
363.336,-3.38230444,-2.063608364,-5.130804535,-11.29692123,4.028840719
363.3365,-7.044637333,-1.453219549,-4.825610128,-5.803421896,3.418451904
363.337,-11.31735904,-1.453219549,-3.910026904,-0.9203113723,4.334035127
363.3375,-13.14852549,-2.368802772,-4.215221312,-0.3099225569,7.691173612
363.338,-13.45371989,-2.673997179,-3.604832497,-1.835894595,10.74311769
363.3385,-15.59008075,-1.453219549,-1.468471643,-2.446283411,9.827534466
363.339,-17.42124719,-0.5376363254,0.05750039565,-1.22550578,4.639229535
363.3395,-14.36930312,-0.8428307331,-0.5528884197,0.3004662585,-0.5490753962
363.34,-5.518665294,-1.453219549,-2.078860458,2.74202152,-2.990630658
363.3405,2.721583714,-1.758413956,-2.384054866,4.267993559,-3.295825065
363.341,6.078722198,-1.453219549,-1.163277235,3.962799151,-2.075047435
363.3415,4.857944568,-1.758413956,-0.8580828275,1.521243889,0.3665078269
363.342,3.942361344,-2.673997179,-0.8580828275,-1.530700188,4.028840719
363.3425,3.637166937,-2.368802772,0.05750039565,-3.361866634,6.775590389
363.343,1.806000491,-1.148025141,2.804250065,-3.972255449,7.691173612
363.3435,-1.551137994,-0.5376363254,4.635416511,-3.361866634,7.080784796
363.344,-2.466721217,-0.8428307331,4.330222103,-1.22550578,5.860007166
363.3445,2.111194898,-0.8428307331,2.499055657,2.436827112,3.418451904
363.345,10.0462495,-0.2324419177,0.3626948034,5.488771189,0.3665078269
363.3455,16.15013765,-0.8428307331,-0.8580828275,5.793965597,0.06131341924
363.346,19.20208173,-2.063608364,-2.384054866,3.657604743,2.502868681
363.3465,20.11766495,-2.673997179,-2.078860458,1.521243889,5.860007166
363.347,18.28649851,-1.758413956,0.05750039565,0.9108550739,6.165201573
363.3475,14.31897121,-0.5376363254,1.583472434,1.216049482,4.334035127
363.348,10.65663831,-1.758413956,1.888666842,1.216049482,2.502868681
363.3485,9.435860683,-3.589580402,1.278278026,1.216049482,1.28209105
363.349,9.741055091,-3.589580402,0.9730836188,1.826438297,0.9768966423
363.3495,7.909888645,-2.063608364,1.278278026,2.74202152,1.892479865
363.35,4.55275016,-1.758413956,0.9730836188,3.047215928,3.723646312
363.3505,1.806000491,-3.589580402,0.05750039565,2.131632705,5.24961835
363.351,0.8904172674,-4.810358033,0.05750039565,0.9108550739,4.639229535
363.3515,-0.6355547711,-4.505163626,-0.247694012,-0.004728149245,3.113257496
363.352,-3.38230444,-4.505163626,-1.163277235,-0.004728149245,1.892479865
363.3525,-4.297887663,-5.725941256,-2.994443681,-0.6151169646,0.3665078269
363.353,-2.16152681,-6.946718887,-4.52041572,-1.835894595,-1.769853027
363.3535,-0.3303603634,-6.641524479,-4.215221312,-2.141089003,-3.906213881
363.354,-1.856332402,-5.420746849,-2.384054866,-1.22550578,-2.990630658
363.3545,-6.12905411,-4.810358033,-1.163277235,-0.3099225569,-0.8542698039
363.355,-10.09658141,-4.199969218,-1.163277235,-0.004728149245,0.06131341924
363.3555,-12.23294226,-3.284385995,-1.468471643,-0.004728149245,-1.159464212
363.356,-13.14852549,-2.673997179,-1.468471643,-0.004728149245,-1.159464212
363.3565,-14.67449753,-3.589580402,-0.8580828275,-0.004728149245,0.3665078269
363.357,-16.50566397,-4.199969218,0.05750039565,-0.6151169646,1.587285458
363.3575,-17.7264416,-2.979191587,0.9730836188,-0.6151169646,0.06131341924
363.358,-16.81085838,-0.5376363254,0.9730836188,-0.004728149245,-2.075047435
363.3585,-13.7589143,-0.2324419177,0.05750039565,-0.004728149245,-2.68543625
363.359,-11.01216463,-0.8428307331,0.05750039565,-0.3099225569,-0.5490753962
363.3595,-11.01216463,-1.453219549,0.3626948034,-1.530700188,2.502868681
363.36,-13.14852549,-1.758413956,0.6678892111,-3.361866634,5.554812758
363.3605,-14.97969193,-2.673997179,0.3626948034,-6.108616303,8.301562427
363.361,-15.59008075,-3.589580402,0.6678892111,-9.16056038,9.522340058
363.3615,-14.97969193,-2.063608364,1.888666842,-10.38133801,7.385979204
363.362,-11.92774786,0.6831413054,3.109444473,-7.329393934,1.28209105
363.3625,-5.518665294,2.209113344,1.888666842,-1.835894595,-5.126991512
363.363,3.637166937,0.9883357131,-0.8580828275,2.74202152,-9.39971322
363.3635,11.87741594,0.07275248999,-2.689249274,4.573187966,-9.704907627
363.364,15.84494324,0.3779468977,-1.468471643,5.183576782,-8.178935589
363.3645,16.45533206,0.3779468977,0.3626948034,5.183576782,-6.65296355
363.365,16.76052647,-0.8428307331,0.3626948034,4.878382374,-5.737380327
363.3655,17.67610969,-2.063608364,-1.468471643,4.267993559,-5.737380327
363.366,17.9813041,-1.453219549,-2.384054866,4.267993559,-6.347769142
363.3665,16.76052647,-0.5376363254,-1.163277235,4.878382374,-6.042574735
363.367,14.92936002,-0.5376363254,0.05750039565,4.878382374,-4.211408289
363.3675,12.79299917,-0.8428307331,0.3626948034,3.657604743,-1.464658619
363.368,10.0462495,-0.5376363254,0.05750039565,1.826438297,0.06131341924
363.3685,6.994305421,-0.5376363254,0.3626948034,0.9108550739,0.3665078269
363.369,4.247555752,-1.148025141,0.9730836188,0.6056606662,0.9768966423
363.3695,2.721583714,-1.453219549,0.9730836188,0.6056606662,1.587285458
363.37,2.721583714,-1.148025141,0.3626948034,1.521243889,0.9768966423
363.3705,2.111194898,-1.453219549,0.6678892111,3.352410335,0.3665078269
363.371,-1.245943586,-1.758413956,2.499055657,3.047215928,0.6717022346
363.3715,-7.044637333,-0.8428307331,3.41463888,0.3004662585,1.587285458
363.372,-11.01216463,0.9883357131,2.499055657,-1.22550578,0.3665078269
363.3725,-7.960220556,0.9883357131,0.3626948034,0.3004662585,-2.68543625
363.373,-0.6355547711,-1.453219549,-0.247694012,4.267993559,-4.516602696
363.3735,3.331972529,-3.89477481,0.05750039565,5.488771189,-2.380241842
363.374,0.8904172674,-2.673997179,1.278278026,3.962799151,-0.5490753962
363.3745,-3.38230444,-0.2324419177,1.583472434,3.047215928,-2.075047435
363.375,-3.38230444,0.6831413054,0.9730836188,4.267993559,-5.737380327
363.3755,1.806000491,-0.2324419177,-0.247694012,6.404354412,-7.873741181
363.376,6.689111014,-1.148025141,-1.468471643,7.319937636,-7.873741181
363.3765,7.299499829,-0.2324419177,-1.468471643,7.625132043,-8.178935589
363.377,3.331972529,1.598724528,-0.8580828275,7.319937636,-8.789324404
363.3775,-1.856332402,2.209113344,-0.5528884197,6.404354412,-8.484129996
363.378,-7.044637333,1.598724528,-1.773666051,4.267993559,-6.347769142
363.3785,-11.01216463,1.293530121,-2.078860458,2.74202152,-4.211408289
363.379,-12.53813667,1.293530121,-0.5528884197,1.521243889,-2.380241842
363.3795,-12.84333108,0.9883357131,1.583472434,-0.3099225569,-1.159464212
363.38,-13.45371989,0.6831413054,3.109444473,-2.751477819,0.06131341924
363.3805,-14.36930312,0.07275248999,2.804250065,-3.361866634,0.06131341924
363.381,-12.53813667,0.07275248999,1.583472434,-1.530700188,-1.159464212
363.3815,-7.655026148,0.6831413054,0.05750039565,0.6056606662,-2.990630658
363.382,-2.466721217,0.6831413054,-0.5528884197,1.826438297,-4.211408289
363.3825,0.280028452,-0.5376363254,-0.8580828275,2.131632705,-4.821797104
363.383,0.8904172674,-2.368802772,-0.247694012,1.521243889,-4.821797104
363.3835,2.111194898,-2.673997179,0.05750039565,0.9108550739,-4.821797104
363.384,4.247555752,-1.453219549,-0.247694012,0.3004662585,-4.821797104
363.3845,6.689111014,-0.5376363254,-0.247694012,-0.3099225569,-4.516602696
363.385,6.383916606,0.07275248999,1.278278026,-0.6151169646,-3.295825065
363.3855,3.942361344,0.6831413054,3.719833288,-1.530700188,-2.075047435
363.386,1.195611675,1.293530121,4.940610919,-2.141089003,-3.295825065
363.3865,3.026778121,1.903918936,2.804250065,-1.530700188,-7.263352366
363.387,10.96183272,1.293530121,-0.247694012,0.6056606662,-11.84126848
363.3875,21.9488314,0.3779468977,-2.689249274,3.047215928,-12.7568517
363.388,29.27349718,-0.5376363254,-2.689249274,3.352410335,-10.01010203
363.3885,29.57869159,-1.148025141,-0.8580828275,1.216049482,-6.042574735
363.389,26.52674751,-0.8428307331,0.05750039565,-0.6151169646,-3.906213881
363.3895,24.39038666,-0.2324419177,0.05750039565,-1.530700188,-3.295825065
363.39,24.08519225,0.07275248999,0.05750039565,-1.835894595,-3.601019473
363.3905,22.86441462,-0.2324419177,0.05750039565,-2.751477819,-2.990630658
363.391,20.42285936,-0.5376363254,0.05750039565,-3.972255449,-0.8542698039
363.3915,17.06572088,-0.5376363254,-0.5528884197,-4.582644265,2.197674273
363.392,10.35144391,-1.148025141,-0.5528884197,-4.277449857,7.691173612
363.3925,-1.551137994,-2.673997179,0.05750039565,-3.667061042,13.18467295
363.393,-17.11605279,-3.589580402,0.3626948034,-2.751477819,16.54181144
363.3935,-27.79785706,-3.284385995,0.05750039565,-1.22550578,16.23661703
363.394,-30.23941232,-1.758413956,-0.247694012,-0.004728149245,13.18467295
363.3945,-29.6290235,-0.8428307331,0.6678892111,-0.9203113723,11.3535065
363.395,-31.46018995,0.07275248999,2.804250065,-4.277449857,10.74311769
363.3955,-33.2913564,1.598724528,3.719833288,-6.413810711,8.301562427
363.396,-28.40824587,3.124696567,2.499055657,-4.582644265,1.587285458
363.3965,-16.81085838,2.819502159,0.9730836188,-0.004728149245,-4.821797104
363.397,-7.044637333,2.514307752,0.3626948034,3.352410335,-6.347769142
363.3975,-4.603082071,2.209113344,0.6678892111,2.436827112,-3.295825065
363.398,-5.213470887,2.209113344,0.05750039565,0.6056606662,-2.075047435
363.3985,-3.077110033,1.293530121,-2.078860458,1.826438297,-5.432185919
363.399,-0.02516595566,0.9883357131,-3.910026904,4.573187966,-9.704907627
363.3995,-1.245943586,1.293530121,-3.910026904,4.267993559,-9.094518812
363.4,-7.34983174,1.903918936,-2.078860458,0.9108550739,-4.516602696
363.4005,-12.23294226,1.598724528,-0.247694012,-2.141089003,-1.769853027
363.401,-11.31735904,0.9883357131,0.05750039565,-2.751477819,-3.601019473
363.4015,-5.823859702,0.3779468977,-0.247694012,-2.141089003,-6.958157958
363.402,-0.02516595566,0.07275248999,-0.247694012,-2.446283411,-7.568546773
363.4025,5.163138975,0.07275248999,0.05750039565,-2.751477819,-4.516602696
363.403,10.65663831,0.07275248999,0.05750039565,-1.835894595,0.06131341924
363.4035,15.23455443,0.07275248999,-1.468471643,-1.22550578,4.639229535
363.404,16.15013765,-0.5376363254,-2.994443681,-2.141089003,8.606756835
363.4045,13.70858239,-2.063608364,-2.689249274,-3.361866634,11.96389532
363.405,11.26702713,-2.673997179,-1.163277235,-3.361866634,14.71064499
363.4055,10.0462495,-1.758413956,-0.5528884197,-2.751477819,15.93142262
363.406,9.130666275,-0.2324419177,0.05750039565,-3.667061042,13.48986736
363.4065,7.604694237,1.293530121,0.6678892111,-6.108616303,8.301562427
363.407,5.468333383,2.209113344,1.888666842,-7.939782749,3.113257496
363.4075,4.55275016,2.514307752,1.888666842,-7.329393934,1.892479865
363.408,6.689111014,1.293530121,0.6678892111,-5.19303308,4.028840719
363.4085,10.35144391,0.3779468977,-0.247694012,-2.751477819,6.775590389
363.409,12.48780476,0.07275248999,-0.247694012,-0.9203113723,6.775590389
363.4095,10.0462495,0.6831413054,0.3626948034,-0.9203113723,5.860007166
363.41,3.942361344,0.9883357131,2.19386125,-3.056672226,5.860007166
363.4105,-0.6355547711,0.3779468977,2.804250065,-5.803421896,5.24961835
363.411,0.8904172674,-0.2324419177,0.6678892111,-6.719005119,1.587285458
363.4115,7.299499829,-0.2324419177,-3.299638089,-4.887838672,-4.516602696
363.412,12.48780476,-0.2324419177,-6.046387758,-2.751477819,-9.704907627
363.4125,11.57222154,-0.2324419177,-4.52041572,-3.056672226,-9.704907627
363.413,5.468333383,0.07275248999,-0.8580828275,-4.277449857,-5.737380327
363.4135,-1.245943586,-0.2324419177,0.3626948034,-4.277449857,-2.990630658
363.414,-6.12905411,-0.5376363254,0.05750039565,-2.141089003,-3.295825065
363.4145,-8.265414964,-0.8428307331,-0.8580828275,-0.3099225569,-5.432185919
363.415,-7.655026148,-0.5376363254,-1.468471643,0.3004662585,-6.347769142
363.4155,-5.518665294,-0.2324419177,-2.689249274,0.9108550739,-5.737380327
363.416,-3.687498848,-1.758413956,-4.215221312,1.826438297,-4.516602696
363.4165,-5.213470887,-2.979191587,-4.215221312,2.436827112,-2.68543625
363.417,-9.791387002,-2.368802772,-1.773666051,1.216049482,-0.2438809885
363.4175,-15.28488634,-0.8428307331,0.05750039565,-0.6151169646,1.892479865
363.418,-18.94721923,-0.2324419177,1.278278026,-1.835894595,3.418451904
363.4185,-19.55760805,-1.453219549,2.19386125,-2.751477819,4.028840719
363.419,-18.03163601,-2.063608364,2.804250065,-3.972255449,3.113257496
363.4195,-15.89527516,-1.453219549,2.499055657,-4.887838672,0.9768966423
363.42,-13.14852549,-0.2324419177,1.278278026,-4.582644265,-1.464658619
363.4205,-11.31735904,0.6831413054,0.3626948034,-3.361866634,-2.990630658
363.421,-10.70697023,0.6831413054,1.278278026,-2.141089003,-2.075047435
363.4215,-11.92774786,0.3779468977,3.109444473,-1.22550578,-0.5490753962
363.422,-12.84333108,-0.5376363254,3.109444473,-0.9203113723,-0.5490753962
363.4225,-11.31735904,-1.453219549,1.583472434,-0.6151169646,-2.990630658
363.423,-6.739442925,-0.8428307331,0.05750039565,-1.22550578,-6.042574735
363.4235,-0.9407491788,0.6831413054,-0.5528884197,-2.141089003,-6.958157958
363.424,2.416389306,2.514307752,0.05750039565,-2.141089003,-4.821797104
363.4245,3.026778121,2.209113344,2.19386125,-2.141089003,-0.8542698039
363.425,1.806000491,0.6831413054,3.719833288,-3.056672226,0.9768966423
363.4255,3.331972529,-0.8428307331,2.804250065,-3.361866634,0.06131341924
363.426,8.215083052,-1.758413956,0.6678892111,-1.530700188,0.06131341924
363.4265,12.79299917,-2.368802772,0.05750039565,0.6056606662,3.723646312
363.427,12.79299917,-2.673997179,2.804250065,-0.004728149245,10.43792328
363.4275,9.435860683,-3.284385995,5.245805327,-2.446283411,14.40545058
363.428,8.825471868,-4.199969218,4.330222103,-3.056672226,13.18467295
363.4285,11.87741594,-4.505163626,1.583472434,-0.3099225569,11.3535065
363.429,13.70858239,-4.199969218,0.9730836188,2.74202152,12.87947854
363.4295,13.09819358,-3.284385995,1.583472434,4.573187966,13.48986736
363.43,14.92936002,-2.673997179,0.3626948034,5.183576782,7.996368019
363.4305,21.33844258,-2.979191587,-2.384054866,6.70954882,-1.464658619
363.431,25.61116429,-3.284385995,-3.604832497,7.319937636,-6.347769142
363.4315,20.42285936,-2.368802772,-0.5528884197,5.793965597,-3.295825065
363.432,7.604694237,-0.8428307331,3.109444473,3.352410335,2.197674273
363.4325,-3.077110033,-0.2324419177,3.41463888,0.9108550739,5.24961835
363.433,-7.655026148,-1.148025141,-0.247694012,-2.141089003,6.165201573
363.4335,-7.044637333,-3.284385995,-4.215221312,-6.108616303,5.554812758
363.434,-3.992693256,-4.199969218,-5.435998943,-7.024199526,2.502868681
363.4345,0.280028452,-3.589580402,-4.825610128,-2.751477819,-2.990630658
363.435,3.026778121,-2.673997179,-4.52041572,3.352410335,-6.347769142
363.4355,1.806000491,-2.673997179,-4.215221312,6.099160005,-5.432185919
363.436,-3.38230444,-2.368802772,-2.994443681,4.878382374,-2.075047435
363.4365,-8.875803779,-1.148025141,-0.247694012,2.436827112,-1.464658619
363.437,-10.09658141,-0.2324419177,0.6678892111,1.826438297,-2.990630658
363.4375,-7.34983174,-1.148025141,-0.5528884197,2.74202152,-4.211408289
363.438,-2.16152681,-2.673997179,-3.299638089,4.573187966,-3.906213881
363.4385,2.111194898,-2.673997179,-3.604832497,6.404354412,-2.68543625
363.439,2.416389306,-0.8428307331,-1.773666051,6.099160005,-1.464658619
363.4395,-1.245943586,0.6831413054,-0.8580828275,4.878382374,-1.159464212
363.44,-4.603082071,1.293530121,-2.384054866,4.878382374,-2.075047435
363.4405,-4.908276479,1.293530121,-3.604832497,6.70954882,-3.295825065
363.441,-5.213470887,1.598724528,-1.163277235,7.014743228,-2.990630658
363.4415,-8.875803779,1.903918936,2.19386125,3.352410335,0.06131341924
363.442,-13.45371989,1.903918936,3.109444473,-0.004728149245,2.197674273
363.4425,-12.53813667,1.903918936,0.9730836188,-0.004728149245,1.28209105
363.443,-6.434248517,2.209113344,0.05750039565,2.74202152,-0.5490753962
363.4435,-0.9407491788,2.819502159,0.6678892111,3.047215928,-2.075047435
363.444,2.111194898,3.429890975,1.278278026,2.131632705,-3.906213881
363.4445,6.689111014,4.650668606,-0.247694012,4.267993559,-9.094518812
363.445,13.09819358,5.871446236,-2.078860458,8.845909674,-15.50360137
363.4455,18.59169291,4.650668606,-2.078860458,9.45629849,-17.33476782
363.446,21.33844258,1.293530121,-1.468471643,2.436827112,-13.06204611
363.4465,23.16960903,-2.063608364,-2.689249274,-5.498227488,-7.568546773
363.447,23.47480344,-2.979191587,-5.435998943,-7.939782749,-3.906213881
363.4475,18.28649851,-2.063608364,-6.351582166,-4.277449857,-2.075047435
363.448,8.825471868,-1.758413956,-4.825610128,-0.004728149245,0.06131341924
363.4485,2.111194898,-2.063608364,-3.299638089,1.216049482,1.892479865
363.449,2.111194898,-2.673997179,-2.994443681,0.3004662585,3.113257496
363.4495,2.721583714,-2.063608364,-2.384054866,-1.22550578,4.334035127
363.45,-0.6355547711,-1.148025141,-0.247694012,-2.751477819,6.165201573
363.4505,-6.12905411,-0.2324419177,1.278278026,-4.277449857,7.691173612
363.451,-7.044637333,-0.2324419177,0.6678892111,-4.887838672,7.996368019
363.4515,-3.992693256,-0.8428307331,-1.163277235,-4.887838672,8.301562427
363.452,-3.077110033,-2.063608364,-1.468471643,-3.361866634,9.522340058
363.4525,-5.518665294,-2.673997179,-0.247694012,-0.6151169646,8.606756835
363.453,-6.434248517,-2.673997179,0.3626948034,1.826438297,4.639229535
363.4535,-5.213470887,-2.368802772,0.05750039565,2.74202152,0.9768966423
363.454,-5.518665294,-1.758413956,-0.5528884197,2.131632705,0.9768966423
363.4545,-8.570609371,-1.453219549,-0.247694012,2.131632705,2.502868681
363.455,-9.486192594,-0.8428307331,0.05750039565,3.047215928,0.9768966423
363.4555,-5.823859702,-0.8428307331,-0.247694012,3.962799151,-2.990630658
363.456,-1.245943586,-1.758413956,-2.384054866,3.352410335,-4.821797104
363.4565,-1.856332402,-2.368802772,-3.299638089,1.521243889,-1.769853027
363.457,-7.960220556,-2.063608364,-2.384054866,0.3004662585,2.197674273
363.4575,-14.06410871,-0.8428307331,0.05750039565,0.9108550739,3.113257496
363.458,-16.50566397,-0.2324419177,0.9730836188,2.131632705,1.28209105
363.4585,-15.89527516,-0.2324419177,0.6678892111,2.74202152,0.06131341924
363.459,-15.28488634,0.07275248999,-0.5528884197,1.826438297,-0.2438809885
363.4595,-15.89527516,0.9883357131,-1.773666051,0.9108550739,-0.5490753962
363.46,-16.50566397,1.293530121,-1.468471643,1.216049482,-0.5490753962
363.4605,-16.20046956,0.9883357131,-0.8580828275,2.74202152,0.06131341924
363.461,-14.06410871,0.9883357131,-0.8580828275,3.657604743,0.6717022346
363.4615,-11.31735904,1.598724528,-0.8580828275,3.657604743,0.3665078269
363.462,-9.486192594,2.209113344,0.05750039565,3.352410335,-0.2438809885
363.4625,-8.265414964,1.293530121,0.6678892111,3.047215928,-0.2438809885
363.463,-5.823859702,-0.2324419177,1.278278026,2.131632705,0.6717022346
363.4635,-2.466721217,-1.453219549,1.278278026,1.521243889,1.587285458
363.464,-0.02516595566,-0.5376363254,2.19386125,2.131632705,1.28209105
363.4645,1.195611675,0.3779468977,3.41463888,3.352410335,0.6717022346
363.465,2.111194898,1.903918936,3.719833288,4.573187966,1.28209105
363.4655,3.026778121,3.124696567,4.025027696,4.267993559,2.197674273
363.466,3.637166937,3.735085382,4.940610919,2.74202152,2.197674273
363.4665,3.942361344,3.429890975,6.466582957,1.521243889,1.892479865
363.467,5.468333383,1.903918936,6.466582957,0.6056606662,2.502868681
363.4675,7.909888645,1.598724528,5.550999734,0.3004662585,4.334035127
363.468,10.65663831,3.124696567,5.245805327,-0.004728149245,5.24961835
363.4685,13.09819358,4.650668606,5.856194142,-0.6151169646,4.028840719
363.469,16.15013765,4.650668606,6.16138855,-0.004728149245,0.6717022346
363.4695,19.81247054,3.735085382,5.245805327,2.131632705,-1.769853027
363.47,23.47480344,2.819502159,2.804250065,3.657604743,-2.380241842
363.4705,25.9163587,1.598724528,0.3626948034,3.352410335,-1.464658619
363.471,26.83194192,-0.5376363254,-2.384054866,0.9108550739,0.6717022346
363.4715,25.00077548,-2.673997179,-4.825610128,-0.6151169646,2.502868681
363.472,18.89688732,-3.284385995,-6.046387758,-0.9203113723,4.028840719
363.4725,7.909888645,-2.673997179,-6.351582166,-0.3099225569,6.165201573
363.473,-3.992693256,-1.758413956,-5.741193351,0.6056606662,8.606756835
363.4735,-12.84333108,-2.063608364,-4.215221312,2.436827112,9.522340058
363.474,-17.7264416,-2.368802772,-2.078860458,4.573187966,7.385979204
363.4745,-19.25241364,-1.453219549,-0.247694012,4.573187966,4.639229535
363.475,-16.50566397,-0.8428307331,0.3626948034,0.3004662585,4.944423942
363.4755,-10.70697023,-1.453219549,0.05750039565,-5.19303308,7.385979204
363.476,-5.518665294,-2.368802772,-0.247694012,-7.939782749,8.911951243
363.4765,-5.213470887,-2.368802772,-1.163277235,-6.719005119,8.301562427
363.477,-9.486192594,-1.148025141,-1.773666051,-4.582644265,7.691173612
363.4775,-13.7589143,-0.5376363254,-0.8580828275,-3.972255449,8.301562427
363.478,-15.28488634,-1.148025141,0.9730836188,-4.582644265,7.996368019
363.4785,-15.59008075,-1.758413956,2.499055657,-5.498227488,5.860007166
363.479,-17.7264416,-1.453219549,2.804250065,-6.108616303,4.944423942
363.4795,-21.6939689,0.6831413054,3.109444473,-6.413810711,5.24961835
363.48,-23.52513535,3.124696567,4.940610919,-6.413810711,3.418451904
363.4805,-18.33683042,4.04027979,6.466582957,-4.582644265,-2.68543625
363.481,-7.34983174,4.04027979,4.940610919,-0.3099225569,-9.39971322
363.4815,4.247555752,4.345474198,0.9730836188,3.962799151,-12.7568517
363.482,11.26702713,5.261057421,-1.773666051,5.793965597,-11.84126848
363.4825,12.18261035,5.261057421,-2.078860458,3.657604743,-8.789324404
363.483,10.35144391,4.04027979,-0.247694012,-0.004728149245,-5.432185919
363.4835,9.130666275,2.819502159,1.278278026,-1.530700188,-2.380241842
363.484,8.825471868,3.124696567,2.19386125,-0.6151169646,-2.075047435
363.4845,9.130666275,4.345474198,1.583472434,-0.004728149245,-3.601019473
363.485,9.741055091,4.345474198,0.05750039565,-0.6151169646,-3.601019473
363.4855,10.35144391,3.735085382,0.05750039565,-1.22550578,-1.464658619
363.486,10.35144391,3.735085382,0.6678892111,-0.3099225569,0.06131341924
363.4865,9.435860683,3.735085382,1.583472434,-0.004728149245,-0.8542698039
363.487,9.741055091,3.124696567,1.278278026,-0.004728149245,-1.769853027
363.4875,11.87741594,1.598724528,0.05750039565,-0.6151169646,-0.5490753962
363.488,14.0137768,0.9883357131,-1.163277235,-0.3099225569,0.06131341924
363.4885,14.92936002,1.903918936,-2.384054866,-0.004728149245,-2.075047435
363.489,14.0137768,2.514307752,-3.604832497,-0.004728149245,-4.821797104
363.4895,12.79299917,1.293530121,-3.910026904,-0.3099225569,-4.516602696
363.49,11.26702713,-0.2324419177,-2.689249274,-0.6151169646,-2.075047435
363.4905,9.435860683,0.07275248999,-0.247694012,-0.6151169646,-2.075047435
363.491,7.909888645,1.293530121,0.9730836188,-0.6151169646,-4.211408289
363.4915,6.383916606,2.514307752,1.278278026,-1.22550578,-4.821797104
363.492,4.247555752,2.209113344,0.9730836188,-1.22550578,-3.601019473
363.4925,1.806000491,1.903918936,0.3626948034,-0.6151169646,-3.295825065
363.493,0.8904172674,2.209113344,-0.8580828275,-0.004728149245,-4.211408289
363.4935,1.500806083,2.209113344,-2.078860458,0.6056606662,-4.516602696
363.494,1.195611675,1.598724528,-1.163277235,0.6056606662,-3.295825065
363.4945,-1.245943586,0.6831413054,0.3626948034,0.3004662585,-2.380241842
363.495,-4.908276479,0.6831413054,0.9730836188,-0.3099225569,-2.68543625
363.4955,-6.434248517,0.6831413054,0.3626948034,-1.530700188,-2.990630658
363.496,-6.12905411,0.6831413054,0.05750039565,-2.141089003,-2.380241842
363.4965,-6.739442925,0.3779468977,1.278278026,-2.446283411,-1.464658619
363.497,-8.875803779,0.3779468977,2.19386125,-1.530700188,-1.159464212
363.4975,-10.09658141,0.9883357131,2.19386125,-0.3099225569,0.06131341924
363.498,-10.09658141,0.9883357131,2.19386125,0.6056606662,1.892479865
363.4985,-9.791387002,-0.2324419177,2.499055657,0.6056606662,2.808063089
363.499,-10.40177582,-1.148025141,2.499055657,0.6056606662,1.587285458
363.4995,-11.31735904,-0.8428307331,2.499055657,0.9108550739,0.9768966423
363.5,-11.92774786,-0.2324419177,3.41463888,1.521243889,2.502868681
363.5005,-11.31735904,-0.2324419177,4.635416511,2.131632705,4.028840719
363.501,-8.265414964,-0.2324419177,4.330222103,2.436827112,3.418451904
363.5015,-3.077110033,-0.2324419177,2.19386125,2.74202152,0.9768966423
363.502,1.806000491,0.3779468977,0.3626948034,2.131632705,-0.5490753962
363.5025,3.942361344,0.3779468977,0.9730836188,1.216049482,-0.8542698039
363.503,3.637166937,-0.2324419177,2.804250065,-0.004728149245,-0.2438809885
363.5035,3.637166937,-0.8428307331,3.719833288,-0.004728149245,0.6717022346
363.504,4.55275016,-0.2324419177,4.025027696,-0.3099225569,2.197674273
363.5045,4.857944568,1.293530121,4.940610919,-1.22550578,2.808063089
363.505,4.247555752,2.514307752,5.856194142,-2.141089003,1.892479865
363.5055,3.942361344,1.903918936,5.856194142,-2.141089003,0.6717022346
363.506,5.468333383,0.3779468977,4.330222103,-1.22550578,0.06131341924
363.5065,7.299499829,-0.5376363254,3.109444473,-0.3099225569,0.06131341924
363.507,8.825471868,-1.148025141,2.499055657,-0.004728149245,-0.2438809885
363.5075,9.435860683,-1.453219549,2.19386125,-0.004728149245,-0.8542698039
363.508,8.825471868,-0.8428307331,1.583472434,-0.9203113723,-1.159464212
363.5085,6.689111014,0.07275248999,0.9730836188,-1.530700188,-0.5490753962
363.509,3.637166937,0.9883357131,1.583472434,-0.9203113723,0.06131341924
363.5095,2.416389306,-0.2324419177,2.19386125,-0.3099225569,0.3665078269
363.51,2.416389306,-2.063608364,2.499055657,-1.22550578,0.6717022346
363.5105,2.111194898,-2.979191587,2.499055657,-3.056672226,0.06131341924
363.511,-0.02516595566,-2.673997179,1.888666842,-4.277449857,-1.464658619
363.5115,-3.077110033,-2.063608364,2.19386125,-3.667061042,-3.906213881
363.512,-4.908276479,-2.368802772,2.499055657,-2.751477819,-4.821797104
363.5125,-5.823859702,-2.368802772,2.804250065,-3.361866634,-3.906213881
363.513,-7.34983174,-1.453219549,2.804250065,-3.972255449,-3.295825065
363.5135,-7.960220556,-0.5376363254,1.888666842,-2.751477819,-4.211408289
363.514,-5.823859702,-1.148025141,0.3626948034,-1.22550578,-5.737380327
363.5145,-1.551137994,-3.284385995,-0.5528884197,-0.6151169646,-5.126991512
363.515,1.500806083,-4.505163626,-1.468471643,-0.9203113723,-1.769853027
363.5155,2.416389306,-4.505163626,-2.078860458,-0.6151169646,2.502868681
363.516,1.500806083,-4.199969218,-1.773666051,-0.004728149245,6.775590389
363.5165,-0.6355547711,-3.89477481,-0.5528884197,-0.3099225569,10.13272887
363.517,-3.38230444,-3.284385995,0.9730836188,-2.141089003,11.96389532
363.5175,-5.823859702,-2.063608364,1.278278026,-3.056672226,11.96389532
363.518,-7.34983174,-1.148025141,0.05750039565,-2.141089003,9.827534466
363.5185,-8.875803779,-1.453219549,-1.773666051,-0.6151169646,6.775590389
363.519,-10.09658141,-2.063608364,-2.994443681,-0.3099225569,4.639229535
363.5195,-10.70697023,-2.063608364,-1.773666051,-0.6151169646,4.334035127
363.52,-12.23294226,-0.8428307331,-0.247694012,-1.530700188,5.24961835
363.5205,-14.36930312,0.3779468977,0.05750039565,-2.141089003,6.470395981
363.521,-15.59008075,1.293530121,-0.8580828275,-2.446283411,5.554812758
363.5215,-12.84333108,1.903918936,-2.078860458,-1.530700188,1.892479865
363.522,-6.434248517,2.209113344,-1.163277235,-0.004728149245,-1.464658619
363.5225,-0.02516595566,1.598724528,0.05750039565,0.9108550739,-2.380241842
363.523,3.331972529,0.3779468977,0.05750039565,1.521243889,-1.159464212
363.5235,5.468333383,-0.2324419177,-1.468471643,1.826438297,-0.2438809885
363.524,8.825471868,-0.5376363254,-2.994443681,1.826438297,-0.5490753962
363.5245,12.48780476,-0.8428307331,-2.689249274,0.6056606662,0.06131341924
363.525,13.40338798,-0.5376363254,-2.384054866,-1.22550578,0.9768966423
363.5255,11.57222154,0.6831413054,-2.384054866,-2.751477819,0.6717022346
363.526,8.215083052,2.514307752,-2.689249274,-3.056672226,-1.464658619
363.5265,5.468333383,4.04027979,-2.078860458,-2.751477819,-2.990630658
363.527,2.416389306,5.566251829,-0.247694012,-3.056672226,-1.464658619
363.5275,-0.3303603634,7.092223867,0.9730836188,-3.972255449,1.587285458
363.528,-2.466721217,8.313001498,1.583472434,-4.887838672,3.113257496
363.5285,-1.856332402,7.397418275,1.278278026,-6.108616303,1.28209105
363.529,1.806000491,4.955863013,0.3626948034,-6.108616303,-1.769853027
363.5295,7.909888645,2.514307752,-0.8580828275,-3.972255449,-3.601019473
363.53,11.87741594,1.293530121,-1.468471643,-0.9203113723,0.06131341924
363.5305,8.825471868,0.9883357131,0.3626948034,-0.6151169646,7.385979204
363.531,-0.6355547711,-0.2324419177,4.025027696,-3.972255449,12.26908973
363.5315,-9.180998187,-0.8428307331,5.245805327,-6.108616303,7.691173612
363.532,-7.655026148,-1.148025141,0.9730836188,-2.751477819,-3.601019473
363.5325,3.942361344,-1.148025141,-6.046387758,3.352410335,-12.7568517
363.533,16.45533206,-2.979191587,-10.92949828,7.625132043,-12.4516573
363.5335,19.20208173,-6.641524479,-10.31910947,7.319937636,-6.65296355
363.534,11.26702713,-9.083079741,-5.435998943,4.573187966,-2.68543625
363.5345,-0.02516595566,-8.777885333,-1.468471643,3.657604743,-2.380241842
363.535,-7.044637333,-6.031135664,-0.5528884197,4.267993559,-3.601019473
363.5355,-9.791387002,-2.979191587,-2.078860458,4.878382374,-4.516602696
363.536,-9.791387002,-1.758413956,-3.299638089,4.573187966,-5.737380327
363.5365,-9.486192594,-2.063608364,-2.994443681,4.573187966,-7.873741181
363.537,-8.570609371,-2.368802772,-2.689249274,4.267993559,-10.62049085
363.5375,-6.434248517,-2.368802772,-3.604832497,4.573187966,-13.67243493
363.538,-3.077110033,-2.368802772,-5.130804535,5.183576782,-16.11399019
363.5385,0.5852228597,-2.368802772,-6.046387758,5.793965597,-15.50360137
363.539,3.942361344,-2.979191587,-6.351582166,6.404354412,-12.14646289
363.5395,4.55275016,-3.284385995,-6.656776574,6.404354412,-8.484129996
363.54,2.111194898,-3.589580402,-6.351582166,5.488771189,-7.263352366
363.5405,-1.856332402,-3.284385995,-4.52041572,3.352410335,-6.042574735
363.541,-4.908276479,-2.368802772,-2.689249274,1.521243889,-3.601019473
363.5415,-3.992693256,-1.758413956,-1.468471643,1.216049482,-1.464658619
363.542,-0.6355547711,-1.148025141,-2.384054866,2.131632705,-2.380241842
363.5425,2.721583714,-1.453219549,-3.299638089,2.436827112,-4.211408289
363.543,4.55275016,-1.758413956,-2.994443681,2.131632705,-4.211408289
363.5435,5.468333383,-2.368802772,-1.773666051,2.131632705,-1.769853027
363.544,5.773527791,-2.673997179,-0.247694012,2.131632705,1.587285458
363.5445,5.163138975,-2.673997179,0.9730836188,1.216049482,4.944423942
363.545,3.331972529,-2.368802772,2.19386125,-0.3099225569,7.385979204
363.5455,3.026778121,-1.453219549,1.888666842,-0.6151169646,6.775590389
363.546,4.857944568,-0.8428307331,0.05750039565,0.6056606662,2.502868681
363.5465,7.909888645,-0.5376363254,-1.163277235,2.436827112,-1.159464212
363.547,8.52027746,-0.2324419177,-0.8580828275,1.826438297,-0.2438809885
363.5475,5.773527791,-0.5376363254,0.6678892111,-0.3099225569,4.639229535
363.548,1.500806083,-1.453219549,2.499055657,-2.751477819,10.13272887
363.5485,-2.466721217,-2.673997179,3.41463888,-4.277449857,13.48986736
363.549,-8.265414964,-2.368802772,3.41463888,-6.719005119,15.93142262
363.5495,-16.20046956,0.07275248999,3.719833288,-8.550171565,17.76258907
363.55,-22.60955213,3.124696567,4.940610919,-8.244977157,16.84700584
363.5505,-20.47319127,4.04027979,5.856194142,-5.498227488,10.74311769
363.551,-8.570609371,2.514307752,4.025027696,-2.141089003,0.06131341924
363.5515,5.773527791,0.3779468977,-1.163277235,0.6056606662,-10.31529644
363.552,14.31897121,-0.2324419177,-6.656776574,3.352410335,-17.33476782
363.5525,14.31897121,-0.2324419177,-9.403526243,4.878382374,-18.86073986
363.553,11.57222154,-0.2324419177,-8.793137428,4.878382374,-15.50360137
363.5535,10.35144391,0.3779468977,-6.961970981,4.573187966,-10.62049085
363.554,10.35144391,0.3779468977,-5.130804535,5.488771189,-6.958157958
363.5545,8.52027746,-0.5376363254,-3.299638089,7.319937636,-5.126991512
363.555,4.55275016,-3.284385995,-2.384054866,8.235520859,-4.821797104
363.5555,0.8904172674,-5.725941256,-2.994443681,7.625132043,-4.516602696
363.556,-0.9407491788,-6.336330072,-4.215221312,6.70954882,-3.906213881
363.5565,-1.856332402,-6.031135664,-4.52041572,5.183576782,-2.075047435
363.557,-2.16152681,-4.810358033,-3.604832497,1.826438297,-0.5490753962
363.5575,-2.466721217,-3.589580402,-4.215221312,-1.530700188,-1.769853027
363.558,-3.077110033,-1.148025141,-5.435998943,-0.9203113723,-4.516602696
363.5585,-4.908276479,0.9883357131,-4.52041572,4.573187966,-5.126991512
363.559,-7.34983174,1.903918936,-1.163277235,9.45629849,-1.464658619
363.5595,-7.655026148,0.3779468977,0.3626948034,6.099160005,2.808063089
363.56,-6.12905411,-1.148025141,-0.8580828275,-3.056672226,5.554812758
363.5605,-5.518665294,-1.758413956,-2.078860458,-10.68653242,6.775590389
363.561,-7.044637333,-0.2324419177,-0.8580828275,-11.29692123,7.996368019
363.5615,-8.570609371,0.6831413054,0.6678892111,-6.719005119,7.996368019
363.562,-6.434248517,0.9883357131,0.3626948034,-0.9203113723,4.639229535
363.5625,-0.9407491788,0.6831413054,-1.163277235,3.352410335,-0.5490753962
363.563,3.942361344,0.9883357131,-1.468471643,5.793965597,-3.601019473
363.5635,5.468333383,1.598724528,0.05750039565,5.488771189,-3.295825065
363.564,4.55275016,1.293530121,1.888666842,3.352410335,-0.5490753962
363.5645,2.721583714,-0.2324419177,2.499055657,2.436827112,1.892479865
363.565,1.500806083,-1.148025141,3.109444473,2.436827112,4.639229535
363.5655,0.280028452,-0.2324419177,4.330222103,2.131632705,5.860007166
363.566,-0.02516595566,0.6831413054,5.856194142,0.9108550739,4.944423942
363.5665,-0.6355547711,0.6831413054,7.687360588,-0.004728149245,2.808063089
363.567,-0.6355547711,-0.2324419177,8.908138219,-0.004728149245,1.28209105
363.5675,-0.02516595566,0.07275248999,9.213332627,0.3004662585,0.06131341924
363.568,2.111194898,1.293530121,7.992554996,1.216049482,-2.380241842
363.5685,6.078722198,1.903918936,6.466582957,2.74202152,-4.516602696
363.569,9.741055091,0.6831413054,6.466582957,5.183576782,-4.211408289
363.5695,10.65663831,-0.2324419177,6.771777365,6.404354412,-2.075047435
363.57,8.52027746,-0.5376363254,6.16138855,5.488771189,-0.8542698039
363.5705,4.857944568,-0.2324419177,4.330222103,3.962799151,-0.8542698039
363.571,1.195611675,-0.2324419177,2.499055657,2.436827112,-0.2438809885
363.5715,-1.245943586,-1.453219549,0.9730836188,1.216049482,0.9768966423
363.572,-2.16152681,-2.063608364,0.05750039565,-0.6151169646,0.9768966423
363.5725,-1.551137994,-2.979191587,-0.5528884197,-3.667061042,-0.5490753962
363.573,-0.3303603634,-3.89477481,-0.8580828275,-6.413810711,-1.769853027
363.5735,-1.551137994,-4.505163626,-0.247694012,-7.329393934,-0.8542698039
363.574,-4.297887663,-3.89477481,-0.247694012,-6.108616303,0.06131341924
363.5745,-6.12905411,-2.063608364,-0.247694012,-3.667061042,0.6717022346
363.575,-5.213470887,-0.2324419177,0.05750039565,-1.835894595,0.3665078269
363.5755,-2.466721217,-0.2324419177,0.05750039565,-1.530700188,0.3665078269
363.576,-0.02516595566,-0.5376363254,0.05750039565,-1.22550578,0.6717022346
363.5765,0.280028452,-0.8428307331,0.3626948034,-0.004728149245,2.197674273
363.577,-0.02516595566,-0.2324419177,1.583472434,0.3004662585,5.24961835
363.5775,0.280028452,1.293530121,2.499055657,-0.004728149245,8.301562427
363.578,4.247555752,1.598724528,2.19386125,-1.22550578,7.996368019
363.5785,10.35144391,-0.2324419177,0.6678892111,-0.6151169646,6.165201573
363.579,14.0137768,-2.368802772,-0.8580828275,1.216049482,7.691173612
363.5795,10.35144391,-4.810358033,-2.994443681,3.047215928,13.79506177
363.58,0.8904172674,-5.725941256,-4.215221312,4.267993559,19.59375551
363.5805,-8.875803779,-5.115552441,-2.994443681,4.878382374,19.89894992
363.581,-14.06410871,-3.284385995,0.05750039565,5.488771189,16.84700584
363.5815,-14.06410871,-0.8428307331,2.804250065,4.267993559,13.79506177
363.582,-10.70697023,0.6831413054,3.719833288,2.436827112,11.0483121
363.5825,-6.434248517,1.293530121,3.719833288,0.9108550739,6.775590389
363.583,-1.856332402,1.598724528,3.109444473,0.3004662585,0.9768966423
363.5835,2.111194898,1.903918936,2.19386125,-0.6151169646,-2.68543625
363.584,5.468333383,3.124696567,0.6678892111,-2.141089003,-3.295825065
363.5845,7.299499829,3.429890975,0.05750039565,-1.530700188,-2.380241842
363.585,7.604694237,3.124696567,0.9730836188,1.216049482,-2.075047435
363.5855,6.689111014,3.124696567,2.499055657,3.352410335,-2.68543625
363.586,5.468333383,3.735085382,2.499055657,2.74202152,-2.68543625
363.5865,4.247555752,4.345474198,1.583472434,0.6056606662,-2.075047435
363.587,4.247555752,4.650668606,1.278278026,-0.004728149245,-0.5490753962
363.5875,4.247555752,4.650668606,2.804250065,0.3004662585,0.3665078269
363.588,4.247555752,4.650668606,3.41463888,0.3004662585,0.06131341924
363.5885,4.247555752,4.04027979,3.109444473,-0.6151169646,-0.2438809885
363.589,4.55275016,2.819502159,2.499055657,-2.141089003,0.06131341924
363.5895,4.247555752,1.903918936,2.804250065,-3.056672226,0.6717022346
363.59,3.331972529,2.819502159,3.109444473,-3.361866634,0.6717022346
363.5905,1.500806083,4.345474198,2.499055657,-2.751477819,-0.5490753962
363.591,-0.02516595566,4.650668606,1.888666842,-1.835894595,-1.464658619
363.5915,-1.551137994,3.735085382,2.19386125,-1.22550578,-0.2438809885
363.592,-3.687498848,3.735085382,2.499055657,-0.9203113723,1.587285458
363.5925,-6.12905411,4.345474198,1.888666842,-1.22550578,2.502868681
363.593,-7.960220556,3.429890975,0.6678892111,-1.835894595,2.197674273
363.5935,-9.791387002,0.07275248999,0.3626948034,-2.751477819,1.587285458
363.594,-11.31735904,-2.673997179,1.278278026,-3.056672226,1.28209105
363.5945,-11.92774786,-2.368802772,1.583472434,-2.141089003,0.6717022346
363.595,-11.92774786,-1.148025141,0.3626948034,-0.3099225569,0.06131341924
363.5955,-12.23294226,-0.5376363254,-1.163277235,-0.3099225569,0.3665078269
363.596,-14.97969193,-1.148025141,-1.468471643,-2.446283411,1.28209105
363.5965,-19.55760805,-1.148025141,0.05750039565,-5.19303308,2.197674273
363.597,-23.21994094,-0.8428307331,1.583472434,-6.719005119,2.502868681
363.5975,-24.74591298,-0.2324419177,2.804250065,-7.329393934,2.502868681
363.598,-24.74591298,-0.2324419177,3.719833288,-8.244977157,2.808063089
363.5985,-24.44071857,0.6831413054,4.330222103,-8.855365973,0.9768966423
363.599,-21.38877449,2.514307752,4.025027696,-7.634588342,-2.68543625
363.5995,-14.36930312,3.429890975,2.19386125,-4.887838672,-6.958157958
363.6,-5.213470887,2.514307752,0.6678892111,-2.751477819,-8.484129996
363.6005,1.195611675,1.598724528,0.05750039565,-1.530700188,-6.65296355
363.601,4.247555752,1.598724528,0.05750039565,-0.3099225569,-4.821797104
363.6015,4.55275016,1.598724528,-0.247694012,1.216049482,-4.211408289
363.602,4.857944568,0.9883357131,-1.163277235,1.216049482,-5.126991512
363.6025,5.163138975,-0.2324419177,-1.163277235,-0.6151169646,-5.737380327
363.603,5.773527791,-0.5376363254,-0.8580828275,-2.446283411,-5.737380327
363.6035,6.689111014,-0.2324419177,-1.163277235,-2.141089003,-5.432185919
363.604,7.604694237,0.07275248999,-2.078860458,-1.530700188,-5.432185919
363.6045,8.825471868,0.3779468977,-2.689249274,-2.141089003,-5.432185919
363.605,9.435860683,-0.2324419177,-2.078860458,-3.361866634,-4.211408289
363.6055,9.741055091,-1.148025141,-0.247694012,-3.056672226,-2.380241842
363.606,10.35144391,-2.673997179,0.9730836188,-2.446283411,-0.5490753962
363.6065,11.26702713,-2.673997179,1.583472434,-2.751477819,0.06131341924
363.607,11.57222154,-0.5376363254,0.3626948034,-3.056672226,0.06131341924
363.6075,10.0462495,1.293530121,-0.8580828275,-1.835894595,-0.2438809885
363.608,8.215083052,1.903918936,-1.163277235,-0.6151169646,0.06131341924
363.6085,6.689111014,0.6831413054,-0.5528884197,-1.22550578,0.3665078269
363.609,6.078722198,-0.2324419177,-0.5528884197,-3.056672226,-0.2438809885
363.6095,3.942361344,0.07275248999,-1.163277235,-3.056672226,-1.464658619
363.61,-0.02516595566,0.9883357131,-0.8580828275,-1.530700188,-0.8542698039
363.6105,-5.213470887,0.6831413054,0.05750039565,-1.530700188,0.9768966423
363.611,-9.791387002,0.07275248999,0.9730836188,-3.972255449,2.808063089
363.6115,-13.7589143,0.3779468977,2.19386125,-6.719005119,2.502868681
363.612,-15.89527516,1.598724528,3.719833288,-6.719005119,0.9768966423
363.6125,-14.06410871,2.209113344,4.330222103,-4.582644265,0.06131341924
363.613,-8.265414964,1.903918936,2.19386125,-1.530700188,-2.68543625
363.6135,-2.466721217,2.209113344,-0.247694012,0.9108550739,-6.958157958
363.614,-0.9407491788,2.819502159,-1.773666051,2.436827112,-10.01010203
363.6145,-3.687498848,2.819502159,-0.8580828275,2.74202152,-9.39971322
363.615,-8.265414964,0.3779468977,-0.247694012,1.521243889,-4.821797104
363.6155,-12.84333108,-1.148025141,-0.5528884197,0.3004662585,-0.5490753962
363.616,-17.7264416,-0.2324419177,-0.247694012,-0.9203113723,0.9768966423
363.6165,-21.6939689,1.598724528,0.3626948034,-2.141089003,2.197674273
363.617,-19.86280246,1.598724528,0.3626948034,-1.835894595,3.113257496
363.6175,-11.01216463,-0.8428307331,-1.468471643,-0.004728149245,1.587285458
363.618,0.280028452,-2.979191587,-4.215221312,2.436827112,-3.601019473
363.6185,8.215083052,-2.368802772,-5.435998943,3.352410335,-10.31529644
363.619,11.57222154,-0.5376363254,-5.435998943,3.657604743,-12.4516573
363.6195,13.09819358,-0.2324419177,-6.046387758,4.878382374,-7.873741181
363.62,14.31897121,-1.453219549,-6.656776574,7.014743228,-0.5490753962
363.6205,13.40338798,-2.368802772,-6.351582166,7.625132043,4.028840719
363.621,8.52027746,-2.063608364,-5.130804535,5.793965597,5.24961835
363.6215,-0.02516595566,-1.148025141,-2.689249274,3.047215928,5.554812758
363.622,-8.875803779,-0.2324419177,-0.5528884197,-0.004728149245,6.775590389
363.6225,-14.06410871,0.6831413054,0.05750039565,-3.056672226,8.301562427
363.623,-14.36930312,0.6831413054,0.05750039565,-4.887838672,9.21714565
363.6235,-12.84333108,0.6831413054,0.9730836188,-4.887838672,9.522340058
363.624,-12.84333108,0.6831413054,3.109444473,-4.887838672,9.21714565
363.6245,-12.84333108,0.9883357131,4.940610919,-5.498227488,5.860007166
363.625,-8.570609371,1.598724528,4.330222103,-4.277449857,-0.5490753962
363.6255,3.026778121,1.598724528,1.888666842,0.3004662585,-7.568546773
363.626,19.81247054,0.9883357131,-1.468471643,6.70954882,-10.01010203
363.6265,35.68257975,-0.5376363254,-5.435998943,9.761492897,-7.568546773
363.627,43.31243994,-2.368802772,-8.182748612,7.625132043,-2.990630658
363.6275,39.65010705,-3.89477481,-8.182748612,3.657604743,-0.2438809885
363.628,28.35791396,-3.89477481,-4.825610128,0.6056606662,0.3665078269
363.6285,20.11766495,-2.979191587,-1.773666051,-0.004728149245,0.06131341924
363.629,20.42285936,-2.979191587,-1.773666051,-0.004728149245,-2.075047435
363.6295,24.69558107,-3.589580402,-3.604832497,0.6056606662,-4.516602696
363.63,24.39038666,-3.589580402,-3.910026904,1.826438297,-5.432185919
363.6305,17.37091528,-3.589580402,-2.994443681,1.826438297,-2.990630658
363.631,10.35144391,-4.199969218,-3.299638089,0.6056606662,0.6717022346
363.6315,6.994305421,-5.725941256,-3.910026904,-0.004728149245,2.808063089
363.632,4.247555752,-6.031135664,-2.384054866,-0.004728149245,1.587285458
363.6325,0.280028452,-3.89477481,0.05750039565,-0.6151169646,-0.5490753962
363.633,-1.245943586,-0.8428307331,0.6678892111,-1.835894595,-2.380241842
363.6335,0.280028452,-0.2324419177,-0.247694012,-1.530700188,-2.380241842
363.634,2.111194898,-1.758413956,-1.773666051,1.216049482,-1.769853027
363.6345,-0.02516595566,-2.673997179,-1.468471643,3.657604743,-0.8542698039
363.635,-5.213470887,-1.758413956,-0.5528884197,3.352410335,0.06131341924
363.6355,-10.09658141,-0.5376363254,-0.247694012,0.9108550739,0.06131341924
363.636,-11.01216463,-0.8428307331,-0.247694012,-0.9203113723,-1.464658619
363.6365,-9.180998187,-1.758413956,-0.247694012,-0.3099225569,-4.516602696
363.637,-6.739442925,-2.368802772,-1.468471643,1.521243889,-6.958157958
363.6375,-5.213470887,-2.673997179,-3.299638089,3.352410335,-5.737380327
363.638,-6.12905411,-2.673997179,-4.215221312,3.657604743,-1.464658619
363.6385,-8.570609371,-2.673997179,-2.384054866,2.131632705,1.892479865
363.639,-10.40177582,-2.368802772,0.05750039565,-0.004728149245,2.502868681
363.6395,-11.01216463,-2.063608364,1.278278026,-1.530700188,2.197674273
363.64,-10.70697023,-2.063608364,0.9730836188,-1.530700188,3.113257496
363.6405,-10.09658141,-2.368802772,0.3626948034,-0.9203113723,4.639229535
363.641,-7.044637333,-2.368802772,0.05750039565,-0.004728149245,3.418451904
363.6415,-2.16152681,-1.453219549,-0.5528884197,-0.004728149245,0.3665078269
363.642,1.806000491,-0.5376363254,-0.8580828275,-0.3099225569,-1.464658619
363.6425,2.721583714,-0.2324419177,-0.5528884197,-1.22550578,-0.5490753962
363.643,2.416389306,-0.2324419177,0.6678892111,-1.835894595,1.587285458
363.6435,3.637166937,-0.5376363254,1.583472434,-2.446283411,2.502868681
363.644,5.468333383,-0.8428307331,1.278278026,-2.751477819,1.892479865
363.6445,6.383916606,-0.5376363254,0.05750039565,-3.056672226,1.28209105
363.645,6.383916606,-0.2324419177,-1.163277235,-3.667061042,0.6717022346
363.6455,6.689111014,0.07275248999,-1.163277235,-3.361866634,0.06131341924
363.646,7.604694237,0.6831413054,-0.247694012,-2.141089003,0.06131341924
363.6465,7.909888645,0.9883357131,0.05750039565,-0.3099225569,-0.2438809885
363.647,7.299499829,0.3779468977,0.6678892111,0.6056606662,0.06131341924
363.6475,6.994305421,-0.2324419177,1.278278026,0.3004662585,0.9768966423
363.648,6.994305421,-0.2324419177,1.888666842,-1.530700188,3.418451904
363.6485,6.689111014,0.07275248999,1.583472434,-4.277449857,5.554812758
363.649,6.078722198,0.07275248999,0.9730836188,-5.19303308,5.860007166
363.6495,4.55275016,-1.453219549,1.278278026,-4.277449857,5.554812758
363.65,3.026778121,-2.673997179,2.499055657,-3.056672226,6.165201573
363.6505,1.195611675,-2.063608364,3.719833288,-3.056672226,7.385979204
363.651,0.5852228597,-0.5376363254,2.499055657,-2.751477819,6.470395981
363.6515,1.806000491,-1.148025141,0.05750039565,-1.530700188,3.113257496
363.652,3.331972529,-3.284385995,-2.384054866,-1.22550578,0.3665078269
363.6525,3.026778121,-4.199969218,-3.299638089,-2.751477819,0.06131341924
363.653,1.195611675,-2.368802772,-3.299638089,-4.887838672,1.587285458
363.6535,-0.9407491788,-0.8428307331,-2.384054866,-4.887838672,3.113257496
363.654,-3.687498848,-1.453219549,-0.8580828275,-3.361866634,4.639229535
363.6545,-6.434248517,-2.979191587,0.05750039565,-3.361866634,6.165201573
363.655,-8.570609371,-2.979191587,0.6678892111,-3.667061042,6.165201573
363.6555,-9.180998187,-1.758413956,0.05750039565,-2.751477819,4.334035127
363.656,-9.486192594,-2.063608364,-1.468471643,-0.9203113723,3.418451904
363.6565,-11.62255345,-3.284385995,-1.468471643,-1.22550578,6.165201573
363.657,-15.89527516,-3.89477481,0.05750039565,-4.277449857,11.0483121
363.6575,-19.55760805,-3.284385995,2.19386125,-7.024199526,13.79506177
363.658,-21.6939689,-2.979191587,4.025027696,-7.024199526,12.26908973
363.6585,-21.08358009,-2.979191587,4.635416511,-4.887838672,8.911951243
363.659,-17.7264416,-2.063608364,3.719833288,-2.141089003,5.24961835
363.6595,-10.40177582,-0.2324419177,2.19386125,0.9108550739,0.9768966423
363.66,-1.551137994,0.9883357131,0.05750039565,4.267993559,-2.68543625
363.6605,3.026778121,1.293530121,-0.5528884197,5.793965597,-4.516602696
363.661,1.195611675,2.209113344,0.05750039565,4.573187966,-3.906213881
363.6615,-4.908276479,3.429890975,1.583472434,2.131632705,-1.769853027
363.662,-9.791387002,3.735085382,2.19386125,0.9108550739,0.06131341924
363.6625,-9.486192594,2.209113344,1.583472434,1.216049482,1.28209105
363.663,-6.434248517,1.293530121,0.05750039565,1.521243889,1.28209105
363.6635,-4.603082071,1.903918936,-0.247694012,1.216049482,0.06131341924
363.664,-4.297887663,1.903918936,0.3626948034,0.3004662585,-1.159464212
363.6645,-1.856332402,-0.5376363254,2.19386125,0.3004662585,-2.380241842
363.665,6.078722198,-3.284385995,3.41463888,1.826438297,-3.906213881
363.6655,16.15013765,-3.589580402,2.804250065,4.878382374,-7.263352366
363.666,21.33844258,-2.368802772,1.583472434,7.319937636,-10.92568526
363.6665,19.50727614,-2.673997179,0.05750039565,8.235520859,-11.84126848
363.667,14.92936002,-4.505163626,-0.5528884197,7.319937636,-9.39971322
363.6675,13.09819358,-5.420746849,-0.247694012,6.70954882,-6.042574735
363.668,13.70858239,-3.89477481,0.05750039565,6.099160005,-4.211408289
363.6685,13.09819358,-2.063608364,0.6678892111,5.488771189,-4.211408289
363.669,10.65663831,-1.148025141,1.888666842,3.962799151,-4.821797104
363.6695,10.0462495,-0.5376363254,3.719833288,2.436827112,-5.126991512
363.67,12.18261035,-0.2324419177,5.245805327,2.436827112,-5.126991512
363.6705,14.62416561,-0.2324419177,5.245805327,3.352410335,-4.211408289
363.671,15.84494324,-0.5376363254,3.41463888,3.962799151,-2.075047435
363.6715,17.37091528,-0.5376363254,1.583472434,2.74202152,0.06131341924
363.672,19.81247054,-0.2324419177,1.888666842,-0.004728149245,0.9768966423
363.6725,20.42285936,-0.2324419177,3.41463888,-0.3099225569,0.6717022346
363.673,15.84494324,-0.2324419177,4.940610919,2.74202152,0.3665078269
363.6735,8.825471868,0.07275248999,4.635416511,5.793965597,0.9768966423
363.674,3.637166937,-0.2324419177,2.499055657,2.74202152,2.502868681
363.6745,-0.02516595566,-1.148025141,-0.247694012,-5.498227488,4.639229535
363.675,-6.739442925,-2.979191587,-3.299638089,-11.29692123,6.165201573
363.6755,-15.28488634,-3.89477481,-5.130804535,-8.550171565,5.554812758
363.676,-21.38877449,-3.589580402,-5.130804535,-0.9203113723,3.113257496
363.6765,-21.99916331,-2.673997179,-4.215221312,3.962799151,1.587285458
363.677,-20.16799686,-2.063608364,-2.689249274,4.573187966,2.197674273
363.6775,-19.86280246,-1.453219549,-0.5528884197,3.047215928,4.028840719
363.678,-20.77838568,-0.2324419177,1.583472434,1.216049482,5.24961835
363.6785,-21.38877449,0.3779468977,3.109444473,-0.6151169646,5.860007166
363.679,-20.77838568,0.6831413054,2.804250065,-2.446283411,5.24961835
363.6795,-18.94721923,0.6831413054,1.888666842,-2.446283411,3.723646312
363.68,-16.50566397,0.6831413054,1.583472434,-1.22550578,0.9768966423
363.6805,-12.53813667,0.9883357131,1.278278026,-0.004728149245,-1.159464212
363.681,-7.34983174,1.293530121,0.05750039565,1.216049482,-2.075047435
363.6815,-2.16152681,1.293530121,-1.163277235,3.657604743,-2.075047435
363.682,3.026778121,0.9883357131,-0.8580828275,7.319937636,-1.464658619
363.6825,7.909888645,0.6831413054,0.3626948034,9.45629849,-0.5490753962
363.683,9.435860683,0.9883357131,1.583472434,9.45629849,0.06131341924
363.6835,6.689111014,1.903918936,1.583472434,7.625132043,0.6717022346
363.684,1.806000491,2.514307752,1.888666842,4.878382374,0.06131341924
363.6845,-0.02516595566,2.209113344,2.19386125,1.521243889,-1.464658619
363.685,3.331972529,2.514307752,1.888666842,-0.004728149245,-3.601019473
363.6855,9.435860683,3.735085382,0.6678892111,0.9108550739,-5.432185919
363.686,14.31897121,4.04027979,-0.247694012,2.74202152,-6.347769142
363.6865,16.45533206,2.514307752,-0.5528884197,3.962799151,-6.347769142
363.687,16.45533206,0.3779468977,0.05750039565,3.047215928,-4.821797104
363.6875,15.23455443,-0.2324419177,0.05750039565,1.826438297,-2.380241842
363.688,13.40338798,1.293530121,0.05750039565,1.216049482,-0.5490753962
363.6885,11.26702713,2.819502159,-0.5528884197,1.216049482,0.06131341924
363.689,10.0462495,2.819502159,-0.5528884197,1.521243889,0.9768966423
363.6895,8.825471868,2.514307752,0.05750039565,2.131632705,1.587285458
363.69,6.078722198,2.819502159,0.6678892111,1.826438297,2.808063089
363.6905,2.721583714,3.124696567,1.583472434,1.216049482,3.723646312
363.691,1.195611675,2.819502159,2.499055657,1.521243889,3.418451904
363.6915,2.721583714,1.903918936,2.804250065,3.047215928,1.28209105
363.692,5.163138975,0.9883357131,1.888666842,3.657604743,-0.8542698039
363.6925,5.163138975,0.9883357131,0.05750039565,2.131632705,-2.075047435
363.693,3.026778121,1.903918936,-0.8580828275,0.3004662585,-1.464658619
363.6935,-0.02516595566,2.514307752,-0.247694012,-0.004728149245,0.06131341924
363.694,-2.466721217,1.903918936,1.583472434,0.6056606662,1.587285458
363.6945,-5.518665294,0.6831413054,2.499055657,0.3004662585,1.587285458
363.695,-7.960220556,0.07275248999,1.583472434,-0.004728149245,0.3665078269
363.6955,-8.875803779,0.9883357131,-0.8580828275,-0.004728149245,-0.8542698039
363.696,-8.570609371,1.598724528,-3.604832497,1.216049482,-1.159464212
363.6965,-8.570609371,0.3779468977,-5.435998943,1.216049482,-0.5490753962
363.697,-9.486192594,-1.758413956,-6.351582166,-0.004728149245,-1.159464212
363.6975,-10.09658141,-2.063608364,-6.961970981,-1.22550578,-2.68543625
363.698,-10.40177582,-0.8428307331,-7.267165389,-1.835894595,-3.601019473
363.6985,-10.70697023,-0.2324419177,-6.351582166,-2.751477819,-2.075047435
363.699,-11.62255345,-0.8428307331,-4.215221312,-3.667061042,-0.2438809885
363.6995,-11.62255345,-1.758413956,-2.384054866,-3.361866634,-0.5490753962
363.7,-11.31735904,-1.148025141,-1.163277235,-2.446283411,-1.464658619
363.7005,-11.62255345,-0.2324419177,0.05750039565,-1.835894595,-0.5490753962
363.701,-11.92774786,0.3779468977,1.583472434,-2.751477819,0.3665078269
363.7015,-9.791387002,0.3779468977,3.41463888,-3.972255449,-0.2438809885
363.702,-5.213470887,0.6831413054,3.109444473,-3.667061042,-4.516602696
363.7025,0.280028452,1.903918936,1.583472434,-1.22550578,-8.178935589
363.703,5.163138975,3.124696567,0.05750039565,2.74202152,-8.789324404
363.7035,10.0462495,4.04027979,-0.8580828275,5.793965597,-6.347769142
363.704,13.09819358,3.735085382,-1.773666051,4.573187966,-2.990630658
363.7045,12.48780476,2.514307752,-2.384054866,-0.9203113723,0.6717022346
363.705,6.994305421,1.598724528,-2.078860458,-6.719005119,4.028840719
363.7055,0.5852228597,1.293530121,0.05750039565,-8.550171565,6.165201573
363.706,-4.603082071,2.209113344,4.025027696,-7.634588342,6.775590389
363.7065,-9.180998187,3.429890975,7.38216618,-8.550171565,7.691173612
363.707,-12.23294226,4.04027979,7.38216618,-10.0761436,7.385979204
363.7075,-8.570609371,3.124696567,3.719833288,-7.939782749,3.113257496
363.708,5.163138975,1.293530121,-1.468471643,-0.6151169646,-5.737380327
363.7085,22.86441462,0.07275248999,-5.741193351,6.70954882,-14.28282374
363.709,32.02024685,0.07275248999,-6.656776574,10.37188171,-16.4191846
363.7095,29.27349718,0.07275248999,-5.435998943,9.761492897,-12.7568517
363.71,20.72805377,-0.5376363254,-3.604832497,7.625132043,-8.178935589
363.7105,14.92936002,-0.8428307331,-3.299638089,4.878382374,-6.347769142
363.711,12.18261035,-0.2324419177,-3.910026904,1.521243889,-6.958157958
363.7115,8.825471868,0.07275248999,-3.910026904,-0.3099225569,-6.958157958
363.712,3.637166937,-0.5376363254,-3.299638089,-0.9203113723,-6.042574735
363.7125,-0.3303603634,-1.758413956,-2.078860458,-0.6151169646,-3.906213881
363.713,-2.771915625,-1.148025141,-0.8580828275,-0.9203113723,-1.464658619
363.7135,-4.603082071,0.6831413054,0.05750039565,-1.835894595,0.06131341924
363.714,-7.655026148,1.293530121,0.05750039565,-3.361866634,0.9768966423
363.7145,-11.62255345,-0.2324419177,0.6678892111,-4.887838672,0.6717022346
363.715,-14.67449753,-0.8428307331,2.19386125,-5.498227488,0.6717022346
363.7155,-15.89527516,0.3779468977,3.109444473,-4.277449857,0.6717022346
363.716,-14.97969193,2.209113344,2.804250065,-2.446283411,-0.2438809885
363.7165,-14.36930312,2.514307752,1.583472434,-2.141089003,-2.68543625
363.717,-14.97969193,1.903918936,0.6678892111,-3.056672226,-5.126991512
363.7175,-15.59008075,1.903918936,0.3626948034,-2.751477819,-5.737380327
363.718,-14.06410871,2.819502159,0.05750039565,-0.9203113723,-4.821797104
363.7185,-11.01216463,3.124696567,-1.163277235,0.3004662585,-4.516602696
363.719,-9.180998187,2.819502159,-0.8580828275,-0.004728149245,-4.211408289
363.7195,-10.70697023,2.514307752,0.9730836188,-0.3099225569,-3.601019473
363.72,-12.84333108,2.514307752,2.804250065,0.3004662585,-2.68543625
363.7205,-13.45371989,2.819502159,3.41463888,0.9108550739,-2.075047435
363.721,-12.53813667,3.429890975,3.719833288,-0.6151169646,-1.769853027
363.7215,-11.01216463,3.124696567,4.635416511,-3.056672226,-0.2438809885
363.722,-7.655026148,1.903918936,5.856194142,-3.361866634,2.197674273
363.7225,-1.856332402,0.6831413054,5.550999734,-1.835894595,4.334035127
363.723,3.026778121,0.9883357131,4.025027696,-0.004728149245,6.165201573
363.7235,5.468333383,1.293530121,2.804250065,-0.004728149245,7.385979204
363.724,7.909888645,0.6831413054,2.804250065,0.3004662585,7.691173612
363.7245,12.79299917,-0.2324419177,2.19386125,-0.004728149245,6.775590389
363.725,18.59169291,-0.2324419177,0.3626948034,-0.3099225569,4.944423942
363.7255,20.42285936,0.9883357131,-0.8580828275,-0.6151169646,3.418451904
363.726,17.9813041,1.903918936,-0.247694012,-0.3099225569,2.197674273
363.7265,14.92936002,1.598724528,0.9730836188,0.3004662585,0.6717022346
363.727,13.70858239,2.209113344,1.583472434,0.9108550739,-1.159464212
363.7275,13.09819358,3.124696567,1.278278026,1.216049482,-2.68543625
363.728,11.26702713,3.124696567,0.6678892111,0.9108550739,-2.990630658
363.7285,10.0462495,1.598724528,0.9730836188,0.6056606662,-2.990630658
363.729,10.0462495,0.6831413054,1.583472434,-0.004728149245,-2.990630658
363.7295,9.130666275,0.6831413054,1.278278026,-0.9203113723,-1.464658619
363.73,4.857944568,0.07275248999,0.9730836188,-2.141089003,1.892479865
363.7305,-1.551137994,-1.453219549,1.278278026,-4.277449857,6.165201573
363.731,-7.960220556,-2.673997179,1.888666842,-6.719005119,10.43792328
363.7315,-13.7589143,-2.063608364,3.41463888,-7.939782749,15.3210338
363.732,-19.86280246,-0.2324419177,5.856194142,-8.855365973,20.50933874
363.7325,-24.74591298,0.9883357131,8.908138219,-10.0761436,20.81453314
363.733,-23.52513535,1.293530121,10.43411026,-10.38133801,13.18467295
363.7335,-12.23294226,0.3779468977,7.687360588,-6.719005119,1.28209105
363.734,5.773527791,-1.453219549,0.3626948034,1.216049482,-6.65296355
363.7345,21.33844258,-3.89477481,-6.656776574,10.37188171,-6.958157958
363.735,25.9163587,-4.810358033,-9.708720651,14.94979783,-2.075047435
363.7355,19.20208173,-4.199969218,-7.572359797,13.7290202,1.892479865
363.736,7.909888645,-3.284385995,-3.910026904,10.0666873,3.113257496
363.7365,-0.02516595566,-3.89477481,-2.689249274,6.404354412,1.892479865
363.737,-4.908276479,-3.89477481,-2.994443681,4.267993559,0.3665078269
363.7375,-9.486192594,-2.979191587,-1.773666051,2.436827112,0.06131341924
363.738,-14.36930312,-2.063608364,0.9730836188,0.6056606662,0.06131341924
363.7385,-16.50566397,-2.063608364,2.804250065,-0.6151169646,-0.5490753962
363.739,-14.36930312,-1.453219549,1.888666842,-0.9203113723,-2.68543625
363.7395,-10.40177582,-0.2324419177,0.05750039565,-0.004728149245,-4.821797104
363.74,-7.960220556,0.6831413054,0.6678892111,1.826438297,-4.211408289
363.7405,-8.265414964,0.07275248999,3.109444473,1.216049482,-1.159464212
363.741,-8.875803779,-1.148025141,4.025027696,-0.9203113723,1.28209105
363.7415,-8.265414964,-1.758413956,2.499055657,-2.446283411,2.197674273
363.742,-5.213470887,-1.453219549,0.6678892111,-1.22550578,0.9768966423
363.7425,0.280028452,-1.148025141,-0.247694012,0.9108550739,-0.5490753962
363.743,6.994305421,-1.148025141,-0.8580828275,2.436827112,-2.990630658
363.7435,11.57222154,-0.8428307331,-1.163277235,2.436827112,-3.906213881
363.744,11.57222154,-0.5376363254,-1.468471643,2.131632705,-2.075047435
363.7445,7.909888645,-1.148025141,-1.468471643,1.826438297,0.9768966423
363.745,4.247555752,-1.453219549,-1.773666051,1.216049482,3.418451904
363.7455,2.416389306,-0.5376363254,-1.163277235,0.3004662585,3.723646312
363.746,1.195611675,0.6831413054,0.9730836188,-0.6151169646,4.334035127
363.7465,-0.02516595566,1.598724528,3.719833288,-2.141089003,5.860007166
363.747,-0.02516595566,1.903918936,4.330222103,-3.056672226,6.470395981
363.7475,5.773527791,2.514307752,1.888666842,-2.141089003,2.502868681
363.748,17.67610969,3.124696567,-0.247694012,0.3004662585,-5.126991512
363.7485,30.49427481,2.819502159,-2.078860458,3.352410335,-10.92568526
363.749,38.12413501,0.9883357131,-3.604832497,4.573187966,-10.62049085
363.7495,39.34491264,-0.5376363254,-4.825610128,3.962799151,-4.821797104
363.75,35.37738534,-2.063608364,-4.52041572,3.047215928,0.9768966423
363.7505,28.96830278,-2.673997179,-2.994443681,2.436827112,3.418451904
363.751,20.42285936,-2.979191587,-2.384054866,1.521243889,3.418451904
363.7515,10.96183272,-2.979191587,-3.299638089,0.6056606662,4.944423942
363.752,1.195611675,-2.368802772,-4.215221312,0.9108550739,7.996368019
363.7525,-7.960220556,-1.758413956,-4.215221312,3.047215928,10.13272887
363.753,-15.28488634,-1.453219549,-3.604832497,5.183576782,9.21714565
363.7535,-18.33683042,-1.758413956,-3.910026904,4.878382374,6.470395981
363.754,-15.59008075,-2.368802772,-4.215221312,2.131632705,4.334035127
363.7545,-10.40177582,-2.368802772,-3.299638089,-0.9203113723,3.113257496
363.755,-7.655026148,-1.453219549,-2.078860458,-2.141089003,2.808063089
363.7555,-9.791387002,-0.5376363254,-1.773666051,-1.530700188,2.502868681
363.756,-13.45371989,-0.8428307331,-1.773666051,-0.9203113723,1.892479865
363.7565,-15.89527516,-1.758413956,-1.773666051,-0.9203113723,0.6717022346
363.757,-17.42124719,-2.063608364,-1.468471643,-1.22550578,0.06131341924
363.7575,-19.55760805,-1.148025141,-1.468471643,-1.22550578,0.06131341924
363.758,-22.60955213,-0.2324419177,-1.163277235,-1.530700188,1.587285458
363.7585,-23.83032976,-0.5376363254,0.05750039565,-2.751477819,2.502868681
363.759,-21.99916331,-2.368802772,0.6678892111,-3.361866634,0.6717022346
363.7595,-18.03163601,-2.979191587,0.3626948034,-1.530700188,-1.769853027
363.76,-11.62255345,-1.758413956,-0.8580828275,1.521243889,-3.906213881
363.7605,-3.992693256,-0.5376363254,-1.468471643,4.573187966,-3.906213881
363.761,1.806000491,-0.8428307331,-0.8580828275,5.183576782,-3.601019473
363.7615,3.637166937,-1.148025141,-0.247694012,4.267993559,-2.990630658
363.762,0.8904172674,-0.2324419177,-0.5528884197,2.436827112,-1.464658619
363.7625,-3.077110033,0.9883357131,-0.5528884197,0.3004662585,0.9768966423
363.763,-5.213470887,0.9883357131,-0.247694012,-1.22550578,3.418451904
363.7635,-5.518665294,-0.2324419177,0.05750039565,-1.22550578,4.028840719
363.764,-4.297887663,-0.5376363254,-0.247694012,-0.004728149245,3.113257496
363.7645,-1.245943586,-0.2324419177,-0.5528884197,0.6056606662,1.28209105
363.765,4.55275016,0.3779468977,-0.5528884197,0.6056606662,-0.8542698039
363.7655,12.18261035,0.3779468977,-1.163277235,0.9108550739,-4.211408289
363.766,17.9813041,0.3779468977,-2.994443681,1.826438297,-6.958157958
363.7665,19.20208173,0.9883357131,-4.52041572,3.047215928,-7.263352366
363.767,17.06572088,1.598724528,-4.215221312,2.131632705,-5.432185919
363.7675,13.70858239,1.598724528,-2.078860458,-0.004728149245,-3.601019473
363.768,11.26702713,1.293530121,-0.5528884197,-0.9203113723,-2.990630658
363.7685,9.130666275,0.3779468977,-0.247694012,-0.6151169646,-3.906213881
363.769,6.383916606,-0.2324419177,0.05750039565,-0.3099225569,-4.211408289
363.7695,3.331972529,-0.2324419177,0.3626948034,-0.6151169646,-2.990630658
363.77,0.280028452,-0.5376363254,0.05750039565,-1.22550578,-0.8542698039
363.7705,-1.551137994,-0.5376363254,-1.773666051,-1.835894595,0.06131341924
363.771,-2.771915625,-0.2324419177,-2.384054866,-2.446283411,0.06131341924
363.7715,-3.992693256,0.3779468977,-0.8580828275,-3.361866634,0.06131341924
363.772,-6.434248517,0.9883357131,0.6678892111,-3.972255449,0.9768966423
363.7725,-9.180998187,0.3779468977,0.9730836188,-3.056672226,2.197674273
363.773,-10.09658141,-0.5376363254,0.3626948034,-1.835894595,0.6717022346
363.7735,-9.180998187,-0.5376363254,0.05750039565,-0.004728149245,-2.075047435
363.774,-8.265414964,0.3779468977,0.05750039565,0.9108550739,-4.821797104
363.7745,-8.570609371,0.6831413054,-0.5528884197,0.9108550739,-4.821797104
363.775,-9.180998187,-0.5376363254,-1.468471643,-1.22550578,-2.380241842
363.7755,-9.486192594,-2.673997179,-1.468471643,-5.19303308,0.06131341924
363.776,-9.791387002,-3.284385995,-1.163277235,-8.855365973,0.9768966423
363.7765,-10.40177582,-2.673997179,-1.163277235,-9.16056038,0.06131341924
363.777,-11.01216463,-2.063608364,-1.468471643,-6.413810711,-0.5490753962
363.7775,-10.40177582,-2.673997179,-1.163277235,-3.056672226,-0.5490753962
363.778,-8.875803779,-2.979191587,-0.5528884197,-1.530700188,-0.8542698039
363.7785,-8.265414964,-2.979191587,-0.5528884197,-1.530700188,-2.075047435
363.779,-8.570609371,-3.284385995,-0.8580828275,-2.141089003,-2.68543625
363.7795,-8.875803779,-3.589580402,0.05750039565,-2.141089003,-0.5490753962
363.78,-7.655026148,-3.284385995,1.583472434,-1.530700188,2.808063089
363.7805,-6.12905411,-2.673997179,2.804250065,-1.22550578,5.24961835
363.781,-5.213470887,-2.979191587,2.499055657,-1.22550578,4.334035127
363.7815,-5.213470887,-3.284385995,1.888666842,-1.530700188,2.197674273
363.782,-4.297887663,-3.284385995,1.888666842,-1.530700188,1.892479865
363.7825,-0.9407491788,-2.979191587,2.19386125,-0.9203113723,2.502868681
363.783,3.637166937,-3.589580402,1.888666842,-0.004728149245,2.197674273
363.7835,7.909888645,-4.199969218,1.278278026,0.6056606662,0.6717022346
363.784,10.0462495,-3.89477481,1.278278026,0.6056606662,0.06131341924
363.7845,10.35144391,-3.284385995,1.278278026,0.3004662585,1.587285458
363.785,9.741055091,-3.284385995,1.278278026,-0.004728149245,3.723646312
363.7855,8.825471868,-3.89477481,1.278278026,0.3004662585,4.639229535
363.786,7.299499829,-3.89477481,1.583472434,0.6056606662,4.639229535
363.7865,6.078722198,-3.89477481,1.888666842,0.9108550739,4.944423942
363.787,5.468333383,-3.589580402,2.19386125,0.6056606662,7.080784796
363.7875,4.55275016,-2.979191587,3.41463888,-0.004728149245,8.911951243
363.788,1.500806083,-1.758413956,5.245805327,-0.004728149245,7.996368019
363.7885,-1.551137994,-1.148025141,5.550999734,-0.004728149245,4.334035127
363.789,-0.3303603634,-0.8428307331,3.719833288,0.9108550739,0.06131341924
