"type","name","time_units","begin_time","frequency","count","units"
"signal","Ultium EMG-FLEX.CAPR.U RT","s",406.96000,2000,22000,"uV"

"time","value"
406.96000,-1.530700188
406.96050,-2.446283411
406.96100,-0.9203113723
406.96150,2.131632705
406.96200,4.267993559
406.96250,3.962799151
406.96300,2.74202152
406.96350,2.131632705
406.96400,2.131632705
406.96450,1.216049482
406.96500,-1.530700188
406.96550,-5.19303308
406.96600,-7.939782749
406.96650,-8.550171565
406.96700,-7.634588342
406.96750,-6.413810711
406.96800,-5.803421896
406.96850,-6.108616303
406.96900,-5.498227488
406.96950,-4.582644265
406.97000,-4.277449857
406.97050,-7.024199526
406.97100,-10.68653242
406.97150,-12.21250446
406.97200,-11.29692123
406.97250,-8.855365973
406.97300,-6.719005119
406.97350,-4.277449857
406.97400,-1.835894595
406.97450,-0.9203113723
406.97500,-0.6151169646
406.97550,0.3004662585
406.97600,1.826438297
406.97650,0.9108550739
406.97700,-2.751477819
406.97750,-6.413810711
406.97800,-6.108616303
406.97850,-2.446283411
406.97900,3.047215928
406.97950,10.37188171
406.98000,16.78096427
406.98050,16.47576987
406.98100,7.930326451
406.98150,-2.141089003
406.98200,-4.887838672
406.98250,0.6056606662
406.98300,7.319937636
406.98350,10.0666873
406.98400,10.67707612
406.98450,12.20304816
406.98500,12.81343697
406.98550,10.37188171
406.98600,7.625132043
406.98650,6.099160005
406.98700,3.657604743
406.98750,-0.004728149245
406.98800,-3.361866634
406.98850,-3.056672226
406.98900,-2.141089003
406.98950,-5.498227488
406.99000,-11.60211564
406.99050,-14.95925413
406.99100,-12.51769887
406.99150,-8.855365973
406.99200,-6.413810711
406.99250,-3.972255449
406.99300,0.6056606662
406.99350,5.488771189
406.99400,6.70954882
406.99450,3.657604743
406.99500,-0.3099225569
406.99550,-2.446283411
406.99600,-2.141089003
406.99650,-0.3099225569
406.99700,3.047215928
406.99750,7.319937636
406.99800,10.67707612
406.99850,10.37188171
406.99900,7.625132043
406.99950,3.962799151
407.00000,0.3004662585
407.00050,-1.22550578
407.00100,-0.9203113723
407.00150,0.6056606662
407.00200,2.74202152
407.00250,3.962799151
407.00300,5.488771189
407.00350,7.319937636
407.00400,6.099160005
407.00450,1.216049482
407.00500,-3.361866634
407.00550,-3.361866634
407.00600,-0.3099225569
407.00650,0.6056606662
407.00700,-1.530700188
407.00750,-3.972255449
407.00800,-3.972255449
407.00850,-3.056672226
407.00900,-3.972255449
407.00950,-3.667061042
407.01000,-0.004728149245
407.01050,3.962799151
407.01100,5.183576782
407.01150,3.352410335
407.01200,1.521243889
407.01250,0.3004662585
407.01300,-3.056672226
407.01350,-10.0761436
407.01400,-15.87483735
407.01450,-15.26444853
407.01500,-10.0761436
407.01550,-6.719005119
407.01600,-7.024199526
407.01650,-7.939782749
407.01700,-6.413810711
407.01750,-2.141089003
407.01800,1.521243889
407.01850,3.962799151
407.01900,4.573187966
407.01950,3.352410335
407.02000,-0.004728149245
407.02050,-4.582644265
407.02100,-7.939782749
407.02150,-8.550171565
407.02200,-7.024199526
407.02250,-5.19303308
407.02300,-3.361866634
407.02350,-1.22550578
407.02400,0.6056606662
407.02450,1.826438297
407.02500,0.9108550739
407.02550,-0.6151169646
407.02600,-0.6151169646
407.02650,0.9108550739
407.02700,3.352410335
407.02750,4.878382374
407.02800,5.488771189
407.02850,5.488771189
407.02900,2.74202152
407.02950,-1.22550578
407.03000,-4.277449857
407.03050,-2.141089003
407.03100,3.657604743
407.03150,8.235520859
407.03200,8.845909674
407.03250,6.70954882
407.03300,4.573187966
407.03350,2.436827112
407.03400,0.3004662585
407.03450,-0.004728149245
407.03500,2.131632705
407.03550,3.962799151
407.03600,2.74202152
407.03650,-0.004728149245
407.03700,-0.004728149245
407.03750,1.826438297
407.03800,3.047215928
407.03850,2.74202152
407.03900,2.436827112
407.03950,2.436827112
407.04000,2.436827112
407.04050,2.74202152
407.04100,4.573187966
407.04150,7.930326451
407.04200,11.59265934
407.04250,12.20304816
407.04300,7.319937636
407.04350,-2.446283411
407.04400,-13.12808768
407.04450,-16.48522617
407.04500,-10.68653242
407.04550,-1.835894595
407.04600,3.047215928
407.04650,3.657604743
407.04700,3.657604743
407.04750,3.047215928
407.04800,1.216049482
407.04850,-0.004728149245
407.04900,3.047215928
407.04950,8.235520859
407.05000,7.930326451
407.05050,-0.004728149245
407.05100,-8.550171565
407.05150,-11.60211564
407.05200,-9.16056038
407.05250,-4.277449857
407.05300,-0.3099225569
407.05350,1.826438297
407.05400,2.131632705
407.05450,0.3004662585
407.05500,-2.751477819
407.05550,-6.719005119
407.05600,-11.29692123
407.05650,-13.7384765
407.05700,-12.51769887
407.05750,-9.770949196
407.05800,-8.550171565
407.05850,-8.855365973
407.05900,-7.329393934
407.05950,-3.972255449
407.06000,-2.446283411
407.06050,-3.667061042
407.06100,-3.361866634
407.06150,0.9108550739
407.06200,5.488771189
407.06250,7.014743228
407.06300,7.930326451
407.06350,11.28746494
407.06400,15.56018664
407.06450,15.86538105
407.06500,12.20304816
407.06550,10.0666873
407.06600,10.67707612
407.06650,10.37188171
407.06700,7.319937636
407.06750,2.74202152
407.06800,-0.004728149245
407.06850,-1.22550578
407.06900,-0.9203113723
407.06950,0.3004662585
407.07000,1.826438297
407.07050,0.9108550739
407.07100,-2.141089003
407.07150,-4.582644265
407.07200,-2.751477819
407.07250,1.216049482
407.07300,3.962799151
407.07350,5.183576782
407.07400,5.183576782
407.07450,4.878382374
407.07500,3.047215928
407.07550,-0.004728149245
407.07600,-2.141089003
407.07650,-2.446283411
407.07700,-2.446283411
407.07750,-2.141089003
407.07800,-0.6151169646
407.07850,2.131632705
407.07900,5.488771189
407.07950,6.099160005
407.08000,3.962799151
407.08050,1.826438297
407.08100,0.6056606662
407.08150,-0.004728149245
407.08200,0.3004662585
407.08250,1.521243889
407.08300,3.352410335
407.08350,3.657604743
407.08400,1.521243889
407.08450,-0.6151169646
407.08500,-1.22550578
407.08550,-0.3099225569
407.08600,0.9108550739
407.08650,2.436827112
407.08700,4.573187966
407.08750,6.099160005
407.08800,5.488771189
407.08850,3.962799151
407.08900,3.047215928
407.08950,3.352410335
407.09000,2.131632705
407.09050,-2.446283411
407.09100,-8.244977157
407.09150,-10.68653242
407.09200,-8.244977157
407.09250,-3.667061042
407.09300,-0.004728149245
407.09350,1.216049482
407.09400,1.521243889
407.09450,1.826438297
407.09500,1.826438297
407.09550,1.826438297
407.09600,0.9108550739
407.09650,-0.3099225569
407.09700,-2.446283411
407.09750,-4.277449857
407.09800,-4.887838672
407.09850,-4.887838672
407.09900,-4.582644265
407.09950,-4.582644265
407.10000,-4.887838672
407.10050,-4.887838672
407.10100,-4.277449857
407.10150,-3.667061042
407.10200,-3.056672226
407.10250,-1.22550578
407.10300,1.216049482
407.10350,3.657604743
407.10400,3.657604743
407.10450,1.521243889
407.10500,-0.6151169646
407.10550,-1.530700188
407.10600,-1.22550578
407.10650,-0.004728149245
407.10700,0.6056606662
407.10750,-1.22550578
407.10800,-7.329393934
407.10850,-13.7384765
407.10900,-14.34886531
407.10950,-9.16056038
407.11000,-3.972255449
407.11050,-4.582644265
407.11100,-9.16056038
407.11150,-12.51769887
407.11200,-13.7384765
407.11250,-13.7384765
407.11300,-13.12808768
407.11350,-10.68653242
407.11400,-7.634588342
407.11450,-5.498227488
407.11500,-3.972255449
407.11550,-0.9203113723
407.11600,1.521243889
407.11650,2.436827112
407.11700,2.131632705
407.11750,3.352410335
407.11800,4.878382374
407.11850,3.962799151
407.11900,1.521243889
407.11950,-0.004728149245
407.12000,-0.9203113723
407.12050,-2.141089003
407.12100,-2.141089003
407.12150,-0.3099225569
407.12200,1.521243889
407.12250,1.216049482
407.12300,-0.004728149245
407.12350,3.047215928
407.12400,7.930326451
407.12450,9.151104082
407.12500,5.793965597
407.12550,3.352410335
407.12600,3.352410335
407.12650,0.9108550739
407.12700,-5.803421896
407.12750,-11.90731005
407.12800,-10.68653242
407.12850,-3.056672226
407.12900,3.962799151
407.12950,6.70954882
407.13000,5.793965597
407.13050,4.573187966
407.13100,5.793965597
407.13150,8.235520859
407.13200,10.0666873
407.13250,10.0666873
407.13300,11.28746494
407.13350,15.86538105
407.13400,20.13810276
407.13450,20.13810276
407.13500,16.17057546
407.13550,12.81343697
407.13600,10.37188171
407.13650,5.183576782
407.13700,-1.835894595
407.13750,-6.413810711
407.13800,-6.108616303
407.13850,-4.887838672
407.13900,-6.719005119
407.13950,-8.855365973
407.14000,-8.244977157
407.14050,-4.582644265
407.14100,-0.3099225569
407.14150,3.352410335
407.14200,4.267993559
407.14250,0.6056606662
407.14300,-4.582644265
407.14350,-5.498227488
407.14400,-1.22550578
407.14450,3.352410335
407.14500,4.267993559
407.14550,2.74202152
407.14600,3.047215928
407.14650,4.573187966
407.14700,5.793965597
407.14750,5.488771189
407.14800,5.183576782
407.14850,4.573187966
407.14900,2.74202152
407.14950,0.9108550739
407.15000,-0.9203113723
407.15050,-4.277449857
407.15100,-8.550171565
407.15150,-10.99172683
407.15200,-10.0761436
407.15250,-8.550171565
407.15300,-8.550171565
407.15350,-9.16056038
407.15400,-7.939782749
407.15450,-4.582644265
407.15500,-0.6151169646
407.15550,3.047215928
407.15600,8.235520859
407.15650,12.50824257
407.15700,12.20304816
407.15750,7.319937636
407.15800,1.521243889
407.15850,-0.6151169646
407.15900,0.6056606662
407.15950,3.047215928
407.16000,4.267993559
407.16050,4.267993559
407.16100,3.962799151
407.16150,3.657604743
407.16200,3.962799151
407.16250,4.573187966
407.16300,5.488771189
407.16350,5.183576782
407.16400,2.436827112
407.16450,-2.141089003
407.16500,-7.634588342
407.16550,-10.38133801
407.16600,-8.855365973
407.16650,-6.108616303
407.16700,-3.972255449
407.16750,-3.361866634
407.16800,-2.141089003
407.16850,-1.530700188
407.16900,-2.141089003
407.16950,-4.887838672
407.17000,-6.108616303
407.17050,-4.582644265
407.17100,-1.530700188
407.17150,-1.22550578
407.17200,-3.972255449
407.17250,-5.498227488
407.17300,-2.141089003
407.17350,3.657604743
407.17400,6.70954882
407.17450,4.573187966
407.17500,0.9108550739
407.17550,-0.3099225569
407.17600,0.6056606662
407.17650,0.9108550739
407.17700,-0.004728149245
407.17750,-0.9203113723
407.17800,-0.9203113723
407.17850,-0.3099225569
407.17900,-0.004728149245
407.17950,1.216049482
407.18000,3.047215928
407.18050,3.352410335
407.18100,2.74202152
407.18150,1.521243889
407.18200,0.3004662585
407.18250,-2.446283411
407.18300,-7.024199526
407.18350,-10.38133801
407.18400,-9.465754788
407.18450,-6.719005119
407.18500,-4.887838672
407.18550,-5.19303308
407.18600,-6.108616303
407.18650,-5.498227488
407.18700,-3.056672226
407.18750,-0.004728149245
407.18800,2.74202152
407.18850,3.657604743
407.18900,2.436827112
407.18950,1.216049482
407.19000,2.436827112
407.19050,5.183576782
407.19100,6.404354412
407.19150,5.488771189
407.19200,4.573187966
407.19250,5.183576782
407.19300,6.099160005
407.19350,5.488771189
407.19400,3.047215928
407.19450,1.216049482
407.19500,1.521243889
407.19550,1.216049482
407.19600,-1.22550578
407.19650,-4.582644265
407.19700,-5.803421896
407.19750,-3.667061042
407.19800,-0.6151169646
407.19850,1.521243889
407.19900,2.74202152
407.19950,2.74202152
407.20000,1.521243889
407.20050,-0.6151169646
407.20100,-3.056672226
407.20150,-3.056672226
407.20200,-1.530700188
407.20250,-0.004728149245
407.20300,-0.9203113723
407.20350,-3.972255449
407.20400,-7.024199526
407.20450,-8.550171565
407.20500,-8.550171565
407.20550,-8.244977157
407.20600,-8.244977157
407.20650,-7.939782749
407.20700,-7.939782749
407.20750,-7.024199526
407.20800,-5.803421896
407.20850,-4.277449857
407.20900,-4.277449857
407.20950,-4.582644265
407.21000,-1.835894595
407.21050,3.962799151
407.21100,8.235520859
407.21150,7.319937636
407.21200,3.657604743
407.21250,2.131632705
407.21300,2.131632705
407.21350,1.216049482
407.21400,0.9108550739
407.21450,3.352410335
407.21500,4.878382374
407.21550,-0.004728149245
407.21600,-10.0761436
407.21650,-15.87483735
407.21700,-11.90731005
407.21750,-3.361866634
407.21800,1.826438297
407.21850,3.657604743
407.21900,4.267993559
407.21950,3.657604743
407.22000,0.3004662585
407.22050,-3.361866634
407.22100,-4.887838672
407.22150,-3.667061042
407.22200,-1.22550578
407.22250,0.9108550739
407.22300,3.352410335
407.22350,3.962799151
407.22400,2.74202152
407.22450,1.521243889
407.22500,1.216049482
407.22550,1.521243889
407.22600,0.6056606662
407.22650,-0.3099225569
407.22700,-0.3099225569
407.22750,0.3004662585
407.22800,1.826438297
407.22850,3.352410335
407.22900,4.878382374
407.22950,5.488771189
407.23000,5.183576782
407.23050,3.962799151
407.23100,2.436827112
407.23150,0.3004662585
407.23200,-0.9203113723
407.23250,-0.9203113723
407.23300,-0.004728149245
407.23350,1.521243889
407.23400,3.657604743
407.23450,6.099160005
407.23500,7.319937636
407.23550,7.319937636
407.23600,6.099160005
407.23650,5.183576782
407.23700,3.657604743
407.23750,1.216049482
407.23800,-1.835894595
407.23850,-3.972255449
407.23900,-3.972255449
407.23950,-2.446283411
407.24000,-0.6151169646
407.24050,0.3004662585
407.24100,0.9108550739
407.24150,1.216049482
407.24200,1.521243889
407.24250,1.826438297
407.24300,1.826438297
407.24350,1.216049482
407.24400,0.3004662585
407.24450,-1.22550578
407.24500,-3.667061042
407.24550,-5.19303308
407.24600,-4.582644265
407.24650,-2.751477819
407.24700,-1.530700188
407.24750,-1.22550578
407.24800,-0.004728149245
407.24850,3.047215928
407.24900,6.099160005
407.24950,6.404354412
407.25000,4.267993559
407.25050,2.74202152
407.25100,2.436827112
407.25150,3.352410335
407.25200,3.352410335
407.25250,2.436827112
407.25300,1.216049482
407.25350,0.3004662585
407.25400,-0.004728149245
407.25450,-0.9203113723
407.25500,-2.446283411
407.25550,-2.751477819
407.25600,-0.6151169646
407.25650,2.131632705
407.25700,4.267993559
407.25750,3.657604743
407.25800,2.131632705
407.25850,1.826438297
407.25900,2.74202152
407.25950,3.657604743
407.26000,4.573187966
407.26050,5.488771189
407.26100,6.404354412
407.26150,5.488771189
407.26200,2.436827112
407.26250,-0.004728149245
407.26300,-0.3099225569
407.26350,0.6056606662
407.26400,0.3004662585
407.26450,-1.835894595
407.26500,-3.056672226
407.26550,-1.530700188
407.26600,0.3004662585
407.26650,-0.004728149245
407.26700,-2.141089003
407.26750,-2.751477819
407.26800,-1.22550578
407.26850,-0.3099225569
407.26900,-0.9203113723
407.26950,-1.22550578
407.27000,-0.6151169646
407.27050,-2.751477819
407.27100,-8.855365973
407.27150,-16.18003176
407.27200,-18.92678143
407.27250,-14.34886531
407.27300,-5.498227488
407.27350,1.521243889
407.27400,3.962799151
407.27450,2.74202152
407.27500,0.6056606662
407.27550,-0.004728149245
407.27600,-0.004728149245
407.27650,0.3004662585
407.27700,1.521243889
407.27750,4.267993559
407.27800,6.099160005
407.27850,4.573187966
407.27900,0.6056606662
407.27950,-0.9203113723
407.28000,1.521243889
407.28050,6.70954882
407.28100,10.37188171
407.28150,11.59265934
407.28200,10.0666873
407.28250,6.404354412
407.28300,2.74202152
407.28350,0.9108550739
407.28400,2.131632705
407.28450,3.962799151
407.28500,4.267993559
407.28550,1.826438297
407.28600,-2.446283411
407.28650,-7.329393934
407.28700,-9.465754788
407.28750,-7.024199526
407.28800,-1.530700188
407.28850,2.131632705
407.28900,2.74202152
407.28950,0.9108550739
407.29000,0.3004662585
407.29050,2.131632705
407.29100,4.573187966
407.29150,6.70954882
407.29200,7.319937636
407.29250,6.099160005
407.29300,3.352410335
407.29350,0.6056606662
407.29400,-0.004728149245
407.29450,-0.9203113723
407.29500,-4.277449857
407.29550,-7.024199526
407.29600,-4.582644265
407.29650,2.436827112
407.29700,7.319937636
407.29750,3.962799151
407.29800,-4.887838672
407.29850,-12.82289327
407.29900,-14.65405972
407.29950,-11.90731005
407.30000,-8.244977157
407.30050,-7.329393934
407.30100,-8.244977157
407.30150,-7.024199526
407.30200,-1.22550578
407.30250,5.183576782
407.30300,6.70954882
407.30350,3.352410335
407.30400,2.131632705
407.30450,7.319937636
407.30500,12.50824257
407.30550,8.540715266
407.30600,-1.530700188
407.30650,-8.855365973
407.30700,-8.855365973
407.30750,-7.024199526
407.30800,-7.939782749
407.30850,-11.29692123
407.30900,-12.82289327
407.30950,-11.60211564
407.31000,-10.99172683
407.31050,-12.82289327
407.31100,-14.65405972
407.31150,-14.0436709
407.31200,-11.29692123
407.31250,-8.244977157
407.31300,-6.719005119
407.31350,-4.277449857
407.31400,0.9108550739
407.31450,7.930326451
407.31500,12.20304816
407.31550,12.20304816
407.31600,9.761492897
407.31650,8.235520859
407.31700,6.099160005
407.31750,2.131632705
407.31800,-1.835894595
407.31850,-3.361866634
407.31900,-1.530700188
407.31950,0.3004662585
407.32000,0.3004662585
407.32050,-1.22550578
407.32100,-3.361866634
407.32150,-3.361866634
407.32200,-0.004728149245
407.32250,4.878382374
407.32300,8.540715266
407.32350,8.540715266
407.32400,5.793965597
407.32450,3.352410335
407.32500,2.74202152
407.32550,3.657604743
407.32600,3.962799151
407.32650,3.047215928
407.32700,1.216049482
407.32750,-0.004728149245
407.32800,0.6056606662
407.32850,2.131632705
407.32900,3.352410335
407.32950,4.267993559
407.33000,4.878382374
407.33050,5.183576782
407.33100,4.878382374
407.33150,3.962799151
407.33200,3.352410335
407.33250,2.74202152
407.33300,1.826438297
407.33350,0.9108550739
407.33400,0.6056606662
407.33450,0.9108550739
407.33500,0.6056606662
407.33550,-0.004728149245
407.33600,-0.9203113723
407.33650,-0.3099225569
407.33700,0.6056606662
407.33750,1.521243889
407.33800,1.521243889
407.33850,0.6056606662
407.33900,-0.3099225569
407.33950,-0.9203113723
407.34000,-1.530700188
407.34050,-2.141089003
407.34100,-2.141089003
407.34150,-1.835894595
407.34200,-1.530700188
407.34250,-3.361866634
407.34300,-6.719005119
407.34350,-8.244977157
407.34400,-6.719005119
407.34450,-2.446283411
407.34500,1.521243889
407.34550,3.657604743
407.34600,3.962799151
407.34650,2.74202152
407.34700,0.6056606662
407.34750,-1.22550578
407.34800,-2.141089003
407.34850,-1.22550578
407.34900,0.6056606662
407.34950,3.047215928
407.35000,4.573187966
407.35050,4.878382374
407.35100,4.267993559
407.35150,3.657604743
407.35200,2.74202152
407.35250,1.826438297
407.35300,1.216049482
407.35350,1.826438297
407.35400,3.962799151
407.35450,5.183576782
407.35500,3.657604743
407.35550,-0.004728149245
407.35600,-2.446283411
407.35650,-1.835894595
407.35700,1.521243889
407.35750,6.70954882
407.35800,10.67707612
407.35850,11.89785375
407.35900,10.0666873
407.35950,6.70954882
407.36000,3.657604743
407.36050,2.131632705
407.36100,2.131632705
407.36150,1.826438297
407.36200,-0.004728149245
407.36250,-0.6151169646
407.36300,-0.004728149245
407.36350,0.9108550739
407.36400,1.216049482
407.36450,-0.004728149245
407.36500,-0.3099225569
407.36550,-0.3099225569
407.36600,-1.22550578
407.36650,-2.751477819
407.36700,-3.361866634
407.36750,-1.835894595
407.36800,-0.9203113723
407.36850,-1.835894595
407.36900,-3.972255449
407.36950,-3.972255449
407.37000,-2.446283411
407.37050,-1.835894595
407.37100,-2.446283411
407.37150,-2.751477819
407.37200,-1.835894595
407.37250,-1.835894595
407.37300,-3.667061042
407.37350,-5.803421896
407.37400,-6.413810711
407.37450,-6.719005119
407.37500,-7.024199526
407.37550,-7.329393934
407.37600,-6.413810711
407.37650,-3.972255449
407.37700,-0.9203113723
407.37750,0.9108550739
407.37800,1.216049482
407.37850,-0.004728149245
407.37900,-1.835894595
407.37950,-3.056672226
407.38000,-2.751477819
407.38050,-2.141089003
407.38100,-3.056672226
407.38150,-4.277449857
407.38200,-4.582644265
407.38250,-3.361866634
407.38300,-0.9203113723
407.38350,1.216049482
407.38400,2.436827112
407.38450,2.74202152
407.38500,2.436827112
407.38550,2.74202152
407.38600,3.047215928
407.38650,2.436827112
407.38700,0.9108550739
407.38750,-0.6151169646
407.38800,-2.751477819
407.38850,-3.972255449
407.38900,-1.530700188
407.38950,2.74202152
407.39000,4.878382374
407.39050,3.352410335
407.39100,2.131632705
407.39150,2.131632705
407.39200,-0.004728149245
407.39250,-7.024199526
407.39300,-11.90731005
407.39350,-8.550171565
407.39400,-0.3099225569
407.39450,3.352410335
407.39500,0.6056606662
407.39550,-2.141089003
407.39600,-2.751477819
407.39650,-3.667061042
407.39700,-6.719005119
407.39750,-7.939782749
407.39800,-6.108616303
407.39850,-4.582644265
407.39900,-5.803421896
407.39950,-6.719005119
407.40000,-4.582644265
407.40050,-0.6151169646
407.40100,1.826438297
407.40150,3.657604743
407.40200,3.962799151
407.40250,1.521243889
407.40300,-1.835894595
407.40350,-0.9203113723
407.40400,4.878382374
407.40450,10.37188171
407.40500,10.98227053
407.40550,7.930326451
407.40600,5.488771189
407.40650,2.74202152
407.40700,-1.22550578
407.40750,-3.056672226
407.40800,0.3004662585
407.40850,5.488771189
407.40900,4.267993559
407.40950,-3.056672226
407.41000,-9.465754788
407.41050,-8.855365973
407.41100,-3.667061042
407.41150,-0.004728149245
407.41200,0.6056606662
407.41250,-0.3099225569
407.41300,-0.3099225569
407.41350,3.657604743
407.41400,11.28746494
407.41450,18.61213072
407.41500,21.05368598
407.41550,17.6965475
407.41600,10.0666873
407.41650,-0.004728149245
407.41700,-10.68653242
407.41750,-18.0111982
407.41800,-15.87483735
407.41850,-4.887838672
407.41900,6.70954882
407.41950,11.28746494
407.42000,8.235520859
407.42050,4.573187966
407.42100,4.573187966
407.42150,5.488771189
407.42200,2.436827112
407.42250,-3.361866634
407.42300,-8.244977157
407.42350,-10.0761436
407.42400,-11.90731005
407.42450,-13.7384765
407.42500,-13.43328209
407.42550,-9.16056038
407.42600,-3.972255449
407.42650,-2.751477819
407.42700,-3.056672226
407.42750,-0.6151169646
407.42800,4.573187966
407.42850,7.930326451
407.42900,6.099160005
407.42950,1.521243889
407.43000,-0.004728149245
407.43050,3.657604743
407.43100,9.761492897
407.43150,13.7290202
407.43200,13.11863138
407.43250,10.98227053
407.43300,10.67707612
407.43350,13.42382579
407.43400,14.64460342
407.43450,10.67707612
407.43500,4.878382374
407.43550,1.826438297
407.43600,1.521243889
407.43650,-0.004728149245
407.43700,-5.498227488
407.43750,-11.90731005
407.43800,-16.48522617
407.43850,-19.84236465
407.43900,-22.28391991
407.43950,-21.9787255
407.44000,-16.79042057
407.44050,-10.0761436
407.44100,-6.413810711
407.44150,-7.634588342
407.44200,-10.99172683
407.44250,-12.21250446
407.44300,-9.16056038
407.44350,-3.056672226
407.44400,2.131632705
407.44450,5.488771189
407.44500,7.319937636
407.44550,7.930326451
407.44600,6.099160005
407.44650,-0.004728149245
407.44700,-6.108616303
407.44750,-5.803421896
407.44800,0.3004662585
407.44850,5.793965597
407.44900,4.573187966
407.44950,-0.3099225569
407.45000,-3.361866634
407.45050,-2.446283411
407.45100,-1.835894595
407.45150,-3.056672226
407.45200,-4.277449857
407.45250,-3.667061042
407.45300,-1.530700188
407.45350,-0.004728149245
407.45400,0.3004662585
407.45450,-0.004728149245
407.45500,-0.004728149245
407.45550,2.436827112
407.45600,7.014743228
407.45650,8.845909674
407.45700,4.267993559
407.45750,-2.446283411
407.45800,-5.803421896
407.45850,-3.972255449
407.45900,-1.835894595
407.45950,-2.446283411
407.46000,-3.667061042
407.46050,-2.751477819
407.46100,-2.446283411
407.46150,-6.108616303
407.46200,-10.0761436
407.46250,-8.855365973
407.46300,-3.667061042
407.46350,-0.004728149245
407.46400,-0.3099225569
407.46450,-0.9203113723
407.46500,0.9108550739
407.46550,4.878382374
407.46600,7.319937636
407.46650,7.014743228
407.46700,4.267993559
407.46750,0.3004662585
407.46800,-2.446283411
407.46850,-3.056672226
407.46900,-1.530700188
407.46950,-0.004728149245
407.47000,-0.004728149245
407.47050,-0.3099225569
407.47100,-0.004728149245
407.47150,0.9108550739
407.47200,-0.004728149245
407.47250,-2.751477819
407.47300,-5.498227488
407.47350,-6.413810711
407.47400,-7.634588342
407.47450,-9.465754788
407.47500,-7.634588342
407.47550,-0.3099225569
407.47600,6.404354412
407.47650,3.657604743
407.47700,-6.108616303
407.47750,-7.939782749
407.47800,7.014743228
407.47850,28.07315736
407.47900,37.83937841
407.47950,33.87185111
407.48000,31.12510144
407.48050,38.44976722
407.48100,46.38482182
407.48150,43.02768334
407.48200,28.98874058
407.48250,14.94979783
407.48300,7.014743228
407.48350,2.131632705
407.48400,-3.056672226
407.48450,-6.413810711
407.48500,-5.19303308
407.48550,-1.530700188
407.48600,0.3004662585
407.48650,-0.004728149245
407.48700,-0.004728149245
407.48750,1.216049482
407.48800,3.352410335
407.48850,3.657604743
407.48900,4.267993559
407.48950,7.625132043
407.49000,12.20304816
407.49050,13.42382579
407.49100,9.761492897
407.49150,4.267993559
407.49200,1.216049482
407.49250,0.3004662585
407.49300,-1.22550578
407.49350,-3.972255449
407.49400,-5.498227488
407.49450,-6.413810711
407.49500,-7.634588342
407.49550,-10.0761436
407.49600,-13.43328209
407.49650,-17.09561498
407.49700,-19.53717024
407.49750,-16.79042057
407.49800,-8.244977157
407.49850,-0.004728149245
407.49900,1.826438297
407.49950,-1.22550578
407.50000,-3.361866634
407.50050,-1.530700188
407.50100,-0.004728149245
407.50150,-1.22550578
407.50200,-2.446283411
407.50250,-1.530700188
407.50300,-1.835894595
407.50350,-5.498227488
407.50400,-10.0761436
407.50450,-10.68653242
407.50500,-7.939782749
407.50550,-5.498227488
407.50600,-6.108616303
407.50650,-7.634588342
407.50700,-8.244977157
407.50750,-7.634588342
407.50800,-6.413810711
407.50850,-5.19303308
407.50900,-5.803421896
407.50950,-7.329393934
407.51000,-6.719005119
407.51050,-2.446283411
407.51100,0.6056606662
407.51150,-0.004728149245
407.51200,-3.667061042
407.51250,-6.413810711
407.51300,-7.634588342
407.51350,-9.16056038
407.51400,-10.99172683
407.51450,-9.770949196
407.51500,-4.277449857
407.51550,1.216049482
407.51600,3.657604743
407.51650,4.573187966
407.51700,6.404354412
407.51750,7.930326451
407.51800,6.404354412
407.51850,2.131632705
407.51900,-2.141089003
407.51950,-3.972255449
407.52000,-3.972255449
407.52050,-3.361866634
407.52100,-2.751477819
407.52150,-0.9203113723
407.52200,2.131632705
407.52250,6.404354412
407.52300,9.45629849
407.52350,8.540715266
407.52400,4.573187966
407.52450,1.216049482
407.52500,-0.004728149245
407.52550,-0.004728149245
407.52600,-0.9203113723
407.52650,-1.530700188
407.52700,0.3004662585
407.52750,4.267993559
407.52800,6.70954882
407.52850,6.099160005
407.52900,3.962799151
407.52950,3.352410335
407.53000,4.573187966
407.53050,6.404354412
407.53100,6.70954882
407.53150,4.573187966
407.53200,1.216049482
407.53250,-2.446283411
407.53300,-5.19303308
407.53350,-6.719005119
407.53400,-5.498227488
407.53450,-1.530700188
407.53500,3.352410335
407.53550,6.404354412
407.53600,5.793965597
407.53650,2.436827112
407.53700,-1.22550578
407.53750,-4.582644265
407.53800,-6.413810711
407.53850,-5.803421896
407.53900,-4.582644265
407.53950,-5.19303308
407.54000,-8.855365973
407.54050,-12.21250446
407.54100,-11.29692123
407.54150,-6.108616303
407.54200,-0.9203113723
407.54250,0.9108550739
407.54300,0.9108550739
407.54350,0.6056606662
407.54400,0.6056606662
407.54450,0.6056606662
407.54500,1.216049482
407.54550,2.436827112
407.54600,3.657604743
407.54650,4.573187966
407.54700,3.962799151
407.54750,2.436827112
407.54800,0.6056606662
407.54850,-0.6151169646
407.54900,-2.751477819
407.54950,-5.498227488
407.55000,-7.024199526
407.55050,-6.108616303
407.55100,-3.972255449
407.55150,-3.667061042
407.55200,-6.108616303
407.55250,-7.939782749
407.55300,-7.329393934
407.55350,-5.498227488
407.55400,-5.19303308
407.55450,-7.024199526
407.55500,-9.16056038
407.55550,-10.38133801
407.55600,-10.38133801
407.55650,-10.0761436
407.55700,-10.68653242
407.55750,-12.21250446
407.55800,-11.90731005
407.55850,-7.024199526
407.55900,1.216049482
407.55950,8.540715266
407.56000,11.28746494
407.56050,10.37188171
407.56100,7.930326451
407.56150,5.488771189
407.56200,3.352410335
407.56250,1.521243889
407.56300,0.3004662585
407.56350,-0.3099225569
407.56400,-0.9203113723
407.56450,-1.530700188
407.56500,-1.835894595
407.56550,-2.141089003
407.56600,-1.530700188
407.56650,-0.3099225569
407.56700,0.9108550739
407.56750,1.216049482
407.56800,0.9108550739
407.56850,1.826438297
407.56900,3.657604743
407.56950,4.878382374
407.57000,3.657604743
407.57050,0.6056606662
407.57100,-0.004728149245
407.57150,1.826438297
407.57200,3.352410335
407.57250,1.826438297
407.57300,1.521243889
407.57350,6.404354412
407.57400,13.42382579
407.57450,13.42382579
407.57500,3.047215928
407.57550,-8.244977157
407.57600,-11.29692123
407.57650,-5.803421896
407.57700,-0.004728149245
407.57750,3.047215928
407.57800,3.657604743
407.57850,3.047215928
407.57900,1.521243889
407.57950,0.3004662585
407.58000,2.436827112
407.58050,6.404354412
407.58100,7.625132043
407.58150,5.183576782
407.58200,2.436827112
407.58250,-0.004728149245
407.58300,-2.751477819
407.58350,-3.972255449
407.58400,-0.004728149245
407.58450,5.488771189
407.58500,2.131632705
407.58550,-10.99172683
407.58600,-22.89430873
407.58650,-25.33586399
407.58700,-22.89430873
407.58750,-22.28391991
407.58800,-21.06314228
407.58850,-12.51769887
407.58900,-0.9203113723
407.58950,2.74202152
407.59000,-2.446283411
407.59050,-8.550171565
407.59100,-8.855365973
407.59150,-4.887838672
407.59200,-1.835894595
407.59250,-0.3099225569
407.59300,0.6056606662
407.59350,1.826438297
407.59400,4.267993559
407.59450,10.37188171
407.59500,21.05368598
407.59550,31.43029584
407.59600,36.00821196
407.59650,33.5666567
407.59700,27.76796295
407.59750,23.80043565
407.59800,25.6316021
407.59850,32.65107347
407.59900,39.97573926
407.59950,42.11210011
407.60000,36.31340637
407.60050,25.93679651
407.60100,17.08615868
407.60150,13.42382579
407.60200,13.7290202
407.60250,14.03421461
407.60300,11.89785375
407.60350,8.235520859
407.60400,5.488771189
407.60450,4.267993559
407.60500,1.826438297
407.60550,-1.22550578
407.60600,-3.972255449
407.60650,-5.498227488
407.60700,-7.939782749
407.60750,-12.51769887
407.60800,-17.09561498
407.60850,-18.31639261
407.60900,-16.18003176
407.60950,-12.51769887
407.61000,-8.550171565
407.61050,-3.667061042
407.61100,0.9108550739
407.61150,4.267993559
407.61200,6.404354412
407.61250,9.45629849
407.61300,11.59265934
407.61350,9.151104082
407.61400,1.216049482
407.61450,-6.413810711
407.61500,-8.550171565
407.61550,-4.887838672
407.61600,-1.835894595
407.61650,-1.530700188
407.61700,-0.9203113723
407.61750,2.74202152
407.61800,7.625132043
407.61850,7.319937636
407.61900,1.216049482
407.61950,-4.887838672
407.62000,-5.803421896
407.62050,-2.446283411
407.62100,-0.3099225569
407.62150,-1.835894595
407.62200,-5.19303308
407.62250,-6.719005119
407.62300,-5.803421896
407.62350,-3.056672226
407.62400,-0.3099225569
407.62450,-0.004728149245
407.62500,-1.22550578
407.62550,-3.972255449
407.62600,-4.887838672
407.62650,-3.667061042
407.62700,-2.446283411
407.62750,-2.141089003
407.62800,-2.751477819
407.62850,-2.751477819
407.62900,-1.835894595
407.62950,-0.3099225569
407.63000,0.3004662585
407.63050,-0.004728149245
407.63100,-2.751477819
407.63150,-6.719005119
407.63200,-8.550171565
407.63250,-7.939782749
407.63300,-6.413810711
407.63350,-5.803421896
407.63400,-6.719005119
407.63450,-8.550171565
407.63500,-10.99172683
407.63550,-14.0436709
407.63600,-16.48522617
407.63650,-16.48522617
407.63700,-14.0436709
407.63750,-10.68653242
407.63800,-8.855365973
407.63850,-10.0761436
407.63900,-13.7384765
407.63950,-18.62158702
407.64000,-21.36833669
407.64050,-20.75794787
407.64100,-18.0111982
407.64150,-15.87483735
407.64200,-15.26444853
407.64250,-14.34886531
407.64300,-10.99172683
407.64350,-4.887838672
407.64400,0.6056606662
407.64450,2.74202152
407.64500,0.3004662585
407.64550,-2.446283411
407.64600,-1.22550578
407.64650,4.573187966
407.64700,11.28746494
407.64750,14.03421461
407.64800,12.20304816
407.64850,9.761492897
407.64900,8.845909674
407.64950,8.845909674
407.65000,8.540715266
407.65050,8.540715266
407.65100,10.37188171
407.65150,14.03421461
407.65200,16.78096427
407.65250,15.25499224
407.65300,10.0666873
407.65350,6.099160005
407.65400,7.319937636
407.65450,11.28746494
407.65500,10.0666873
407.65550,0.6056606662
407.65600,-9.770949196
407.65650,-13.7384765
407.65700,-10.38133801
407.65750,-6.108616303
407.65800,-3.361866634
407.65850,-0.3099225569
407.65900,3.352410335
407.65950,4.878382374
407.66000,0.9108550739
407.66050,-4.887838672
407.66100,-7.024199526
407.66150,-5.19303308
407.66200,-2.751477819
407.66250,-1.835894595
407.66300,-0.9203113723
407.66350,0.6056606662
407.66400,0.9108550739
407.66450,-0.004728149245
407.66500,-1.22550578
407.66550,-1.835894595
407.66600,-3.056672226
407.66650,-6.108616303
407.66700,-10.38133801
407.66750,-13.12808768
407.66800,-13.12808768
407.66850,-10.68653242
407.66900,-7.634588342
407.66950,-5.803421896
407.67000,-5.19303308
407.67050,-3.972255449
407.67100,-0.9203113723
407.67150,2.131632705
407.67200,3.657604743
407.67250,5.183576782
407.67300,7.930326451
407.67350,10.0666873
407.67400,7.930326451
407.67450,2.131632705
407.67500,-3.361866634
407.67550,-6.719005119
407.67600,-8.550171565
407.67650,-8.550171565
407.67700,-6.413810711
407.67750,-6.719005119
407.67800,-15.87483735
407.67850,-31.43975214
407.67900,-44.25791727
407.67950,-48.22544457
407.68000,-45.17350049
407.68050,-37.8488347
407.68100,-26.25144721
407.68150,-12.51769887
407.68200,-2.446283411
407.68250,1.521243889
407.68300,3.962799151
407.68350,6.70954882
407.68400,5.793965597
407.68450,0.6056606662
407.68500,-2.446283411
407.68550,-0.004728149245
407.68600,3.962799151
407.68650,4.878382374
407.68700,5.793965597
407.68750,11.59265934
407.68800,20.44329717
407.68850,24.71601887
407.68900,25.32640769
407.68950,29.90432381
407.69000,42.72248893
407.69050,57.98220931
407.69100,65.61206951
407.69150,62.86531984
407.69200,55.54065405
407.69250,50.96273794
407.69300,49.74196031
407.69350,45.16404419
407.69400,33.5666567
407.69450,19.83290835
407.69500,11.28746494
407.69550,8.235520859
407.69600,6.70954882
407.69650,4.267993559
407.69700,3.657604743
407.69750,5.488771189
407.69800,7.625132043
407.69850,7.319937636
407.69900,5.793965597
407.69950,5.488771189
407.70000,5.793965597
407.70050,5.488771189
407.70100,3.657604743
407.70150,-0.6151169646
407.70200,-5.19303308
407.70250,-6.719005119
407.70300,-6.108616303
407.70350,-6.719005119
407.70400,-11.29692123
407.70450,-15.87483735
407.70500,-16.79042057
407.70550,-17.40080939
407.70600,-20.75794787
407.70650,-25.6410584
407.70700,-27.16703043
407.70750,-25.9462528
407.70800,-23.50469754
407.70850,-17.7060038
407.70900,-5.498227488
407.70950,7.319937636
407.71000,12.50824257
407.71050,8.235520859
407.71100,1.216049482
407.71150,-2.141089003
407.71200,-3.056672226
407.71250,-3.972255449
407.71300,-6.719005119
407.71350,-10.68653242
407.71400,-13.43328209
407.71450,-10.38133801
407.71500,-1.835894595
407.71550,4.878382374
407.71600,4.267993559
407.71650,-0.3099225569
407.71700,-1.530700188
407.71750,0.3004662585
407.71800,-0.004728149245
407.71850,-4.582644265
407.71900,-6.719005119
407.71950,-5.498227488
407.72000,-5.19303308
407.72050,-8.550171565
407.72100,-9.16056038
407.72150,-6.108616303
407.72200,-4.277449857
407.72250,-6.719005119
407.72300,-8.550171565
407.72350,-6.108616303
407.72400,-6.108616303
407.72450,-14.95925413
407.72500,-25.9462528
407.72550,-27.16703043
407.72600,-17.09561498
407.72650,-5.498227488
407.72700,-0.004728149245
407.72750,1.521243889
407.72800,2.436827112
407.72850,2.436827112
407.72900,1.216049482
407.72950,-0.004728149245
407.73000,0.9108550739
407.73050,3.047215928
407.73100,3.657604743
407.73150,2.74202152
407.73200,1.826438297
407.73250,1.521243889
407.73300,2.436827112
407.73350,3.657604743
407.73400,4.878382374
407.73450,4.573187966
407.73500,2.436827112
407.73550,0.6056606662
407.73600,-0.004728149245
407.73650,-0.9203113723
407.73700,-4.277449857
407.73750,-8.550171565
407.73800,-9.770949196
407.73850,-5.803421896
407.73900,-0.6151169646
407.73950,1.521243889
407.74000,-0.004728149245
407.74050,-2.141089003
407.74100,-3.361866634
407.74150,-3.667061042
407.74200,-3.361866634
407.74250,-3.056672226
407.74300,-2.446283411
407.74350,-2.751477819
407.74400,-3.056672226
407.74450,-2.141089003
407.74500,-0.004728149245
407.74550,1.216049482
407.74600,0.3004662585
407.74650,-1.22550578
407.74700,-1.835894595
407.74750,-1.530700188
407.74800,-1.22550578
407.74850,-1.22550578
407.74900,-0.9203113723
407.74950,-0.3099225569
407.75000,0.3004662585
407.75050,1.826438297
407.75100,3.962799151
407.75150,4.573187966
407.75200,3.352410335
407.75250,0.9108550739
407.75300,-0.004728149245
407.75350,0.9108550739
407.75400,2.131632705
407.75450,2.131632705
407.75500,0.9108550739
407.75550,-0.004728149245
407.75600,-0.004728149245
407.75650,0.6056606662
407.75700,1.521243889
407.75750,2.131632705
407.75800,2.131632705
407.75850,1.216049482
407.75900,-0.004728149245
407.75950,-0.3099225569
407.76000,-0.004728149245
407.76050,1.216049482
407.76100,2.131632705
407.76150,1.216049482
407.76200,-1.530700188
407.76250,-3.972255449
407.76300,-3.667061042
407.76350,-1.22550578
407.76400,0.3004662585
407.76450,-0.004728149245
407.76500,-0.6151169646
407.76550,0.6056606662
407.76600,3.352410335
407.76650,5.183576782
407.76700,4.878382374
407.76750,3.962799151
407.76800,4.267993559
407.76850,3.962799151
407.76900,2.131632705
407.76950,-0.004728149245
407.77000,-0.004728149245
407.77050,-0.004728149245
407.77100,-0.6151169646
407.77150,-1.530700188
407.77200,-0.3099225569
407.77250,2.131632705
407.77300,2.436827112
407.77350,0.3004662585
407.77400,-0.6151169646
407.77450,0.9108550739
407.77500,3.962799151
407.77550,6.70954882
407.77600,8.540715266
407.77650,10.37188171
407.77700,10.98227053
407.77750,10.0666873
407.77800,8.540715266
407.77850,6.099160005
407.77900,1.521243889
407.77950,-3.667061042
407.78000,-6.719005119
407.78050,-3.972255449
407.78100,0.3004662585
407.78150,0.6056606662
407.78200,-4.582644265
407.78250,-11.60211564
407.78300,-13.7384765
407.78350,-8.244977157
407.78400,1.826438297
407.78450,13.7290202
407.78500,24.41082447
407.78550,31.73549025
407.78600,34.78743433
407.78650,32.65107347
407.78700,25.02121328
407.78750,15.56018664
407.78800,9.45629849
407.78850,8.540715266
407.78900,9.45629849
407.78950,6.404354412
407.79000,-3.972255449
407.79050,-18.31639261
407.79100,-27.47222484
407.79150,-25.6410584
407.79200,-16.18003176
407.79250,-7.024199526
407.79300,-4.277449857
407.79350,-7.024199526
407.79400,-10.0761436
407.79450,-10.68653242
407.79500,-8.855365973
407.79550,-6.719005119
407.79600,-4.582644265
407.79650,-2.446283411
407.79700,-0.6151169646
407.79750,0.9108550739
407.79800,2.131632705
407.79850,0.6056606662
407.79900,-4.277449857
407.79950,-10.0761436
407.80000,-12.51769887
407.80050,-11.29692123
407.80100,-8.550171565
407.80150,-5.803421896
407.80200,-2.751477819
407.80250,0.3004662585
407.80300,1.521243889
407.80350,-0.004728149245
407.80400,-0.9203113723
407.80450,-0.3099225569
407.80500,1.521243889
407.80550,3.657604743
407.80600,6.099160005
407.80650,9.151104082
407.80700,10.98227053
407.80750,9.151104082
407.80800,4.878382374
407.80850,1.826438297
407.80900,0.6056606662
407.80950,0.9108550739
407.81000,1.826438297
407.81050,4.573187966
407.81100,9.151104082
407.81150,14.03421461
407.81200,16.47576987
407.81250,14.94979783
407.81300,8.845909674
407.81350,1.521243889
407.81400,-2.141089003
407.81450,-2.141089003
407.81500,-2.141089003
407.81550,-6.108616303
407.81600,-10.68653242
407.81650,-10.68653242
407.81700,-6.413810711
407.81750,-3.667061042
407.81800,-4.582644265
407.81850,-4.582644265
407.81900,-2.446283411
407.81950,-1.835894595
407.82000,-4.887838672
407.82050,-6.413810711
407.82100,-2.141089003
407.82150,5.183576782
407.82200,10.98227053
407.82250,11.89785375
407.82300,8.235520859
407.82350,-0.004728149245
407.82400,-12.51769887
407.82450,-24.42028077
407.82500,-29.6085857
407.82550,-28.38780807
407.82600,-25.9462528
407.82650,-24.72547517
407.82700,-23.19950313
407.82750,-19.84236465
407.82800,-15.26444853
407.82850,-11.29692123
407.82900,-8.244977157
407.82950,-6.413810711
407.83000,-4.887838672
407.83050,-3.056672226
407.83100,-0.9203113723
407.83150,1.216049482
407.83200,4.878382374
407.83250,10.98227053
407.83300,18.00174191
407.83350,22.57965802
407.83400,24.10563006
407.83450,25.6316021
407.83500,28.98874058
407.83550,31.12510144
407.83600,30.81990703
407.83650,30.81990703
407.83700,35.70301755
407.83750,43.33287774
407.83800,45.4692386
407.83850,37.534184
407.83900,22.57965802
407.83950,8.235520859
407.84000,-0.004728149245
407.84050,-3.056672226
407.84100,-3.056672226
407.84150,-1.835894595
407.84200,-0.9203113723
407.84250,-1.530700188
407.84300,-2.751477819
407.84350,-3.972255449
407.84400,-4.887838672
407.84450,-5.19303308
407.84500,-5.498227488
407.84550,-5.19303308
407.84600,-4.277449857
407.84650,-3.667061042
407.84700,-4.277449857
407.84750,-5.498227488
407.84800,-5.803421896
407.84850,-5.19303308
407.84900,-4.582644265
407.84950,-4.887838672
407.85000,-5.498227488
407.85050,-5.19303308
407.85100,-4.887838672
407.85150,-5.498227488
407.85200,-8.244977157
407.85250,-11.60211564
407.85300,-13.7384765
407.85350,-12.51769887
407.85400,-8.244977157
407.85450,-2.141089003
407.85500,2.131632705
407.85550,2.74202152
407.85600,0.9108550739
407.85650,-0.004728149245
407.85700,0.6056606662
407.85750,0.3004662585
407.85800,-3.361866634
407.85850,-9.465754788
407.85900,-12.51769887
407.85950,-10.38133801
407.86000,-6.413810711
407.86050,-4.582644265
407.86100,-6.108616303
407.86150,-7.939782749
407.86200,-8.244977157
407.86250,-7.939782749
407.86300,-8.244977157
407.86350,-8.550171565
407.86400,-7.634588342
407.86450,-5.803421896
407.86500,-4.277449857
407.86550,-3.056672226
407.86600,-1.530700188
407.86650,-0.004728149245
407.86700,0.3004662585
407.86750,-0.9203113723
407.86800,-2.141089003
407.86850,-1.22550578
407.86900,-0.6151169646
407.86950,-2.141089003
407.87000,-5.498227488
407.87050,-7.329393934
407.87100,-6.108616303
407.87150,-4.887838672
407.87200,-4.887838672
407.87250,-5.803421896
407.87300,-5.19303308
407.87350,-2.446283411
407.87400,0.9108550739
407.87450,4.267993559
407.87500,5.793965597
407.87550,4.878382374
407.87600,1.521243889
407.87650,-1.530700188
407.87700,-3.056672226
407.87750,-3.056672226
407.87800,-2.446283411
407.87850,-1.835894595
407.87900,-0.9203113723
407.87950,0.9108550739
407.88000,3.352410335
407.88050,4.878382374
407.88100,4.573187966
407.88150,3.657604743
407.88200,3.657604743
407.88250,4.878382374
407.88300,5.488771189
407.88350,5.183576782
407.88400,4.878382374
407.88450,4.573187966
407.88500,3.352410335
407.88550,1.216049482
407.88600,-0.9203113723
407.88650,-2.446283411
407.88700,-3.361866634
407.88750,-3.056672226
407.88800,0.3004662585
407.88850,4.573187966
407.88900,3.657604743
407.88950,-3.667061042
407.89000,-10.99172683
407.89050,-9.465754788
407.89100,-0.004728149245
407.89150,8.235520859
407.89200,7.930326451
407.89250,1.826438297
407.89300,-2.446283411
407.89350,-2.751477819
407.89400,-2.141089003
407.89450,-3.056672226
407.89500,-4.887838672
407.89550,-5.803421896
407.89600,-4.887838672
407.89650,-3.056672226
407.89700,-0.6151169646
407.89750,1.826438297
407.89800,5.793965597
407.89850,9.45629849
407.89900,10.98227053
407.89950,9.45629849
407.90000,6.099160005
407.90050,3.047215928
407.90100,1.826438297
407.90150,2.74202152
407.90200,3.962799151
407.90250,5.183576782
407.90300,5.488771189
407.90350,5.488771189
407.90400,5.793965597
407.90450,6.70954882
407.90500,5.793965597
407.90550,2.74202152
407.90600,-0.9203113723
407.90650,-3.361866634
407.90700,-3.972255449
407.90750,-5.498227488
407.90800,-9.16056038
407.90850,-12.51769887
407.90900,-12.51769887
407.90950,-8.244977157
407.91000,-3.056672226
407.91050,-0.004728149245
407.91100,1.826438297
407.91150,3.352410335
407.91200,4.878382374
407.91250,6.099160005
407.91300,7.014743228
407.91350,8.540715266
407.91400,9.761492897
407.91450,9.151104082
407.91500,5.793965597
407.91550,1.521243889
407.91600,-0.3099225569
407.91650,0.6056606662
407.91700,2.131632705
407.91750,0.9108550739
407.91800,-2.446283411
407.91850,-4.582644265
407.91900,-3.972255449
407.91950,-3.056672226
407.92000,-4.887838672
407.92050,-7.329393934
407.92100,-6.413810711
407.92150,-2.751477819
407.92200,-0.6151169646
407.92250,-2.141089003
407.92300,-3.361866634
407.92350,-1.22550578
407.92400,2.74202152
407.92450,5.793965597
407.92500,5.793965597
407.92550,3.962799151
407.92600,1.826438297
407.92650,0.3004662585
407.92700,-0.3099225569
407.92750,-0.9203113723
407.92800,-1.530700188
407.92850,-1.530700188
407.92900,-1.22550578
407.92950,-0.6151169646
407.93000,-1.22550578
407.93050,-3.972255449
407.93100,-6.413810711
407.93150,-6.719005119
407.93200,-5.803421896
407.93250,-5.498227488
407.93300,-7.024199526
407.93350,-8.550171565
407.93400,-7.939782749
407.93450,-5.498227488
407.93500,-3.361866634
407.93550,-2.751477819
407.93600,-2.446283411
407.93650,-1.530700188
407.93700,-1.22550578
407.93750,-2.141089003
407.93800,-3.972255449
407.93850,-4.887838672
407.93900,-4.887838672
407.93950,-3.972255449
407.94000,-1.530700188
407.94050,2.436827112
407.94100,6.70954882
407.94150,8.235520859
407.94200,6.70954882
407.94250,5.793965597
407.94300,7.014743228
407.94350,8.235520859
407.94400,5.793965597
407.94450,0.9108550739
407.94500,-2.751477819
407.94550,-3.667061042
407.94600,-2.751477819
407.94650,-2.446283411
407.94700,-3.361866634
407.94750,-5.498227488
407.94800,-8.855365973
407.94850,-12.21250446
407.94900,-12.21250446
407.94950,-7.939782749
407.95000,-2.446283411
407.95050,2.436827112
407.95100,6.404354412
407.95150,9.761492897
407.95200,11.28746494
407.95250,10.67707612
407.95300,9.761492897
407.95350,10.98227053
407.95400,12.50824257
407.95450,11.89785375
407.95500,9.151104082
407.95550,6.404354412
407.95600,3.657604743
407.95650,-0.004728149245
407.95700,-4.582644265
407.95750,-5.803421896
407.95800,-4.887838672
407.95850,-7.024199526
407.95900,-13.43328209
407.95950,-17.40080939
407.96000,-13.43328209
407.96050,-5.498227488
407.96100,-0.6151169646
407.96150,1.826438297
407.96200,6.70954882
407.96250,14.03421461
407.96300,16.17057546
407.96350,10.0666873
407.96400,3.047215928
407.96450,1.521243889
407.96500,3.657604743
407.96550,4.267993559
407.96600,2.436827112
407.96650,1.216049482
407.96700,1.521243889
407.96750,2.131632705
407.96800,2.74202152
407.96850,3.657604743
407.96900,4.573187966
407.96950,3.352410335
407.97000,0.6056606662
407.97050,-0.6151169646
407.97100,-0.004728149245
407.97150,1.216049482
407.97200,1.521243889
407.97250,1.216049482
407.97300,-0.004728149245
407.97350,-2.751477819
407.97400,-5.498227488
407.97450,-5.803421896
407.97500,-3.361866634
407.97550,-0.004728149245
407.97600,1.521243889
407.97650,0.6056606662
407.97700,-1.22550578
407.97750,-2.141089003
407.97800,-0.3099225569
407.97850,3.047215928
407.97900,4.267993559
407.97950,1.216049482
407.98000,-1.835894595
407.98050,-0.3099225569
407.98100,2.74202152
407.98150,0.9108550739
407.98200,-6.719005119
407.98250,-14.34886531
407.98300,-14.95925413
407.98350,-10.0761436
407.98400,-4.887838672
407.98450,-2.141089003
407.98500,-0.9203113723
407.98550,-0.3099225569
407.98600,-0.004728149245
407.98650,0.6056606662
407.98700,2.436827112
407.98750,4.267993559
407.98800,4.573187966
407.98850,4.267993559
407.98900,4.267993559
407.98950,4.573187966
407.99000,4.267993559
407.99050,3.047215928
407.99100,2.131632705
407.99150,1.826438297
407.99200,2.74202152
407.99250,3.657604743
407.99300,3.352410335
407.99350,3.047215928
407.99400,3.352410335
407.99450,3.657604743
407.99500,2.436827112
407.99550,-0.9203113723
407.99600,-3.667061042
407.99650,-3.056672226
407.99700,-1.22550578
407.99750,-0.004728149245
407.99800,1.826438297
407.99850,5.793965597
407.99900,7.930326451
407.99950,3.657604743
408.00000,-2.446283411
408.00050,-3.667061042
408.00100,1.216049482
408.00150,5.488771189
408.00200,3.352410335
408.00250,-0.6151169646
408.00300,-1.530700188
408.00350,-0.004728149245
408.00400,0.9108550739
408.00450,0.6056606662
408.00500,0.9108550739
408.00550,1.521243889
408.00600,1.216049482
408.00650,-0.004728149245
408.00700,-0.3099225569
408.00750,-0.6151169646
408.00800,-1.530700188
408.00850,-2.141089003
408.00900,-0.9203113723
408.00950,0.3004662585
408.01000,0.3004662585
408.01050,-0.004728149245
408.01100,-0.004728149245
408.01150,0.9108550739
408.01200,1.521243889
408.01250,0.6056606662
408.01300,-0.3099225569
408.01350,-0.9203113723
408.01400,-2.141089003
408.01450,-4.582644265
408.01500,-7.634588342
408.01550,-8.244977157
408.01600,-5.803421896
408.01650,-1.835894595
408.01700,-0.004728149245
408.01750,-1.835894595
408.01800,-5.19303308
408.01850,-7.329393934
408.01900,-7.329393934
408.01950,-7.024199526
408.02000,-7.024199526
408.02050,-5.19303308
408.02100,-0.9203113723
408.02150,2.74202152
408.02200,4.267993559
408.02250,2.74202152
408.02300,-0.3099225569
408.02350,-5.498227488
408.02400,-11.29692123
408.02450,-14.65405972
408.02500,-11.90731005
408.02550,-4.277449857
408.02600,2.436827112
408.02650,4.573187966
408.02700,1.521243889
408.02750,-2.751477819
408.02800,-5.19303308
408.02850,-2.141089003
408.02900,5.488771189
408.02950,14.03421461
408.03000,18.00174191
408.03050,15.86538105
408.03100,11.89785375
408.03150,10.37188171
408.03200,11.59265934
408.03250,13.11863138
408.03300,12.50824257
408.03350,10.37188171
408.03400,8.845909674
408.03450,7.625132043
408.03500,6.404354412
408.03550,3.657604743
408.03600,0.9108550739
408.03650,0.6056606662
408.03700,3.047215928
408.03750,5.488771189
408.03800,5.793965597
408.03850,4.573187966
408.03900,3.047215928
408.03950,0.3004662585
408.04000,-4.582644265
408.04050,-10.0761436
408.04100,-11.60211564
408.04150,-7.939782749
408.04200,-3.056672226
408.04250,-1.530700188
408.04300,-2.751477819
408.04350,-5.498227488
408.04400,-8.244977157
408.04450,-9.770949196
408.04500,-8.244977157
408.04550,-4.277449857
408.04600,-0.3099225569
408.04650,1.826438297
408.04700,3.962799151
408.04750,5.793965597
408.04800,6.099160005
408.04850,3.962799151
408.04900,1.521243889
408.04950,1.826438297
408.05000,3.657604743
408.05050,4.573187966
408.05100,4.573187966
408.05150,3.657604743
408.05200,1.521243889
408.05250,-0.6151169646
408.05300,-0.3099225569
408.05350,2.436827112
408.05400,3.047215928
408.05450,-3.972255449
408.05500,-13.7384765
408.05550,-16.79042057
408.05600,-10.38133801
408.05650,-1.22550578
408.05700,3.962799151
408.05750,5.793965597
408.05800,7.014743228
408.05850,7.319937636
408.05900,4.878382374
408.05950,0.3004662585
408.06000,-2.446283411
408.06050,-3.056672226
408.06100,-3.667061042
408.06150,-5.498227488
408.06200,-7.024199526
408.06250,-6.413810711
408.06300,-4.887838672
408.06350,-4.277449857
408.06400,-5.19303308
408.06450,-5.19303308
408.06500,-3.667061042
408.06550,-2.446283411
408.06600,-2.751477819
408.06650,-3.361866634
408.06700,-2.446283411
408.06750,-1.835894595
408.06800,-4.277449857
408.06850,-7.634588342
408.06900,-8.550171565
408.06950,-6.108616303
408.07000,-3.972255449
408.07050,-3.056672226
408.07100,-1.835894595
408.07150,0.6056606662
408.07200,2.436827112
408.07250,2.436827112
408.07300,2.74202152
408.07350,4.878382374
408.07400,6.099160005
408.07450,4.573187966
408.07500,2.436827112
408.07550,2.436827112
408.07600,3.657604743
408.07650,3.962799151
408.07700,3.657604743
408.07750,3.352410335
408.07800,3.352410335
408.07850,2.74202152
408.07900,0.9108550739
408.07950,-0.6151169646
408.08000,-2.141089003
408.08050,-3.056672226
408.08100,-3.361866634
408.08150,-3.972255449
408.08200,-5.803421896
408.08250,-6.413810711
408.08300,-3.667061042
408.08350,0.9108550739
408.08400,3.352410335
408.08450,3.047215928
408.08500,3.047215928
408.08550,3.962799151
408.08600,3.047215928
408.08650,-0.3099225569
408.08700,-1.835894595
408.08750,1.216049482
408.08800,6.099160005
408.08850,7.014743228
408.08900,3.657604743
408.08950,-0.3099225569
408.09000,-3.361866634
408.09050,-4.277449857
408.09100,-1.835894595
408.09150,1.826438297
408.09200,3.047215928
408.09250,0.6056606662
408.09300,-1.530700188
408.09350,-1.530700188
408.09400,-1.530700188
408.09450,-3.972255449
408.09500,-5.498227488
408.09550,-2.446283411
408.09600,3.352410335
408.09650,7.625132043
408.09700,7.625132043
408.09750,5.488771189
408.09800,3.657604743
408.09850,2.131632705
408.09900,0.9108550739
408.09950,0.9108550739
408.10000,1.826438297
408.10050,2.131632705
408.10100,1.521243889
408.10150,1.826438297
408.10200,4.267993559
408.10250,7.625132043
408.10300,8.540715266
408.10350,5.793965597
408.10400,0.9108550739
408.10450,-1.22550578
408.10500,-0.004728149245
408.10550,3.657604743
408.10600,4.267993559
408.10650,1.216049482
408.10700,-2.751477819
408.10750,-5.19303308
408.10800,-5.498227488
408.10850,-5.19303308
408.10900,-4.887838672
408.10950,-4.277449857
408.11000,-3.361866634
408.11050,-2.446283411
408.11100,-1.22550578
408.11150,-1.530700188
408.11200,-4.582644265
408.11250,-8.244977157
408.11300,-9.465754788
408.11350,-6.719005119
408.11400,-3.667061042
408.11450,-3.056672226
408.11500,-4.887838672
408.11550,-6.719005119
408.11600,-6.719005119
408.11650,-5.19303308
408.11700,-3.667061042
408.11750,-2.751477819
408.11800,-3.056672226
408.11850,-3.361866634
408.11900,-2.751477819
408.11950,-1.22550578
408.12000,-1.22550578
408.12050,-1.835894595
408.12100,-0.9203113723
408.12150,1.216049482
408.12200,3.657604743
408.12250,4.878382374
408.12300,6.404354412
408.12350,8.540715266
408.12400,7.319937636
408.12450,1.216049482
408.12500,-5.803421896
408.12550,-8.244977157
408.12600,-5.803421896
408.12650,-3.361866634
408.12700,-3.667061042
408.12750,-5.19303308
408.12800,-4.582644265
408.12850,-1.835894595
408.12900,2.131632705
408.12950,7.014743228
408.13000,10.67707612
408.13050,9.761492897
408.13100,5.793965597
408.13150,3.657604743
408.13200,5.793965597
408.13250,8.540715266
408.13300,8.235520859
408.13350,5.488771189
408.13400,3.657604743
408.13450,3.352410335
408.13500,3.352410335
408.13550,4.267993559
408.13600,5.488771189
408.13650,2.436827112
408.13700,-6.108616303
408.13750,-15.26444853
408.13800,-16.79042057
408.13850,-10.38133801
408.13900,-4.887838672
408.13950,-4.582644265
408.14000,-6.108616303
408.14050,-4.887838672
408.14100,-1.530700188
408.14150,0.3004662585
408.14200,2.131632705
408.14250,4.267993559
408.14300,5.793965597
408.14350,4.878382374
408.14400,0.9108550739
408.14450,-3.361866634
408.14500,-7.634588342
408.14550,-10.38133801
408.14600,-10.68653242
408.14650,-8.244977157
408.14700,-4.277449857
408.14750,-0.004728149245
408.14800,3.047215928
408.14850,6.404354412
408.14900,9.761492897
408.14950,11.89785375
408.15000,12.20304816
408.15050,10.98227053
408.15100,9.45629849
408.15150,7.319937636
408.15200,4.878382374
408.15250,3.657604743
408.15300,4.573187966
408.15350,7.625132043
408.15400,9.45629849
408.15450,9.151104082
408.15500,6.404354412
408.15550,2.131632705
408.15600,-2.141089003
408.15650,-5.803421896
408.15700,-6.413810711
408.15750,-3.972255449
408.15800,-0.9203113723
408.15850,0.6056606662
408.15900,1.216049482
408.15950,1.521243889
408.16000,0.9108550739
408.16050,-0.004728149245
408.16100,-0.6151169646
408.16150,-0.004728149245
408.16200,-0.004728149245
408.16250,-1.22550578
408.16300,-2.751477819
408.16350,-3.056672226
408.16400,-2.141089003
408.16450,-2.141089003
408.16500,-3.667061042
408.16550,-4.887838672
408.16600,-4.887838672
408.16650,-4.277449857
408.16700,-3.056672226
408.16750,-2.751477819
408.16800,-3.667061042
408.16850,-4.582644265
408.16900,-3.667061042
408.16950,-0.004728149245
408.17000,3.657604743
408.17050,4.878382374
408.17100,3.352410335
408.17150,1.216049482
408.17200,-0.004728149245
408.17250,-1.530700188
408.17300,-2.751477819
408.17350,-2.751477819
408.17400,-1.530700188
408.17450,-0.004728149245
408.17500,0.6056606662
408.17550,0.9108550739
408.17600,-0.004728149245
408.17650,-0.3099225569
408.17700,0.6056606662
408.17750,4.573187966
408.17800,7.319937636
408.17850,5.183576782
408.17900,0.3004662585
408.17950,-1.835894595
408.18000,-0.6151169646
408.18050,-0.004728149245
408.18100,-1.530700188
408.18150,-3.361866634
408.18200,-3.056672226
408.18250,-1.835894595
408.18300,-1.530700188
408.18350,-1.22550578
408.18400,-0.004728149245
408.18450,1.521243889
408.18500,0.9108550739
408.18550,-0.9203113723
408.18600,-1.835894595
408.18650,-1.22550578
408.18700,-0.004728149245
408.18750,0.9108550739
408.18800,1.826438297
408.18850,1.216049482
408.18900,-0.6151169646
408.18950,-2.446283411
408.19000,-1.530700188
408.19050,0.6056606662
408.19100,2.74202152
408.19150,4.267993559
408.19200,5.183576782
408.19250,6.099160005
408.19300,5.488771189
408.19350,3.352410335
408.19400,0.9108550739
408.19450,-1.835894595
408.19500,-4.582644265
408.19550,-5.803421896
408.19600,-5.19303308
408.19650,-3.972255449
408.19700,-3.056672226
408.19750,-2.141089003
408.19800,-0.6151169646
408.19850,0.9108550739
408.19900,1.826438297
408.19950,1.826438297
408.20000,1.521243889
408.20050,0.6056606662
408.20100,-0.3099225569
408.20150,-1.530700188
408.20200,-1.835894595
408.20250,-1.835894595
408.20300,-2.446283411
408.20350,-3.361866634
408.20400,-3.667061042
408.20450,-3.056672226
408.20500,-3.361866634
408.20550,-3.056672226
408.20600,-1.835894595
408.20650,-0.004728149245
408.20700,0.3004662585
408.20750,-0.6151169646
408.20800,-1.530700188
408.20850,-0.6151169646
408.20900,0.3004662585
408.20950,0.6056606662
408.21000,-0.004728149245
408.21050,0.3004662585
408.21100,0.9108550739
408.21150,0.9108550739
408.21200,0.6056606662
408.21250,-0.004728149245
408.21300,-0.004728149245
408.21350,0.6056606662
408.21400,0.6056606662
408.21450,0.6056606662
408.21500,0.9108550739
408.21550,1.826438297
408.21600,1.826438297
408.21650,-0.9203113723
408.21700,-4.887838672
408.21750,-6.108616303
408.21800,-3.056672226
408.21850,-0.004728149245
408.21900,-1.22550578
408.21950,-4.582644265
408.22000,-4.277449857
408.22050,-0.004728149245
408.22100,3.657604743
408.22150,2.436827112
408.22200,-0.6151169646
408.22250,-1.835894595
408.22300,-0.004728149245
408.22350,2.131632705
408.22400,4.573187966
408.22450,6.404354412
408.22500,5.793965597
408.22550,3.047215928
408.22600,-0.004728149245
408.22650,-1.22550578
408.22700,-0.9203113723
408.22750,0.9108550739
408.22800,4.267993559
408.22850,5.793965597
408.22900,1.521243889
408.22950,-6.719005119
408.23000,-11.90731005
408.23050,-9.465754788
408.23100,-3.972255449
408.23150,-1.530700188
408.23200,-0.9203113723
408.23250,3.047215928
408.23300,10.0666873
408.23350,13.7290202
408.23400,11.28746494
408.23450,7.014743228
408.23500,4.878382374
408.23550,3.047215928
408.23600,-0.3099225569
408.23650,-4.887838672
408.23700,-6.108616303
408.23750,-2.751477819
408.23800,1.826438297
408.23850,4.878382374
408.23900,4.573187966
408.23950,3.047215928
408.24000,3.657604743
408.24050,6.404354412
408.24100,8.845909674
408.24150,7.319937636
408.24200,3.352410335
408.24250,0.9108550739
408.24300,1.521243889
408.24350,2.436827112
408.24400,2.131632705
408.24450,0.9108550739
408.24500,-0.004728149245
408.24550,-0.6151169646
408.24600,-1.530700188
408.24650,-1.530700188
408.24700,-0.6151169646
408.24750,-0.004728149245
408.24800,-0.9203113723
408.24850,-1.835894595
408.24900,-0.6151169646
408.24950,2.436827112
408.25000,4.878382374
408.25050,3.352410335
408.25100,-1.22550578
408.25150,-6.719005119
408.25200,-9.770949196
408.25250,-10.38133801
408.25300,-8.855365973
408.25350,-6.108616303
408.25400,-0.6151169646
408.25450,4.267993559
408.25500,5.793965597
408.25550,2.74202152
408.25600,-0.004728149245
408.25650,1.521243889
408.25700,4.878382374
408.25750,4.573187966
408.25800,1.216049482
408.25850,-0.004728149245
408.25900,0.9108550739
408.25950,1.826438297
408.26000,-0.004728149245
408.26050,-1.530700188
408.26100,-0.6151169646
408.26150,1.216049482
408.26200,1.826438297
408.26250,0.9108550739
408.26300,0.3004662585
408.26350,-0.004728149245
408.26400,-2.141089003
408.26450,-5.19303308
408.26500,-7.024199526
408.26550,-6.719005119
408.26600,-4.277449857
408.26650,-0.9203113723
408.26700,1.826438297
408.26750,3.352410335
408.26800,3.352410335
408.26850,3.657604743
408.26900,4.267993559
408.26950,5.183576782
408.27000,6.099160005
408.27050,6.404354412
408.27100,3.962799151
408.27150,-1.835894595
408.27200,-7.939782749
408.27250,-9.16056038
408.27300,-5.498227488
408.27350,-1.835894595
408.27400,-1.835894595
408.27450,-2.751477819
408.27500,-1.22550578
408.27550,0.6056606662
408.27600,0.9108550739
408.27650,-0.004728149245
408.27700,0.3004662585
408.27750,1.826438297
408.27800,2.131632705
408.27850,-0.004728149245
408.27900,-3.056672226
408.27950,-5.498227488
408.28000,-7.024199526
408.28050,-7.024199526
408.28100,-5.19303308
408.28150,-2.446283411
408.28200,-1.22550578
408.28250,-1.835894595
408.28300,-3.056672226
408.28350,-4.277449857
408.28400,-6.108616303
408.28450,-7.634588342
408.28500,-7.329393934
408.28550,-4.582644265
408.28600,-1.22550578
408.28650,-0.3099225569
408.28700,-1.530700188
408.28750,-2.751477819
408.28800,-2.141089003
408.28850,-0.3099225569
408.28900,0.6056606662
408.28950,0.6056606662
408.29000,-0.3099225569
408.29050,-1.530700188
408.29100,-1.530700188
408.29150,-0.3099225569
408.29200,0.9108550739
408.29250,2.74202152
408.29300,3.962799151
408.29350,4.573187966
408.29400,3.657604743
408.29450,1.826438297
408.29500,1.216049482
408.29550,2.74202152
408.29600,3.047215928
408.29650,0.9108550739
408.29700,-1.835894595
408.29750,-3.056672226
408.29800,-2.141089003
408.29850,-2.446283411
408.29900,-3.361866634
408.29950,-2.141089003
408.30000,1.521243889
408.30050,4.878382374
408.30100,5.183576782
408.30150,4.267993559
408.30200,5.488771189
408.30250,8.235520859
408.30300,9.151104082
408.30350,6.099160005
408.30400,1.826438297
408.30450,0.6056606662
408.30500,2.74202152
408.30550,5.488771189
408.30600,6.70954882
408.30650,6.404354412
408.30700,6.099160005
408.30750,5.793965597
408.30800,4.878382374
408.30850,3.352410335
408.30900,2.74202152
408.30950,3.047215928
408.31000,3.352410335
408.31050,2.74202152
408.31100,2.436827112
408.31150,2.436827112
408.31200,1.826438297
408.31250,0.9108550739
408.31300,-0.004728149245
408.31350,0.3004662585
408.31400,0.9108550739
408.31450,1.521243889
408.31500,1.216049482
408.31550,0.9108550739
408.31600,-0.004728149245
408.31650,-1.22550578
408.31700,-1.835894595
408.31750,-2.141089003
408.31800,-3.056672226
408.31850,-4.582644265
408.31900,-4.887838672
408.31950,-3.972255449
408.32000,-2.141089003
408.32050,-0.9203113723
408.32100,-0.004728149245
408.32150,-0.6151169646
408.32200,-3.056672226
408.32250,-6.108616303
408.32300,-7.024199526
408.32350,-5.19303308
408.32400,-3.667061042
408.32450,-4.887838672
408.32500,-7.329393934
408.32550,-7.939782749
408.32600,-6.719005119
408.32650,-5.498227488
408.32700,-4.582644265
408.32750,-3.667061042
408.32800,-1.835894595
408.32850,-1.22550578
408.32900,-3.361866634
408.32950,-5.19303308
408.33000,-2.141089003
408.33050,6.099160005
408.33100,14.64460342
408.33150,16.17057546
408.33200,11.89785375
408.33250,8.235520859
408.33300,9.761492897
408.33350,11.89785375
408.33400,7.625132043
408.33450,-2.751477819
408.33500,-12.21250446
408.33550,-14.65405972
408.33600,-11.60211564
408.33650,-8.550171565
408.33700,-8.550171565
408.33750,-9.465754788
408.33800,-9.465754788
408.33850,-8.550171565
408.33900,-7.024199526
408.33950,-4.887838672
408.34000,-2.446283411
408.34050,0.3004662585
408.34100,4.267993559
408.34150,8.540715266
408.34200,11.59265934
408.34250,10.98227053
408.34300,6.70954882
408.34350,1.826438297
408.34400,-0.9203113723
408.34450,-2.446283411
408.34500,-3.667061042
408.34550,-4.582644265
408.34600,-3.056672226
408.34650,-0.004728149245
408.34700,1.521243889
408.34750,-0.6151169646
408.34800,-4.887838672
408.34850,-5.19303308
408.34900,-1.22550578
408.34950,3.352410335
408.35000,4.878382374
408.35050,3.657604743
408.35100,3.047215928
408.35150,3.352410335
408.35200,2.74202152
408.35250,0.9108550739
408.35300,-0.004728149245
408.35350,1.521243889
408.35400,4.267993559
408.35450,4.878382374
408.35500,2.74202152
408.35550,0.6056606662
408.35600,0.3004662585
408.35650,0.3004662585
408.35700,-0.3099225569
408.35750,-0.9203113723
408.35800,-0.3099225569
408.35850,0.3004662585
408.35900,-0.3099225569
408.35950,-1.22550578
408.36000,-1.530700188
408.36050,-0.6151169646
408.36100,-0.3099225569
408.36150,-0.6151169646
408.36200,-0.6151169646
408.36250,-0.3099225569
408.36300,-0.004728149245
408.36350,1.521243889
408.36400,5.488771189
408.36450,9.151104082
408.36500,8.540715266
408.36550,5.488771189
408.36600,4.267993559
408.36650,6.099160005
408.36700,7.319937636
408.36750,4.878382374
408.36800,1.521243889
408.36850,-0.004728149245
408.36900,-0.004728149245
408.36950,-0.6151169646
408.37000,-1.835894595
408.37050,-2.446283411
408.37100,-3.056672226
408.37150,-3.056672226
408.37200,-1.835894595
408.37250,-0.004728149245
408.37300,-0.004728149245
408.37350,-2.446283411
408.37400,-6.108616303
408.37450,-7.939782749
408.37500,-7.634588342
408.37550,-7.329393934
408.37600,-6.108616303
408.37650,-3.667061042
408.37700,-1.835894595
408.37750,-1.835894595
408.37800,-2.141089003
408.37850,-1.835894595
408.37900,-1.530700188
408.37950,-2.446283411
408.38000,-3.056672226
408.38050,-2.141089003
408.38100,-1.530700188
408.38150,-3.667061042
408.38200,-7.634588342
408.38250,-9.465754788
408.38300,-8.550171565
408.38350,-7.634588342
408.38400,-7.634588342
408.38450,-7.329393934
408.38500,-6.108616303
408.38550,-6.719005119
408.38600,-9.16056038
408.38650,-9.465754788
408.38700,-6.108616303
408.38750,-0.9203113723
408.38800,2.131632705
408.38850,3.352410335
408.38900,3.352410335
408.38950,2.74202152
408.39000,1.216049482
408.39050,-0.3099225569
408.39100,-1.835894595
408.39150,-2.141089003
408.39200,-0.004728149245
408.39250,3.962799151
408.39300,8.540715266
408.39350,9.761492897
408.39400,7.319937636
408.39450,3.352410335
408.39500,0.3004662585
408.39550,-2.141089003
408.39600,-3.972255449
408.39650,-4.277449857
408.39700,-2.141089003
408.39750,0.3004662585
408.39800,3.047215928
408.39850,4.267993559
408.39900,3.657604743
408.39950,1.826438297
408.40000,0.9108550739
408.40050,2.436827112
408.40100,3.962799151
408.40150,3.047215928
408.40200,-0.9203113723
408.40250,-4.277449857
408.40300,-3.972255449
408.40350,-0.6151169646
408.40400,1.826438297
408.40450,2.131632705
408.40500,-0.004728149245
408.40550,-3.972255449
408.40600,-7.329393934
408.40650,-6.719005119
408.40700,-2.751477819
408.40750,2.131632705
408.40800,7.625132043
408.40850,12.81343697
408.40900,16.17057546
408.40950,15.56018664
408.41000,11.28746494
408.41050,8.235520859
408.41100,8.235520859
408.41150,7.014743228
408.41200,-0.004728149245
408.41250,-8.244977157
408.41300,-11.29692123
408.41350,-7.634588342
408.41400,-2.446283411
408.41450,0.3004662585
408.41500,2.131632705
408.41550,3.657604743
408.41600,1.826438297
408.41650,-2.751477819
408.41700,-6.413810711
408.41750,-3.972255449
408.41800,0.3004662585
408.41850,0.6056606662
408.41900,-3.361866634
408.41950,-6.719005119
408.42000,-6.108616303
408.42050,-3.667061042
408.42100,-0.9203113723
408.42150,3.047215928
408.42200,8.845909674
408.42250,12.50824257
408.42300,11.28746494
408.42350,7.319937636
408.42400,5.793965597
408.42450,6.70954882
408.42500,7.014743228
408.42550,5.183576782
408.42600,3.657604743
408.42650,2.74202152
408.42700,1.826438297
408.42750,-0.004728149245
408.42800,-0.9203113723
408.42850,-0.6151169646
408.42900,-0.3099225569
408.42950,-0.6151169646
408.43000,-0.3099225569
408.43050,0.3004662585
408.43100,1.216049482
408.43150,0.3004662585
408.43200,-0.9203113723
408.43250,-1.835894595
408.43300,-1.835894595
408.43350,-1.835894595
408.43400,-1.530700188
408.43450,-0.004728149245
408.43500,1.826438297
408.43550,0.9108550739
408.43600,-2.446283411
408.43650,-3.972255449
408.43700,-0.9203113723
408.43750,2.74202152
408.43800,3.962799151
408.43850,3.352410335
408.43900,4.573187966
408.43950,7.014743228
408.44000,5.793965597
408.44050,-0.004728149245
408.44100,-5.19303308
408.44150,-5.19303308
408.44200,-2.751477819
408.44250,-5.19303308
408.44300,-11.90731005
408.44350,-16.18003176
408.44400,-13.43328209
408.44450,-7.329393934
408.44500,-3.972255449
408.44550,-3.667061042
408.44600,-3.361866634
408.44650,-1.835894595
408.44700,-1.530700188
408.44750,-2.141089003
408.44800,-0.9203113723
408.44850,2.74202152
408.44900,5.793965597
408.44950,4.878382374
408.45000,2.131632705
408.45050,1.216049482
408.45100,3.047215928
408.45150,5.183576782
408.45200,6.099160005
408.45250,5.488771189
408.45300,3.657604743
408.45350,0.9108550739
408.45400,-2.141089003
408.45450,-3.667061042
408.45500,-3.056672226
408.45550,-1.530700188
408.45600,-0.004728149245
408.45650,2.131632705
408.45700,3.657604743
408.45750,3.962799151
408.45800,3.047215928
408.45850,3.657604743
408.45900,5.793965597
408.45950,7.625132043
408.46000,7.625132043
408.46050,7.014743228
408.46100,5.793965597
408.46150,3.962799151
408.46200,0.9108550739
408.46250,-2.446283411
408.46300,-4.277449857
408.46350,-5.19303308
408.46400,-6.108616303
408.46450,-6.719005119
408.46500,-6.719005119
408.46550,-4.582644265
408.46600,-1.22550578
408.46650,2.131632705
408.46700,4.573187966
408.46750,5.183576782
408.46800,5.793965597
408.46850,7.930326451
408.46900,11.28746494
408.46950,12.20304816
408.47000,7.930326451
408.47050,1.521243889
408.47100,-1.530700188
408.47150,-0.3099225569
408.47200,2.131632705
408.47250,2.74202152
408.47300,1.216049482
408.47350,-0.004728149245
408.47400,0.3004662585
408.47450,2.131632705
408.47500,2.436827112
408.47550,-0.004728149245
408.47600,-4.582644265
408.47650,-7.939782749
408.47700,-7.329393934
408.47750,-4.582644265
408.47800,-3.056672226
408.47850,-3.667061042
408.47900,-3.667061042
408.47950,-1.835894595
408.48000,-0.004728149245
408.48050,0.6056606662
408.48100,0.3004662585
408.48150,0.3004662585
408.48200,0.6056606662
408.48250,0.9108550739
408.48300,0.3004662585
408.48350,-0.9203113723
408.48400,-4.582644265
408.48450,-8.550171565
408.48500,-10.99172683
408.48550,-9.16056038
408.48600,-3.056672226
408.48650,3.657604743
408.48700,7.014743228
408.48750,5.488771189
408.48800,2.74202152
408.48850,2.436827112
408.48900,4.267993559
408.48950,4.878382374
408.49000,2.131632705
408.49050,-0.9203113723
408.49100,-2.446283411
408.49150,-2.446283411
408.49200,-1.530700188
408.49250,0.3004662585
408.49300,2.74202152
408.49350,3.962799151
408.49400,2.74202152
408.49450,1.216049482
408.49500,-0.6151169646
408.49550,-3.972255449
408.49600,-7.939782749
408.49650,-8.244977157
408.49700,-3.361866634
408.49750,1.826438297
408.49800,2.436827112
408.49850,0.3004662585
408.49900,1.521243889
408.49950,4.573187966
408.50000,4.267993559
408.50050,-0.6151169646
408.50100,-5.498227488
408.50150,-6.108616303
408.50200,-4.582644265
408.50250,-4.277449857
408.50300,-3.972255449
408.50350,-2.141089003
408.50400,-1.22550578
408.50450,-3.667061042
408.50500,-7.024199526
408.50550,-7.939782749
408.50600,-5.19303308
408.50650,-1.530700188
408.50700,0.9108550739
408.50750,2.131632705
408.50800,2.74202152
408.50850,3.352410335
408.50900,3.657604743
408.50950,3.047215928
408.51000,1.521243889
408.51050,-0.6151169646
408.51100,-1.530700188
408.51150,-0.9203113723
408.51200,-1.22550578
408.51250,-2.751477819
408.51300,-3.972255449
408.51350,-2.751477819
408.51400,-0.004728149245
408.51450,1.521243889
408.51500,2.131632705
408.51550,2.436827112
408.51600,2.436827112
408.51650,3.352410335
408.51700,3.962799151
408.51750,2.436827112
408.51800,-1.530700188
408.51850,-6.108616303
408.51900,-7.329393934
408.51950,-6.413810711
408.52000,-7.024199526
408.52050,-9.465754788
408.52100,-9.16056038
408.52150,-2.446283411
408.52200,5.793965597
408.52250,10.67707612
408.52300,10.98227053
408.52350,9.151104082
408.52400,5.793965597
408.52450,3.352410335
408.52500,4.267993559
408.52550,7.930326451
408.52600,9.151104082
408.52650,5.793965597
408.52700,2.131632705
408.52750,3.657604743
408.52800,6.70954882
408.52850,4.267993559
408.52900,-2.141089003
408.52950,-5.803421896
408.53000,-2.141089003
408.53050,3.962799151
408.53100,7.319937636
408.53150,7.319937636
408.53200,6.099160005
408.53250,3.962799151
408.53300,0.6056606662
408.53350,-2.141089003
408.53400,-3.667061042
408.53450,-4.277449857
408.53500,-4.887838672
408.53550,-4.887838672
408.53600,-5.19303308
408.53650,-6.413810711
408.53700,-6.413810711
408.53750,-3.056672226
408.53800,1.826438297
408.53850,4.878382374
408.53900,3.657604743
408.53950,1.216049482
408.54000,0.6056606662
408.54050,0.9108550739
408.54100,0.9108550739
408.54150,0.9108550739
408.54200,0.9108550739
408.54250,0.6056606662
408.54300,-0.004728149245
408.54350,0.3004662585
408.54400,1.521243889
408.54450,1.216049482
408.54500,-1.22550578
408.54550,-3.972255449
408.54600,-3.972255449
408.54650,-2.141089003
408.54700,-1.530700188
408.54750,-2.751477819
408.54800,-5.19303308
408.54850,-7.939782749
408.54900,-9.465754788
408.54950,-8.550171565
408.55000,-5.498227488
408.55050,-3.056672226
408.55100,-2.751477819
408.55150,-2.141089003
408.55200,0.9108550739
408.55250,5.488771189
408.55300,7.014743228
408.55350,3.657604743
408.55400,-0.6151169646
408.55450,-3.361866634
408.55500,-4.277449857
408.55550,-5.19303308
408.55600,-6.108616303
408.55650,-5.803421896
408.55700,-4.887838672
408.55750,-3.972255449
408.55800,-4.582644265
408.55850,-6.108616303
408.55900,-8.244977157
408.55950,-10.38133801
408.56000,-10.99172683
408.56050,-8.855365973
408.56100,-5.498227488
408.56150,-3.972255449
408.56200,-6.108616303
408.56250,-8.855365973
408.56300,-7.634588342
408.56350,-3.361866634
408.56400,-0.004728149245
408.56450,2.131632705
408.56500,5.488771189
408.56550,9.761492897
408.56600,9.45629849
408.56650,2.131632705
408.56700,-6.413810711
408.56750,-10.0761436
408.56800,-7.939782749
408.56850,-5.498227488
408.56900,-6.108616303
408.56950,-7.939782749
408.57000,-7.329393934
408.57050,-3.667061042
408.57100,1.826438297
408.57150,6.404354412
408.57200,8.235520859
408.57250,8.845909674
408.57300,10.67707612
408.57350,14.33940901
408.57400,16.17057546
408.57450,13.42382579
408.57500,8.235520859
408.57550,4.573187966
408.57600,3.962799151
408.57650,2.74202152
408.57700,0.6056606662
408.57750,0.6056606662
408.57800,4.573187966
408.57850,9.151104082
408.57900,9.151104082
408.57950,3.047215928
408.58000,-4.277449857
408.58050,-7.634588342
408.58100,-4.277449857
408.58150,2.436827112
408.58200,7.625132043
408.58250,8.235520859
408.58300,6.404354412
408.58350,5.488771189
408.58400,5.183576782
408.58450,3.047215928
408.58500,-0.004728149245
408.58550,-1.530700188
408.58600,-0.3099225569
408.58650,0.3004662585
408.58700,-0.9203113723
408.58750,-2.446283411
408.58800,-1.530700188
408.58850,0.6056606662
408.58900,2.131632705
408.58950,2.131632705
408.59000,0.9108550739
408.59050,-1.22550578
408.59100,-4.887838672
408.59150,-7.939782749
408.59200,-8.244977157
408.59250,-5.19303308
408.59300,-1.530700188
408.59350,0.3004662585
408.59400,1.216049482
408.59450,1.826438297
408.59500,2.436827112
408.59550,3.047215928
408.59600,5.183576782
408.59650,10.0666873
408.59700,14.64460342
408.59750,15.25499224
408.59800,8.845909674
408.59850,-1.22550578
408.59900,-9.770949196
408.59950,-11.29692123
408.60000,-6.413810711
408.60050,-0.004728149245
408.60100,2.436827112
408.60150,1.521243889
408.60200,0.6056606662
408.60250,1.521243889
408.60300,2.436827112
408.60350,0.6056606662
408.60400,-3.667061042
408.60450,-7.329393934
408.60500,-7.634588342
408.60550,-4.277449857
408.60600,0.3004662585
408.60650,4.878382374
408.60700,7.319937636
408.60750,6.404354412
408.60800,2.74202152
408.60850,-0.9203113723
408.60900,-2.141089003
408.60950,1.216049482
408.61000,7.014743228
408.61050,11.28746494
408.61100,11.89785375
408.61150,10.37188171
408.61200,9.45629849
408.61250,8.845909674
408.61300,6.404354412
408.61350,2.436827112
408.61400,-0.9203113723
408.61450,-1.835894595
408.61500,-1.530700188
408.61550,-1.530700188
408.61600,-1.835894595
408.61650,-1.530700188
408.61700,-0.6151169646
408.61750,-0.3099225569
408.61800,-1.22550578
408.61850,-2.141089003
408.61900,-2.446283411
408.61950,-2.751477819
408.62000,-3.361866634
408.62050,-4.277449857
408.62100,-3.972255449
408.62150,-3.361866634
408.62200,-3.361866634
408.62250,-4.887838672
408.62300,-5.498227488
408.62350,-3.667061042
408.62400,-0.3099225569
408.62450,1.826438297
408.62500,1.521243889
408.62550,-0.004728149245
408.62600,-0.9203113723
408.62650,-0.3099225569
408.62700,0.9108550739
408.62750,1.216049482
408.62800,0.3004662585
408.62850,-1.835894595
408.62900,-3.667061042
408.62950,-4.582644265
408.63000,-5.19303308
408.63050,-7.024199526
408.63100,-10.38133801
408.63150,-12.51769887
408.63200,-10.99172683
408.63250,-5.803421896
408.63300,0.3004662585
408.63350,4.878382374
408.63400,5.793965597
408.63450,3.962799151
408.63500,1.216049482
408.63550,-0.3099225569
408.63600,-0.9203113723
408.63650,-1.22550578
408.63700,-0.6151169646
408.63750,0.6056606662
408.63800,2.74202152
408.63850,3.962799151
408.63900,3.657604743
408.63950,2.131632705
408.64000,0.9108550739
408.64050,-0.004728149245
408.64100,-1.22550578
408.64150,-2.141089003
408.64200,-0.6151169646
408.64250,2.131632705
408.64300,4.267993559
408.64350,4.267993559
408.64400,3.047215928
408.64450,2.131632705
408.64500,1.216049482
408.64550,-0.6151169646
408.64600,-2.141089003
408.64650,-2.446283411
408.64700,-1.22550578
408.64750,-0.004728149245
408.64800,0.3004662585
408.64850,0.9108550739
408.64900,1.826438297
408.64950,2.436827112
408.65000,2.131632705
408.65050,1.216049482
408.65100,-0.004728149245
408.65150,-0.9203113723
408.65200,-0.6151169646
408.65250,0.6056606662
408.65300,2.131632705
408.65350,2.74202152
408.65400,2.131632705
408.65450,1.521243889
408.65500,1.521243889
408.65550,2.131632705
408.65600,2.436827112
408.65650,2.131632705
408.65700,-0.004728149245
408.65750,-2.446283411
408.65800,-3.667061042
408.65850,-1.835894595
408.65900,0.9108550739
408.65950,2.436827112
408.66000,1.826438297
408.66050,0.9108550739
408.66100,2.131632705
408.66150,3.047215928
408.66200,1.216049482
408.66250,-3.361866634
408.66300,-6.719005119
408.66350,-6.108616303
408.66400,-3.667061042
408.66450,-3.361866634
408.66500,-5.19303308
408.66550,-5.803421896
408.66600,-4.277449857
408.66650,-2.446283411
408.66700,-2.141089003
408.66750,-2.446283411
408.66800,-2.446283411
408.66850,-1.530700188
408.66900,0.3004662585
408.66950,3.352410335
408.67000,5.793965597
408.67050,5.793965597
408.67100,3.962799151
408.67150,1.521243889
408.67200,-0.3099225569
408.67250,-2.446283411
408.67300,-4.887838672
408.67350,-6.108616303
408.67400,-5.498227488
408.67450,-3.361866634
408.67500,-0.6151169646
408.67550,1.826438297
408.67600,2.436827112
408.67650,0.9108550739
408.67700,-0.004728149245
408.67750,-0.3099225569
408.67800,-0.9203113723
408.67850,-2.751477819
408.67900,-3.972255449
408.67950,-1.835894595
408.68000,1.826438297
408.68050,2.74202152
408.68100,0.3004662585
408.68150,-1.22550578
408.68200,-0.004728149245
408.68250,2.131632705
408.68300,5.488771189
408.68350,10.0666873
408.68400,13.11863138
408.68450,7.319937636
408.68500,-5.498227488
408.68550,-16.79042057
408.68600,-19.23197583
408.68650,-16.18003176
408.68700,-14.34886531
408.68750,-13.12808768
408.68800,-9.16056038
408.68850,-3.972255449
408.68900,-1.835894595
408.68950,-2.446283411
408.69000,-0.9203113723
408.69050,3.047215928
408.69100,8.235520859
408.69150,13.11863138
408.69200,17.39135309
408.69250,19.22251954
408.69300,16.17057546
408.69350,11.59265934
408.69400,9.45629849
408.69450,9.151104082
408.69500,7.625132043
408.69550,4.267993559
408.69600,2.131632705
408.69650,0.9108550739
408.69700,-2.446283411
408.69750,-6.413810711
408.69800,-6.719005119
408.69850,-3.361866634
408.69900,-1.530700188
408.69950,-3.972255449
408.70000,-6.719005119
408.70050,-6.108616303
408.70100,-3.667061042
408.70150,-2.751477819
408.70200,-2.141089003
408.70250,-0.004728149245
408.70300,2.436827112
408.70350,3.962799151
408.70400,4.267993559
408.70450,4.573187966
408.70500,4.878382374
408.70550,4.267993559
408.70600,1.826438297
408.70650,-0.9203113723
408.70700,-3.972255449
408.70750,-5.803421896
408.70800,-5.19303308
408.70850,-2.751477819
408.70900,-0.9203113723
408.70950,-0.9203113723
408.71000,-1.22550578
408.71050,-0.004728149245
408.71100,0.9108550739
408.71150,1.521243889
408.71200,1.826438297
408.71250,2.74202152
408.71300,3.352410335
408.71350,3.657604743
408.71400,3.657604743
408.71450,3.962799151
408.71500,2.131632705
408.71550,-2.446283411
408.71600,-7.024199526
408.71650,-7.329393934
408.71700,-4.582644265
408.71750,-2.751477819
408.71800,-3.667061042
408.71850,-4.887838672
408.71900,-3.972255449
408.71950,-1.835894595
408.72000,-0.6151169646
408.72050,-0.004728149245
408.72100,-0.004728149245
408.72150,-0.004728149245
408.72200,-1.835894595
408.72250,-3.667061042
408.72300,-2.446283411
408.72350,0.9108550739
408.72400,4.267993559
408.72450,3.962799151
408.72500,0.6056606662
408.72550,-2.141089003
408.72600,-1.22550578
408.72650,2.74202152
408.72700,7.319937636
408.72750,10.0666873
408.72800,9.151104082
408.72850,6.099160005
408.72900,2.74202152
408.72950,0.6056606662
408.73000,-0.004728149245
408.73050,-0.3099225569
408.73100,-2.446283411
408.73150,-5.19303308
408.73200,-7.024199526
408.73250,-6.719005119
408.73300,-4.887838672
408.73350,-3.667061042
408.73400,-3.056672226
408.73450,-2.751477819
408.73500,-2.446283411
408.73550,-2.751477819
408.73600,-3.667061042
408.73650,-4.277449857
408.73700,-3.667061042
408.73750,-2.141089003
408.73800,-1.530700188
408.73850,-2.446283411
408.73900,-4.277449857
408.73950,-4.887838672
408.74000,-3.667061042
408.74050,-2.751477819
408.74100,-3.056672226
408.74150,-3.361866634
408.74200,-2.141089003
408.74250,-0.3099225569
408.74300,-0.004728149245
408.74350,-0.6151169646
408.74400,-1.22550578
408.74450,-0.9203113723
408.74500,-0.6151169646
408.74550,-0.004728149245
408.74600,0.6056606662
408.74650,2.74202152
408.74700,4.573187966
408.74750,4.573187966
408.74800,2.436827112
408.74850,-0.004728149245
408.74900,-0.3099225569
408.74950,1.216049482
408.75000,3.657604743
408.75050,5.488771189
408.75100,6.099160005
408.75150,6.404354412
408.75200,6.404354412
408.75250,5.793965597
408.75300,5.183576782
408.75350,5.183576782
408.75400,5.488771189
408.75450,5.183576782
408.75500,4.573187966
408.75550,5.488771189
408.75600,7.625132043
408.75650,8.845909674
408.75700,8.540715266
408.75750,7.319937636
408.75800,5.793965597
408.75850,4.573187966
408.75900,3.962799151
408.75950,4.267993559
408.76000,3.657604743
408.76050,1.826438297
408.76100,0.6056606662
408.76150,1.826438297
408.76200,4.267993559
408.76250,4.573187966
408.76300,2.74202152
408.76350,0.6056606662
408.76400,-0.004728149245
408.76450,-1.22550578
408.76500,-2.751477819
408.76550,-3.667061042
408.76600,-4.582644265
408.76650,-6.719005119
408.76700,-9.465754788
408.76750,-10.0761436
408.76800,-8.244977157
408.76850,-5.803421896
408.76900,-6.108616303
408.76950,-7.939782749
408.77000,-8.855365973
408.77050,-7.024199526
408.77100,-3.667061042
408.77150,0.6056606662
408.77200,5.183576782
408.77250,8.235520859
408.77300,7.930326451
408.77350,5.793965597
408.77400,3.047215928
408.77450,1.521243889
408.77500,0.6056606662
408.77550,0.9108550739
408.77600,4.573187966
408.77650,10.0666873
408.77700,12.50824257
408.77750,7.319937636
408.77800,-2.446283411
408.77850,-10.0761436
408.77900,-10.99172683
408.77950,-6.719005119
408.78000,-2.751477819
408.78050,-1.22550578
408.78100,-0.3099225569
408.78150,0.9108550739
408.78200,3.047215928
408.78250,4.573187966
408.78300,4.878382374
408.78350,3.657604743
408.78400,1.216049482
408.78450,-1.22550578
408.78500,-2.446283411
408.78550,-2.446283411
408.78600,-2.141089003
408.78650,-3.667061042
408.78700,-7.634588342
408.78750,-12.21250446
408.78800,-13.43328209
408.78850,-9.770949196
408.78900,-4.887838672
408.78950,-2.446283411
408.79000,-3.056672226
408.79050,-3.667061042
408.79100,-2.751477819
408.79150,-1.530700188
408.79200,-1.530700188
408.79250,-3.361866634
408.79300,-5.19303308
408.79350,-6.413810711
408.79400,-5.803421896
408.79450,-3.667061042
408.79500,-1.835894595
408.79550,-1.530700188
408.79600,-1.530700188
408.79650,-0.9203113723
408.79700,-0.004728149245
408.79750,0.3004662585
408.79800,0.6056606662
408.79850,2.436827112
408.79900,4.267993559
408.79950,1.521243889
408.80000,-5.803421896
408.80050,-12.21250446
408.80100,-11.60211564
408.80150,-6.108616303
408.80200,-1.530700188
408.80250,-0.004728149245
408.80300,1.216049482
408.80350,3.047215928
408.80400,4.267993559
408.80450,3.047215928
408.80500,-0.004728149245
408.80550,-3.056672226
408.80600,-3.972255449
408.80650,-1.22550578
408.80700,4.267993559
408.80750,8.845909674
408.80800,8.540715266
408.80850,5.183576782
408.80900,2.74202152
408.80950,3.657604743
408.81000,5.488771189
408.81050,5.793965597
408.81100,4.267993559
408.81150,3.657604743
408.81200,4.573187966
408.81250,6.404354412
408.81300,7.625132043
408.81350,6.70954882
408.81400,3.657604743
408.81450,0.6056606662
408.81500,0.3004662585
408.81550,1.826438297
408.81600,2.436827112
408.81650,1.521243889
408.81700,0.3004662585
408.81750,0.3004662585
408.81800,-0.6151169646
408.81850,-3.056672226
408.81900,-4.277449857
408.81950,-1.530700188
408.82000,2.131632705
408.82050,2.436827112
408.82100,-0.9203113723
408.82150,-4.277449857
408.82200,-4.277449857
408.82250,-3.056672226
408.82300,-3.361866634
408.82350,-4.277449857
408.82400,-4.277449857
408.82450,-4.277449857
408.82500,-6.413810711
408.82550,-8.550171565
408.82600,-7.939782749
408.82650,-5.498227488
408.82700,-3.972255449
408.82750,-3.361866634
408.82800,-0.6151169646
408.82850,5.183576782
408.82900,10.67707612
408.82950,11.89785375
408.83000,10.0666873
408.83050,9.151104082
408.83100,8.540715266
408.83150,6.099160005
408.83200,1.521243889
408.83250,-0.004728149245
408.83300,2.74202152
408.83350,7.014743228
408.83400,7.319937636
408.83450,3.962799151
408.83500,0.9108550739
408.83550,1.216049482
408.83600,1.826438297
408.83650,-0.004728149245
408.83700,-4.887838672
408.83750,-9.16056038
408.83800,-10.38133801
408.83850,-7.329393934
408.83900,-1.530700188
408.83950,3.962799151
408.84000,7.625132043
408.84050,8.235520859
408.84100,7.014743228
408.84150,5.183576782
408.84200,3.352410335
408.84250,1.216049482
408.84300,-0.6151169646
408.84350,-2.446283411
408.84400,-3.056672226
408.84450,-2.446283411
408.84500,-0.3099225569
408.84550,0.9108550739
408.84600,-0.3099225569
408.84650,-4.277449857
408.84700,-6.719005119
408.84750,-4.582644265
408.84800,0.6056606662
408.84850,4.573187966
408.84900,5.793965597
408.84950,4.573187966
408.85000,3.657604743
408.85050,3.047215928
408.85100,2.436827112
408.85150,2.131632705
408.85200,2.436827112
408.85250,2.436827112
408.85300,1.521243889
408.85350,0.9108550739
408.85400,1.216049482
408.85450,1.826438297
408.85500,0.9108550739
408.85550,-0.9203113723
408.85600,-1.530700188
408.85650,-0.9203113723
408.85700,-0.6151169646
408.85750,-2.446283411
408.85800,-4.277449857
408.85850,-3.056672226
408.85900,-0.004728149245
408.85950,0.3004662585
408.86000,-1.835894595
408.86050,-4.582644265
408.86100,-4.277449857
408.86150,-2.751477819
408.86200,-2.751477819
408.86250,-3.972255449
408.86300,-4.277449857
408.86350,-2.141089003
408.86400,0.3004662585
408.86450,0.6056606662
408.86500,-0.004728149245
408.86550,-0.3099225569
408.86600,-0.004728149245
408.86650,-0.9203113723
408.86700,-3.361866634
408.86750,-3.972255449
408.86800,-1.530700188
408.86850,0.9108550739
408.86900,-0.004728149245
408.86950,-3.056672226
408.87000,-4.277449857
408.87050,-0.6151169646
408.87100,3.657604743
408.87150,4.573187966
408.87200,2.436827112
408.87250,0.6056606662
408.87300,0.3004662585
408.87350,-0.004728149245
408.87400,-0.9203113723
408.87450,-0.9203113723
408.87500,-0.3099225569
408.87550,-1.22550578
408.87600,-3.667061042
408.87650,-4.582644265
408.87700,-1.530700188
408.87750,2.436827112
408.87800,4.573187966
408.87850,4.573187966
408.87900,4.267993559
408.87950,2.74202152
408.88000,-0.9203113723
408.88050,-2.751477819
408.88100,0.6056606662
408.88150,5.793965597
408.88200,3.047215928
408.88250,-7.939782749
408.88300,-17.40080939
408.88350,-16.79042057
408.88400,-9.465754788
408.88450,-3.361866634
408.88500,-1.835894595
408.88550,-1.530700188
408.88600,-0.6151169646
408.88650,-0.004728149245
408.88700,-1.22550578
408.88750,-2.751477819
408.88800,-3.056672226
408.88850,-0.6151169646
408.88900,2.436827112
408.88950,4.267993559
408.89000,2.436827112
408.89050,-0.3099225569
408.89100,-2.141089003
408.89150,-1.530700188
408.89200,-1.22550578
408.89250,-2.141089003
408.89300,-2.141089003
408.89350,-0.9203113723
408.89400,0.9108550739
408.89450,3.047215928
408.89500,6.099160005
408.89550,8.845909674
408.89600,8.540715266
408.89650,3.962799151
408.89700,-0.6151169646
408.89750,-2.751477819
408.89800,-3.361866634
408.89850,-3.361866634
408.89900,-2.446283411
408.89950,0.6056606662
408.90000,3.657604743
408.90050,3.352410335
408.90100,0.9108550739
408.90150,-0.3099225569
408.90200,-0.9203113723
408.90250,-0.9203113723
408.90300,-1.22550578
408.90350,-2.751477819
408.90400,-6.413810711
408.90450,-10.68653242
408.90500,-10.99172683
408.90550,-4.582644265
408.90600,3.352410335
408.90650,8.845909674
408.90700,11.28746494
408.90750,12.20304816
408.90800,10.67707612
408.90850,5.793965597
408.90900,1.216049482
408.90950,2.131632705
408.91000,7.625132043
408.91050,11.28746494
408.91100,10.98227053
408.91150,10.0666873
408.91200,11.28746494
408.91250,12.81343697
408.91300,12.50824257
408.91350,12.20304816
408.91400,12.81343697
408.91450,13.42382579
408.91500,12.20304816
408.91550,10.0666873
408.91600,7.930326451
408.91650,6.099160005
408.91700,4.573187966
408.91750,4.573187966
408.91800,5.488771189
408.91850,3.657604743
408.91900,-2.141089003
408.91950,-10.38133801
408.92000,-15.26444853
408.92050,-14.0436709
408.92100,-8.550171565
408.92150,-4.277449857
408.92200,-3.972255449
408.92250,-7.329393934
408.92300,-10.0761436
408.92350,-8.855365973
408.92400,-3.972255449
408.92450,1.216049482
408.92500,4.267993559
408.92550,3.962799151
408.92600,1.826438297
408.92650,-0.004728149245
408.92700,-1.22550578
408.92750,-2.141089003
408.92800,-2.751477819
408.92850,-2.446283411
408.92900,-0.9203113723
408.92950,1.216049482
408.93000,3.352410335
408.93050,4.267993559
408.93100,3.657604743
408.93150,2.436827112
408.93200,0.9108550739
408.93250,-0.004728149245
408.93300,-0.6151169646
408.93350,-0.9203113723
408.93400,-0.9203113723
408.93450,-0.6151169646
408.93500,-0.9203113723
408.93550,-1.530700188
408.93600,-2.446283411
408.93650,-2.446283411
408.93700,-1.530700188
408.93750,-0.004728149245
408.93800,-0.004728149245
408.93850,-2.141089003
408.93900,-5.498227488
408.93950,-7.634588342
408.94000,-7.634588342
408.94050,-6.719005119
408.94100,-5.803421896
408.94150,-5.19303308
408.94200,-4.887838672
408.94250,-4.277449857
408.94300,-3.667061042
408.94350,-3.056672226
408.94400,-3.056672226
408.94450,-4.277449857
408.94500,-5.803421896
408.94550,-5.498227488
408.94600,-3.056672226
408.94650,-1.22550578
408.94700,-1.22550578
408.94750,-3.056672226
408.94800,-3.361866634
408.94850,-1.530700188
408.94900,1.826438297
408.94950,3.657604743
408.95000,2.131632705
408.95050,-0.9203113723
408.95100,-3.667061042
408.95150,-2.751477819
408.95200,0.6056606662
408.95250,3.962799151
408.95300,5.183576782
408.95350,4.573187966
408.95400,3.047215928
408.95450,0.9108550739
408.95500,-0.6151169646
408.95550,-2.141089003
408.95600,-2.751477819
408.95650,-3.361866634
408.95700,-3.361866634
408.95750,-1.835894595
408.95800,0.6056606662
408.95850,2.131632705
408.95900,1.521243889
408.95950,-0.004728149245
408.96000,-0.9203113723
408.96050,-2.446283411
408.96100,-3.972255449
408.96150,-3.667061042
408.96200,-0.6151169646
408.96250,1.216049482
408.96300,-0.004728149245
408.96350,-1.835894595
408.96400,-0.9203113723
408.96450,-0.004728149245
408.96500,-2.141089003
408.96550,-6.108616303
408.96600,-6.719005119
408.96650,-4.277449857
408.96700,-3.361866634
408.96750,-5.19303308
408.96800,-5.803421896
408.96850,-4.277449857
408.96900,-3.361866634
408.96950,-3.361866634
408.97000,-0.3099225569
408.97050,3.962799151
408.97100,3.047215928
408.97150,-6.108616303
408.97200,-15.26444853
408.97250,-14.95925413
408.97300,-6.108616303
408.97350,1.216049482
408.97400,3.657604743
408.97450,2.74202152
408.97500,2.436827112
408.97550,2.436827112
408.97600,1.521243889
408.97650,0.3004662585
408.97700,-0.004728149245
408.97750,-0.004728149245
408.97800,-0.3099225569
408.97850,-0.6151169646
408.97900,-0.004728149245
408.97950,1.826438297
408.98000,2.131632705
408.98050,0.6056606662
408.98100,0.3004662585
408.98150,3.352410335
408.98200,8.235520859
408.98250,10.0666873
408.98300,7.930326451
408.98350,4.878382374
408.98400,4.267993559
408.98450,4.878382374
408.98500,4.267993559
408.98550,3.352410335
408.98600,3.047215928
408.98650,3.657604743
408.98700,3.352410335
408.98750,2.436827112
408.98800,0.9108550739
408.98850,-0.3099225569
408.98900,-1.835894595
408.98950,-2.141089003
408.99000,-1.835894595
408.99050,-1.835894595
408.99100,-2.141089003
408.99150,-0.6151169646
408.99200,2.74202152
408.99250,6.404354412
408.99300,6.404354412
408.99350,4.878382374
408.99400,4.267993559
408.99450,4.573187966
408.99500,3.657604743
408.99550,0.9108550739
408.99600,-0.9203113723
408.99650,-1.835894595
408.99700,-2.141089003
408.99750,-2.141089003
408.99800,-0.6151169646
408.99850,0.9108550739
408.99900,1.826438297
408.99950,2.131632705
409.00000,2.131632705
409.00050,1.826438297
409.00100,-0.3099225569
409.00150,-3.361866634
409.00200,-4.582644265
409.00250,-2.141089003
409.00300,0.9108550739
409.00350,2.74202152
409.00400,2.436827112
409.00450,0.9108550739
409.00500,-0.004728149245
409.00550,-0.9203113723
409.00600,-0.6151169646
409.00650,-0.3099225569
409.00700,-0.004728149245
409.00750,-0.6151169646
409.00800,-1.530700188
409.00850,-2.141089003
409.00900,-1.835894595
409.00950,-0.004728149245
409.01000,3.047215928
409.01050,4.878382374
409.01100,4.267993559
409.01150,2.74202152
409.01200,2.131632705
409.01250,2.436827112
409.01300,2.131632705
409.01350,0.9108550739
409.01400,-0.004728149245
409.01450,-0.3099225569
409.01500,-0.004728149245
409.01550,-0.004728149245
409.01600,-0.004728149245
409.01650,-1.22550578
409.01700,-5.498227488
409.01750,-10.68653242
409.01800,-13.12808768
409.01850,-11.60211564
409.01900,-8.244977157
409.01950,-5.803421896
409.02000,-5.19303308
409.02050,-4.887838672
409.02100,-2.751477819
409.02150,0.6056606662
409.02200,3.962799151
409.02250,5.793965597
409.02300,6.404354412
409.02350,6.404354412
409.02400,6.404354412
409.02450,6.404354412
409.02500,6.099160005
409.02550,4.573187966
409.02600,1.826438297
409.02650,0.3004662585
409.02700,2.131632705
409.02750,5.488771189
409.02800,7.625132043
409.02850,7.014743228
409.02900,7.014743228
409.02950,10.37188171
409.03000,15.56018664
409.03050,17.6965475
409.03100,14.94979783
409.03150,9.45629849
409.03200,4.267993559
409.03250,0.9108550739
409.03300,-1.835894595
409.03350,-4.887838672
409.03400,-5.803421896
409.03450,-3.667061042
409.03500,-0.004728149245
409.03550,2.74202152
409.03600,3.047215928
409.03650,3.047215928
409.03700,3.047215928
409.03750,0.3004662585
409.03800,-6.719005119
409.03850,-15.56964294
409.03900,-20.75794787
409.03950,-20.45275347
409.04000,-17.7060038
409.04050,-15.56964294
409.04100,-13.43328209
409.04150,-9.770949196
409.04200,-5.803421896
409.04250,-2.446283411
409.04300,-0.3099225569
409.04350,0.6056606662
409.04400,0.9108550739
409.04450,1.826438297
409.04500,4.267993559
409.04550,6.404354412
409.04600,6.099160005
409.04650,3.657604743
409.04700,2.74202152
409.04750,3.962799151
409.04800,4.878382374
409.04850,3.352410335
409.04900,-0.004728149245
409.04950,-2.446283411
409.05000,-2.751477819
409.05050,0.3004662585
409.05100,4.878382374
409.05150,7.014743228
409.05200,5.183576782
409.05250,2.74202152
409.05300,2.131632705
409.05350,3.047215928
409.05400,3.047215928
409.05450,2.436827112
409.05500,3.352410335
409.05550,3.047215928
409.05600,-3.056672226
409.05650,-13.43328209
409.05700,-19.84236465
409.05750,-18.0111982
409.05800,-12.21250446
409.05850,-8.244977157
409.05900,-7.024199526
409.05950,-6.108616303
409.06000,-6.108616303
409.06050,-6.108616303
409.06100,-4.582644265
409.06150,-1.835894595
409.06200,-0.004728149245
409.06250,-1.22550578
409.06300,-1.530700188
409.06350,2.436827112
409.06400,9.151104082
409.06450,12.50824257
409.06500,11.59265934
409.06550,9.151104082
409.06600,7.625132043
409.06650,7.014743228
409.06700,5.183576782
409.06750,2.74202152
409.06800,1.216049482
409.06850,0.6056606662
409.06900,0.9108550739
409.06950,1.521243889
409.07000,1.826438297
409.07050,1.216049482
409.07100,1.216049482
409.07150,1.521243889
409.07200,1.216049482
409.07250,-0.6151169646
409.07300,-2.751477819
409.07350,-3.361866634
409.07400,-1.530700188
409.07450,0.3004662585
409.07500,1.521243889
409.07550,2.436827112
409.07600,3.047215928
409.07650,2.436827112
409.07700,0.9108550739
409.07750,0.9108550739
409.07800,1.521243889
409.07850,2.436827112
409.07900,2.436827112
409.07950,2.74202152
409.08000,2.74202152
409.08050,0.9108550739
409.08100,-1.835894595
409.08150,-2.446283411
409.08200,-0.004728149245
409.08250,3.962799151
409.08300,6.099160005
409.08350,5.488771189
409.08400,4.267993559
409.08450,2.74202152
409.08500,0.6056606662
409.08550,-0.9203113723
409.08600,-2.446283411
409.08650,-2.751477819
409.08700,-3.361866634
409.08750,-4.887838672
409.08800,-7.634588342
409.08850,-10.38133801
409.08900,-11.60211564
409.08950,-10.68653242
409.09000,-9.465754788
409.09050,-8.550171565
409.09100,-6.719005119
409.09150,-3.361866634
409.09200,-1.835894595
409.09250,-2.141089003
409.09300,-1.530700188
409.09350,3.352410335
409.09400,8.845909674
409.09450,9.45629849
409.09500,5.793965597
409.09550,4.878382374
409.09600,8.235520859
409.09650,9.45629849
409.09700,4.573187966
409.09750,-1.22550578
409.09800,-2.446283411
409.09850,0.9108550739
409.09900,3.352410335
409.09950,3.047215928
409.10000,1.216049482
409.10050,0.3004662585
409.10100,0.3004662585
409.10150,0.6056606662
409.10200,0.9108550739
409.10250,-0.004728149245
409.10300,-0.6151169646
409.10350,-0.3099225569
409.10400,-0.004728149245
409.10450,-1.22550578
409.10500,-5.19303308
409.10550,-8.550171565
409.10600,-7.634588342
409.10650,-4.582644265
409.10700,-2.141089003
409.10750,-1.530700188
409.10800,-1.530700188
409.10850,-0.9203113723
409.10900,-0.6151169646
409.10950,-1.530700188
409.11000,-3.361866634
409.11050,-4.582644265
409.11100,-4.582644265
409.11150,-4.277449857
409.11200,-3.667061042
409.11250,-3.972255449
409.11300,-4.582644265
409.11350,-4.582644265
409.11400,-3.972255449
409.11450,-3.056672226
409.11500,-1.22550578
409.11550,1.826438297
409.11600,5.488771189
409.11650,7.319937636
409.11700,6.404354412
409.11750,4.267993559
409.11800,2.74202152
409.11850,2.131632705
409.11900,2.436827112
409.11950,2.436827112
409.12000,1.521243889
409.12050,0.6056606662
409.12100,0.3004662585
409.12150,0.6056606662
409.12200,-0.004728149245
409.12250,-1.835894595
409.12300,-3.667061042
409.12350,-3.667061042
409.12400,-3.056672226
409.12450,-3.361866634
409.12500,-4.887838672
409.12550,-6.413810711
409.12600,-5.19303308
409.12650,-0.6151169646
409.12700,4.878382374
409.12750,7.625132043
409.12800,6.099160005
409.12850,2.436827112
409.12900,0.9108550739
409.12950,2.436827112
409.13000,3.962799151
409.13050,3.352410335
409.13100,1.826438297
409.13150,1.826438297
409.13200,2.74202152
409.13250,3.657604743
409.13300,4.267993559
409.13350,6.099160005
409.13400,8.235520859
409.13450,8.235520859
409.13500,5.183576782
409.13550,1.826438297
409.13600,1.826438297
409.13650,4.878382374
409.13700,8.235520859
409.13750,9.761492897
409.13800,9.45629849
409.13850,8.845909674
409.13900,7.319937636
409.13950,4.878382374
409.14000,3.047215928
409.14050,2.131632705
409.14100,1.826438297
409.14150,1.826438297
409.14200,3.047215928
409.14250,4.573187966
409.14300,2.436827112
409.14350,-5.803421896
409.14400,-16.48522617
409.14450,-23.19950313
409.14500,-22.89430873
409.14550,-18.31639261
409.14600,-12.82289327
409.14650,-6.719005119
409.14700,-1.835894595
409.14750,-0.004728149245
409.14800,-1.22550578
409.14850,-3.056672226
409.14900,-3.361866634
409.14950,-2.751477819
409.15000,-2.751477819
409.15050,-2.446283411
409.15100,-0.004728149245
409.15150,3.657604743
409.15200,6.70954882
409.15250,6.404354412
409.15300,1.826438297
409.15350,-4.887838672
409.15400,-9.16056038
409.15450,-7.024199526
409.15500,-0.004728149245
409.15550,5.793965597
409.15600,5.793965597
409.15650,1.521243889
409.15700,-2.751477819
409.15750,-4.582644265
409.15800,-4.582644265
409.15850,-3.667061042
409.15900,-2.446283411
409.15950,-1.835894595
409.16000,-2.446283411
409.16050,-3.056672226
409.16100,-3.361866634
409.16150,-3.056672226
409.16200,-1.835894595
409.16250,2.131632705
409.16300,8.235520859
409.16350,13.11863138
409.16400,13.11863138
409.16450,8.845909674
409.16500,4.878382374
409.16550,3.962799151
409.16600,4.878382374
409.16650,5.183576782
409.16700,4.573187966
409.16750,3.657604743
409.16800,2.74202152
409.16850,1.521243889
409.16900,1.826438297
409.16950,3.352410335
409.17000,4.878382374
409.17050,4.878382374
409.17100,3.657604743
409.17150,2.436827112
409.17200,1.216049482
409.17250,-0.3099225569
409.17300,-2.141089003
409.17350,-2.446283411
409.17400,-1.835894595
409.17450,-1.835894595
409.17500,-2.141089003
409.17550,-1.530700188
409.17600,0.6056606662
409.17650,3.352410335
409.17700,3.962799151
409.17750,2.74202152
409.17800,0.9108550739
409.17850,-0.9203113723
409.17900,-3.972255449
409.17950,-6.108616303
409.18000,-6.413810711
409.18050,-4.582644265
409.18100,-2.446283411
409.18150,-0.9203113723
409.18200,-0.004728149245
409.18250,1.216049482
409.18300,2.131632705
409.18350,2.74202152
409.18400,3.657604743
409.18450,4.267993559
409.18500,4.878382374
409.18550,4.878382374
409.18600,5.183576782
409.18650,5.488771189
409.18700,3.962799151
409.18750,0.9108550739
409.18800,-0.6151169646
409.18850,0.6056606662
409.18900,3.352410335
409.18950,3.962799151
409.19000,2.131632705
409.19050,0.9108550739
409.19100,1.521243889
409.19150,2.436827112
409.19200,1.826438297
409.19250,1.216049482
409.19300,2.131632705
409.19350,3.352410335
409.19400,2.74202152
409.19450,-0.004728149245
409.19500,-3.667061042
409.19550,-7.329393934
409.19600,-10.0761436
409.19650,-10.0761436
409.19700,-5.19303308
409.19750,2.131632705
409.19800,7.014743228
409.19850,6.404354412
409.19900,3.962799151
409.19950,2.74202152
409.20000,2.74202152
409.20050,0.9108550739
409.20100,-1.530700188
409.20150,-3.056672226
409.20200,-3.056672226
409.20250,-3.972255449
409.20300,-5.19303308
409.20350,-3.972255449
409.20400,-1.530700188
409.20450,-0.6151169646
409.20500,-3.361866634
409.20550,-5.803421896
409.20600,-5.498227488
409.20650,-4.277449857
409.20700,-3.667061042
409.20750,-3.667061042
409.20800,-2.751477819
409.20850,-2.446283411
409.20900,-3.361866634
409.20950,-5.19303308
409.21000,-7.024199526
409.21050,-8.855365973
409.21100,-10.38133801
409.21150,-9.770949196
409.21200,-6.108616303
409.21250,-1.530700188
409.21300,1.826438297
409.21350,3.047215928
409.21400,2.436827112
409.21450,0.3004662585
409.21500,-1.835894595
409.21550,-2.141089003
409.21600,0.3004662585
409.21650,3.657604743
409.21700,5.793965597
409.21750,7.014743228
409.21800,8.845909674
409.21850,9.45629849
409.21900,6.404354412
409.21950,1.216049482
409.22000,-1.22550578
409.22050,-0.004728149245
409.22100,0.3004662585
409.22150,-1.835894595
409.22200,-5.19303308
409.22250,-5.498227488
409.22300,-2.751477819
409.22350,-0.9203113723
409.22400,-0.3099225569
409.22450,-0.004728149245
409.22500,-0.004728149245
409.22550,-0.004728149245
409.22600,-0.6151169646
409.22650,-0.9203113723
409.22700,-1.530700188
409.22750,-3.361866634
409.22800,-4.582644265
409.22850,-2.141089003
409.22900,0.9108550739
409.22950,1.521243889
409.23000,-0.3099225569
409.23050,-0.9203113723
409.23100,0.3004662585
409.23150,0.9108550739
409.23200,-0.3099225569
409.23250,-1.835894595
409.23300,-1.835894595
409.23350,-3.361866634
409.23400,-7.024199526
409.23450,-9.465754788
409.23500,-7.329393934
409.23550,-3.056672226
409.23600,-1.835894595
409.23650,-4.582644265
409.23700,-7.634588342
409.23750,-7.939782749
409.23800,-4.277449857
409.23850,0.3004662585
409.23900,3.962799151
409.23950,6.099160005
409.24000,9.151104082
409.24050,13.11863138
409.24100,12.50824257
409.24150,3.047215928
409.24200,-10.68653242
409.24250,-18.92678143
409.24300,-16.48522617
409.24350,-8.855365973
409.24400,-3.361866634
409.24450,-1.530700188
409.24500,-1.835894595
409.24550,-1.835894595
409.24600,-0.6151169646
409.24650,2.436827112
409.24700,6.099160005
409.24750,7.014743228
409.24800,3.657604743
409.24850,-0.004728149245
409.24900,-1.835894595
409.24950,-1.530700188
409.25000,-1.22550578
409.25050,-1.22550578
409.25100,-1.22550578
409.25150,-1.530700188
409.25200,-2.141089003
409.25250,-1.22550578
409.25300,1.826438297
409.25350,6.099160005
409.25400,8.235520859
409.25450,7.930326451
409.25500,5.488771189
409.25550,3.352410335
409.25600,2.74202152
409.25650,3.962799151
409.25700,5.793965597
409.25750,6.099160005
409.25800,4.878382374
409.25850,3.962799151
409.25900,3.657604743
409.25950,3.657604743
409.26000,3.962799151
409.26050,6.099160005
409.26100,8.540715266
409.26150,7.319937636
409.26200,1.216049482
409.26250,-5.19303308
409.26300,-7.634588342
409.26350,-6.108616303
409.26400,-3.667061042
409.26450,-3.056672226
409.26500,-3.667061042
409.26550,-6.413810711
409.26600,-9.465754788
409.26650,-10.68653242
409.26700,-8.550171565
409.26750,-4.582644265
409.26800,-3.361866634
409.26850,-4.887838672
409.26900,-5.19303308
409.26950,-3.056672226
409.27000,-0.6151169646
409.27050,-0.6151169646
409.27100,-1.835894595
409.27150,-1.530700188
409.27200,0.6056606662
409.27250,1.521243889
409.27300,-0.3099225569
409.27350,-2.751477819
409.27400,-1.530700188
409.27450,3.047215928
409.27500,9.151104082
409.27550,12.50824257
409.27600,11.28746494
409.27650,7.014743228
409.27700,1.826438297
409.27750,-1.835894595
409.27800,-3.972255449
409.27850,-5.498227488
409.27900,-5.19303308
409.27950,-1.530700188
409.28000,5.488771189
409.28050,12.50824257
409.28100,14.64460342
409.28150,11.28746494
409.28200,7.014743228
409.28250,4.573187966
409.28300,3.962799151
409.28350,3.657604743
409.28400,3.047215928
409.28450,2.74202152
409.28500,1.521243889
409.28550,-0.004728149245
409.28600,-0.004728149245
409.28650,1.521243889
409.28700,1.521243889
409.28750,-0.9203113723
409.28800,-3.972255449
409.28850,-3.972255449
409.28900,-3.056672226
409.28950,-3.972255449
409.29000,-7.329393934
409.29050,-10.0761436
409.29100,-9.770949196
409.29150,-7.329393934
409.29200,-3.972255449
409.29250,-1.22550578
409.29300,-1.530700188
409.29350,-4.277449857
409.29400,-5.803421896
409.29450,-3.667061042
409.29500,-0.004728149245
409.29550,2.131632705
409.29600,1.216049482
409.29650,0.6056606662
409.29700,0.9108550739
409.29750,1.216049482
409.29800,1.216049482
409.29850,0.9108550739
409.29900,0.6056606662
409.29950,0.6056606662
409.30000,1.521243889
409.30050,3.657604743
409.30100,5.183576782
409.30150,5.488771189
409.30200,5.183576782
409.30250,6.099160005
409.30300,5.793965597
409.30350,0.9108550739
409.30400,-5.803421896
409.30450,-8.855365973
409.30500,-4.887838672
409.30550,1.216049482
409.30600,3.657604743
409.30650,1.216049482
409.30700,-1.530700188
409.30750,-2.446283411
409.30800,-1.22550578
409.30850,0.3004662585
409.30900,2.131632705
409.30950,3.962799151
409.31000,4.878382374
409.31050,3.657604743
409.31100,2.74202152
409.31150,3.962799151
409.31200,6.70954882
409.31250,8.235520859
409.31300,7.930326451
409.31350,5.793965597
409.31400,2.436827112
409.31450,-3.056672226
409.31500,-7.024199526
409.31550,-3.667061042
409.31600,5.793965597
409.31650,11.28746494
409.31700,3.657604743
409.31750,-12.21250446
409.31800,-22.89430873
409.31850,-20.14755906
409.31900,-9.16056038
409.31950,0.3004662585
409.32000,3.962799151
409.32050,3.047215928
409.32100,-0.004728149245
409.32150,-3.361866634
409.32200,-3.972255449
409.32250,-1.22550578
409.32300,2.131632705
409.32350,4.573187966
409.32400,6.70954882
409.32450,9.45629849
409.32500,11.59265934
409.32550,10.98227053
409.32600,8.540715266
409.32650,6.70954882
409.32700,5.488771189
409.32750,3.352410335
409.32800,0.9108550739
409.32850,0.9108550739
409.32900,2.131632705
409.32950,0.6056606662
409.33000,-3.361866634
409.33050,-6.108616303
409.33100,-4.582644265
409.33150,-1.22550578
409.33200,-0.9203113723
409.33250,-3.361866634
409.33300,-4.277449857
409.33350,-2.141089003
409.33400,-0.6151169646
409.33450,-3.361866634
409.33500,-7.634588342
409.33550,-7.939782749
409.33600,-2.751477819
409.33650,2.436827112
409.33700,3.962799151
409.33750,1.826438297
409.33800,0.3004662585
409.33850,1.521243889
409.33900,4.573187966
409.33950,6.404354412
409.34000,6.70954882
409.34050,5.793965597
409.34100,4.878382374
409.34150,4.573187966
409.34200,3.657604743
409.34250,1.216049482
409.34300,-1.835894595
409.34350,-3.667061042
409.34400,-2.751477819
409.34450,-1.22550578
409.34500,-0.9203113723
409.34550,-0.3099225569
409.34600,1.521243889
409.34650,4.267993559
409.34700,4.573187966
409.34750,3.352410335
409.34800,3.047215928
409.34850,3.047215928
409.34900,1.826438297
409.34950,-0.3099225569
409.35000,-1.835894595
409.35050,-1.530700188
409.35100,-1.530700188
409.35150,-1.22550578
409.35200,1.216049482
409.35250,5.488771189
409.35300,7.930326451
409.35350,6.099160005
409.35400,3.352410335
409.35450,2.74202152
409.35500,2.74202152
409.35550,1.216049482
409.35600,-0.6151169646
409.35650,-1.835894595
409.35700,-2.446283411
409.35750,-3.972255449
409.35800,-4.277449857
409.35850,-2.751477819
409.35900,-1.530700188
409.35950,-2.446283411
409.36000,-5.498227488
409.36050,-7.024199526
409.36100,-6.413810711
409.36150,-4.277449857
409.36200,-2.446283411
409.36250,-0.6151169646
409.36300,0.3004662585
409.36350,-0.004728149245
409.36400,-0.004728149245
409.36450,-0.004728149245
409.36500,0.9108550739
409.36550,2.436827112
409.36600,3.962799151
409.36650,4.573187966
409.36700,3.962799151
409.36750,1.521243889
409.36800,-0.9203113723
409.36850,-3.361866634
409.36900,-5.803421896
409.36950,-7.634588342
409.37000,-7.024199526
409.37050,-4.887838672
409.37100,-2.141089003
409.37150,-0.9203113723
409.37200,-0.3099225569
409.37250,0.6056606662
409.37300,1.521243889
409.37350,1.826438297
409.37400,1.216049482
409.37450,-0.004728149245
409.37500,-0.9203113723
409.37550,-1.835894595
409.37600,-0.9203113723
409.37650,0.6056606662
409.37700,1.826438297
409.37750,0.9108550739
409.37800,-0.9203113723
409.37850,-2.751477819
409.37900,-3.361866634
409.37950,-2.446283411
409.38000,-0.3099225569
409.38050,1.521243889
409.38100,2.74202152
409.38150,2.131632705
409.38200,1.216049482
409.38250,0.9108550739
409.38300,0.9108550739
409.38350,0.9108550739
409.38400,1.521243889
409.38450,1.521243889
409.38500,-0.004728149245
409.38550,-4.582644265
409.38600,-8.550171565
409.38650,-7.939782749
409.38700,-3.667061042
409.38750,0.3004662585
409.38800,0.6056606662
409.38850,-2.141089003
409.38900,-4.887838672
409.38950,-6.413810711
409.39000,-6.413810711
409.39050,-5.19303308
409.39100,-2.751477819
409.39150,-0.004728149245
409.39200,0.9108550739
409.39250,-0.004728149245
409.39300,-1.22550578
409.39350,-2.141089003
409.39400,-3.361866634
409.39450,-5.19303308
409.39500,-6.413810711
409.39550,-5.19303308
409.39600,-3.056672226
409.39650,-2.751477819
409.39700,-4.277449857
409.39750,-5.803421896
409.39800,-5.498227488
409.39850,-3.361866634
409.39900,-1.530700188
409.39950,-0.9203113723
409.40000,-0.3099225569
409.40050,-0.004728149245
409.40100,0.6056606662
409.40150,0.3004662585
409.40200,-0.6151169646
409.40250,-2.446283411
409.40300,-1.835894595
409.40350,0.3004662585
409.40400,1.826438297
409.40450,0.6056606662
409.40500,-0.9203113723
409.40550,-0.9203113723
409.40600,0.3004662585
409.40650,-0.004728149245
409.40700,-2.751477819
409.40750,-3.361866634
409.40800,-0.9203113723
409.40850,1.216049482
409.40900,0.9108550739
409.40950,-0.004728149245
409.41000,0.9108550739
409.41050,3.047215928
409.41100,3.047215928
409.41150,2.436827112
409.41200,3.657604743
409.41250,6.70954882
409.41300,9.151104082
409.41350,10.37188171
409.41400,12.50824257
409.41450,15.86538105
409.41500,16.78096427
409.41550,15.25499224
409.41600,13.7290202
409.41650,13.11863138
409.41700,9.45629849
409.41750,-0.004728149245
409.41800,-10.99172683
409.41850,-15.26444853
409.41900,-10.68653242
409.41950,-2.751477819
409.42000,1.521243889
409.42050,1.826438297
409.42100,0.6056606662
409.42150,0.3004662585
409.42200,0.3004662585
409.42250,-0.3099225569
409.42300,-2.446283411
409.42350,-4.582644265
409.42400,-5.803421896
409.42450,-4.887838672
409.42500,-3.056672226
409.42550,-1.530700188
409.42600,-0.6151169646
409.42650,0.3004662585
409.42700,1.826438297
409.42750,2.74202152
409.42800,2.436827112
409.42850,0.9108550739
409.42900,-0.9203113723
409.42950,-2.446283411
409.43000,-0.004728149245
409.43050,5.488771189
409.43100,10.0666873
409.43150,9.45629849
409.43200,4.573187966
409.43250,1.216049482
409.43300,-0.004728149245
409.43350,-2.141089003
409.43400,-5.19303308
409.43450,-4.887838672
409.43500,0.3004662585
409.43550,7.014743228
409.43600,10.98227053
409.43650,11.28746494
409.43700,9.151104082
409.43750,6.404354412
409.43800,4.573187966
409.43850,5.793965597
409.43900,8.540715266
409.43950,9.761492897
409.44000,7.930326451
409.44050,5.793965597
409.44100,3.657604743
409.44150,-0.004728149245
409.44200,-6.413810711
409.44250,-10.68653242
409.44300,-9.16056038
409.44350,-4.277449857
409.44400,-1.530700188
409.44450,-2.446283411
409.44500,-4.887838672
409.44550,-5.498227488
409.44600,-4.277449857
409.44650,-3.361866634
409.44700,-5.498227488
409.44750,-11.60211564
409.44800,-17.09561498
409.44850,-16.48522617
409.44900,-10.0761436
409.44950,-4.582644265
409.45000,-4.277449857
409.45050,-6.719005119
409.45100,-7.634588342
409.45150,-6.413810711
409.45200,-5.498227488
409.45250,-5.498227488
409.45300,-4.582644265
409.45350,-2.446283411
409.45400,-0.6151169646
409.45450,-0.004728149245
409.45500,0.3004662585
409.45550,2.436827112
409.45600,3.962799151
409.45650,3.657604743
409.45700,2.131632705
409.45750,1.826438297
409.45800,3.047215928
409.45850,3.047215928
409.45900,0.3004662585
409.45950,-2.446283411
409.46000,-2.751477819
409.46050,-0.3099225569
409.46100,2.74202152
409.46150,4.573187966
409.46200,3.962799151
409.46250,0.6056606662
409.46300,-2.751477819
409.46350,-3.972255449
409.46400,-2.141089003
409.46450,-0.004728149245
409.46500,-0.004728149245
409.46550,0.3004662585
409.46600,2.131632705
409.46650,3.962799151
409.46700,3.962799151
409.46750,3.352410335
409.46800,3.657604743
409.46850,3.962799151
409.46900,3.352410335
409.46950,3.657604743
409.47000,5.183576782
409.47050,5.793965597
409.47100,3.047215928
409.47150,0.3004662585
409.47200,-0.004728149245
409.47250,0.6056606662
409.47300,-0.3099225569
409.47350,-2.751477819
409.47400,-2.141089003
409.47450,0.9108550739
409.47500,2.74202152
409.47550,2.131632705
409.47600,0.6056606662
409.47650,-0.6151169646
409.47700,-2.751477819
409.47750,-4.277449857
409.47800,-2.446283411
409.47850,0.9108550739
409.47900,2.131632705
409.47950,0.3004662585
409.48000,-0.3099225569
409.48050,0.3004662585
409.48100,1.521243889
409.48150,1.216049482
409.48200,0.3004662585
409.48250,0.6056606662
409.48300,2.131632705
409.48350,2.74202152
409.48400,0.9108550739
409.48450,-3.667061042
409.48500,-8.244977157
409.48550,-9.16056038
409.48600,-5.803421896
409.48650,-3.056672226
409.48700,-3.361866634
409.48750,-4.582644265
409.48800,-3.361866634
409.48850,-0.6151169646
409.48900,0.9108550739
409.48950,1.521243889
409.49000,1.826438297
409.49050,1.521243889
409.49100,-0.6151169646
409.49150,-3.667061042
409.49200,-4.582644265
409.49250,-3.972255449
409.49300,-3.056672226
409.49350,-0.9203113723
409.49400,2.131632705
409.49450,3.962799151
409.49500,1.826438297
409.49550,-1.530700188
409.49600,-3.972255449
409.49650,-4.277449857
409.49700,-4.582644265
409.49750,-4.582644265
409.49800,-3.972255449
409.49850,-3.667061042
409.49900,-4.277449857
409.49950,-3.972255449
409.50000,-1.835894595
409.50050,-0.004728149245
409.50100,-0.9203113723
409.50150,-2.751477819
409.50200,-0.9203113723
409.50250,3.352410335
409.50300,5.793965597
409.50350,3.962799151
409.50400,0.6056606662
409.50450,-0.3099225569
409.50500,0.3004662585
409.50550,1.216049482
409.50600,1.216049482
409.50650,-0.004728149245
409.50700,-2.751477819
409.50750,-5.19303308
409.50800,-4.887838672
409.50850,-2.751477819
409.50900,-0.6151169646
409.50950,-0.9203113723
409.51000,-1.530700188
409.51050,-0.6151169646
409.51100,1.521243889
409.51150,2.74202152
409.51200,4.267993559
409.51250,7.319937636
409.51300,10.67707612
409.51350,10.98227053
409.51400,7.625132043
409.51450,4.573187966
409.51500,4.878382374
409.51550,7.014743228
409.51600,7.319937636
409.51650,7.319937636
409.51700,7.930326451
409.51750,7.014743228
409.51800,1.826438297
409.51850,-2.751477819
409.51900,-0.6151169646
409.51950,5.183576782
409.52000,5.183576782
409.52050,-4.887838672
409.52100,-16.18003176
409.52150,-18.0111982
409.52200,-11.90731005
409.52250,-7.024199526
409.52300,-6.108616303
409.52350,-5.498227488
409.52400,-3.361866634
409.52450,-2.751477819
409.52500,-4.277449857
409.52550,-3.361866634
409.52600,2.74202152
409.52650,10.0666873
409.52700,12.81343697
409.52750,11.59265934
409.52800,10.67707612
409.52850,10.67707612
409.52900,8.845909674
409.52950,4.878382374
409.53000,2.131632705
409.53050,3.047215928
409.53100,7.014743228
409.53150,10.37188171
409.53200,10.67707612
409.53250,7.014743228
409.53300,1.216049482
409.53350,-3.361866634
409.53400,-5.498227488
409.53450,-4.277449857
409.53500,-2.141089003
409.53550,-0.9203113723
409.53600,-1.835894595
409.53650,-3.972255449
409.53700,-5.19303308
409.53750,-5.498227488
409.53800,-5.803421896
409.53850,-7.939782749
409.53900,-10.0761436
409.53950,-8.855365973
409.54000,-3.972255449
409.54050,0.6056606662
409.54100,0.9108550739
409.54150,-1.22550578
409.54200,-3.056672226
409.54250,-2.141089003
409.54300,-0.004728149245
409.54350,0.9108550739
409.54400,1.216049482
409.54450,0.3004662585
409.54500,-2.141089003
409.54550,-5.803421896
409.54600,-6.719005119
409.54650,-4.277449857
409.54700,-0.3099225569
409.54750,2.74202152
409.54800,4.573187966
409.54850,5.488771189
409.54900,4.878382374
409.54950,2.436827112
409.55000,-0.004728149245
409.55050,-1.22550578
409.55100,-0.9203113723
409.55150,-0.004728149245
409.55200,3.047215928
409.55250,7.930326451
409.55300,10.98227053
409.55350,8.540715266
409.55400,1.826438297
409.55450,-4.277449857
409.55500,-4.887838672
409.55550,0.6056606662
409.55600,7.930326451
409.55650,11.59265934
409.55700,9.761492897
409.55750,6.099160005
409.55800,4.573187966
409.55850,3.657604743
409.55900,-0.004728149245
409.55950,-4.887838672
409.56000,-6.413810711
409.56050,-2.446283411
409.56100,2.131632705
409.56150,3.962799151
409.56200,3.657604743
409.56250,3.657604743
409.56300,4.573187966
409.56350,4.267993559
409.56400,2.436827112
409.56450,0.6056606662
409.56500,-0.6151169646
409.56550,-1.835894595
409.56600,-2.141089003
409.56650,-0.9203113723
409.56700,-0.004728149245
409.56750,-0.004728149245
409.56800,-1.22550578
409.56850,-0.6151169646
409.56900,1.521243889
409.56950,4.267993559
409.57000,5.488771189
409.57050,4.573187966
409.57100,2.436827112
409.57150,0.3004662585
409.57200,-0.004728149245
409.57250,-0.3099225569
409.57300,-1.530700188
409.57350,-4.277449857
409.57400,-6.108616303
409.57450,-5.19303308
409.57500,-3.667061042
409.57550,-3.972255449
409.57600,-5.19303308
409.57650,-4.277449857
409.57700,-1.530700188
409.57750,-0.3099225569
409.57800,-1.530700188
409.57850,-3.361866634
409.57900,-3.361866634
409.57950,-1.835894595
409.58000,-1.835894595
409.58050,-3.361866634
409.58100,-4.887838672
409.58150,-4.277449857
409.58200,-2.446283411
409.58250,-2.141089003
409.58300,-3.361866634
409.58350,-6.108616303
409.58400,-7.939782749
409.58450,-8.855365973
409.58500,-9.16056038
409.58550,-10.38133801
409.58600,-11.90731005
409.58650,-12.21250446
409.58700,-8.550171565
409.58750,-2.141089003
409.58800,3.352410335
409.58850,5.183576782
409.58900,3.962799151
409.58950,3.352410335
409.59000,3.962799151
409.59050,3.962799151
409.59100,2.131632705
409.59150,1.521243889
409.59200,3.657604743
409.59250,6.70954882
409.59300,7.930326451
409.59350,7.014743228
409.59400,6.404354412
409.59450,6.404354412
409.59500,6.404354412
409.59550,6.404354412
409.59600,5.488771189
409.59650,2.436827112
