"type","name","time_units","begin_time","frequency","count","units"
"signal","Ultium EMG-BRACHIORAD. RT","s",285.98000,2000,22000,"uV"

"time","value"
285.98000,2.754833279
285.98050,0.6184724254
285.98100,-1.517888429
285.98150,-5.180221321
285.98200,-9.147748621
285.98250,-10.97891507
285.98300,-7.92697099
285.98350,0.008083609999
285.98400,8.553527026
285.98450,12.52105433
285.98500,12.21585992
285.98550,14.65741518
285.98600,23.508053
285.98650,32.96907964
285.98700,33.57946846
285.98750,25.33921945
285.98800,19.5405257
285.98850,24.11844182
285.98900,31.1379132
285.98950,25.94960826
285.99000,4.891194133
285.99050,-19.52435848
285.99100,-35.69966209
285.99150,-41.80355025
285.99200,-40.88796702
285.99250,-34.17369005
285.99300,-22.88149697
285.99350,-12.81008151
285.99400,-7.011387767
285.99450,-3.349054875
285.99500,0.3132780177
285.99550,3.670416502
285.99600,3.060027687
285.99650,0.9236668331
285.99700,0.9236668331
285.99750,3.060027687
285.99800,5.501582949
285.99850,6.722360579
285.99900,8.553527026
285.99950,11.6054711
286.00000,12.82624873
286.00050,9.163915841
286.00100,1.228861241
286.00150,-7.316582175
286.00200,-14.33605355
286.00250,-18.30358085
286.00300,-20.74513611
286.00350,-20.43994171
286.00400,-16.16722
286.00450,-10.06333184
286.00500,-5.790610136
286.00550,-5.180221321
286.00600,-3.654249282
286.00650,0.9236668331
286.00700,6.111971764
286.00750,7.027554987
286.00800,3.97561091
286.00850,0.6184724254
286.00900,-0.9074996131
286.00950,-2.128277244
286.01000,-1.517888429
286.01050,2.449638872
286.01100,8.553527026
286.01150,11.91066551
286.01200,10.38469347
286.01250,7.332749395
286.01300,5.501582949
286.01350,4.280805318
286.01400,3.060027687
286.01450,2.144444464
286.01500,2.144444464
286.01550,2.449638872
286.01600,2.754833279
286.01650,3.365222095
286.01700,4.585999726
286.01750,4.585999726
286.01800,3.670416502
286.01850,3.060027687
286.01900,2.754833279
286.01950,1.839250056
286.02000,-0.2971107977
286.02050,-3.349054875
286.02100,-4.875026913
286.02150,-4.264638098
286.02200,-2.128277244
286.02250,0.3132780177
286.02300,3.670416502
286.02350,6.417166172
286.02400,9.469110249
286.02450,12.21585992
286.02500,14.04702636
286.02550,12.82624873
286.02600,7.332749395
286.02650,0.008083609999
286.02700,-3.95944369
286.02750,-3.654249282
286.02800,-1.517888429
286.02850,-1.517888429
286.02900,-3.043860467
286.02950,-3.043860467
286.03000,-0.2971107977
286.03050,0.9236668331
286.03100,-0.2971107977
286.03150,-1.517888429
286.03200,0.6184724254
286.03250,4.891194133
286.03300,6.417166172
286.03350,3.97561091
286.03400,0.3132780177
286.03450,-1.517888429
286.03500,-1.517888429
286.03550,0.3132780177
286.03600,3.670416502
286.03650,5.501582949
286.03700,4.585999726
286.03750,2.144444464
286.03800,1.534055649
286.03850,2.144444464
286.03900,1.228861241
286.03950,-1.212694021
286.04000,-2.128277244
286.04050,-0.9074996131
286.04100,-0.9074996131
286.04150,-3.349054875
286.04200,-3.349054875
286.04250,1.534055649
286.04300,7.94313821
286.04350,8.553527026
286.04400,4.891194133
286.04450,1.839250056
286.04500,0.9236668331
286.04550,0.008083609999
286.04600,-2.128277244
286.04650,-4.264638098
286.04700,-4.875026913
286.04750,-4.875026913
286.04800,-4.569832506
286.04850,-3.349054875
286.04900,-1.823082836
286.04950,-2.128277244
286.05000,-3.95944369
286.05050,-5.180221321
286.05100,-4.569832506
286.05150,-3.95944369
286.05200,-4.569832506
286.05250,-5.485415729
286.05300,-3.95944369
286.05350,-1.212694021
286.05400,0.008083609999
286.05450,-0.6023052054
286.05500,-0.6023052054
286.05550,0.9236668331
286.05600,2.144444464
286.05650,0.6184724254
286.05700,-2.128277244
286.05750,-2.128277244
286.05800,1.534055649
286.05850,5.501582949
286.05900,6.722360579
286.05950,5.806777356
286.06000,4.585999726
286.06050,3.670416502
286.06100,1.839250056
286.06150,0.3132780177
286.06200,0.3132780177
286.06250,0.6184724254
286.06300,-0.6023052054
286.06350,-3.95944369
286.06400,-5.180221321
286.06450,-3.349054875
286.06500,-1.517888429
286.06550,-2.128277244
286.06600,-4.875026913
286.06650,-6.400998952
286.06700,-5.485415729
286.06750,-2.738666059
286.06800,-0.2971107977
286.06850,0.3132780177
286.06900,-0.6023052054
286.06950,-1.823082836
286.07000,-1.517888429
286.07050,0.3132780177
286.07100,2.449638872
286.07150,4.280805318
286.07200,5.196388541
286.07250,4.280805318
286.07300,3.365222095
286.07350,4.280805318
286.07400,5.196388541
286.07450,2.754833279
286.07500,-2.433471652
286.07550,-4.569832506
286.07600,-0.2971107977
286.07650,3.670416502
286.07700,-0.6023052054
286.07750,-10.06333184
286.07800,-14.33605355
286.07850,-10.97891507
286.07900,-7.011387767
286.07950,-6.400998952
286.08000,-5.790610136
286.08050,-1.823082836
286.08100,0.9236668331
286.08150,0.9236668331
286.08200,0.008083609999
286.08250,-0.6023052054
286.08300,-1.823082836
286.08350,-3.95944369
286.08400,-3.95944369
286.08450,-0.2971107977
286.08500,2.754833279
286.08550,2.144444464
286.08600,0.008083609999
286.08650,-0.6023052054
286.08700,-1.823082836
286.08750,-3.654249282
286.08800,-4.569832506
286.08850,-1.823082836
286.08900,1.839250056
286.08950,3.365222095
286.09000,2.449638872
286.09050,1.228861241
286.09100,0.6184724254
286.09150,-0.2971107977
286.09200,-1.823082836
286.09250,-2.738666059
286.09300,-2.433471652
286.09350,-2.433471652
286.09400,-2.738666059
286.09450,-2.433471652
286.09500,-0.9074996131
286.09550,0.9236668331
286.09600,1.839250056
286.09650,0.9236668331
286.09700,0.008083609999
286.09750,-0.6023052054
286.09800,-1.212694021
286.09850,-1.823082836
286.09900,-0.6023052054
286.09950,1.534055649
286.10000,3.365222095
286.10050,2.449638872
286.10100,1.534055649
286.10150,5.501582949
286.10200,11.6054711
286.10250,12.82624873
286.10300,6.111971764
286.10350,-1.212694021
286.10400,-2.738666059
286.10450,-1.517888429
286.10500,-3.043860467
286.10550,-5.790610136
286.10600,-3.95944369
286.10650,0.9236668331
286.10700,2.144444464
286.10750,-1.212694021
286.10800,-4.569832506
286.10850,-4.264638098
286.10900,-4.264638098
286.10950,-7.011387767
286.11000,-8.537359806
286.11050,-5.485415729
286.11100,0.008083609999
286.11150,2.754833279
286.11200,3.365222095
286.11250,4.280805318
286.11300,5.806777356
286.11350,5.501582949
286.11400,3.060027687
286.11450,0.3132780177
286.11500,-0.6023052054
286.11550,-1.517888429
286.11600,-3.95944369
286.11650,-7.621776583
286.11700,-9.758137436
286.11750,-7.316582175
286.11800,-1.517888429
286.11850,3.365222095
286.11900,5.806777356
286.11950,8.248332618
286.12000,13.13144314
286.12050,18.93013689
286.12100,19.84572011
286.12150,15.267804
286.12200,9.163915841
286.12250,7.637943803
286.12300,10.07949906
286.12350,13.43663755
286.12400,14.65741518
286.12450,12.52105433
286.12500,8.858721433
286.12550,4.280805318
286.12600,-0.9074996131
286.12650,-8.537359806
286.12700,-15.55683118
286.12750,-16.47241441
286.12800,-9.147748621
286.12850,-0.2971107977
286.12900,1.534055649
286.12950,-2.433471652
286.13000,-6.706193359
286.13050,-7.011387767
286.13100,-4.875026913
286.13150,-3.349054875
286.13200,-2.738666059
286.13250,-2.128277244
286.13300,-2.128277244
286.13350,-2.433471652
286.13400,-2.128277244
286.13450,-1.517888429
286.13500,-2.128277244
286.13550,-3.043860467
286.13600,-2.433471652
286.13650,0.6184724254
286.13700,3.670416502
286.13750,3.365222095
286.13800,1.228861241
286.13850,0.008083609999
286.13900,0.008083609999
286.13950,1.228861241
286.14000,1.839250056
286.14050,1.839250056
286.14100,0.9236668331
286.14150,-0.9074996131
286.14200,-2.433471652
286.14250,-2.128277244
286.14300,-0.6023052054
286.14350,-0.2971107977
286.14400,-1.823082836
286.14450,-3.654249282
286.14500,-3.95944369
286.14550,-2.433471652
286.14600,-0.2971107977
286.14650,0.6184724254
286.14700,0.6184724254
286.14750,-0.2971107977
286.14800,-2.128277244
286.14850,-3.043860467
286.14900,-3.349054875
286.14950,-3.349054875
286.15000,-3.95944369
286.15050,-4.569832506
286.15100,-5.180221321
286.15150,-5.485415729
286.15200,-5.180221321
286.15250,-3.654249282
286.15300,-2.128277244
286.15350,-2.433471652
286.15400,-3.349054875
286.15450,-3.043860467
286.15500,-0.6023052054
286.15550,0.3132780177
286.15600,-0.2971107977
286.15650,-0.2971107977
286.15700,3.060027687
286.15750,7.332749395
286.15800,6.417166172
286.15850,1.228861241
286.15900,-0.9074996131
286.15950,1.839250056
286.16000,4.585999726
286.16050,3.060027687
286.16100,-0.2971107977
286.16150,-1.212694021
286.16200,0.008083609999
286.16250,-0.2971107977
286.16300,-2.128277244
286.16350,-2.738666059
286.16400,-2.738666059
286.16450,-3.654249282
286.16500,-3.043860467
286.16550,0.9236668331
286.16600,4.891194133
286.16650,3.060027687
286.16700,-1.517888429
286.16750,-3.043860467
286.16800,-0.6023052054
286.16850,-0.2971107977
286.16900,-2.128277244
286.16950,-2.128277244
286.17000,0.008083609999
286.17050,-0.2971107977
286.17100,-3.349054875
286.17150,0.9236668331
286.17200,14.35222077
286.17250,25.03402504
286.17300,24.11844182
286.17350,18.01455366
286.17400,15.87819281
286.17450,15.87819281
286.17500,8.858721433
286.17550,-5.180221321
286.17600,-16.77760881
286.17650,-18.91396967
286.17700,-13.11527592
286.17750,-4.264638098
286.17800,1.839250056
286.17850,2.144444464
286.17900,-1.212694021
286.17950,-3.043860467
286.18000,-0.2971107977
286.18050,0.9236668331
286.18100,-3.043860467
286.18150,-7.316582175
286.18200,-5.180221321
286.18250,0.9236668331
286.18300,3.97561091
286.18350,2.144444464
286.18400,0.008083609999
286.18450,0.008083609999
286.18500,0.6184724254
286.18550,0.9236668331
286.18600,2.144444464
286.18650,2.754833279
286.18700,0.3132780177
286.18750,-3.349054875
286.18800,-4.569832506
286.18850,-3.349054875
286.18900,-4.264638098
286.18950,-7.011387767
286.19000,-7.316582175
286.19050,-3.654249282
286.19100,0.008083609999
286.19150,0.9236668331
286.19200,0.008083609999
286.19250,-0.2971107977
286.19300,-1.517888429
286.19350,-3.043860467
286.19400,-3.349054875
286.19450,-1.517888429
286.19500,-0.6023052054
286.19550,-2.128277244
286.19600,-4.569832506
286.19650,-4.569832506
286.19700,-2.738666059
286.19750,-1.823082836
286.19800,-1.823082836
286.19850,-0.2971107977
286.19900,2.449638872
286.19950,3.97561091
286.20000,4.280805318
286.20050,7.332749395
286.20100,13.74183196
286.20150,17.40416485
286.20200,14.04702636
286.20250,7.027554987
286.20300,4.585999726
286.20350,6.722360579
286.20400,7.332749395
286.20450,3.670416502
286.20500,0.008083609999
286.20550,-0.9074996131
286.20600,-1.212694021
286.20650,-2.738666059
286.20700,-3.349054875
286.20750,-1.212694021
286.20800,0.3132780177
286.20850,-1.212694021
286.20900,-5.790610136
286.20950,-9.758137436
286.21000,-11.58930388
286.21050,-12.1996927
286.21100,-10.97891507
286.21150,-8.232165398
286.21200,-5.790610136
286.21250,-3.349054875
286.21300,3.365222095
286.21350,15.267804
286.21400,26.86519149
286.21450,32.05349642
286.21500,33.27427405
286.21550,35.4106349
286.21600,37.85219016
286.21650,36.93660694
286.21700,31.74830201
286.21750,24.72883063
286.21800,14.65741518
286.21850,-0.6023052054
286.21900,-17.99838644
286.21950,-31.12174598
286.22000,-37.53082854
286.22050,-40.27757821
286.22100,-40.27757821
286.22150,-36.0048565
286.22200,-27.45941308
286.22250,-19.21916408
286.22300,-14.64124796
286.22350,-11.89449829
286.22400,-10.36852625
286.22450,-9.147748621
286.22500,-7.92697099
286.22550,-5.180221321
286.22600,-2.128277244
286.22650,-0.9074996131
286.22700,-3.043860467
286.22750,-5.180221321
286.22800,-4.875026913
286.22850,-2.433471652
286.22900,0.008083609999
286.22950,1.228861241
286.23000,0.9236668331
286.23050,-0.6023052054
286.23100,-2.738666059
286.23150,-3.043860467
286.23200,-1.212694021
286.23250,0.008083609999
286.23300,-0.2971107977
286.23350,-0.9074996131
286.23400,-0.2971107977
286.23450,1.228861241
286.23500,3.060027687
286.23550,4.280805318
286.23600,5.501582949
286.23650,5.196388541
286.23700,3.97561091
286.23750,3.670416502
286.23800,4.891194133
286.23850,6.111971764
286.23900,5.806777356
286.23950,3.97561091
286.24000,2.449638872
286.24050,2.754833279
286.24100,3.670416502
286.24150,3.97561091
286.24200,3.97561091
286.24250,5.196388541
286.24300,6.417166172
286.24350,6.722360579
286.24400,5.501582949
286.24450,3.97561091
286.24500,3.365222095
286.24550,2.754833279
286.24600,2.144444464
286.24650,0.9236668331
286.24700,0.008083609999
286.24750,-1.823082836
286.24800,-3.349054875
286.24850,-3.043860467
286.24900,-0.6023052054
286.24950,0.6184724254
286.25000,0.008083609999
286.25050,-0.9074996131
286.25100,-0.6023052054
286.25150,-0.9074996131
286.25200,-2.433471652
286.25250,-3.349054875
286.25300,-2.738666059
286.25350,-3.654249282
286.25400,-7.621776583
286.25450,-11.28410947
286.25500,-10.36852625
286.25550,-6.706193359
286.25600,-3.654249282
286.25650,-0.6023052054
286.25700,5.501582949
286.25750,15.87819281
286.25800,24.72883063
286.25850,27.4755803
286.25900,23.81324741
286.25950,16.18338722
286.26000,9.163915841
286.26050,5.196388541
286.26100,2.754833279
286.26150,-2.128277244
286.26200,-7.011387767
286.26250,-7.011387767
286.26300,-3.349054875
286.26350,-6.095804544
286.26400,-17.69319204
286.26450,-26.54382986
286.26500,-23.79708019
286.26550,-15.86202559
286.26600,-13.42047033
286.26650,-12.81008151
286.26700,-2.738666059
286.26750,14.04702636
286.26800,22.89766419
286.26850,17.70935926
286.26900,7.94313821
286.26950,3.670416502
286.27000,2.449638872
286.27050,-0.6023052054
286.27100,-3.95944369
286.27150,-4.264638098
286.27200,-3.654249282
286.27250,-4.875026913
286.27300,-4.875026913
286.27350,-1.212694021
286.27400,1.228861241
286.27450,-1.212694021
286.27500,-5.485415729
286.27550,-3.95944369
286.27600,1.534055649
286.27650,4.585999726
286.27700,2.754833279
286.27750,0.3132780177
286.27800,0.9236668331
286.27850,2.754833279
286.27900,3.060027687
286.27950,1.839250056
286.28000,1.534055649
286.28050,1.839250056
286.28100,1.839250056
286.28150,0.008083609999
286.28200,-2.738666059
286.28250,-5.485415729
286.28300,-4.875026913
286.28350,0.008083609999
286.28400,7.332749395
286.28450,12.21585992
286.28500,11.6054711
286.28550,7.027554987
286.28600,3.060027687
286.28650,1.534055649
286.28700,1.534055649
286.28750,0.3132780177
286.28800,-2.128277244
286.28850,-4.264638098
286.28900,-4.875026913
286.28950,-4.569832506
286.29000,-3.654249282
286.29050,-3.349054875
286.29100,-3.349054875
286.29150,-3.95944369
286.29200,-4.264638098
286.29250,-4.569832506
286.29300,-4.569832506
286.29350,-4.875026913
286.29400,-5.790610136
286.29450,-6.400998952
286.29500,-6.706193359
286.29550,-7.621776583
286.29600,-8.232165398
286.29650,-5.485415729
286.29700,0.9236668331
286.29750,7.637943803
286.29800,8.553527026
286.29850,3.97561091
286.29900,-0.2971107977
286.29950,-1.517888429
286.30000,-1.212694021
286.30050,-2.738666059
286.30100,-3.95944369
286.30150,-2.738666059
286.30200,0.008083609999
286.30250,1.534055649
286.30300,1.839250056
286.30350,3.670416502
286.30400,7.332749395
286.30450,9.774304656
286.30500,9.163915841
286.30550,6.417166172
286.30600,2.449638872
286.30650,-0.6023052054
286.30700,-2.128277244
286.30750,-0.9074996131
286.30800,0.9236668331
286.30850,2.449638872
286.30900,2.144444464
286.30950,0.9236668331
286.31000,-1.212694021
286.31050,-5.790610136
286.31100,-10.36852625
286.31150,-12.81008151
286.31200,-12.81008151
286.31250,-11.89449829
286.31300,-9.758137436
286.31350,-5.180221321
286.31400,0.3132780177
286.31450,3.670416502
286.31500,3.670416502
286.31550,1.839250056
286.31600,0.008083609999
286.31650,-1.517888429
286.31700,-1.823082836
286.31750,1.228861241
286.31800,6.722360579
286.31850,9.163915841
286.31900,7.332749395
286.31950,4.280805318
286.32000,3.060027687
286.32050,2.449638872
286.32100,0.6184724254
286.32150,0.008083609999
286.32200,1.534055649
286.32250,2.754833279
286.32300,0.008083609999
286.32350,-2.128277244
286.32400,0.008083609999
286.32450,4.280805318
286.32500,5.196388541
286.32550,2.144444464
286.32600,1.534055649
286.32650,4.891194133
286.32700,7.332749395
286.32750,3.365222095
286.32800,-3.349054875
286.32850,-7.011387767
286.32900,-7.011387767
286.32950,-7.316582175
286.33000,-8.232165398
286.33050,-7.621776583
286.33100,-5.485415729
286.33150,-3.654249282
286.33200,-2.738666059
286.33250,-0.6023052054
286.33300,1.534055649
286.33350,1.228861241
286.33400,-2.128277244
286.33450,-4.875026913
286.33500,-2.738666059
286.33550,0.6184724254
286.33600,1.228861241
286.33650,0.3132780177
286.33700,2.144444464
286.33750,7.332749395
286.33800,11.30027669
286.33850,9.774304656
286.33900,4.891194133
286.33950,1.228861241
286.34000,1.228861241
286.34050,2.144444464
286.34100,3.060027687
286.34150,3.97561091
286.34200,5.806777356
286.34250,6.111971764
286.34300,2.754833279
286.34350,-2.433471652
286.34400,-4.264638098
286.34450,0.008083609999
286.34500,7.027554987
286.34550,8.553527026
286.34600,4.585999726
286.34650,0.9236668331
286.34700,0.3132780177
286.34750,-0.6023052054
286.34800,-4.875026913
286.34850,-7.621776583
286.34900,-3.654249282
286.34950,3.365222095
286.35000,6.111971764
286.35050,3.060027687
286.35100,0.008083609999
286.35150,0.3132780177
286.35200,1.534055649
286.35250,1.228861241
286.35300,0.008083609999
286.35350,0.6184724254
286.35400,2.449638872
286.35450,2.754833279
286.35500,0.6184724254
286.35550,-2.128277244
286.35600,-3.95944369
286.35650,-4.569832506
286.35700,-3.95944369
286.35750,-3.349054875
286.35800,-2.433471652
286.35850,-1.517888429
286.35900,-1.517888429
286.35950,-2.738666059
286.36000,-3.349054875
286.36050,-2.433471652
286.36100,-0.9074996131
286.36150,0.008083609999
286.36200,1.228861241
286.36250,3.97561091
286.36300,6.722360579
286.36350,6.722360579
286.36400,4.280805318
286.36450,3.365222095
286.36500,5.806777356
286.36550,7.637943803
286.36600,5.501582949
286.36650,2.449638872
286.36700,2.144444464
286.36750,3.365222095
286.36800,5.196388541
286.36850,6.417166172
286.36900,6.722360579
286.36950,2.449638872
286.37000,-6.706193359
286.37050,-16.47241441
286.37100,-20.43994171
286.37150,-17.99838644
286.37200,-13.72566474
286.37250,-10.67372066
286.37300,-8.537359806
286.37350,-7.011387767
286.37400,-5.485415729
286.37450,-3.95944369
286.37500,-2.128277244
286.37550,-1.517888429
286.37600,-3.349054875
286.37650,-5.180221321
286.37700,-4.875026913
286.37750,-3.95944369
286.37800,-4.264638098
286.37850,-3.654249282
286.37900,0.008083609999
286.37950,4.891194133
286.38000,7.027554987
286.38050,4.891194133
286.38100,2.144444464
286.38150,1.534055649
286.38200,0.9236668331
286.38250,0.008083609999
286.38300,0.008083609999
286.38350,1.839250056
286.38400,3.670416502
286.38450,3.060027687
286.38500,2.144444464
286.38550,2.754833279
286.38600,3.670416502
286.38650,1.839250056
286.38700,-1.823082836
286.38750,-4.264638098
286.38800,-3.654249282
286.38850,-3.95944369
286.38900,-7.621776583
286.38950,-10.36852625
286.39000,-5.790610136
286.39050,4.585999726
286.39100,12.21585992
286.39150,11.6054711
286.39200,6.111971764
286.39250,1.534055649
286.39300,-0.6023052054
286.39350,-2.128277244
286.39400,-3.349054875
286.39450,-3.043860467
286.39500,-0.9074996131
286.39550,0.9236668331
286.39600,3.670416502
286.39650,7.027554987
286.39700,9.163915841
286.39750,7.637943803
286.39800,4.280805318
286.39850,3.365222095
286.39900,4.280805318
286.39950,3.670416502
286.40000,-0.2971107977
286.40050,-5.485415729
286.40100,-9.758137436
286.40150,-13.11527592
286.40200,-15.86202559
286.40250,-13.72566474
286.40300,-5.180221321
286.40350,4.585999726
286.40400,9.469110249
286.40450,8.553527026
286.40500,7.027554987
286.40550,8.248332618
286.40600,10.07949906
286.40650,9.774304656
286.40700,8.858721433
286.40750,10.38469347
286.40800,13.74183196
286.40850,15.5729984
286.40900,14.04702636
286.40950,9.469110249
286.41000,4.585999726
286.41050,0.9236668331
286.41100,0.008083609999
286.41150,0.9236668331
286.41200,1.534055649
286.41250,0.3132780177
286.41300,-0.9074996131
286.41350,-0.6023052054
286.41400,0.9236668331
286.41450,1.534055649
286.41500,0.008083609999
286.41550,-1.517888429
286.41600,-1.212694021
286.41650,0.008083609999
286.41700,-0.6023052054
286.41750,-3.349054875
286.41800,-4.875026913
286.41850,-3.349054875
286.41900,-0.9074996131
286.41950,0.008083609999
286.42000,-0.9074996131
286.42050,-2.128277244
286.42100,-1.823082836
286.42150,-1.517888429
286.42200,-2.433471652
286.42250,-3.654249282
286.42300,-3.349054875
286.42350,-1.517888429
286.42400,-0.9074996131
286.42450,-1.823082836
286.42500,-3.349054875
286.42550,-3.654249282
286.42600,-3.654249282
286.42650,-3.95944369
286.42700,-4.569832506
286.42750,-5.485415729
286.42800,-6.400998952
286.42850,-7.011387767
286.42900,-7.316582175
286.42950,-7.011387767
286.43000,-7.011387767
286.43050,-7.011387767
286.43100,-6.706193359
286.43150,-3.654249282
286.43200,1.839250056
286.43250,7.94313821
286.43300,10.38469347
286.43350,7.332749395
286.43400,2.144444464
286.43450,-0.6023052054
286.43500,-0.6023052054
286.43550,-0.2971107977
286.43600,-1.517888429
286.43650,-2.128277244
286.43700,-1.517888429
286.43750,-1.517888429
286.43800,-3.349054875
286.43850,-3.95944369
286.43900,-1.823082836
286.43950,0.008083609999
286.44000,-1.212694021
286.44050,-3.043860467
286.44100,-0.9074996131
286.44150,3.97561091
286.44200,7.027554987
286.44250,4.585999726
286.44300,-0.6023052054
286.44350,-5.485415729
286.44400,-7.011387767
286.44450,-6.095804544
286.44500,-4.875026913
286.44550,-5.180221321
286.44600,-5.485415729
286.44650,-2.433471652
286.44700,3.97561091
286.44750,9.774304656
286.44800,10.99508229
286.44850,9.774304656
286.44900,9.774304656
286.44950,9.469110249
286.45000,7.027554987
286.45050,4.585999726
286.45100,4.891194133
286.45150,5.501582949
286.45200,2.144444464
286.45250,-2.128277244
286.45300,-1.517888429
286.45350,4.585999726
286.45400,8.553527026
286.45450,6.111971764
286.45500,1.839250056
286.45550,0.6184724254
286.45600,1.534055649
286.45650,1.228861241
286.45700,-0.2971107977
286.45750,-1.212694021
286.45800,-0.9074996131
286.45850,-0.6023052054
286.45900,-1.212694021
286.45950,-2.128277244
286.46000,-3.043860467
286.46050,-3.043860467
286.46100,-1.212694021
286.46150,0.008083609999
286.46200,-1.212694021
286.46250,-3.349054875
286.46300,-4.264638098
286.46350,-3.654249282
286.46400,-3.654249282
286.46450,-3.349054875
286.46500,-2.128277244
286.46550,0.3132780177
286.46600,1.228861241
286.46650,-0.2971107977
286.46700,-2.738666059
286.46750,-4.569832506
286.46800,-5.485415729
286.46850,-6.095804544
286.46900,-6.095804544
286.46950,-5.180221321
286.47000,-4.875026913
286.47050,-6.400998952
286.47100,-9.147748621
286.47150,-10.67372066
286.47200,-10.36852625
286.47250,-8.232165398
286.47300,-5.485415729
286.47350,-2.738666059
286.47400,0.008083609999
286.47450,4.891194133
286.47500,10.99508229
286.47550,13.74183196
286.47600,11.30027669
286.47650,7.027554987
286.47700,4.891194133
286.47750,4.891194133
286.47800,4.585999726
286.47850,3.365222095
286.47900,2.754833279
286.47950,1.839250056
286.48000,-1.517888429
286.48050,-6.706193359
286.48100,-8.537359806
286.48150,-6.706193359
286.48200,-5.790610136
286.48250,-7.011387767
286.48300,-7.316582175
286.48350,-3.95944369
286.48400,-0.6023052054
286.48450,-0.2971107977
286.48500,-0.9074996131
286.48550,0.3132780177
286.48600,2.449638872
286.48650,3.670416502
286.48700,3.97561091
286.48750,5.196388541
286.48800,6.722360579
286.48850,6.111971764
286.48900,3.365222095
286.48950,0.3132780177
286.49000,-2.128277244
286.49050,-4.264638098
286.49100,-4.569832506
286.49150,-2.433471652
286.49200,-0.2971107977
286.49250,0.008083609999
286.49300,0.008083609999
286.49350,-0.6023052054
286.49400,-3.043860467
286.49450,-8.537359806
286.49500,-14.03085914
286.49550,-15.55683118
286.49600,-13.42047033
286.49650,-9.452943029
286.49700,-5.180221321
286.49750,-1.823082836
286.49800,-0.9074996131
286.49850,-1.823082836
286.49900,-2.128277244
286.49950,-0.2971107977
286.50000,1.534055649
286.50050,3.365222095
286.50100,6.417166172
286.50150,9.774304656
286.50200,10.07949906
286.50250,7.637943803
286.50300,5.806777356
286.50350,6.417166172
286.50400,5.501582949
286.50450,1.839250056
286.50500,1.228861241
286.50550,7.332749395
286.50600,14.35222077
286.50650,13.74183196
286.50700,5.501582949
286.50750,-0.9074996131
286.50800,-1.212694021
286.50850,1.534055649
286.50900,1.839250056
286.50950,-0.9074996131
286.51000,-4.875026913
286.51050,-5.790610136
286.51100,-1.517888429
286.51150,5.806777356
286.51200,10.07949906
286.51250,8.248332618
286.51300,3.97561091
286.51350,2.754833279
286.51400,2.449638872
286.51450,0.008083609999
286.51500,-3.654249282
286.51550,-3.95944369
286.51600,0.008083609999
286.51650,3.365222095
286.51700,4.280805318
286.51750,5.501582949
286.51800,7.94313821
286.51850,9.163915841
286.51900,7.027554987
286.51950,3.365222095
286.52000,1.534055649
286.52050,0.9236668331
286.52100,0.008083609999
286.52150,-1.517888429
286.52200,-0.9074996131
286.52250,0.3132780177
286.52300,0.6184724254
286.52350,-1.823082836
286.52400,-4.875026913
286.52450,-4.264638098
286.52500,0.9236668331
286.52550,7.94313821
286.52600,10.68988788
286.52650,7.027554987
286.52700,0.6184724254
286.52750,-3.654249282
286.52800,-3.043860467
286.52850,0.008083609999
286.52900,3.365222095
286.52950,2.754833279
286.53000,-0.6023052054
286.53050,-4.264638098
286.53100,-4.264638098
286.53150,-2.128277244
286.53200,-1.823082836
286.53250,-3.654249282
286.53300,-4.569832506
286.53350,-2.433471652
286.53400,0.6184724254
286.53450,1.839250056
286.53500,1.228861241
286.53550,0.008083609999
286.53600,-0.9074996131
286.53650,-0.6023052054
286.53700,2.449638872
286.53750,7.637943803
286.53800,10.99508229
286.53850,10.38469347
286.53900,7.027554987
286.53950,4.585999726
286.54000,2.144444464
286.54050,-0.6023052054
286.54100,-3.349054875
286.54150,-3.349054875
286.54200,-1.517888429
286.54250,-0.6023052054
286.54300,-1.517888429
286.54350,-2.128277244
286.54400,-2.128277244
286.54450,-2.738666059
286.54500,-4.569832506
286.54550,-6.095804544
286.54600,-5.790610136
286.54650,-5.180221321
286.54700,-4.875026913
286.54750,-5.180221321
286.54800,-5.180221321
286.54850,-3.95944369
286.54900,-2.738666059
286.54950,-3.043860467
286.55000,-4.264638098
286.55050,-6.095804544
286.55100,-7.621776583
286.55150,-9.452943029
286.55200,-10.97891507
286.55250,-10.97891507
286.55300,-8.232165398
286.55350,-3.95944369
286.55400,-0.2971107977
286.55450,1.839250056
286.55500,3.670416502
286.55550,3.670416502
286.55600,1.839250056
286.55650,-0.9074996131
286.55700,-3.043860467
286.55750,-2.433471652
286.55800,-0.2971107977
286.55850,1.534055649
286.55900,2.754833279
286.55950,4.280805318
286.56000,5.501582949
286.56050,6.722360579
286.56100,7.027554987
286.56150,6.417166172
286.56200,4.585999726
286.56250,2.449638872
286.56300,1.228861241
286.56350,0.9236668331
286.56400,0.6184724254
286.56450,0.008083609999
286.56500,0.008083609999
286.56550,0.008083609999
286.56600,0.3132780177
286.56650,0.6184724254
286.56700,0.008083609999
286.56750,0.008083609999
286.56800,-0.2971107977
286.56850,-0.9074996131
286.56900,-2.128277244
286.56950,-3.043860467
286.57000,-3.349054875
286.57050,-3.043860467
286.57100,-3.349054875
286.57150,-4.875026913
286.57200,-6.400998952
286.57250,-6.706193359
286.57300,-5.790610136
286.57350,-3.95944369
286.57400,-2.738666059
286.57450,-3.349054875
286.57500,-4.264638098
286.57550,-3.95944369
286.57600,-2.433471652
286.57650,-1.212694021
286.57700,-2.128277244
286.57750,-2.738666059
286.57800,-1.212694021
286.57850,0.9236668331
286.57900,1.839250056
286.57950,0.6184724254
286.58000,-0.2971107977
286.58050,0.008083609999
286.58100,0.9236668331
286.58150,2.449638872
286.58200,3.060027687
286.58250,0.9236668331
286.58300,-4.264638098
286.58350,-10.36852625
286.58400,-13.72566474
286.58450,-13.42047033
286.58500,-10.06333184
286.58550,-2.433471652
286.58600,8.553527026
286.58650,18.93013689
286.58700,21.67688656
286.58750,17.40416485
286.58800,13.43663755
286.58850,14.04702636
286.58900,16.48858163
286.58950,16.79377603
286.59000,14.35222077
286.59050,10.38469347
286.59100,6.111971764
286.59150,3.97561091
286.59200,6.111971764
286.59250,8.858721433
286.59300,4.891194133
286.59350,-5.790610136
286.59400,-16.77760881
286.59450,-20.43994171
286.59500,-18.91396967
286.59550,-15.55683118
286.59600,-12.1996927
286.59650,-7.92697099
286.59700,-3.349054875
286.59750,0.008083609999
286.59800,2.144444464
286.59850,1.534055649
286.59900,-3.043860467
286.59950,-8.537359806
286.60000,-6.706193359
286.60050,3.670416502
286.60100,14.65741518
286.60150,17.09897044
286.60200,12.52105433
286.60250,7.332749395
286.60300,5.501582949
286.60350,6.417166172
286.60400,8.858721433
286.60450,10.99508229
286.60500,9.163915841
286.60550,3.060027687
286.60600,-2.738666059
286.60650,-4.264638098
286.60700,-2.738666059
286.60750,-2.738666059
286.60800,-4.569832506
286.60850,-5.180221321
286.60900,-4.264638098
286.60950,-3.349054875
286.61000,-3.654249282
286.61050,-4.875026913
286.61100,-5.790610136
286.61150,-5.790610136
286.61200,-4.264638098
286.61250,-2.433471652
286.61300,-2.128277244
286.61350,-3.349054875
286.61400,-3.654249282
286.61450,-2.128277244
286.61500,-0.9074996131
286.61550,-1.212694021
286.61600,-1.823082836
286.61650,-1.517888429
286.61700,0.008083609999
286.61750,1.839250056
286.61800,3.365222095
286.61850,3.670416502
286.61900,3.060027687
286.61950,2.144444464
286.62000,2.449638872
286.62050,3.365222095
286.62100,3.060027687
286.62150,1.534055649
286.62200,1.228861241
286.62250,2.449638872
286.62300,2.754833279
286.62350,0.3132780177
286.62400,-2.433471652
286.62450,-3.95944369
286.62500,-4.569832506
286.62550,-5.180221321
286.62600,-5.790610136
286.62650,-4.569832506
286.62700,-1.823082836
286.62750,0.6184724254
286.62800,1.228861241
286.62850,0.008083609999
286.62900,-2.128277244
286.62950,-2.128277244
286.63000,0.3132780177
286.63050,3.060027687
286.63100,3.060027687
286.63150,0.6184724254
286.63200,-1.517888429
286.63250,-2.128277244
286.63300,-1.823082836
286.63350,-2.128277244
286.63400,-3.349054875
286.63450,-3.654249282
286.63500,-1.823082836
286.63550,1.839250056
286.63600,6.417166172
286.63650,8.858721433
286.63700,7.94313821
286.63750,4.891194133
286.63800,1.228861241
286.63850,-2.128277244
286.63900,-5.180221321
286.63950,-6.400998952
286.64000,-4.875026913
286.64050,-1.823082836
286.64100,1.228861241
286.64150,3.97561091
286.64200,6.722360579
286.64250,7.332749395
286.64300,5.501582949
286.64350,2.449638872
286.64400,0.3132780177
286.64450,-0.6023052054
286.64500,-2.128277244
286.64550,-3.654249282
286.64600,-3.349054875
286.64650,-2.433471652
286.64700,-2.433471652
286.64750,-3.043860467
286.64800,-3.654249282
286.64850,-3.349054875
286.64900,-3.654249282
286.64950,-3.95944369
286.65000,-2.738666059
286.65050,-0.2971107977
286.65100,2.144444464
286.65150,4.585999726
286.65200,6.111971764
286.65250,5.196388541
286.65300,0.6184724254
286.65350,-3.043860467
286.65400,-2.128277244
286.65450,4.280805318
286.65500,10.07949906
286.65550,10.99508229
286.65600,7.94313821
286.65650,4.891194133
286.65700,3.97561091
286.65750,4.280805318
286.65800,4.585999726
286.65850,4.280805318
286.65900,2.144444464
286.65950,0.008083609999
286.66000,-0.2971107977
286.66050,0.008083609999
286.66100,-0.6023052054
286.66150,-3.654249282
286.66200,-4.875026913
286.66250,-1.517888429
286.66300,3.670416502
286.66350,6.722360579
286.66400,5.501582949
286.66450,2.449638872
286.66500,0.3132780177
286.66550,-0.6023052054
286.66600,-1.517888429
286.66650,-1.823082836
286.66700,-3.043860467
286.66750,-6.400998952
286.66800,-9.452943029
286.66850,-9.147748621
286.66900,-4.875026913
286.66950,-1.517888429
286.67000,-1.212694021
286.67050,-1.212694021
286.67100,3.365222095
286.67150,11.30027669
286.67200,15.267804
286.67250,12.21585992
286.67300,5.501582949
286.67350,1.228861241
286.67400,0.008083609999
286.67450,0.008083609999
286.67500,-0.9074996131
286.67550,-0.9074996131
286.67600,-0.6023052054
286.67650,-0.6023052054
286.67700,-1.823082836
286.67750,-1.517888429
286.67800,0.008083609999
286.67850,1.534055649
286.67900,0.6184724254
286.67950,-1.823082836
286.68000,-4.264638098
286.68050,-5.485415729
286.68100,-6.095804544
286.68150,-5.485415729
286.68200,-4.875026913
286.68250,-4.264638098
286.68300,-3.654249282
286.68350,-1.212694021
286.68400,2.144444464
286.68450,4.585999726
286.68500,2.754833279
286.68550,-0.9074996131
286.68600,-4.264638098
286.68650,-5.180221321
286.68700,-5.180221321
286.68750,-4.875026913
286.68800,-4.569832506
286.68850,-5.180221321
286.68900,-7.011387767
286.68950,-8.537359806
286.69000,-7.621776583
286.69050,-4.875026913
286.69100,-2.433471652
286.69150,-2.433471652
286.69200,-2.738666059
286.69250,-1.517888429
286.69300,0.008083609999
286.69350,0.008083609999
286.69400,-2.433471652
286.69450,-4.264638098
286.69500,-2.433471652
286.69550,1.839250056
286.69600,5.806777356
286.69650,5.501582949
286.69700,2.754833279
286.69750,0.3132780177
286.69800,0.008083609999
286.69850,0.6184724254
286.69900,0.6184724254
286.69950,0.6184724254
286.70000,0.9236668331
286.70050,0.6184724254
286.70100,0.008083609999
286.70150,-0.2971107977
286.70200,-0.6023052054
286.70250,-1.517888429
286.70300,-2.128277244
286.70350,-1.212694021
286.70400,0.3132780177
286.70450,0.6184724254
286.70500,-0.6023052054
286.70550,-1.212694021
286.70600,-0.2971107977
286.70650,0.008083609999
286.70700,-0.6023052054
286.70750,0.008083609999
286.70800,3.060027687
286.70850,3.97561091
286.70900,1.228861241
286.70950,-1.212694021
286.71000,0.008083609999
286.71050,3.365222095
286.71100,4.891194133
286.71150,4.280805318
286.71200,3.670416502
286.71250,3.97561091
286.71300,4.280805318
286.71350,6.722360579
286.71400,10.07949906
286.71450,10.38469347
286.71500,6.111971764
286.71550,0.6184724254
286.71600,-4.264638098
286.71650,-11.89449829
286.71700,-21.35552493
286.71750,-23.18669138
286.71800,-11.28410947
286.71850,5.196388541
286.71900,10.99508229
286.71950,3.365222095
286.72000,-7.011387767
286.72050,-11.28410947
286.72100,-10.36852625
286.72150,-8.232165398
286.72200,-5.790610136
286.72250,-5.485415729
286.72300,-9.452943029
286.72350,-11.89449829
286.72400,-4.264638098
286.72450,10.99508229
286.72500,20.76130333
286.72550,17.40416485
286.72600,8.248332618
286.72650,3.670416502
286.72700,2.449638872
286.72750,0.3132780177
286.72800,-1.823082836
286.72850,-0.2971107977
286.72900,3.670416502
286.72950,5.806777356
286.73000,4.585999726
286.73050,3.670416502
286.73100,3.060027687
286.73150,0.6184724254
286.73200,-2.128277244
286.73250,-2.433471652
286.73300,-0.9074996131
286.73350,-0.9074996131
286.73400,-2.738666059
286.73450,-3.349054875
286.73500,-2.433471652
286.73550,-3.349054875
286.73600,-6.400998952
286.73650,-7.316582175
286.73700,-4.875026913
286.73750,-4.875026913
286.73800,-9.758137436
286.73850,-12.1996927
286.73900,-4.264638098
286.73950,10.38469347
286.74000,18.93013689
286.74050,15.5729984
286.74100,9.163915841
286.74150,9.469110249
286.74200,14.35222077
286.74250,15.267804
286.74300,10.68988788
286.74350,6.417166172
286.74400,6.417166172
286.74450,7.94313821
286.74500,7.637943803
286.74550,5.501582949
286.74600,3.365222095
286.74650,1.228861241
286.74700,-0.2971107977
286.74750,-0.9074996131
286.74800,-0.9074996131
286.74850,-0.6023052054
286.74900,-0.2971107977
286.74950,-0.2971107977
286.75000,-1.823082836
286.75050,-5.180221321
286.75100,-7.011387767
286.75150,-4.875026913
286.75200,-0.9074996131
286.75250,0.9236668331
286.75300,-0.2971107977
286.75350,-3.043860467
286.75400,-5.180221321
286.75450,-6.400998952
286.75500,-7.011387767
286.75550,-7.316582175
286.75600,-7.621776583
286.75650,-8.232165398
286.75700,-7.621776583
286.75750,-3.349054875
286.75800,2.754833279
286.75850,6.722360579
286.75900,6.417166172
286.75950,4.585999726
286.76000,4.280805318
286.76050,5.196388541
286.76100,5.196388541
286.76150,3.97561091
286.76200,1.534055649
286.76250,-1.212694021
286.76300,-3.654249282
286.76350,-3.349054875
286.76400,-1.823082836
286.76450,-1.517888429
286.76500,-2.738666059
286.76550,-1.517888429
286.76600,2.754833279
286.76650,7.027554987
286.76700,7.637943803
286.76750,6.417166172
286.76800,7.637943803
286.76850,11.30027669
286.76900,11.6054711
286.76950,4.585999726
286.77000,-7.621776583
286.77050,-19.82955289
286.77100,-25.62824664
286.77150,-22.27110815
286.77200,-14.64124796
286.77250,-9.452943029
286.77300,-9.147748621
286.77350,-9.147748621
286.77400,-4.264638098
286.77450,3.365222095
286.77500,8.248332618
286.77550,7.94313821
286.77600,4.891194133
286.77650,2.144444464
286.77700,0.008083609999
286.77750,-1.212694021
286.77800,-1.212694021
286.77850,0.3132780177
286.77900,2.754833279
286.77950,4.891194133
286.78000,4.891194133
286.78050,2.449638872
286.78100,-1.517888429
286.78150,-3.043860467
286.78200,0.008083609999
286.78250,5.501582949
286.78300,7.332749395
286.78350,5.806777356
286.78400,5.196388541
286.78450,7.332749395
286.78500,8.858721433
286.78550,7.027554987
286.78600,3.060027687
286.78650,0.9236668331
286.78700,0.9236668331
286.78750,0.9236668331
286.78800,0.3132780177
286.78850,0.008083609999
286.78900,1.839250056
286.78950,3.97561091
286.79000,4.891194133
286.79050,4.891194133
286.79100,3.97561091
286.79150,2.144444464
286.79200,-0.9074996131
286.79250,-5.180221321
286.79300,-9.452943029
286.79350,-12.1996927
286.79400,-11.89449829
286.79450,-8.842554213
286.79500,-5.485415729
286.79550,-3.654249282
286.79600,-3.654249282
286.79650,-3.349054875
286.79700,-2.738666059
286.79750,-2.433471652
286.79800,-2.738666059
286.79850,-2.738666059
286.79900,-1.517888429
286.79950,0.6184724254
286.80000,3.060027687
286.80050,4.585999726
286.80100,3.97561091
286.80150,2.449638872
286.80200,2.144444464
286.80250,3.365222095
286.80300,4.280805318
286.80350,3.060027687
286.80400,0.9236668331
286.80450,0.008083609999
286.80500,0.008083609999
286.80550,-0.2971107977
286.80600,-1.212694021
286.80650,-2.433471652
286.80700,-2.738666059
286.80750,-1.823082836
286.80800,0.3132780177
286.80850,3.060027687
286.80900,2.754833279
286.80950,-0.9074996131
286.81000,-4.264638098
286.81050,-4.569832506
286.81100,-4.264638098
286.81150,-7.011387767
286.81200,-9.452943029
286.81250,-5.790610136
286.81300,1.228861241
286.81350,4.891194133
286.81400,3.365222095
286.81450,2.144444464
286.81500,4.891194133
286.81550,6.417166172
286.81600,2.754833279
286.81650,-1.517888429
286.81700,-1.212694021
286.81750,2.754833279
286.81800,5.806777356
286.81850,5.501582949
286.81900,3.97561091
286.81950,3.060027687
286.82000,1.839250056
286.82050,0.6184724254
286.82100,-0.9074996131
286.82150,-4.264638098
286.82200,-7.316582175
286.82250,-5.790610136
286.82300,1.534055649
286.82350,9.774304656
286.82400,11.91066551
286.82450,7.027554987
286.82500,2.144444464
286.82550,1.534055649
286.82600,3.060027687
286.82650,1.228861241
286.82700,-2.128277244
286.82750,-3.043860467
286.82800,-0.2971107977
286.82850,2.449638872
286.82900,2.449638872
286.82950,0.6184724254
286.83000,0.3132780177
286.83050,2.449638872
286.83100,3.365222095
286.83150,1.534055649
286.83200,-0.6023052054
286.83250,-1.823082836
286.83300,-2.128277244
286.83350,-2.738666059
286.83400,-2.738666059
286.83450,-1.212694021
286.83500,-1.212694021
286.83550,-4.264638098
286.83600,-7.92697099
286.83650,-8.537359806
286.83700,-6.400998952
286.83750,-5.790610136
286.83800,-7.011387767
286.83850,-5.790610136
286.83900,0.008083609999
286.83950,7.332749395
286.84000,11.6054711
286.84050,11.91066551
286.84100,9.469110249
286.84150,5.196388541
286.84200,1.228861241
286.84250,0.008083609999
286.84300,0.008083609999
286.84350,-2.128277244
286.84400,-6.095804544
286.84450,-7.011387767
286.84500,-1.517888429
286.84550,5.806777356
286.84600,9.163915841
286.84650,6.722360579
286.84700,2.754833279
286.84750,-0.2971107977
286.84800,-3.349054875
286.84850,-5.180221321
286.84900,-4.875026913
286.84950,-3.043860467
286.85000,-1.823082836
286.85050,-1.517888429
286.85100,-0.6023052054
286.85150,-0.2971107977
286.85200,-1.517888429
286.85250,-3.654249282
286.85300,-4.264638098
286.85350,-4.569832506
286.85400,-5.485415729
286.85450,-7.011387767
286.85500,-7.011387767
286.85550,-4.875026913
286.85600,-3.349054875
286.85650,-2.433471652
286.85700,-1.212694021
286.85750,0.008083609999
286.85800,1.228861241
286.85850,2.449638872
286.85900,3.670416502
286.85950,4.280805318
286.86000,3.365222095
286.86050,2.144444464
286.86100,1.839250056
286.86150,2.449638872
286.86200,1.534055649
286.86250,0.008083609999
286.86300,0.008083609999
286.86350,1.228861241
286.86400,1.534055649
286.86450,0.6184724254
286.86500,0.008083609999
286.86550,0.008083609999
286.86600,0.3132780177
286.86650,0.008083609999
286.86700,0.008083609999
286.86750,0.008083609999
286.86800,-0.6023052054
286.86850,-2.738666059
286.86900,-4.569832506
286.86950,-5.485415729
286.87000,-5.180221321
286.87050,-4.875026913
286.87100,-4.875026913
286.87150,-4.264638098
286.87200,-3.349054875
286.87250,-1.823082836
286.87300,-0.6023052054
286.87350,0.008083609999
286.87400,0.9236668331
286.87450,1.534055649
286.87500,1.228861241
286.87550,-0.2971107977
286.87600,-2.738666059
286.87650,-4.569832506
286.87700,-4.264638098
286.87750,-3.043860467
286.87800,-2.433471652
286.87850,-1.517888429
286.87900,0.008083609999
286.87950,1.534055649
286.88000,0.9236668331
286.88050,-0.2971107977
286.88100,0.008083609999
286.88150,3.365222095
286.88200,6.111971764
286.88250,7.027554987
286.88300,8.248332618
286.88350,10.38469347
286.88400,9.163915841
286.88450,2.449638872
286.88500,-4.264638098
286.88550,-4.875026913
286.88600,0.6184724254
286.88650,5.196388541
286.88700,4.891194133
286.88750,2.144444464
286.88800,0.008083609999
286.88850,-0.6023052054
286.88900,-1.517888429
286.88950,-0.9074996131
286.89000,1.534055649
286.89050,3.060027687
286.89100,1.534055649
286.89150,0.008083609999
286.89200,1.534055649
286.89250,4.585999726
286.89300,4.585999726
286.89350,1.839250056
286.89400,0.3132780177
286.89450,0.3132780177
286.89500,0.008083609999
286.89550,-2.128277244
286.89600,-5.180221321
286.89650,-6.400998952
286.89700,-5.790610136
286.89750,-3.654249282
286.89800,0.008083609999
286.89850,3.97561091
286.89900,6.417166172
286.89950,6.722360579
286.90000,6.417166172
286.90050,5.501582949
286.90100,3.97561091
286.90150,1.839250056
286.90200,0.008083609999
286.90250,-1.212694021
286.90300,-2.433471652
286.90350,-3.349054875
286.90400,-3.043860467
286.90450,-1.823082836
286.90500,-0.6023052054
286.90550,0.9236668331
286.90600,4.280805318
286.90650,7.027554987
286.90700,7.027554987
286.90750,3.97561091
286.90800,0.9236668331
286.90850,0.008083609999
286.90900,0.6184724254
286.90950,0.3132780177
286.91000,-0.9074996131
286.91050,-3.043860467
286.91100,-5.180221321
286.91150,-7.621776583
286.91200,-10.06333184
286.91250,-11.28410947
286.91300,-8.537359806
286.91350,-1.517888429
286.91400,5.196388541
286.91450,7.637943803
286.91500,4.585999726
286.91550,0.008083609999
286.91600,-2.128277244
286.91650,-2.128277244
286.91700,-1.517888429
286.91750,-1.517888429
286.91800,-1.212694021
286.91850,-1.517888429
286.91900,-1.212694021
286.91950,0.9236668331
286.92000,6.111971764
286.92050,11.91066551
286.92100,13.43663755
286.92150,9.774304656
286.92200,4.891194133
286.92250,3.670416502
286.92300,6.722360579
286.92350,10.07949906
286.92400,10.68988788
286.92450,9.469110249
286.92500,8.858721433
286.92550,8.858721433
286.92600,8.858721433
286.92650,9.469110249
286.92700,9.469110249
286.92750,7.637943803
286.92800,3.670416502
286.92850,0.008083609999
286.92900,-1.823082836
286.92950,-3.349054875
286.93000,-9.452943029
286.93050,-19.52435848
286.93100,-27.15421868
286.93150,-27.15421868
286.93200,-22.57630256
286.93250,-18.30358085
286.93300,-16.16722
286.93350,-13.42047033
286.93400,-9.147748621
286.93450,-6.095804544
286.93500,-5.485415729
286.93550,-5.485415729
286.93600,-4.264638098
286.93650,-1.823082836
286.93700,-0.6023052054
286.93750,-0.9074996131
286.93800,-1.517888429
286.93850,-1.517888429
286.93900,-1.823082836
286.93950,-3.95944369
286.94000,-5.180221321
286.94050,-2.433471652
286.94100,3.97561091
286.94150,9.469110249
286.94200,10.07949906
286.94250,7.637943803
286.94300,6.111971764
286.94350,7.332749395
286.94400,9.469110249
286.94450,9.469110249
286.94500,6.722360579
286.94550,3.060027687
286.94600,1.228861241
286.94650,2.144444464
286.94700,2.144444464
286.94750,-1.517888429
286.94800,-8.232165398
286.94850,-12.50488711
286.94900,-12.1996927
286.94950,-8.537359806
286.95000,-5.180221321
286.95050,-2.738666059
286.95100,-0.6023052054
286.95150,-0.2971107977
286.95200,-1.212694021
286.95250,-2.433471652
286.95300,-3.043860467
286.95350,-3.349054875
286.95400,-3.95944369
286.95450,-3.654249282
286.95500,-2.128277244
286.95550,-1.212694021
286.95600,-0.9074996131
286.95650,0.008083609999
286.95700,1.534055649
286.95750,1.534055649
286.95800,-0.9074996131
286.95850,-3.654249282
286.95900,-1.823082836
286.95950,3.365222095
286.96000,7.94313821
286.96050,9.163915841
286.96100,8.248332618
286.96150,6.722360579
286.96200,6.111971764
286.96250,7.027554987
286.96300,8.248332618
286.96350,9.469110249
286.96400,9.774304656
286.96450,9.469110249
286.96500,9.163915841
286.96550,7.027554987
286.96600,3.365222095
286.96650,0.6184724254
286.96700,-0.2971107977
286.96750,-1.823082836
286.96800,-5.485415729
286.96850,-8.842554213
286.96900,-9.147748621
286.96950,-6.400998952
286.97000,-3.043860467
286.97050,-0.9074996131
286.97100,0.3132780177
286.97150,0.9236668331
286.97200,0.6184724254
286.97250,0.6184724254
286.97300,0.6184724254
286.97350,0.3132780177
286.97400,0.008083609999
286.97450,-0.2971107977
286.97500,0.3132780177
286.97550,1.228861241
286.97600,1.228861241
286.97650,0.3132780177
286.97700,-1.517888429
286.97750,-3.654249282
286.97800,-4.264638098
286.97850,-1.212694021
286.97900,3.97561091
286.97950,7.027554987
286.98000,4.891194133
286.98050,0.008083609999
286.98100,-2.738666059
286.98150,-2.738666059
286.98200,-3.043860467
286.98250,-5.790610136
286.98300,-7.316582175
286.98350,-4.264638098
286.98400,1.839250056
286.98450,4.891194133
286.98500,2.449638872
286.98550,-1.212694021
286.98600,-0.6023052054
286.98650,3.670416502
286.98700,7.332749395
286.98750,6.111971764
286.98800,3.060027687
286.98850,2.449638872
286.98900,4.280805318
286.98950,5.501582949
286.99000,5.501582949
286.99050,5.196388541
286.99100,4.280805318
286.99150,2.754833279
286.99200,0.6184724254
286.99250,0.008083609999
286.99300,-0.9074996131
286.99350,-3.043860467
286.99400,-5.180221321
286.99450,-4.569832506
286.99500,-0.9074996131
286.99550,0.9236668331
286.99600,0.6184724254
286.99650,0.008083609999
286.99700,1.534055649
286.99750,5.501582949
286.99800,7.94313821
286.99850,7.027554987
286.99900,4.280805318
286.99950,2.144444464
287.00000,2.144444464
287.00050,3.670416502
287.00100,4.891194133
287.00150,4.891194133
287.00200,3.670416502
287.00250,2.754833279
287.00300,2.144444464
287.00350,1.839250056
287.00400,1.228861241
287.00450,0.008083609999
287.00500,-1.212694021
287.00550,-1.212694021
287.00600,-0.6023052054
287.00650,0.008083609999
287.00700,-0.2971107977
287.00750,-0.9074996131
287.00800,-0.6023052054
287.00850,0.008083609999
287.00900,-0.9074996131
287.00950,-3.043860467
287.01000,-3.95944369
287.01050,-3.043860467
287.01100,-3.349054875
287.01150,-6.400998952
287.01200,-10.36852625
287.01250,-11.89449829
287.01300,-10.97891507
287.01350,-9.452943029
287.01400,-8.842554213
287.01450,-7.316582175
287.01500,-4.875026913
287.01550,-2.433471652
287.01600,-2.128277244
287.01650,-3.043860467
287.01700,-3.95944369
287.01750,-4.264638098
287.01800,-2.738666059
287.01850,0.3132780177
287.01900,3.060027687
287.01950,3.670416502
287.02000,1.534055649
287.02050,-0.9074996131
287.02100,-2.433471652
287.02150,-2.433471652
287.02200,-1.823082836
287.02250,-1.517888429
287.02300,-2.128277244
287.02350,-3.349054875
287.02400,-3.95944369
287.02450,-4.264638098
287.02500,-3.043860467
287.02550,-1.823082836
287.02600,-1.823082836
287.02650,-2.433471652
287.02700,-2.128277244
287.02750,0.008083609999
287.02800,1.534055649
287.02850,0.9236668331
287.02900,-0.6023052054
287.02950,-1.823082836
287.03000,-2.433471652
287.03050,-4.264638098
287.03100,-6.400998952
287.03150,-6.400998952
287.03200,-2.128277244
287.03250,3.97561091
287.03300,8.858721433
287.03350,11.30027669
287.03400,11.91066551
287.03450,11.6054711
287.03500,10.99508229
287.03550,10.07949906
287.03600,9.163915841
287.03650,9.163915841
287.03700,10.07949906
287.03750,11.30027669
287.03800,11.30027669
287.03850,8.553527026
287.03900,4.585999726
287.03950,0.008083609999
287.04000,-5.485415729
287.04050,-12.50488711
287.04100,-17.08280322
287.04150,-17.08280322
287.04200,-14.03085914
287.04250,-12.81008151
287.04300,-12.1996927
287.04350,-9.147748621
287.04400,-5.485415729
287.04450,-5.180221321
287.04500,-7.011387767
287.04550,-4.569832506
287.04600,2.754833279
287.04650,8.248332618
287.04700,6.111971764
287.04750,0.9236668331
287.04800,-2.128277244
287.04850,-3.654249282
287.04900,-5.790610136
287.04950,-5.790610136
287.05000,-2.433471652
287.05050,0.008083609999
287.05100,-1.212694021
287.05150,-1.823082836
287.05200,1.839250056
287.05250,7.332749395
287.05300,7.637943803
287.05350,3.97561091
287.05400,1.228861241
287.05450,1.228861241
287.05500,1.228861241
287.05550,1.228861241
287.05600,4.280805318
287.05650,9.469110249
287.05700,11.91066551
287.05750,9.469110249
287.05800,5.501582949
287.05850,3.365222095
287.05900,3.060027687
287.05950,3.365222095
287.06000,2.449638872
287.06050,0.3132780177
287.06100,-2.128277244
287.06150,-3.349054875
287.06200,-1.212694021
287.06250,1.534055649
287.06300,3.365222095
287.06350,3.97561091
287.06400,4.585999726
287.06450,4.585999726
287.06500,2.754833279
287.06550,0.008083609999
287.06600,-1.212694021
287.06650,-0.9074996131
287.06700,0.008083609999
287.06750,3.365222095
287.06800,7.94313821
287.06850,10.38469347
287.06900,7.027554987
287.06950,0.008083609999
287.07000,-5.180221321
287.07050,-7.011387767
287.07100,-7.011387767
287.07150,-7.621776583
287.07200,-8.232165398
287.07250,-6.706193359
287.07300,-4.569832506
287.07350,-3.043860467
287.07400,-2.128277244
287.07450,-0.6023052054
287.07500,0.6184724254
287.07550,1.534055649
287.07600,1.839250056
287.07650,0.9236668331
287.07700,0.008083609999
287.07750,-0.6023052054
287.07800,0.008083609999
287.07850,0.9236668331
287.07900,0.9236668331
287.07950,0.008083609999
287.08000,-1.212694021
287.08050,-1.823082836
287.08100,-1.823082836
287.08150,-2.128277244
287.08200,-2.128277244
287.08250,-1.212694021
287.08300,0.008083609999
287.08350,0.008083609999
287.08400,-0.6023052054
287.08450,-0.2971107977
287.08500,0.9236668331
287.08550,2.144444464
287.08600,2.754833279
287.08650,3.670416502
287.08700,6.111971764
287.08750,7.332749395
287.08800,5.196388541
287.08850,0.6184724254
287.08900,-2.128277244
287.08950,-2.433471652
287.09000,-1.517888429
287.09050,-1.212694021
287.09100,-2.128277244
287.09150,-3.654249282
287.09200,-5.485415729
287.09250,-6.706193359
287.09300,-7.011387767
287.09350,-7.621776583
287.09400,-8.842554213
287.09450,-9.758137436
287.09500,-9.452943029
287.09550,-8.537359806
287.09600,-7.92697099
287.09650,-5.790610136
287.09700,-1.823082836
287.09750,1.534055649
287.09800,1.839250056
287.09850,0.3132780177
287.09900,1.228861241
287.09950,5.501582949
287.10000,8.858721433
287.10050,8.553527026
287.10100,5.806777356
287.10150,3.97561091
287.10200,4.280805318
287.10250,4.280805318
287.10300,2.144444464
287.10350,-1.823082836
287.10400,-5.790610136
287.10450,-7.92697099
287.10500,-8.842554213
287.10550,-10.06333184
287.10600,-10.67372066
287.10650,-8.537359806
287.10700,-2.433471652
287.10750,4.585999726
287.10800,10.68988788
287.10850,14.04702636
287.10900,14.65741518
287.10950,13.13144314
287.11000,12.21585992
287.11050,14.65741518
287.11100,18.01455366
287.11150,16.18338722
287.11200,7.637943803
287.11250,0.008083609999
287.11300,0.008083609999
287.11350,4.891194133
287.11400,7.332749395
287.11450,2.754833279
287.11500,-3.654249282
287.11550,-7.92697099
287.11600,-9.452943029
287.11650,-9.758137436
287.11700,-9.147748621
287.11750,-7.316582175
287.11800,-5.485415729
287.11850,-3.654249282
287.11900,-1.517888429
287.11950,0.3132780177
287.12000,1.228861241
287.12050,0.6184724254
287.12100,0.3132780177
287.12150,1.534055649
287.12200,2.754833279
287.12250,2.754833279
287.12300,2.449638872
287.12350,2.449638872
287.12400,1.534055649
287.12450,-0.2971107977
287.12500,-2.738666059
287.12550,-4.875026913
287.12600,-7.92697099
287.12650,-10.36852625
287.12700,-9.452943029
287.12750,-4.875026913
287.12800,-1.212694021
287.12850,-2.433471652
287.12900,-5.180221321
287.12950,-3.349054875
287.13000,1.839250056
287.13050,3.365222095
287.13100,0.008083609999
287.13150,-2.738666059
287.13200,-0.2971107977
287.13250,4.280805318
287.13300,5.196388541
287.13350,2.449638872
287.13400,-0.2971107977
287.13450,-1.517888429
287.13500,-3.043860467
287.13550,-4.875026913
287.13600,-5.790610136
287.13650,-6.095804544
287.13700,-4.875026913
287.13750,-0.9074996131
287.13800,5.806777356
287.13850,11.6054711
287.13900,10.99508229
287.13950,5.806777356
287.14000,2.144444464
287.14050,3.670416502
287.14100,7.332749395
287.14150,8.553527026
287.14200,8.248332618
287.14250,8.553527026
287.14300,9.469110249
287.14350,8.858721433
287.14400,7.332749395
287.14450,7.332749395
287.14500,8.248332618
287.14550,7.027554987
287.14600,2.449638872
287.14650,-0.9074996131
287.14700,-0.2971107977
287.14750,0.6184724254
287.14800,-2.738666059
287.14850,-11.28410947
287.14900,-18.30358085
287.14950,-19.52435848
287.15000,-16.77760881
287.15050,-12.81008151
287.15100,-9.147748621
287.15150,-6.095804544
287.15200,-5.485415729
287.15250,-7.316582175
287.15300,-9.452943029
287.15350,-8.537359806
287.15400,-5.485415729
287.15450,-2.738666059
287.15500,-2.128277244
287.15550,-1.517888429
287.15600,0.008083609999
287.15650,3.365222095
287.15700,5.501582949
287.15750,4.891194133
287.15800,1.839250056
287.15850,-0.2971107977
287.15900,0.3132780177
287.15950,3.060027687
287.16000,4.280805318
287.16050,3.365222095
287.16100,2.449638872
287.16150,3.060027687
287.16200,3.670416502
287.16250,4.280805318
287.16300,5.806777356
287.16350,7.637943803
287.16400,7.637943803
287.16450,4.585999726
287.16500,1.534055649
287.16550,0.3132780177
287.16600,0.3132780177
287.16650,0.008083609999
287.16700,0.008083609999
287.16750,0.9236668331
287.16800,2.754833279
287.16850,2.449638872
287.16900,0.6184724254
287.16950,-0.2971107977
287.17000,-0.2971107977
287.17050,0.008083609999
287.17100,-1.517888429
287.17150,-4.569832506
287.17200,-6.095804544
287.17250,-4.569832506
287.17300,-2.433471652
287.17350,-1.517888429
287.17400,-1.823082836
287.17450,0.008083609999
287.17500,4.891194133
287.17550,7.94313821
287.17600,6.417166172
287.17650,2.449638872
287.17700,0.6184724254
287.17750,1.228861241
287.17800,0.008083609999
287.17850,-4.264638098
287.17900,-8.232165398
287.17950,-7.011387767
287.18000,-1.517888429
287.18050,4.585999726
287.18100,8.553527026
287.18150,9.469110249
287.18200,6.722360579
287.18250,1.534055649
287.18300,-2.128277244
287.18350,-2.433471652
287.18400,-0.6023052054
287.18450,0.008083609999
287.18500,0.008083609999
287.18550,0.9236668331
287.18600,3.670416502
287.18650,4.585999726
287.18700,2.144444464
287.18750,-0.2971107977
287.18800,0.008083609999
287.18850,1.839250056
287.18900,1.534055649
287.18950,-0.9074996131
287.19000,-2.433471652
287.19050,0.008083609999
287.19100,3.97561091
287.19150,4.891194133
287.19200,2.144444464
287.19250,-1.212694021
287.19300,-3.043860467
287.19350,-3.654249282
287.19400,-5.180221321
287.19450,-6.706193359
287.19500,-4.569832506
287.19550,1.534055649
287.19600,8.553527026
287.19650,11.6054711
287.19700,9.469110249
287.19750,5.196388541
287.19800,2.449638872
287.19850,1.839250056
287.19900,2.144444464
287.19950,2.449638872
287.20000,2.144444464
287.20050,1.839250056
287.20100,0.3132780177
287.20150,-1.823082836
287.20200,-3.043860467
287.20250,-2.128277244
287.20300,-0.6023052054
287.20350,-0.9074996131
287.20400,-2.433471652
287.20450,-3.349054875
287.20500,-2.738666059
287.20550,-2.738666059
287.20600,-4.264638098
287.20650,-6.095804544
287.20700,-6.706193359
287.20750,-7.011387767
287.20800,-8.842554213
287.20850,-10.06333184
287.20900,-8.842554213
287.20950,-6.095804544
287.21000,-5.485415729
287.21050,-6.400998952
287.21100,-3.95944369
287.21150,4.280805318
287.21200,12.52105433
287.21250,12.52105433
287.21300,3.365222095
287.21350,-7.92697099
287.21400,-14.03085914
287.21450,-13.11527592
287.21500,-8.232165398
287.21550,-3.349054875
287.21600,-1.517888429
287.21650,-3.349054875
287.21700,-4.569832506
287.21750,-0.9074996131
287.21800,5.806777356
287.21850,10.07949906
287.21900,8.553527026
287.21950,5.501582949
287.22000,5.806777356
287.22050,8.248332618
287.22100,7.637943803
287.22150,3.670416502
287.22200,1.228861241
287.22250,3.060027687
287.22300,6.111971764
287.22350,6.417166172
287.22400,4.585999726
287.22450,4.585999726
287.22500,5.196388541
287.22550,4.280805318
287.22600,0.9236668331
287.22650,-0.6023052054
287.22700,0.6184724254
287.22750,2.449638872
287.22800,2.144444464
287.22850,0.008083609999
287.22900,-0.9074996131
287.22950,-2.128277244
287.23000,-5.180221321
287.23050,-9.452943029
287.23100,-11.28410947
287.23150,-10.97891507
287.23200,-11.89449829
287.23250,-14.64124796
287.23300,-13.72566474
287.23350,-4.569832506
287.23400,7.332749395
287.23450,13.13144314
287.23500,9.163915841
287.23550,2.754833279
287.23600,0.008083609999
287.23650,-0.9074996131
287.23700,-1.823082836
287.23750,-2.128277244
287.23800,-0.6023052054
287.23850,0.6184724254
287.23900,0.008083609999
287.23950,-1.517888429
287.24000,-0.6023052054
287.24050,1.228861241
287.24100,2.144444464
287.24150,1.228861241
287.24200,0.008083609999
287.24250,0.008083609999
287.24300,0.008083609999
287.24350,0.6184724254
287.24400,2.144444464
287.24450,3.670416502
287.24500,3.060027687
287.24550,0.9236668331
287.24600,0.008083609999
287.24650,1.228861241
287.24700,3.060027687
287.24750,1.839250056
287.24800,-1.212694021
287.24850,-4.264638098
287.24900,-5.180221321
287.24950,-5.180221321
287.25000,-5.180221321
287.25050,-5.180221321
287.25100,-4.569832506
287.25150,-3.95944369
287.25200,-3.349054875
287.25250,-1.517888429
287.25300,1.534055649
287.25350,4.585999726
287.25400,6.111971764
287.25450,7.332749395
287.25500,9.774304656
287.25550,10.99508229
287.25600,7.94313821
287.25650,2.449638872
287.25700,0.9236668331
287.25750,3.365222095
287.25800,3.97561091
287.25850,-1.517888429
287.25900,-10.06333184
287.25950,-14.33605355
287.26000,-12.50488711
287.26050,-8.232165398
287.26100,-4.569832506
287.26150,-2.433471652
287.26200,-1.212694021
287.26250,-1.517888429
287.26300,-3.043860467
287.26350,-3.95944369
287.26400,-3.043860467
287.26450,-0.9074996131
287.26500,0.9236668331
287.26550,2.449638872
287.26600,1.839250056
287.26650,0.9236668331
287.26700,0.008083609999
287.26750,-1.212694021
287.26800,-3.043860467
287.26850,-4.875026913
287.26900,-4.569832506
287.26950,-3.349054875
287.27000,-2.738666059
287.27050,-2.128277244
287.27100,0.3132780177
287.27150,3.97561091
287.27200,4.585999726
287.27250,1.839250056
287.27300,-0.2971107977
287.27350,0.008083609999
287.27400,0.9236668331
287.27450,-0.2971107977
287.27500,-2.433471652
287.27550,-1.823082836
287.27600,0.6184724254
287.27650,2.754833279
287.27700,2.144444464
287.27750,0.9236668331
287.27800,0.6184724254
287.27850,1.534055649
287.27900,2.754833279
287.27950,3.97561091
287.28000,3.670416502
287.28050,2.144444464
287.28100,1.228861241
287.28150,2.449638872
287.28200,4.280805318
287.28250,4.585999726
287.28300,2.449638872
287.28350,0.008083609999
287.28400,-1.212694021
287.28450,-1.517888429
287.28500,-1.517888429
287.28550,-1.212694021
287.28600,0.008083609999
287.28650,1.534055649
287.28700,4.280805318
287.28750,5.806777356
287.28800,5.196388541
287.28850,3.365222095
287.28900,2.449638872
287.28950,2.754833279
287.29000,3.365222095
287.29050,3.060027687
287.29100,1.534055649
287.29150,-0.2971107977
287.29200,-1.517888429
287.29250,0.008083609999
287.29300,4.280805318
287.29350,9.469110249
287.29400,10.07949906
287.29450,5.806777356
287.29500,0.008083609999
287.29550,-2.128277244
287.29600,-1.823082836
287.29650,-1.517888429
287.29700,-2.128277244
287.29750,-2.433471652
287.29800,-0.9074996131
287.29850,0.9236668331
287.29900,1.839250056
287.29950,0.9236668331
287.30000,-0.6023052054
287.30050,-0.6023052054
287.30100,1.228861241
287.30150,3.060027687
287.30200,1.534055649
287.30250,-1.212694021
287.30300,-2.433471652
287.30350,-1.517888429
287.30400,-2.128277244
287.30450,-5.180221321
287.30500,-7.621776583
287.30550,-6.400998952
287.30600,-2.433471652
287.30650,-0.6023052054
287.30700,-2.433471652
287.30750,-5.485415729
287.30800,-6.706193359
287.30850,-5.180221321
287.30900,-2.433471652
287.30950,-1.212694021
287.31000,-2.128277244
287.31050,-2.128277244
287.31100,0.6184724254
287.31150,4.585999726
287.31200,4.891194133
287.31250,0.6184724254
287.31300,-3.654249282
287.31350,-3.349054875
287.31400,-0.2971107977
287.31450,1.228861241
287.31500,0.9236668331
287.31550,0.008083609999
287.31600,0.008083609999
287.31650,-0.2971107977
287.31700,0.008083609999
287.31750,0.6184724254
287.31800,1.534055649
287.31850,2.449638872
287.31900,3.97561091
287.31950,7.332749395
287.32000,12.21585992
287.32050,14.35222077
287.32100,10.68988788
287.32150,3.365222095
287.32200,-0.9074996131
287.32250,-0.9074996131
287.32300,0.6184724254
287.32350,0.3132780177
287.32400,-1.517888429
287.32450,-1.517888429
287.32500,1.534055649
287.32550,5.806777356
287.32600,7.027554987
287.32650,5.806777356
287.32700,4.280805318
287.32750,2.754833279
287.32800,0.3132780177
287.32850,-4.569832506
287.32900,-11.28410947
287.32950,-17.99838644
287.33000,-20.74513611
287.33050,-17.08280322
287.33100,-8.537359806
287.33150,-0.6023052054
287.33200,1.228861241
287.33250,-1.212694021
287.33300,-4.264638098
287.33350,-3.95944369
287.33400,-2.433471652
287.33450,-2.433471652
287.33500,-4.264638098
287.33550,-5.790610136
287.33600,-5.180221321
287.33650,-3.654249282
287.33700,-1.823082836
287.33750,-0.9074996131
287.33800,-0.2971107977
287.33850,-0.2971107977
287.33900,0.008083609999
287.33950,0.3132780177
287.34000,0.6184724254
287.34050,0.008083609999
287.34100,-1.823082836
287.34150,-3.043860467
287.34200,-2.433471652
287.34250,-0.6023052054
287.34300,0.008083609999
287.34350,-0.6023052054
287.34400,-1.823082836
287.34450,-1.212694021
287.34500,0.008083609999
287.34550,1.228861241
287.34600,1.228861241
287.34650,1.534055649
287.34700,4.585999726
287.34750,9.163915841
287.34800,11.91066551
287.34850,9.163915841
287.34900,1.839250056
287.34950,-3.043860467
287.35000,-3.043860467
287.35050,-0.6023052054
287.35100,-0.6023052054
287.35150,-2.433471652
287.35200,-2.433471652
287.35250,0.008083609999
287.35300,0.9236668331
287.35350,0.008083609999
287.35400,-0.6023052054
287.35450,1.839250056
287.35500,5.196388541
287.35550,4.280805318
287.35600,0.6184724254
287.35650,0.008083609999
287.35700,2.754833279
287.35750,6.417166172
287.35800,9.163915841
287.35850,10.99508229
287.35900,11.91066551
287.35950,10.68988788
287.36000,7.94313821
287.36050,7.027554987
287.36100,7.94313821
287.36150,7.027554987
287.36200,3.97561091
287.36250,2.144444464
287.36300,3.060027687
287.36350,3.670416502
287.36400,1.534055649
287.36450,0.6184724254
287.36500,3.365222095
287.36550,5.501582949
287.36600,1.228861241
287.36650,-7.316582175
287.36700,-14.03085914
287.36750,-15.55683118
287.36800,-14.33605355
287.36850,-12.81008151
287.36900,-11.58930388
287.36950,-11.89449829
287.37000,-14.03085914
287.37050,-13.72566474
287.37100,-8.232165398
287.37150,-0.2971107977
287.37200,3.97561091
287.37250,3.365222095
287.37300,0.6184724254
287.37350,-2.128277244
287.37400,-4.875026913
287.37450,-4.569832506
287.37500,-0.6023052054
287.37550,3.365222095
287.37600,4.585999726
287.37650,3.060027687
287.37700,1.839250056
287.37750,0.008083609999
287.37800,-3.654249282
287.37850,-4.264638098
287.37900,3.670416502
287.37950,16.79377603
287.38000,23.2028586
287.38050,18.93013689
287.38100,11.91066551
287.38150,8.858721433
287.38200,7.94313821
287.38250,5.806777356
287.38300,3.670416502
287.38350,3.670416502
287.38400,4.280805318
287.38450,2.754833279
287.38500,0.3132780177
287.38550,0.008083609999
287.38600,0.3132780177
287.38650,0.008083609999
287.38700,-1.823082836
287.38750,-5.485415729
287.38800,-7.621776583
287.38850,-7.011387767
287.38900,-3.043860467
287.38950,0.3132780177
287.39000,0.6184724254
287.39050,-0.2971107977
287.39100,-0.2971107977
287.39150,0.6184724254
287.39200,0.008083609999
287.39250,-2.738666059
287.39300,-4.264638098
287.39350,-3.043860467
287.39400,-1.823082836
287.39450,-3.349054875
287.39500,-5.790610136
287.39550,-7.621776583
287.39600,-8.232165398
287.39650,-7.316582175
287.39700,-3.654249282
287.39750,1.839250056
287.39800,5.501582949
287.39850,5.501582949
287.39900,4.585999726
287.39950,4.585999726
287.40000,4.891194133
287.40050,2.754833279
287.40100,0.008083609999
287.40150,-1.212694021
287.40200,-0.6023052054
287.40250,-0.6023052054
287.40300,-2.433471652
287.40350,-3.043860467
287.40400,-1.823082836
287.40450,0.008083609999
287.40500,0.3132780177
287.40550,1.228861241
287.40600,4.280805318
287.40650,7.027554987
287.40700,5.501582949
287.40750,0.6184724254
287.40800,-2.738666059
287.40850,-3.654249282
287.40900,-4.875026913
287.40950,-9.452943029
287.41000,-13.72566474
287.41050,-12.81008151
287.41100,-8.842554213
287.41150,-6.095804544
287.41200,-5.485415729
287.41250,-4.264638098
287.41300,-1.823082836
287.41350,-0.9074996131
287.41400,-0.2971107977
287.41450,1.839250056
287.41500,6.417166172
287.41550,9.469110249
287.41600,8.248332618
287.41650,3.97561091
287.41700,0.008083609999
287.41750,-2.433471652
287.41800,-3.95944369
287.41850,-3.349054875
287.41900,-1.212694021
287.41950,0.3132780177
287.42000,0.3132780177
287.42050,0.008083609999
287.42100,1.228861241
287.42150,2.754833279
287.42200,3.97561091
287.42250,3.97561091
287.42300,2.754833279
287.42350,0.008083609999
287.42400,-2.128277244
287.42450,-3.654249282
287.42500,-3.043860467
287.42550,-2.128277244
287.42600,-2.128277244
287.42650,-1.517888429
287.42700,0.008083609999
287.42750,2.754833279
287.42800,3.670416502
287.42850,1.228861241
287.42900,-2.433471652
287.42950,-5.180221321
287.43000,-4.875026913
287.43050,-2.738666059
287.43100,-1.212694021
287.43150,-1.823082836
287.43200,-2.738666059
287.43250,-2.128277244
287.43300,0.008083609999
287.43350,2.144444464
287.43400,2.449638872
287.43450,1.228861241
287.43500,0.008083609999
287.43550,0.008083609999
287.43600,1.534055649
287.43650,2.449638872
287.43700,1.534055649
287.43750,-0.6023052054
287.43800,-1.517888429
287.43850,-0.9074996131
287.43900,-0.2971107977
287.43950,-0.9074996131
287.44000,-1.823082836
287.44050,-1.517888429
287.44100,0.008083609999
287.44150,2.754833279
287.44200,6.722360579
287.44250,11.30027669
287.44300,13.74183196
287.44350,10.99508229
287.44400,4.585999726
287.44450,-0.6023052054
287.44500,-1.823082836
287.44550,0.008083609999
287.44600,2.144444464
287.44650,4.585999726
287.44700,6.111971764
287.44750,5.196388541
287.44800,0.3132780177
287.44850,-5.180221321
287.44900,-7.316582175
287.44950,-4.569832506
287.45000,-0.9074996131
287.45050,-0.9074996131
287.45100,-3.043860467
287.45150,-4.264638098
287.45200,-4.264638098
287.45250,-6.400998952
287.45300,-10.06333184
287.45350,-10.67372066
287.45400,-6.095804544
287.45450,0.3132780177
287.45500,5.196388541
287.45550,6.417166172
287.45600,5.501582949
287.45650,3.060027687
287.45700,-0.6023052054
287.45750,-4.569832506
287.45800,-6.400998952
287.45850,-4.569832506
287.45900,0.9236668331
287.45950,8.248332618
287.46000,12.52105433
287.46050,11.30027669
287.46100,7.027554987
287.46150,5.196388541
287.46200,6.417166172
287.46250,5.196388541
287.46300,0.3132780177
287.46350,-3.043860467
287.46400,-1.823082836
287.46450,0.9236668331
287.46500,1.228861241
287.46550,0.008083609999
287.46600,-0.6023052054
287.46650,-1.823082836
287.46700,-3.95944369
287.46750,-4.264638098
287.46800,-2.433471652
287.46850,-0.9074996131
287.46900,-3.043860467
287.46950,-6.400998952
287.47000,-7.92697099
287.47050,-8.232165398
287.47100,-9.147748621
287.47150,-8.537359806
287.47200,-5.180221321
287.47250,-2.433471652
287.47300,-3.043860467
287.47350,-4.569832506
287.47400,-4.875026913
287.47450,-6.095804544
287.47500,-8.842554213
287.47550,-5.790610136
287.47600,7.637943803
287.47650,22.89766419
287.47700,26.25480267
287.47750,16.79377603
287.47800,6.722360579
287.47850,2.754833279
287.47900,1.228861241
287.47950,-3.043860467
287.48000,-9.147748621
287.48050,-11.58930388
287.48100,-8.842554213
287.48150,-3.95944369
287.48200,0.008083609999
287.48250,0.008083609999
287.48300,-3.349054875
287.48350,-6.400998952
287.48400,-5.485415729
287.48450,-0.9074996131
287.48500,1.839250056
287.48550,1.839250056
287.48600,0.6184724254
287.48650,0.3132780177
287.48700,0.008083609999
287.48750,-0.6023052054
287.48800,-0.6023052054
287.48850,0.3132780177
287.48900,1.228861241
287.48950,0.3132780177
287.49000,-1.823082836
287.49050,-4.875026913
287.49100,-6.706193359
287.49150,-6.706193359
287.49200,-5.790610136
287.49250,-6.400998952
287.49300,-7.92697099
287.49350,-7.316582175
287.49400,-3.654249282
287.49450,0.3132780177
287.49500,2.754833279
287.49550,3.365222095
287.49600,3.365222095
287.49650,3.670416502
287.49700,3.670416502
287.49750,4.585999726
287.49800,5.501582949
287.49850,5.806777356
287.49900,5.501582949
287.49950,6.111971764
287.50000,7.027554987
287.50050,5.501582949
287.50100,2.449638872
287.50150,2.754833279
287.50200,6.417166172
287.50250,8.248332618
287.50300,3.97561091
287.50350,-1.212694021
287.50400,-2.738666059
287.50450,-2.128277244
287.50500,-4.264638098
287.50550,-8.537359806
287.50600,-10.06333184
287.50650,-7.011387767
287.50700,-2.738666059
287.50750,0.008083609999
287.50800,0.3132780177
287.50850,0.008083609999
287.50900,-2.433471652
287.50950,-4.875026913
287.51000,-3.654249282
287.51050,0.008083609999
287.51100,2.449638872
287.51150,2.144444464
287.51200,0.6184724254
287.51250,-0.9074996131
287.51300,-2.738666059
287.51350,-3.654249282
287.51400,-3.043860467
287.51450,-3.043860467
287.51500,-5.180221321
287.51550,-6.095804544
287.51600,-1.517888429
287.51650,5.501582949
287.51700,8.553527026
287.51750,4.585999726
287.51800,-0.9074996131
287.51850,-2.433471652
287.51900,0.6184724254
287.51950,4.891194133
287.52000,7.637943803
287.52050,7.637943803
287.52100,5.196388541
287.52150,2.449638872
287.52200,2.144444464
287.52250,2.754833279
287.52300,1.839250056
287.52350,0.008083609999
287.52400,1.839250056
287.52450,7.332749395
287.52500,10.38469347
287.52550,6.722360579
287.52600,0.008083609999
287.52650,-1.823082836
287.52700,2.449638872
287.52750,7.332749395
287.52800,8.553527026
287.52850,7.332749395
287.52900,6.111971764
287.52950,4.585999726
287.53000,2.144444464
287.53050,0.008083609999
287.53100,-0.9074996131
287.53150,-0.9074996131
287.53200,-0.9074996131
287.53250,-1.517888429
287.53300,-1.517888429
287.53350,-1.212694021
287.53400,0.3132780177
287.53450,2.754833279
287.53500,3.670416502
287.53550,2.144444464
287.53600,-0.2971107977
287.53650,-1.212694021
287.53700,0.008083609999
287.53750,1.839250056
287.53800,3.060027687
287.53850,2.449638872
287.53900,1.839250056
287.53950,1.228861241
287.54000,1.534055649
287.54050,2.144444464
287.54100,1.839250056
287.54150,0.008083609999
287.54200,-2.738666059
287.54250,-4.875026913
287.54300,-6.400998952
287.54350,-8.232165398
287.54400,-8.537359806
287.54450,-5.180221321
287.54500,0.9236668331
287.54550,6.111971764
287.54600,6.111971764
287.54650,3.365222095
287.54700,3.060027687
287.54750,6.111971764
287.54800,8.858721433
287.54850,5.806777356
287.54900,-0.9074996131
287.54950,-6.400998952
287.55000,-5.790610136
287.55050,-1.823082836
287.55100,0.3132780177
287.55150,0.008083609999
287.55200,-1.517888429
287.55250,-2.433471652
287.55300,-2.433471652
287.55350,-2.128277244
287.55400,-1.823082836
287.55450,-2.128277244
287.55500,-2.738666059
287.55550,-3.95944369
287.55600,-4.264638098
287.55650,-3.95944369
287.55700,-3.654249282
287.55750,-3.043860467
287.55800,-2.128277244
287.55850,-1.212694021
287.55900,-0.9074996131
287.55950,-0.6023052054
287.56000,0.008083609999
287.56050,0.9236668331
287.56100,0.9236668331
287.56150,0.008083609999
287.56200,-1.212694021
287.56250,-0.6023052054
287.56300,0.6184724254
287.56350,1.839250056
287.56400,2.144444464
287.56450,2.449638872
287.56500,2.144444464
287.56550,1.839250056
287.56600,1.534055649
287.56650,2.449638872
287.56700,3.97561091
287.56750,4.280805318
287.56800,0.6184724254
287.56850,-7.011387767
287.56900,-14.64124796
287.56950,-16.47241441
287.57000,-11.28410947
287.57050,-4.569832506
287.57100,-1.517888429
287.57150,-2.128277244
287.57200,-2.738666059
287.57250,-2.128277244
287.57300,-0.9074996131
287.57350,0.008083609999
287.57400,1.228861241
287.57450,1.228861241
287.57500,-0.2971107977
287.57550,-2.433471652
287.57600,-1.212694021
287.57650,2.144444464
287.57700,4.280805318
287.57750,3.670416502
287.57800,3.060027687
287.57850,5.196388541
287.57900,9.469110249
287.57950,10.99508229
287.58000,8.248332618
287.58050,3.97561091
287.58100,1.534055649
287.58150,0.9236668331
287.58200,0.008083609999
287.58250,-1.823082836
287.58300,-2.433471652
287.58350,0.008083609999
287.58400,3.670416502
287.58450,3.365222095
287.58500,-0.6023052054
287.58550,-3.654249282
287.58600,-1.823082836
287.58650,1.534055649
287.58700,2.144444464
287.58750,0.008083609999
287.58800,-1.823082836
287.58850,-2.128277244
287.58900,-1.823082836
287.58950,-2.128277244
287.59000,-3.043860467
287.59050,-4.875026913
287.59100,-6.706193359
287.59150,-6.400998952
287.59200,-4.875026913
287.59250,-5.180221321
287.59300,-8.842554213
287.59350,-11.28410947
287.59400,-7.92697099
287.59450,0.3132780177
287.59500,7.332749395
287.59550,9.469110249
287.59600,9.469110249
287.59650,9.163915841
287.59700,8.248332618
287.59750,6.111971764
287.59800,3.060027687
287.59850,1.534055649
287.59900,1.839250056
287.59950,3.365222095
287.60000,5.196388541
287.60050,6.111971764
287.60100,5.501582949
287.60150,4.585999726
287.60200,4.280805318
287.60250,4.585999726
287.60300,4.891194133
287.60350,3.97561091
287.60400,2.449638872
287.60450,0.6184724254
287.60500,-0.6023052054
287.60550,-0.6023052054
287.60600,0.008083609999
287.60650,0.008083609999
287.60700,-1.823082836
287.60750,-3.95944369
287.60800,-3.95944369
287.60850,-2.433471652
287.60900,-1.823082836
287.60950,-2.128277244
287.61000,-3.654249282
287.61050,-6.400998952
287.61100,-10.06333184
287.61150,-12.1996927
287.61200,-11.28410947
287.61250,-8.842554213
287.61300,-8.537359806
287.61350,-10.06333184
287.61400,-9.452943029
287.61450,-5.790610136
287.61500,-2.128277244
287.61550,-1.517888429
287.61600,-2.433471652
287.61650,-0.6023052054
287.61700,2.754833279
287.61750,3.365222095
287.61800,0.6184724254
287.61850,-1.517888429
287.61900,0.008083609999
287.61950,4.280805318
287.62000,5.806777356
287.62050,4.280805318
287.62100,2.449638872
287.62150,2.754833279
287.62200,4.585999726
287.62250,6.722360579
287.62300,8.553527026
287.62350,9.163915841
287.62400,6.722360579
287.62450,3.060027687
287.62500,0.3132780177
287.62550,-1.517888429
287.62600,-4.569832506
287.62650,-8.537359806
287.62700,-10.67372066
287.62750,-9.452943029
287.62800,-7.316582175
287.62850,-6.400998952
287.62900,-6.095804544
287.62950,-4.875026913
287.63000,-3.654249282
287.63050,-3.654249282
287.63100,-4.875026913
287.63150,-5.180221321
287.63200,-2.433471652
287.63250,1.228861241
287.63300,4.280805318
287.63350,5.196388541
287.63400,3.060027687
287.63450,-0.6023052054
287.63500,-3.349054875
287.63550,-3.043860467
287.63600,-1.212694021
287.63650,0.008083609999
287.63700,-0.9074996131
287.63750,-1.517888429
287.63800,0.008083609999
287.63850,2.144444464
287.63900,2.754833279
287.63950,1.839250056
287.64000,2.144444464
287.64050,4.585999726
287.64100,8.248332618
287.64150,10.68988788
287.64200,11.6054711
287.64250,10.99508229
287.64300,9.774304656
287.64350,8.858721433
287.64400,7.94313821
287.64450,5.806777356
287.64500,2.754833279
287.64550,1.534055649
287.64600,2.449638872
287.64650,2.449638872
287.64700,-2.128277244
287.64750,-11.28410947
287.64800,-17.99838644
287.64850,-17.38799763
287.64900,-11.28410947
287.64950,-5.485415729
287.65000,-2.128277244
287.65050,0.008083609999
287.65100,3.97561091
287.65150,8.858721433
287.65200,11.6054711
287.65250,11.6054711
287.65300,10.99508229
287.65350,10.68988788
287.65400,8.248332618
287.65450,0.3132780177
287.65500,-12.1996927
287.65550,-23.18669138
287.65600,-26.23863545
287.65650,-19.82955289
287.65700,-9.452943029
287.65750,-1.823082836
287.65800,0.3132780177
287.65850,0.008083609999
287.65900,1.228861241
287.65950,3.365222095
287.66000,3.060027687
287.66050,-0.2971107977
287.66100,-2.738666059
287.66150,0.008083609999
287.66200,5.501582949
287.66250,7.027554987
287.66300,4.280805318
287.66350,2.144444464
287.66400,3.670416502
287.66450,5.806777356
287.66500,5.806777356
287.66550,4.280805318
287.66600,2.449638872
287.66650,-0.6023052054
287.66700,-5.485415729
287.66750,-6.095804544
287.66800,1.839250056
287.66850,14.35222077
287.66900,20.15091452
287.66950,15.5729984
287.67000,7.332749395
287.67050,1.839250056
287.67100,-0.6023052054
287.67150,-4.264638098
287.67200,-8.842554213
287.67250,-10.06333184
287.67300,-6.706193359
287.67350,-3.043860467
287.67400,-0.9074996131
287.67450,1.839250056
287.67500,7.332749395
287.67550,11.6054711
287.67600,10.68988788
287.67650,7.332749395
287.67700,6.111971764
287.67750,7.94313821
287.67800,8.248332618
287.67850,6.417166172
287.67900,4.891194133
287.67950,5.501582949
287.68000,5.806777356
287.68050,4.280805318
287.68100,2.449638872
287.68150,1.534055649
287.68200,0.6184724254
287.68250,-0.2971107977
287.68300,-0.9074996131
287.68350,0.008083609999
287.68400,0.9236668331
287.68450,0.008083609999
287.68500,-2.433471652
287.68550,-3.349054875
287.68600,-2.738666059
287.68650,-3.349054875
287.68700,-4.875026913
287.68750,-4.569832506
287.68800,-1.212694021
287.68850,2.449638872
287.68900,3.060027687
287.68950,0.008083609999
287.69000,-3.043860467
287.69050,-3.654249282
287.69100,-2.738666059
287.69150,-2.738666059
287.69200,-4.875026913
287.69250,-6.706193359
287.69300,-7.316582175
287.69350,-7.011387767
287.69400,-5.790610136
287.69450,-3.349054875
287.69500,0.008083609999
287.69550,1.839250056
287.69600,0.9236668331
287.69650,-1.517888429
287.69700,-2.433471652
287.69750,-2.128277244
287.69800,-1.823082836
287.69850,-2.433471652
287.69900,-3.043860467
287.69950,-2.738666059
287.70000,-2.738666059
287.70050,-3.043860467
287.70100,-2.738666059
287.70150,-2.433471652
287.70200,-2.738666059
287.70250,-3.349054875
287.70300,-3.349054875
287.70350,-3.654249282
287.70400,-4.569832506
287.70450,-4.264638098
287.70500,-1.823082836
287.70550,1.228861241
287.70600,1.534055649
287.70650,-1.517888429
287.70700,-4.569832506
287.70750,-4.875026913
287.70800,-3.043860467
287.70850,-1.823082836
287.70900,-2.128277244
287.70950,-3.349054875
287.71000,-4.875026913
287.71050,-4.569832506
287.71100,-2.738666059
287.71150,-1.212694021
287.71200,-1.517888429
287.71250,-2.738666059
287.71300,-1.823082836
287.71350,0.008083609999
287.71400,1.228861241
287.71450,0.008083609999
287.71500,-2.128277244
287.71550,-2.433471652
287.71600,-1.517888429
287.71650,0.008083609999
287.71700,1.228861241
287.71750,1.839250056
287.71800,1.228861241
287.71850,0.3132780177
287.71900,0.3132780177
287.71950,1.534055649
287.72000,2.449638872
287.72050,2.144444464
287.72100,1.534055649
287.72150,1.228861241
287.72200,0.9236668331
287.72250,1.534055649
287.72300,3.97561091
287.72350,7.94313821
287.72400,9.774304656
287.72450,7.332749395
287.72500,2.144444464
287.72550,-1.212694021
287.72600,-1.517888429
287.72650,-1.212694021
287.72700,-1.517888429
287.72750,-1.823082836
287.72800,-0.9074996131
287.72850,0.3132780177
287.72900,1.534055649
287.72950,2.754833279
287.73000,3.670416502
287.73050,2.449638872
287.73100,-0.9074996131
287.73150,-4.264638098
287.73200,-4.264638098
287.73250,-0.9074996131
287.73300,1.839250056
287.73350,2.754833279
287.73400,3.060027687
287.73450,3.97561091
287.73500,4.891194133
287.73550,3.97561091
287.73600,1.534055649
287.73650,0.008083609999
287.73700,0.008083609999
287.73750,0.6184724254
287.73800,0.008083609999
287.73850,-1.212694021
287.73900,-1.823082836
287.73950,-0.9074996131
287.74000,0.9236668331
287.74050,3.060027687
287.74100,4.585999726
287.74150,4.585999726
287.74200,3.060027687
287.74250,1.839250056
287.74300,2.449638872
287.74350,3.97561091
287.74400,5.806777356
287.74450,5.806777356
287.74500,5.196388541
287.74550,4.585999726
287.74600,4.891194133
287.74650,5.806777356
287.74700,5.806777356
287.74750,3.060027687
287.74800,-3.043860467
287.74850,-10.36852625
287.74900,-14.33605355
287.74950,-13.42047033
287.75000,-10.06333184
287.75050,-7.92697099
287.75100,-6.706193359
287.75150,-4.264638098
287.75200,-1.517888429
287.75250,-0.2971107977
287.75300,-0.9074996131
287.75350,-0.9074996131
287.75400,0.008083609999
287.75450,0.3132780177
287.75500,-1.212694021
287.75550,-3.349054875
287.75600,-2.128277244
287.75650,1.228861241
287.75700,5.196388541
287.75750,5.501582949
287.75800,3.060027687
287.75850,-0.6023052054
287.75900,-2.433471652
287.75950,-0.9074996131
287.76000,2.754833279
287.76050,5.501582949
287.76100,5.501582949
287.76150,3.365222095
287.76200,1.839250056
287.76250,1.534055649
287.76300,1.228861241
287.76350,0.008083609999
287.76400,0.008083609999
287.76450,2.144444464
287.76500,4.891194133
287.76550,5.501582949
287.76600,2.449638872
287.76650,-1.517888429
287.76700,-2.128277244
287.76750,1.534055649
287.76800,6.722360579
287.76850,8.553527026
287.76900,4.891194133
287.76950,0.3132780177
287.77000,-1.517888429
287.77050,-0.9074996131
287.77100,-0.2971107977
287.77150,-1.212694021
287.77200,-2.433471652
287.77250,-2.433471652
287.77300,-1.823082836
287.77350,-2.128277244
287.77400,-3.654249282
287.77450,-4.875026913
287.77500,-4.875026913
287.77550,-3.95944369
287.77600,-2.738666059
287.77650,-1.212694021
287.77700,-0.6023052054
287.77750,-1.212694021
287.77800,-2.433471652
287.77850,-2.433471652
287.77900,-0.2971107977
287.77950,1.839250056
287.78000,2.144444464
287.78050,0.3132780177
287.78100,-1.212694021
287.78150,-2.738666059
287.78200,-4.264638098
287.78250,-6.400998952
287.78300,-7.011387767
287.78350,-5.180221321
287.78400,-2.738666059
287.78450,-0.9074996131
287.78500,0.008083609999
287.78550,0.6184724254
287.78600,1.228861241
287.78650,2.144444464
287.78700,3.670416502
287.78750,4.891194133
287.78800,3.060027687
287.78850,-1.517888429
287.78900,-5.790610136
287.78950,-7.316582175
287.79000,-6.706193359
287.79050,-6.706193359
287.79100,-7.011387767
287.79150,-6.706193359
287.79200,-4.875026913
287.79250,-3.043860467
287.79300,-0.2971107977
287.79350,4.280805318
287.79400,10.38469347
287.79450,14.04702636
287.79500,11.91066551
287.79550,5.501582949
287.79600,-0.9074996131
287.79650,-3.654249282
287.79700,-0.9074996131
287.79750,3.670416502
287.79800,6.417166172
287.79850,4.585999726
287.79900,2.449638872
287.79950,3.97561091
287.80000,8.248332618
287.80050,9.469110249
287.80100,5.501582949
287.80150,0.008083609999
287.80200,-2.738666059
287.80250,-2.738666059
287.80300,-1.823082836
287.80350,-0.6023052054
287.80400,0.008083609999
287.80450,0.6184724254
287.80500,1.228861241
287.80550,2.144444464
287.80600,3.97561091
287.80650,6.417166172
287.80700,7.332749395
287.80750,5.501582949
287.80800,1.534055649
287.80850,-3.043860467
287.80900,-6.095804544
287.80950,-7.316582175
287.81000,-7.621776583
287.81050,-7.621776583
287.81100,-3.95944369
287.81150,3.060027687
287.81200,9.774304656
287.81250,11.6054711
287.81300,10.68988788
287.81350,10.99508229
287.81400,10.68988788
287.81450,5.806777356
287.81500,-0.6023052054
287.81550,-3.043860467
287.81600,-0.9074996131
287.81650,-2.128277244
287.81700,-10.97891507
287.81750,-21.05033052
287.81800,-24.1022746
287.81850,-18.91396967
287.81900,-11.58930388
287.81950,-7.316582175
287.82000,-6.095804544
287.82050,-4.569832506
287.82100,-1.823082836
287.82150,0.6184724254
287.82200,0.9236668331
287.82250,-0.6023052054
287.82300,-0.9074996131
287.82350,2.754833279
287.82400,7.027554987
287.82450,6.722360579
287.82500,2.144444464
287.82550,-1.212694021
287.82600,-1.212694021
287.82650,0.008083609999
287.82700,0.008083609999
287.82750,-0.6023052054
287.82800,-1.823082836
287.82850,-3.654249282
287.82900,-5.485415729
287.82950,-5.485415729
287.83000,-2.433471652
287.83050,0.9236668331
287.83100,3.060027687
287.83150,3.97561091
287.83200,4.280805318
287.83250,2.449638872
287.83300,-0.6023052054
287.83350,-0.9074996131
287.83400,4.280805318
287.83450,10.38469347
287.83500,10.07949906
287.83550,2.449638872
287.83600,-4.875026913
287.83650,-7.011387767
287.83700,-4.875026913
287.83750,-4.264638098
287.83800,-6.400998952
287.83850,-6.400998952
287.83900,-3.654249282
287.83950,-2.433471652
287.84000,-4.875026913
287.84050,-5.790610136
287.84100,-0.2971107977
287.84150,8.553527026
287.84200,12.52105433
287.84250,9.469110249
287.84300,5.196388541
287.84350,4.891194133
287.84400,6.111971764
287.84450,6.111971764
287.84500,5.196388541
287.84550,6.417166172
287.84600,7.637943803
287.84650,6.111971764
287.84700,1.839250056
287.84750,-0.9074996131
287.84800,-1.517888429
287.84850,-0.2971107977
287.84900,0.3132780177
287.84950,0.008083609999
287.85000,-1.212694021
287.85050,-2.738666059
287.85100,-3.349054875
287.85150,-3.349054875
287.85200,-3.95944369
287.85250,-5.790610136
287.85300,-7.011387767
287.85350,-6.400998952
287.85400,-4.875026913
287.85450,-3.95944369
287.85500,-3.349054875
287.85550,-1.517888429
287.85600,0.3132780177
287.85650,0.6184724254
287.85700,0.008083609999
287.85750,0.008083609999
287.85800,1.534055649
287.85850,2.449638872
287.85900,1.839250056
287.85950,0.6184724254
287.86000,0.6184724254
287.86050,1.228861241
287.86100,0.9236668331
287.86150,0.6184724254
287.86200,1.228861241
287.86250,2.754833279
287.86300,3.365222095
287.86350,3.365222095
287.86400,3.670416502
287.86450,5.196388541
287.86500,6.417166172
287.86550,7.332749395
287.86600,6.722360579
287.86650,3.97561091
287.86700,-0.2971107977
287.86750,-5.180221321
287.86800,-7.92697099
287.86850,-8.232165398
287.86900,-7.92697099
287.86950,-8.232165398
287.87000,-8.537359806
287.87050,-7.621776583
287.87100,-6.400998952
287.87150,-4.875026913
287.87200,-3.95944369
287.87250,-4.264638098
287.87300,-5.485415729
287.87350,-5.790610136
287.87400,-3.654249282
287.87450,0.008083609999
287.87500,2.754833279
287.87550,3.365222095
287.87600,2.144444464
287.87650,0.6184724254
287.87700,-0.2971107977
287.87750,-0.2971107977
287.87800,0.9236668331
287.87850,2.449638872
287.87900,3.060027687
287.87950,3.670416502
287.88000,4.891194133
287.88050,6.111971764
287.88100,5.806777356
287.88150,3.365222095
287.88200,0.6184724254
287.88250,-0.6023052054
287.88300,-0.9074996131
287.88350,0.008083609999
287.88400,3.365222095
287.88450,7.332749395
287.88500,9.469110249
287.88550,7.94313821
287.88600,4.280805318
287.88650,1.839250056
287.88700,1.534055649
287.88750,2.449638872
287.88800,3.365222095
287.88850,2.754833279
287.88900,0.6184724254
287.88950,-1.517888429
287.89000,-3.043860467
287.89050,-4.264638098
287.89100,-5.485415729
287.89150,-6.400998952
287.89200,-6.706193359
287.89250,-6.706193359
287.89300,-7.011387767
287.89350,-6.706193359
287.89400,-5.180221321
287.89450,-2.738666059
287.89500,0.008083609999
287.89550,1.228861241
287.89600,1.228861241
287.89650,0.008083609999
287.89700,-0.6023052054
287.89750,0.008083609999
287.89800,1.228861241
287.89850,1.228861241
287.89900,0.9236668331
287.89950,3.060027687
287.90000,7.332749395
287.90050,9.469110249
287.90100,8.248332618
287.90150,6.417166172
287.90200,7.332749395
287.90250,9.774304656
287.90300,9.774304656
287.90350,6.417166172
287.90400,2.144444464
287.90450,-0.2971107977
287.90500,-1.212694021
287.90550,-0.6023052054
287.90600,0.008083609999
287.90650,-0.6023052054
287.90700,-1.823082836
287.90750,-0.6023052054
287.90800,3.060027687
287.90850,4.891194133
287.90900,2.449638872
287.90950,-1.517888429
287.91000,-2.433471652
287.91050,0.008083609999
287.91100,0.9236668331
287.91150,-0.2971107977
287.91200,-2.738666059
287.91250,-3.349054875
287.91300,-3.043860467
287.91350,-3.349054875
287.91400,-4.264638098
287.91450,-4.569832506
287.91500,-5.180221321
287.91550,-7.621776583
287.91600,-10.97891507
287.91650,-10.67372066
287.91700,-4.569832506
287.91750,3.97561091
287.91800,8.553527026
287.91850,6.722360579
287.91900,1.839250056
287.91950,0.008083609999
287.92000,0.6184724254
287.92050,2.754833279
287.92100,3.97561091
287.92150,4.280805318
287.92200,3.670416502
287.92250,3.670416502
287.92300,5.196388541
287.92350,7.027554987
287.92400,6.722360579
287.92450,3.365222095
287.92500,0.3132780177
287.92550,0.6184724254
287.92600,2.754833279
287.92650,4.891194133
287.92700,5.501582949
287.92750,4.280805318
287.92800,0.3132780177
287.92850,-3.95944369
287.92900,-5.180221321
287.92950,-2.433471652
287.93000,0.3132780177
287.93050,-0.2971107977
287.93100,-3.95944369
287.93150,-6.095804544
287.93200,-6.400998952
287.93250,-6.706193359
287.93300,-6.706193359
287.93350,-5.485415729
287.93400,-3.043860467
287.93450,-2.433471652
287.93500,-3.349054875
287.93550,-3.95944369
287.93600,-3.043860467
287.93650,-2.128277244
287.93700,-2.128277244
287.93750,-1.517888429
287.93800,-0.9074996131
287.93850,-0.9074996131
287.93900,-1.212694021
287.93950,-0.6023052054
287.94000,0.008083609999
287.94050,-0.2971107977
287.94100,-3.043860467
287.94150,-4.569832506
287.94200,-3.043860467
287.94250,-1.212694021
287.94300,-1.212694021
287.94350,-1.212694021
287.94400,0.6184724254
287.94450,3.97561091
287.94500,4.891194133
287.94550,2.754833279
287.94600,0.6184724254
287.94650,1.228861241
287.94700,1.534055649
287.94750,-0.6023052054
287.94800,-4.875026913
287.94850,-6.706193359
287.94900,-5.180221321
287.94950,-3.654249282
287.95000,-4.264638098
287.95050,-7.316582175
287.95100,-10.06333184
287.95150,-9.452943029
287.95200,-4.569832506
287.95250,0.9236668331
287.95300,3.365222095
287.95350,0.9236668331
287.95400,-2.433471652
287.95450,-3.654249282
287.95500,-3.349054875
287.95550,-3.349054875
287.95600,-3.043860467
287.95650,-0.2971107977
287.95700,3.670416502
287.95750,6.111971764
287.95800,4.585999726
287.95850,1.839250056
287.95900,1.228861241
287.95950,2.754833279
287.96000,3.97561091
287.96050,3.97561091
287.96100,2.754833279
287.96150,1.839250056
287.96200,2.449638872
287.96250,4.585999726
287.96300,6.111971764
287.96350,5.196388541
287.96400,3.365222095
287.96450,2.144444464
287.96500,2.144444464
287.96550,1.839250056
287.96600,0.3132780177
287.96650,-1.212694021
287.96700,-2.128277244
287.96750,-1.823082836
287.96800,-0.9074996131
287.96850,0.008083609999
287.96900,0.6184724254
287.96950,0.008083609999
287.97000,-1.212694021
287.97050,-1.517888429
287.97100,-0.6023052054
287.97150,0.008083609999
287.97200,-1.823082836
287.97250,-5.180221321
287.97300,-6.400998952
287.97350,-2.128277244
287.97400,3.365222095
287.97450,6.417166172
287.97500,4.585999726
287.97550,2.144444464
287.97600,1.534055649
287.97650,1.534055649
287.97700,0.6184724254
287.97750,-0.6023052054
287.97800,-0.2971107977
287.97850,0.6184724254
287.97900,2.144444464
287.97950,3.97561091
287.98000,5.501582949
287.98050,4.891194133
287.98100,0.6184724254
287.98150,-3.043860467
287.98200,-3.043860467
287.98250,-0.9074996131
287.98300,-0.6023052054
287.98350,-3.043860467
287.98400,-3.95944369
287.98450,-0.6023052054
287.98500,3.060027687
287.98550,3.365222095
287.98600,1.839250056
287.98650,1.228861241
287.98700,1.839250056
287.98750,1.534055649
287.98800,0.6184724254
287.98850,1.228861241
287.98900,2.449638872
287.98950,2.144444464
287.99000,-0.2971107977
287.99050,-2.433471652
287.99100,-3.043860467
287.99150,-2.738666059
287.99200,-3.043860467
287.99250,-2.738666059
287.99300,-2.128277244
287.99350,-1.823082836
287.99400,-1.823082836
287.99450,-1.212694021
287.99500,-0.2971107977
287.99550,0.008083609999
287.99600,-0.6023052054
287.99650,-0.2971107977
287.99700,0.008083609999
287.99750,0.008083609999
287.99800,-2.128277244
287.99850,-3.349054875
287.99900,-2.433471652
287.99950,-0.9074996131
288.00000,-0.9074996131
288.00050,-1.517888429
288.00100,-1.823082836
288.00150,-2.433471652
288.00200,-3.349054875
288.00250,-3.95944369
288.00300,-1.823082836
288.00350,2.449638872
288.00400,7.637943803
288.00450,11.91066551
288.00500,14.04702636
288.00550,12.21585992
288.00600,6.722360579
288.00650,1.534055649
288.00700,0.008083609999
288.00750,0.9236668331
288.00800,0.3132780177
288.00850,-1.823082836
288.00900,-3.95944369
288.00950,-4.569832506
288.01000,-3.95944369
288.01050,-2.128277244
288.01100,0.3132780177
288.01150,1.839250056
288.01200,2.449638872
288.01250,3.365222095
288.01300,6.417166172
288.01350,9.163915841
288.01400,7.637943803
288.01450,2.144444464
288.01500,-1.517888429
288.01550,-1.517888429
288.01600,-0.2971107977
288.01650,-0.6023052054
288.01700,-1.212694021
288.01750,-0.2971107977
288.01800,1.534055649
288.01850,2.144444464
288.01900,0.008083609999
288.01950,-2.738666059
288.02000,-3.95944369
288.02050,-3.349054875
288.02100,-1.517888429
288.02150,0.008083609999
288.02200,3.060027687
288.02250,6.111971764
288.02300,7.94313821
288.02350,7.332749395
288.02400,5.196388541
288.02450,3.365222095
288.02500,2.144444464
288.02550,1.228861241
288.02600,0.008083609999
288.02650,-1.212694021
288.02700,-1.823082836
288.02750,-1.823082836
288.02800,-1.823082836
288.02850,-2.433471652
288.02900,-3.654249282
288.02950,-4.875026913
288.03000,-3.95944369
288.03050,0.008083609999
288.03100,4.585999726
288.03150,5.501582949
288.03200,1.839250056
288.03250,-1.212694021
288.03300,-2.128277244
288.03350,-1.823082836
288.03400,-2.433471652
288.03450,-2.738666059
288.03500,-1.212694021
288.03550,0.3132780177
288.03600,0.6184724254
288.03650,0.3132780177
288.03700,0.6184724254
288.03750,1.534055649
288.03800,1.839250056
288.03850,0.6184724254
288.03900,-0.2971107977
288.03950,-1.517888429
288.04000,-2.128277244
288.04050,-1.517888429
288.04100,0.008083609999
288.04150,0.9236668331
288.04200,0.6184724254
288.04250,0.6184724254
288.04300,1.228861241
288.04350,1.839250056
288.04400,0.6184724254
288.04450,-0.6023052054
288.04500,-0.6023052054
288.04550,0.008083609999
288.04600,-0.2971107977
288.04650,-1.823082836
288.04700,-2.738666059
288.04750,-3.043860467
288.04800,-2.738666059
288.04850,-2.738666059
288.04900,-2.433471652
288.04950,-2.128277244
288.05000,-1.823082836
288.05050,-0.2971107977
288.05100,3.670416502
288.05150,7.94313821
288.05200,7.027554987
288.05250,0.008083609999
288.05300,-7.92697099
288.05350,-11.58930388
288.05400,-10.36852625
288.05450,-9.452943029
288.05500,-9.758137436
288.05550,-8.842554213
288.05600,-5.790610136
288.05650,-2.128277244
288.05700,-0.9074996131
288.05750,-0.9074996131
288.05800,-0.6023052054
288.05850,0.008083609999
288.05900,-0.6023052054
288.05950,-1.212694021
288.06000,-1.517888429
288.06050,-1.823082836
288.06100,-3.654249282
288.06150,-6.095804544
288.06200,-6.095804544
288.06250,-4.264638098
288.06300,-2.128277244
288.06350,-0.9074996131
288.06400,0.3132780177
288.06450,2.144444464
288.06500,3.670416502
288.06550,4.891194133
288.06600,6.417166172
288.06650,7.94313821
288.06700,7.94313821
288.06750,5.196388541
288.06800,1.839250056
288.06850,0.008083609999
288.06900,0.008083609999
288.06950,0.9236668331
288.07000,1.839250056
288.07050,1.839250056
288.07100,0.3132780177
288.07150,-1.212694021
288.07200,-2.128277244
288.07250,-2.433471652
288.07300,-2.128277244
288.07350,-2.433471652
288.07400,-2.738666059
288.07450,-3.349054875
288.07500,-3.95944369
288.07550,-3.95944369
288.07600,-2.738666059
288.07650,-1.212694021
288.07700,-0.2971107977
288.07750,0.008083609999
288.07800,0.3132780177
288.07850,0.008083609999
288.07900,-1.212694021
288.07950,-3.043860467
288.08000,-3.654249282
288.08050,-1.212694021
288.08100,3.060027687
288.08150,7.637943803
288.08200,9.469110249
288.08250,7.94313821
288.08300,4.585999726
288.08350,2.144444464
288.08400,2.449638872
288.08450,3.97561091
288.08500,4.280805318
288.08550,2.754833279
288.08600,0.9236668331
288.08650,0.6184724254
288.08700,1.228861241
288.08750,2.144444464
288.08800,1.839250056
288.08850,0.008083609999
288.08900,-1.517888429
288.08950,-1.823082836
288.09000,0.008083609999
288.09050,0.6184724254
288.09100,-0.9074996131
288.09150,-3.654249282
288.09200,-3.95944369
288.09250,-2.128277244
288.09300,-2.128277244
288.09350,-4.569832506
288.09400,-6.400998952
288.09450,-5.485415729
288.09500,-3.654249282
288.09550,-4.569832506
288.09600,-6.095804544
288.09650,-4.264638098
288.09700,0.6184724254
288.09750,5.806777356
288.09800,7.027554987
288.09850,6.111971764
288.09900,6.111971764
288.09950,7.027554987
288.10000,6.722360579
288.10050,3.97561091
288.10100,1.228861241
288.10150,0.6184724254
288.10200,1.228861241
288.10250,1.534055649
288.10300,0.9236668331
288.10350,1.228861241
288.10400,2.449638872
288.10450,3.060027687
288.10500,3.060027687
288.10550,3.670416502
288.10600,4.585999726
288.10650,5.196388541
288.10700,3.97561091
288.10750,2.144444464
288.10800,0.3132780177
288.10850,-1.517888429
288.10900,-4.875026913
288.10950,-8.232165398
288.11000,-8.842554213
288.11050,-7.011387767
288.11100,-6.095804544
288.11150,-6.706193359
288.11200,-6.400998952
288.11250,-3.654249282
288.11300,-0.9074996131
288.11350,0.008083609999
288.11400,-1.212694021
288.11450,-2.433471652
288.11500,-3.349054875
288.11550,-3.349054875
288.11600,-1.823082836
288.11650,0.3132780177
288.11700,1.228861241
288.11750,0.008083609999
288.11800,-0.6023052054
288.11850,-0.2971107977
288.11900,-0.2971107977
288.11950,-0.6023052054
288.12000,1.228861241
288.12050,5.806777356
288.12100,8.248332618
288.12150,5.806777356
288.12200,0.9236668331
288.12250,-0.2971107977
288.12300,1.839250056
288.12350,3.365222095
288.12400,3.365222095
288.12450,3.670416502
288.12500,4.585999726
288.12550,4.280805318
288.12600,1.839250056
288.12650,0.008083609999
288.12700,-0.2971107977
288.12750,-0.9074996131
288.12800,-3.654249282
288.12850,-6.095804544
288.12900,-4.875026913
288.12950,-1.212694021
288.13000,0.3132780177
288.13050,0.3132780177
288.13100,0.008083609999
288.13150,0.008083609999
288.13200,0.3132780177
288.13250,1.839250056
288.13300,5.196388541
288.13350,8.553527026
288.13400,8.553527026
288.13450,3.670416502
288.13500,-3.043860467
288.13550,-8.537359806
288.13600,-9.452943029
288.13650,-5.485415729
288.13700,0.008083609999
288.13750,4.280805318
288.13800,5.501582949
288.13850,5.501582949
288.13900,6.417166172
288.13950,7.027554987
288.14000,5.196388541
288.14050,1.534055649
288.14100,-1.212694021
288.14150,-3.043860467
288.14200,-3.043860467
288.14250,-1.212694021
288.14300,2.754833279
288.14350,6.722360579
288.14400,8.553527026
288.14450,8.248332618
288.14500,7.94313821
288.14550,7.027554987
288.14600,4.891194133
288.14650,2.144444464
288.14700,1.534055649
288.14750,2.754833279
288.14800,3.060027687
288.14850,0.9236668331
288.14900,-0.9074996131
288.14950,-1.517888429
288.15000,-1.517888429
288.15050,-2.128277244
288.15100,-3.349054875
288.15150,-4.875026913
288.15200,-7.011387767
288.15250,-9.758137436
288.15300,-11.28410947
288.15350,-10.36852625
288.15400,-8.537359806
288.15450,-8.232165398
288.15500,-9.452943029
288.15550,-9.147748621
288.15600,-5.180221321
288.15650,0.6184724254
288.15700,4.280805318
288.15750,3.97561091
288.15800,2.144444464
288.15850,1.839250056
288.15900,2.754833279
288.15950,3.670416502
288.16000,3.060027687
288.16050,1.839250056
288.16100,1.228861241
288.16150,0.9236668331
288.16200,0.9236668331
288.16250,1.534055649
288.16300,1.839250056
288.16350,0.008083609999
288.16400,-1.823082836
288.16450,-2.433471652
288.16500,-1.823082836
288.16550,-1.823082836
288.16600,-3.349054875
288.16650,-4.264638098
288.16700,-3.95944369
288.16750,-3.043860467
288.16800,-0.9074996131
288.16850,1.534055649
288.16900,3.97561091
288.16950,3.670416502
288.17000,1.228861241
288.17050,1.228861241
288.17100,3.670416502
288.17150,4.585999726
288.17200,1.534055649
288.17250,-2.433471652
288.17300,-4.569832506
288.17350,-4.875026913
288.17400,-4.569832506
288.17450,-3.654249282
288.17500,-1.823082836
288.17550,-0.2971107977
288.17600,0.008083609999
288.17650,0.008083609999
288.17700,0.6184724254
288.17750,1.228861241
288.17800,0.6184724254
288.17850,0.008083609999
288.17900,-0.6023052054
288.17950,-0.9074996131
288.18000,-0.9074996131
288.18050,-0.2971107977
288.18100,0.008083609999
288.18150,-1.517888429
288.18200,-3.043860467
288.18250,-1.823082836
288.18300,0.6184724254
288.18350,0.6184724254
288.18400,-2.433471652
288.18450,-4.569832506
288.18500,-2.433471652
288.18550,2.754833279
288.18600,8.858721433
288.18650,14.35222077
288.18700,18.31974807
288.18750,19.84572011
288.18800,16.79377603
288.18850,10.99508229
288.18900,2.754833279
288.18950,-6.706193359
288.19000,-14.33605355
288.19050,-15.55683118
288.19100,-10.97891507
288.19150,-5.485415729
288.19200,-4.264638098
288.19250,-5.485415729
288.19300,-6.095804544
288.19350,-4.875026913
288.19400,-3.95944369
288.19450,-4.264638098
288.19500,-3.95944369
288.19550,-2.738666059
288.19600,-1.823082836
288.19650,-1.823082836
288.19700,-1.517888429
288.19750,-0.6023052054
288.19800,0.9236668331
288.19850,2.449638872
288.19900,3.670416502
288.19950,4.280805318
288.20000,3.670416502
288.20050,3.060027687
288.20100,3.365222095
288.20150,3.670416502
288.20200,3.365222095
288.20250,3.060027687
288.20300,4.280805318
288.20350,5.501582949
288.20400,4.280805318
288.20450,0.008083609999
288.20500,-3.95944369
288.20550,-3.654249282
288.20600,-0.6023052054
288.20650,0.008083609999
288.20700,-2.128277244
288.20750,-2.738666059
288.20800,0.9236668331
288.20850,5.501582949
288.20900,6.417166172
288.20950,2.754833279
288.21000,-0.6023052054
288.21050,-1.517888429
288.21100,-0.9074996131
288.21150,-0.2971107977
288.21200,-0.9074996131
288.21250,-2.128277244
288.21300,-3.95944369
288.21350,-5.790610136
288.21400,-6.706193359
288.21450,-6.400998952
288.21500,-5.180221321
288.21550,-3.349054875
288.21600,-1.823082836
288.21650,-1.212694021
288.21700,-2.128277244
288.21750,-2.738666059
288.21800,-2.128277244
288.21850,-0.9074996131
288.21900,-0.2971107977
288.21950,-0.2971107977
288.22000,-0.2971107977
288.22050,0.3132780177
288.22100,1.228861241
288.22150,1.839250056
288.22200,1.839250056
288.22250,0.9236668331
288.22300,-0.6023052054
288.22350,-3.043860467
288.22400,-3.95944369
288.22450,-2.738666059
288.22500,-0.2971107977
288.22550,1.228861241
288.22600,1.228861241
288.22650,0.9236668331
288.22700,0.9236668331
288.22750,0.9236668331
288.22800,0.008083609999
288.22850,-2.433471652
288.22900,-3.654249282
288.22950,-2.433471652
288.23000,0.3132780177
288.23050,2.754833279
288.23100,3.060027687
288.23150,1.228861241
288.23200,-1.517888429
288.23250,-5.180221321
288.23300,-7.621776583
288.23350,-8.537359806
288.23400,-8.232165398
288.23450,-6.095804544
288.23500,-2.128277244
288.23550,2.449638872
288.23600,5.806777356
288.23650,6.111971764
288.23700,4.585999726
288.23750,1.839250056
288.23800,-0.6023052054
288.23850,-1.517888429
288.23900,0.008083609999
288.23950,2.754833279
288.24000,3.670416502
288.24050,2.754833279
288.24100,2.144444464
288.24150,3.365222095
288.24200,4.585999726
288.24250,4.280805318
288.24300,4.280805318
288.24350,5.501582949
288.24400,6.722360579
288.24450,5.196388541
288.24500,2.754833279
288.24550,0.9236668331
288.24600,0.9236668331
288.24650,0.6184724254
288.24700,0.3132780177
288.24750,0.6184724254
288.24800,1.228861241
288.24850,0.3132780177
288.24900,-1.823082836
288.24950,-4.569832506
288.25000,-6.400998952
288.25050,-7.316582175
288.25100,-7.92697099
288.25150,-7.621776583
288.25200,-6.095804544
288.25250,-4.264638098
288.25300,-3.349054875
288.25350,-3.043860467
288.25400,-2.433471652
288.25450,0.008083609999
288.25500,4.891194133
288.25550,8.858721433
288.25600,9.469110249
288.25650,8.248332618
288.25700,7.027554987
288.25750,5.806777356
288.25800,3.365222095
288.25850,0.008083609999
288.25900,-0.9074996131
288.25950,-0.2971107977
288.26000,-1.212694021
288.26050,-4.264638098
288.26100,-5.180221321
288.26150,-0.2971107977
288.26200,5.806777356
288.26250,8.248332618
288.26300,5.196388541
288.26350,1.839250056
288.26400,1.228861241
288.26450,2.754833279
288.26500,3.97561091
288.26550,4.891194133
288.26600,4.585999726
288.26650,1.839250056
288.26700,-2.128277244
288.26750,-3.043860467
288.26800,0.008083609999
288.26850,2.754833279
288.26900,1.534055649
288.26950,-1.823082836
288.27000,-2.738666059
288.27050,-0.6023052054
288.27100,0.008083609999
288.27150,-2.128277244
288.27200,-3.95944369
288.27250,-3.654249282
288.27300,-2.738666059
288.27350,-1.823082836
288.27400,-0.2971107977
288.27450,0.9236668331
288.27500,0.9236668331
288.27550,-0.9074996131
288.27600,-2.128277244
288.27650,-0.9074996131
288.27700,0.6184724254
288.27750,1.228861241
288.27800,0.9236668331
288.27850,2.144444464
288.27900,4.280805318
288.27950,4.585999726
288.28000,2.144444464
288.28050,-0.6023052054
288.28100,-2.128277244
288.28150,-2.433471652
288.28200,-1.823082836
288.28250,-1.212694021
288.28300,-0.6023052054
288.28350,0.008083609999
288.28400,2.754833279
288.28450,5.196388541
288.28500,3.365222095
288.28550,-3.043860467
288.28600,-9.758137436
288.28650,-9.452943029
288.28700,-3.654249282
288.28750,0.3132780177
288.28800,0.008083609999
288.28850,-1.823082836
288.28900,-1.823082836
288.28950,-0.6023052054
288.29000,-0.2971107977
288.29050,-0.6023052054
288.29100,-1.517888429
288.29150,-3.043860467
288.29200,-5.180221321
288.29250,-5.485415729
288.29300,-3.349054875
288.29350,-1.517888429
288.29400,-1.517888429
288.29450,-1.212694021
288.29500,0.9236668331
288.29550,4.280805318
288.29600,4.891194133
288.29650,2.449638872
288.29700,0.008083609999
288.29750,-0.2971107977
288.29800,0.9236668331
288.29850,2.144444464
288.29900,2.449638872
288.29950,2.144444464
288.30000,1.534055649
288.30050,1.228861241
288.30100,2.144444464
288.30150,2.754833279
288.30200,2.449638872
288.30250,1.228861241
288.30300,0.6184724254
288.30350,0.9236668331
288.30400,0.3132780177
288.30450,-1.212694021
288.30500,-3.349054875
288.30550,-3.654249282
288.30600,-2.128277244
288.30650,0.008083609999
288.30700,0.9236668331
288.30750,0.3132780177
288.30800,-0.6023052054
288.30850,-1.823082836
288.30900,-1.823082836
288.30950,-1.212694021
288.31000,-0.2971107977
288.31050,1.534055649
288.31100,4.280805318
288.31150,6.417166172
288.31200,5.196388541
288.31250,1.534055649
288.31300,-1.212694021
288.31350,-1.823082836
288.31400,-0.9074996131
288.31450,-0.2971107977
288.31500,0.008083609999
288.31550,1.228861241
288.31600,2.754833279
288.31650,3.97561091
288.31700,3.97561091
288.31750,2.754833279
288.31800,0.3132780177
288.31850,-1.823082836
288.31900,-2.128277244
288.31950,-1.212694021
288.32000,-0.6023052054
288.32050,-1.212694021
288.32100,-0.9074996131
288.32150,1.228861241
288.32200,3.670416502
288.32250,4.891194133
288.32300,3.365222095
288.32350,0.6184724254
288.32400,-1.517888429
288.32450,-1.212694021
288.32500,1.534055649
288.32550,5.196388541
288.32600,5.501582949
288.32650,3.365222095
288.32700,1.839250056
288.32750,3.060027687
288.32800,4.280805318
288.32850,3.060027687
288.32900,0.3132780177
288.32950,-0.2971107977
288.33000,0.6184724254
288.33050,1.534055649
288.33100,1.228861241
288.33150,0.3132780177
288.33200,-0.9074996131
288.33250,-1.823082836
288.33300,-2.738666059
288.33350,-3.043860467
288.33400,-3.043860467
288.33450,-2.433471652
288.33500,-1.212694021
288.33550,0.008083609999
288.33600,0.6184724254
288.33650,0.9236668331
288.33700,1.228861241
288.33750,1.534055649
288.33800,1.228861241
288.33850,0.6184724254
288.33900,0.6184724254
288.33950,1.228861241
288.34000,0.6184724254
288.34050,-1.212694021
288.34100,-2.738666059
288.34150,-2.738666059
288.34200,-2.433471652
288.34250,-2.738666059
288.34300,-2.738666059
288.34350,-1.517888429
288.34400,0.008083609999
288.34450,-0.2971107977
288.34500,-0.9074996131
288.34550,-0.2971107977
288.34600,0.9236668331
288.34650,1.534055649
288.34700,0.9236668331
288.34750,0.6184724254
288.34800,0.3132780177
288.34850,-0.6023052054
288.34900,-2.128277244
288.34950,-2.433471652
288.35000,-3.349054875
288.35050,-5.180221321
288.35100,-6.095804544
288.35150,-3.349054875
288.35200,0.3132780177
288.35250,0.9236668331
288.35300,-2.128277244
288.35350,-4.569832506
288.35400,-4.264638098
288.35450,-4.875026913
288.35500,-8.232165398
288.35550,-9.452943029
288.35600,-3.95944369
288.35650,3.670416502
288.35700,6.722360579
288.35750,2.449638872
288.35800,-4.264638098
288.35850,-8.842554213
288.35900,-9.452943029
288.35950,-5.485415729
288.36000,1.228861241
288.36050,6.111971764
288.36100,3.97561091
288.36150,-2.433471652
288.36200,-4.875026913
288.36250,0.9236668331
288.36300,10.68988788
288.36350,16.18338722
288.36400,16.79377603
288.36450,14.65741518
288.36500,12.21585992
288.36550,8.248332618
288.36600,3.365222095
288.36650,0.008083609999
288.36700,-1.212694021
288.36750,-0.6023052054
288.36800,0.008083609999
288.36850,-0.9074996131
288.36900,-2.738666059
288.36950,-3.654249282
288.37000,-3.654249282
288.37050,-3.654249282
288.37100,-5.180221321
288.37150,-6.095804544
288.37200,-5.180221321
288.37250,-3.349054875
288.37300,-3.349054875
288.37350,-4.264638098
288.37400,-4.264638098
288.37450,-2.738666059
288.37500,-2.128277244
288.37550,-3.349054875
288.37600,-4.875026913
288.37650,-5.790610136
288.37700,-5.790610136
288.37750,-5.790610136
288.37800,-4.569832506
288.37850,-1.517888429
288.37900,1.534055649
288.37950,3.670416502
288.38000,3.97561091
288.38050,3.670416502
288.38100,2.754833279
288.38150,0.9236668331
288.38200,-0.6023052054
288.38250,-1.212694021
288.38300,-0.2971107977
288.38350,0.6184724254
288.38400,1.228861241
288.38450,0.3132780177
288.38500,-0.6023052054
288.38550,-1.212694021
288.38600,-0.9074996131
288.38650,-0.9074996131
288.38700,-1.517888429
288.38750,-1.823082836
288.38800,-0.2971107977
288.38850,2.449638872
288.38900,4.280805318
288.38950,3.670416502
288.39000,0.6184724254
288.39050,-1.823082836
288.39100,-3.349054875
288.39150,-3.654249282
288.39200,-3.95944369
288.39250,-3.654249282
288.39300,-2.738666059
288.39350,-1.517888429
288.39400,-1.517888429
288.39450,-2.433471652
288.39500,-2.738666059
288.39550,-2.433471652
288.39600,-1.517888429
288.39650,0.008083609999
288.39700,3.670416502
288.39750,7.94313821
288.39800,10.68988788
288.39850,10.99508229
288.39900,10.07949906
288.39950,9.469110249
288.40000,9.469110249
288.40050,7.94313821
288.40100,4.280805318
288.40150,1.534055649
288.40200,1.534055649
288.40250,3.060027687
288.40300,3.97561091
288.40350,3.670416502
288.40400,3.060027687
288.40450,2.754833279
288.40500,3.365222095
288.40550,3.670416502
288.40600,3.365222095
288.40650,2.144444464
288.40700,0.6184724254
288.40750,0.008083609999
288.40800,0.6184724254
288.40850,1.228861241
288.40900,-0.9074996131
288.40950,-4.875026913
288.41000,-6.706193359
288.41050,-4.875026913
288.41100,-2.738666059
288.41150,-3.95944369
288.41200,-7.316582175
288.41250,-9.452943029
288.41300,-8.537359806
288.41350,-6.400998952
288.41400,-3.95944369
288.41450,-0.9074996131
288.41500,1.839250056
288.41550,3.060027687
288.41600,1.534055649
288.41650,-0.2971107977
288.41700,-0.6023052054
288.41750,0.008083609999
288.41800,-0.2971107977
288.41850,-0.9074996131
288.41900,-1.212694021
288.41950,-0.2971107977
288.42000,0.008083609999
288.42050,0.008083609999
288.42100,0.3132780177
288.42150,0.6184724254
288.42200,0.6184724254
288.42250,0.9236668331
288.42300,1.534055649
288.42350,1.228861241
288.42400,0.3132780177
288.42450,-0.2971107977
288.42500,0.008083609999
288.42550,0.3132780177
288.42600,-0.2971107977
288.42650,-1.517888429
288.42700,-0.9074996131
288.42750,0.008083609999
288.42800,-0.2971107977
288.42850,-2.433471652
288.42900,-3.654249282
288.42950,-2.433471652
288.43000,-1.823082836
288.43050,-2.738666059
288.43100,-3.349054875
288.43150,-0.9074996131
288.43200,2.449638872
288.43250,3.670416502
288.43300,1.228861241
288.43350,-3.043860467
288.43400,-7.92697099
288.43450,-11.28410947
288.43500,-10.97891507
288.43550,-6.400998952
288.43600,-1.823082836
288.43650,0.008083609999
288.43700,-0.6023052054
288.43750,-0.6023052054
288.43800,0.6184724254
288.43850,3.97561091
288.43900,8.553527026
288.43950,12.21585992
288.44000,11.30027669
288.44050,5.196388541
288.44100,-2.128277244
288.44150,-5.180221321
288.44200,-2.433471652
288.44250,3.97561091
288.44300,12.82624873
288.44350,21.37169215
288.44400,26.25480267
288.44450,25.64441386
288.44500,21.06649774
288.44550,15.5729984
288.44600,10.68988788
288.44650,5.501582949
288.44700,1.534055649
288.44750,0.3132780177
288.44800,-1.212694021
288.44850,-8.232165398
288.44900,-18.30358085
288.44950,-24.71266341
288.45000,-24.1022746
288.45050,-19.82955289
288.45100,-16.77760881
288.45150,-14.64124796
288.45200,-10.97891507
288.45250,-6.706193359
288.45300,-3.95944369
288.45350,-3.043860467
288.45400,-3.043860467
288.45450,-3.043860467
288.45500,-2.433471652
288.45550,-1.517888429
288.45600,-0.6023052054
288.45650,0.008083609999
288.45700,0.6184724254
288.45750,1.228861241
288.45800,1.839250056
288.45850,1.534055649
288.45900,0.9236668331
288.45950,1.228861241
288.46000,1.839250056
288.46050,1.839250056
288.46100,1.534055649
288.46150,2.144444464
288.46200,3.060027687
288.46250,2.449638872
288.46300,0.9236668331
288.46350,0.3132780177
288.46400,0.9236668331
288.46450,0.6184724254
288.46500,-0.2971107977
288.46550,-0.2971107977
288.46600,0.6184724254
288.46650,0.008083609999
288.46700,-3.349054875
288.46750,-4.875026913
288.46800,-1.517888429
288.46850,3.670416502
288.46900,5.501582949
288.46950,3.365222095
288.47000,0.6184724254
288.47050,-1.823082836
288.47100,-3.95944369
288.47150,-3.654249282
288.47200,1.228861241
288.47250,8.553527026
288.47300,11.91066551
288.47350,10.38469347
288.47400,7.637943803
288.47450,6.417166172
288.47500,4.891194133
288.47550,2.754833279
288.47600,1.228861241
288.47650,1.839250056
288.47700,2.144444464
288.47750,0.3132780177
288.47800,-0.9074996131
288.47850,0.008083609999
288.47900,1.228861241
288.47950,0.3132780177
288.48000,-2.433471652
288.48050,-3.349054875
288.48100,-0.9074996131
288.48150,1.839250056
288.48200,3.060027687
288.48250,3.365222095
288.48300,3.670416502
288.48350,3.97561091
288.48400,3.060027687
288.48450,1.228861241
288.48500,0.008083609999
288.48550,0.008083609999
288.48600,0.9236668331
288.48650,1.228861241
288.48700,1.228861241
288.48750,1.534055649
288.48800,1.228861241
288.48850,1.228861241
288.48900,0.9236668331
288.48950,0.6184724254
288.49000,0.6184724254
288.49050,0.9236668331
288.49100,0.9236668331
288.49150,0.6184724254
288.49200,-0.2971107977
288.49250,-1.517888429
288.49300,-1.517888429
288.49350,-1.212694021
288.49400,-3.043860467
288.49450,-7.92697099
288.49500,-13.11527592
288.49550,-15.55683118
288.49600,-14.94644237
288.49650,-12.1996927
288.49700,-8.842554213
288.49750,-5.790610136
288.49800,-3.654249282
288.49850,-2.738666059
288.49900,-1.823082836
288.49950,-0.2971107977
288.50000,0.008083609999
288.50050,-1.212694021
288.50100,-2.128277244
288.50150,-0.6023052054
288.50200,2.144444464
288.50250,3.060027687
288.50300,2.144444464
288.50350,3.060027687
288.50400,6.722360579
288.50450,9.774304656
288.50500,8.248332618
288.50550,3.97561091
288.50600,0.6184724254
288.50650,0.008083609999
288.50700,0.3132780177
288.50750,0.008083609999
288.50800,-1.823082836
288.50850,-3.95944369
288.50900,-4.875026913
288.50950,-3.95944369
288.51000,-3.654249282
288.51050,-4.569832506
288.51100,-5.790610136
288.51150,-4.875026913
288.51200,-1.823082836
288.51250,0.6184724254
288.51300,2.449638872
288.51350,3.060027687
288.51400,3.365222095
288.51450,2.449638872
288.51500,0.6184724254
288.51550,-0.2971107977
288.51600,0.6184724254
288.51650,3.060027687
288.51700,4.280805318
288.51750,2.449638872
288.51800,-0.9074996131
288.51850,-4.264638098
288.51900,-5.485415729
288.51950,-4.264638098
288.52000,-2.433471652
288.52050,-0.9074996131
288.52100,0.3132780177
288.52150,2.449638872
288.52200,4.585999726
288.52250,7.027554987
288.52300,9.163915841
288.52350,9.163915841
288.52400,5.806777356
288.52450,1.534055649
288.52500,0.008083609999
288.52550,0.6184724254
288.52600,0.3132780177
288.52650,-2.433471652
288.52700,-4.875026913
288.52750,-4.264638098
288.52800,-2.433471652
288.52850,-2.433471652
288.52900,-4.875026913
288.52950,-6.095804544
288.53000,-5.485415729
288.53050,-4.264638098
288.53100,-3.654249282
288.53150,-1.823082836
288.53200,1.534055649
288.53250,5.501582949
288.53300,7.027554987
288.53350,5.501582949
288.53400,3.97561091
288.53450,3.365222095
288.53500,2.754833279
288.53550,1.534055649
288.53600,0.9236668331
288.53650,0.9236668331
288.53700,0.3132780177
288.53750,-1.823082836
288.53800,-3.654249282
288.53850,-2.738666059
288.53900,0.008083609999
288.53950,0.9236668331
288.54000,-2.128277244
288.54050,-5.180221321
288.54100,-3.043860467
288.54150,2.449638872
288.54200,7.637943803
288.54250,8.248332618
288.54300,6.417166172
288.54350,4.585999726
288.54400,4.280805318
288.54450,5.501582949
288.54500,6.722360579
288.54550,6.722360579
288.54600,5.196388541
288.54650,2.754833279
288.54700,0.9236668331
288.54750,0.008083609999
288.54800,0.008083609999
288.54850,0.008083609999
288.54900,0.008083609999
288.54950,-0.9074996131
288.55000,-3.043860467
288.55050,-4.264638098
288.55100,-4.264638098
288.55150,-3.349054875
288.55200,-4.264638098
288.55250,-6.095804544
288.55300,-7.011387767
288.55350,-6.400998952
288.55400,-5.180221321
288.55450,-4.875026913
288.55500,-4.875026913
288.55550,-3.043860467
288.55600,0.008083609999
288.55650,3.365222095
288.55700,5.501582949
288.55750,5.806777356
288.55800,3.670416502
288.55850,1.228861241
288.55900,0.3132780177
288.55950,0.9236668331
288.56000,1.534055649
288.56050,0.6184724254
288.56100,-0.9074996131
288.56150,-2.433471652
288.56200,-3.349054875
288.56250,-3.654249282
288.56300,-2.433471652
288.56350,0.008083609999
288.56400,1.534055649
288.56450,1.228861241
288.56500,0.9236668331
288.56550,1.839250056
288.56600,2.449638872
288.56650,0.6184724254
288.56700,-1.517888429
288.56750,-2.433471652
288.56800,-1.517888429
288.56850,-1.823082836
288.56900,-3.349054875
288.56950,-3.95944369
288.57000,-2.128277244
288.57050,0.008083609999
288.57100,0.3132780177
288.57150,-1.212694021
288.57200,-3.043860467
288.57250,-2.738666059
288.57300,-0.6023052054
288.57350,1.534055649
288.57400,2.449638872
288.57450,2.449638872
288.57500,3.670416502
288.57550,5.196388541
288.57600,5.196388541
288.57650,3.670416502
288.57700,2.754833279
288.57750,2.754833279
288.57800,2.144444464
288.57850,0.008083609999
288.57900,-1.517888429
288.57950,-1.517888429
288.58000,-3.654249282
288.58050,-10.06333184
288.58100,-16.77760881
288.58150,-17.38799763
288.58200,-11.89449829
288.58250,-6.400998952
288.58300,-3.95944369
288.58350,-2.433471652
288.58400,0.008083609999
288.58450,1.534055649
288.58500,0.008083609999
288.58550,-2.128277244
288.58600,-0.6023052054
288.58650,3.670416502
288.58700,6.417166172
288.58750,4.585999726
288.58800,1.534055649
288.58850,0.6184724254
288.58900,0.6184724254
288.58950,-0.2971107977
288.59000,-2.738666059
288.59050,-2.738666059
288.59100,-0.9074996131
288.59150,-1.212694021
288.59200,-4.264638098
288.59250,-5.180221321
288.59300,0.008083609999
288.59350,7.027554987
288.59400,8.858721433
288.59450,5.196388541
288.59500,2.144444464
288.59550,3.060027687
288.59600,4.585999726
288.59650,3.97561091
288.59700,3.060027687
288.59750,4.585999726
288.59800,5.501582949
288.59850,2.754833279
288.59900,-2.738666059
288.59950,-6.095804544
288.60000,-4.569832506
288.60050,-1.212694021
288.60100,0.6184724254
288.60150,1.534055649
288.60200,2.449638872
288.60250,3.670416502
288.60300,3.365222095
288.60350,1.839250056
288.60400,0.6184724254
288.60450,0.008083609999
288.60500,0.6184724254
288.60550,1.839250056
288.60600,3.670416502
288.60650,4.585999726
288.60700,3.670416502
288.60750,2.754833279
288.60800,2.754833279
288.60850,3.670416502
288.60900,3.060027687
288.60950,1.534055649
288.61000,1.534055649
288.61050,3.97561091
288.61100,5.501582949
288.61150,3.97561091
288.61200,0.9236668331
