"type","name","time_units","begin_time","frequency","count","units"
"signal","Ultium EMG-BRACHIORAD. RT","s",461.98000,2000,22000,"uV"

"time","value"
461.98000,6.722360579
461.98050,5.196388541
461.98100,3.670416502
461.98150,1.534055649
461.98200,0.008083609999
461.98250,0.9236668331
461.98300,3.365222095
461.98350,3.060027687
461.98400,-0.2971107977
461.98450,-3.043860467
461.98500,-2.128277244
461.98550,0.008083609999
461.98600,-2.738666059
461.98650,-8.537359806
461.98700,-11.28410947
461.98750,-7.92697099
461.98800,-2.128277244
461.98850,1.228861241
461.98900,2.144444464
461.98950,3.365222095
461.99000,5.501582949
461.99050,7.637943803
461.99100,8.553527026
461.99150,7.94313821
461.99200,4.585999726
461.99250,-1.517888429
461.99300,-7.621776583
461.99350,-10.36852625
461.99400,-9.758137436
461.99450,-8.232165398
461.99500,-7.011387767
461.99550,-4.875026913
461.99600,-1.823082836
461.99650,0.008083609999
461.99700,-0.6023052054
461.99750,-0.9074996131
461.99800,0.3132780177
461.99850,3.670416502
461.99900,5.806777356
461.99950,5.806777356
462.00000,4.585999726
462.00050,3.670416502
462.00100,2.449638872
462.00150,1.228861241
462.00200,0.008083609999
462.00250,-0.2971107977
462.00300,-0.6023052054
462.00350,0.3132780177
462.00400,3.670416502
462.00450,6.417166172
462.00500,6.111971764
462.00550,2.144444464
462.00600,-0.2971107977
462.00650,1.534055649
462.00700,6.417166172
462.00750,8.248332618
462.00800,5.196388541
462.00850,0.6184724254
462.00900,-0.2971107977
462.00950,1.534055649
462.01000,3.060027687
462.01050,1.228861241
462.01100,0.008083609999
462.01150,1.228861241
462.01200,3.97561091
462.01250,4.585999726
462.01300,1.839250056
462.01350,-0.9074996131
462.01400,-2.433471652
462.01450,-3.349054875
462.01500,-3.95944369
462.01550,-4.264638098
462.01600,-3.95944369
462.01650,-3.95944369
462.01700,-4.875026913
462.01750,-4.569832506
462.01800,-2.738666059
462.01850,-0.6023052054
462.01900,-0.6023052054
462.01950,-0.9074996131
462.02000,0.3132780177
462.02050,3.97561091
462.02100,6.111971764
462.02150,4.585999726
462.02200,1.228861241
462.02250,-1.212694021
462.02300,-3.043860467
462.02350,-4.875026913
462.02400,-6.706193359
462.02450,-7.011387767
462.02500,-5.180221321
462.02550,-2.738666059
462.02600,-1.212694021
462.02650,-0.6023052054
462.02700,0.008083609999
462.02750,0.3132780177
462.02800,0.9236668331
462.02850,1.228861241
462.02900,0.3132780177
462.02950,-0.9074996131
462.03000,-2.433471652
462.03050,-2.738666059
462.03100,-2.128277244
462.03150,-1.212694021
462.03200,-0.6023052054
462.03250,-1.823082836
462.03300,-4.569832506
462.03350,-7.316582175
462.03400,-7.621776583
462.03450,-5.790610136
462.03500,-4.875026913
462.03550,-6.400998952
462.03600,-6.400998952
462.03650,-2.128277244
462.03700,4.280805318
462.03750,7.637943803
462.03800,5.196388541
462.03850,0.9236668331
462.03900,-1.517888429
462.03950,-2.738666059
462.04000,-4.264638098
462.04050,-6.400998952
462.04100,-6.706193359
462.04150,-4.569832506
462.04200,-1.517888429
462.04250,0.008083609999
462.04300,-0.2971107977
462.04350,0.008083609999
462.04400,5.501582949
462.04450,15.5729984
462.04500,21.98208096
462.04550,19.84572011
462.04600,12.21585992
462.04650,6.111971764
462.04700,4.280805318
462.04750,4.280805318
462.04800,3.670416502
462.04850,4.280805318
462.04900,5.806777356
462.04950,5.196388541
462.05000,1.839250056
462.05050,-1.212694021
462.05100,-2.128277244
462.05150,-3.654249282
462.05200,-7.316582175
462.05250,-11.89449829
462.05300,-13.42047033
462.05350,-10.36852625
462.05400,-5.180221321
462.05450,-0.2971107977
462.05500,2.144444464
462.05550,2.754833279
462.05600,1.839250056
462.05650,0.6184724254
462.05700,0.008083609999
462.05750,-1.823082836
462.05800,-3.349054875
462.05850,-3.654249282
462.05900,-2.738666059
462.05950,-2.738666059
462.06000,-2.433471652
462.06050,0.008083609999
462.06100,4.585999726
462.06150,6.722360579
462.06200,5.196388541
462.06250,3.670416502
462.06300,3.060027687
462.06350,1.534055649
462.06400,-1.823082836
462.06450,-3.654249282
462.06500,-0.2971107977
462.06550,3.365222095
462.06600,2.754833279
462.06650,-0.2971107977
462.06700,0.008083609999
462.06750,3.670416502
462.06800,6.722360579
462.06850,5.501582949
462.06900,3.060027687
462.06950,3.365222095
462.07000,5.196388541
462.07050,6.111971764
462.07100,5.196388541
462.07150,3.97561091
462.07200,3.060027687
462.07250,2.449638872
462.07300,0.9236668331
462.07350,-1.212694021
462.07400,-3.95944369
462.07450,-4.569832506
462.07500,-2.738666059
462.07550,-0.9074996131
462.07600,-1.823082836
462.07650,-4.875026913
462.07700,-7.011387767
462.07750,-6.706193359
462.07800,-4.264638098
462.07850,-0.9074996131
462.07900,1.534055649
462.07950,2.754833279
462.08000,1.228861241
462.08050,-0.9074996131
462.08100,-2.433471652
462.08150,-2.433471652
462.08200,-2.738666059
462.08250,-3.043860467
462.08300,-3.043860467
462.08350,-2.433471652
462.08400,-1.823082836
462.08450,-0.6023052054
462.08500,2.449638872
462.08550,7.637943803
462.08600,10.68988788
462.08650,9.774304656
462.08700,7.027554987
462.08750,4.585999726
462.08800,3.365222095
462.08850,2.754833279
462.08900,3.060027687
462.08950,3.365222095
462.09000,3.060027687
462.09050,0.9236668331
462.09100,-0.9074996131
462.09150,-0.9074996131
462.09200,0.008083609999
462.09250,0.008083609999
462.09300,-2.128277244
462.09350,-3.95944369
462.09400,-3.95944369
462.09450,-3.654249282
462.09500,-3.654249282
462.09550,-4.264638098
462.09600,-4.264638098
462.09650,-3.349054875
462.09700,-2.433471652
462.09750,-2.128277244
462.09800,-2.128277244
462.09850,-2.738666059
462.09900,-3.654249282
462.09950,-4.569832506
462.10000,-3.95944369
462.10050,-3.043860467
462.10100,-3.349054875
462.10150,-3.654249282
462.10200,-1.212694021
462.10250,2.144444464
462.10300,2.449638872
462.10350,-1.517888429
462.10400,-4.569832506
462.10450,-1.823082836
462.10500,1.839250056
462.10550,0.3132780177
462.10600,-5.790610136
462.10650,-8.842554213
462.10700,-3.654249282
462.10750,3.670416502
462.10800,7.94313821
462.10850,7.027554987
462.10900,4.280805318
462.10950,1.839250056
462.11000,-0.6023052054
462.11050,-3.349054875
462.11100,-5.485415729
462.11150,-5.790610136
462.11200,-3.654249282
462.11250,1.839250056
462.11300,8.858721433
462.11350,12.82624873
462.11400,10.38469347
462.11450,3.97561091
462.11500,-1.823082836
462.11550,-3.95944369
462.11600,-4.264638098
462.11650,-4.264638098
462.11700,-5.180221321
462.11750,-5.180221321
462.11800,-3.95944369
462.11850,-1.823082836
462.11900,0.3132780177
462.11950,3.365222095
462.12000,6.417166172
462.12050,7.94313821
462.12100,6.722360579
462.12150,4.280805318
462.12200,3.060027687
462.12250,3.365222095
462.12300,2.754833279
462.12350,0.3132780177
462.12400,-1.517888429
462.12450,-1.823082836
462.12500,-0.6023052054
462.12550,0.3132780177
462.12600,2.449638872
462.12650,5.501582949
462.12700,7.027554987
462.12750,4.585999726
462.12800,0.6184724254
462.12850,-0.6023052054
462.12900,0.3132780177
462.12950,1.534055649
462.13000,0.6184724254
462.13050,0.008083609999
462.13100,0.3132780177
462.13150,0.6184724254
462.13200,-0.9074996131
462.13250,-3.95944369
462.13300,-5.485415729
462.13350,-5.790610136
462.13400,-4.875026913
462.13450,-3.349054875
462.13500,-1.823082836
462.13550,-1.823082836
462.13600,-4.264638098
462.13650,-6.706193359
462.13700,-6.706193359
462.13750,-4.264638098
462.13800,-1.517888429
462.13850,-0.2971107977
462.13900,-0.6023052054
462.13950,-2.128277244
462.14000,-3.043860467
462.14050,-2.128277244
462.14100,0.3132780177
462.14150,1.839250056
462.14200,0.9236668331
462.14250,-0.9074996131
462.14300,-1.212694021
462.14350,0.008083609999
462.14400,0.008083609999
462.14450,-1.517888429
462.14500,-3.349054875
462.14550,-2.738666059
462.14600,-0.2971107977
462.14650,1.534055649
462.14700,2.144444464
462.14750,2.449638872
462.14800,2.449638872
462.14850,2.144444464
462.14900,1.228861241
462.14950,-0.6023052054
462.15000,-3.043860467
462.15050,-4.569832506
462.15100,-4.264638098
462.15150,-3.043860467
462.15200,-2.433471652
462.15250,-2.433471652
462.15300,-1.823082836
462.15350,0.008083609999
462.15400,1.534055649
462.15450,0.9236668331
462.15500,-1.212694021
462.15550,-3.95944369
462.15600,-5.180221321
462.15650,-4.264638098
462.15700,-2.128277244
462.15750,-0.6023052054
462.15800,-0.6023052054
462.15850,-1.517888429
462.15900,-1.823082836
462.15950,-0.2971107977
462.16000,2.754833279
462.16050,5.806777356
462.16100,6.722360579
462.16150,4.891194133
462.16200,2.754833279
462.16250,1.839250056
462.16300,1.839250056
462.16350,1.228861241
462.16400,0.6184724254
462.16450,0.3132780177
462.16500,-0.2971107977
462.16550,-3.043860467
462.16600,-4.569832506
462.16650,-1.823082836
462.16700,4.585999726
462.16750,9.774304656
462.16800,10.07949906
462.16850,7.637943803
462.16900,4.891194133
462.16950,1.534055649
462.17000,-1.517888429
462.17050,-3.654249282
462.17100,-3.654249282
462.17150,-3.349054875
462.17200,-3.043860467
462.17250,-0.9074996131
462.17300,2.754833279
462.17350,4.280805318
462.17400,1.228861241
462.17450,-0.9074996131
462.17500,0.008083609999
462.17550,1.839250056
462.17600,-0.6023052054
462.17650,-6.400998952
462.17700,-8.537359806
462.17750,-6.095804544
462.17800,-3.654249282
462.17850,-2.433471652
462.17900,0.9236668331
462.17950,7.332749395
462.18000,11.91066551
462.18050,10.68988788
462.18100,7.332749395
462.18150,6.111971764
462.18200,6.111971764
462.18250,4.891194133
462.18300,1.534055649
462.18350,-1.823082836
462.18400,-4.569832506
462.18450,-5.180221321
462.18500,-3.043860467
462.18550,0.3132780177
462.18600,1.839250056
462.18650,0.6184724254
462.18700,-1.823082836
462.18750,-3.654249282
462.18800,-4.569832506
462.18850,-6.095804544
462.18900,-8.537359806
462.18950,-9.758137436
462.19000,-7.621776583
462.19050,-0.2971107977
462.19100,9.163915841
462.19150,14.65741518
462.19200,12.21585992
462.19250,5.806777356
462.19300,3.365222095
462.19350,6.417166172
462.19400,10.38469347
462.19450,9.469110249
462.19500,5.501582949
462.19550,2.449638872
462.19600,1.839250056
462.19650,1.534055649
462.19700,0.008083609999
462.19750,-1.517888429
462.19800,-1.823082836
462.19850,-0.6023052054
462.19900,0.008083609999
462.19950,-1.823082836
462.20000,-4.569832506
462.20050,-3.95944369
462.20100,0.6184724254
462.20150,5.501582949
462.20200,5.501582949
462.20250,1.839250056
462.20300,0.008083609999
462.20350,0.008083609999
462.20400,-0.2971107977
462.20450,-2.433471652
462.20500,-4.569832506
462.20550,-4.569832506
462.20600,-3.349054875
462.20650,-0.6023052054
462.20700,3.670416502
462.20750,7.332749395
462.20800,6.417166172
462.20850,2.449638872
462.20900,-0.6023052054
462.20950,-2.128277244
462.21000,-4.569832506
462.21050,-6.400998952
462.21100,-4.875026913
462.21150,0.008083609999
462.21200,0.9236668331
462.21250,-2.738666059
462.21300,-6.706193359
462.21350,-4.875026913
462.21400,-0.2971107977
462.21450,0.3132780177
462.21500,-3.349054875
462.21550,-7.316582175
462.21600,-7.92697099
462.21650,-6.400998952
462.21700,-4.875026913
462.21750,-3.043860467
462.21800,-1.212694021
462.21850,-0.6023052054
462.21900,-1.212694021
462.21950,-0.2971107977
462.22000,2.754833279
462.22050,5.501582949
462.22100,5.196388541
462.22150,1.534055649
462.22200,-1.212694021
462.22250,-0.9074996131
462.22300,1.839250056
462.22350,4.585999726
462.22400,4.585999726
462.22450,2.754833279
462.22500,1.228861241
462.22550,1.228861241
462.22600,2.449638872
462.22650,3.670416502
462.22700,3.060027687
462.22750,1.228861241
462.22800,0.008083609999
462.22850,-0.9074996131
462.22900,-2.128277244
462.22950,-3.654249282
462.23000,-4.264638098
462.23050,-3.043860467
462.23100,-0.6023052054
462.23150,0.008083609999
462.23200,-0.9074996131
462.23250,-2.128277244
462.23300,-1.517888429
462.23350,0.008083609999
462.23400,-0.2971107977
462.23450,-1.823082836
462.23500,-2.433471652
462.23550,-2.433471652
462.23600,-2.738666059
462.23650,-3.349054875
462.23700,-2.433471652
462.23750,0.6184724254
462.23800,3.060027687
462.23850,0.9236668331
462.23900,-2.433471652
462.23950,-3.95944369
462.24000,-2.738666059
462.24050,-2.433471652
462.24100,-3.349054875
462.24150,-2.738666059
462.24200,0.008083609999
462.24250,1.839250056
462.24300,2.449638872
462.24350,3.365222095
462.24400,5.806777356
462.24450,7.332749395
462.24500,6.111971764
462.24550,4.280805318
462.24600,4.280805318
462.24650,4.280805318
462.24700,1.839250056
462.24750,-2.433471652
462.24800,-5.790610136
462.24850,-7.011387767
462.24900,-6.400998952
462.24950,-2.738666059
462.25000,4.280805318
462.25050,11.6054711
462.25100,15.267804
462.25150,14.65741518
462.25200,11.91066551
462.25250,7.94313821
462.25300,2.144444464
462.25350,-3.95944369
462.25400,-9.452943029
462.25450,-13.11527592
462.25500,-14.64124796
462.25550,-14.03085914
462.25600,-11.58930388
462.25650,-7.316582175
462.25700,-3.654249282
462.25750,-1.823082836
462.25800,-1.823082836
462.25850,-2.128277244
462.25900,-2.433471652
462.25950,-1.517888429
462.26000,-0.6023052054
462.26050,-0.2971107977
462.26100,-0.2971107977
462.26150,-1.212694021
462.26200,-3.349054875
462.26250,-6.400998952
462.26300,-7.316582175
462.26350,-2.128277244
462.26400,6.722360579
462.26450,12.52105433
462.26500,10.68988788
462.26550,5.806777356
462.26600,3.670416502
462.26650,4.585999726
462.26700,4.891194133
462.26750,3.365222095
462.26800,2.449638872
462.26850,3.060027687
462.26900,2.144444464
462.26950,-1.212694021
462.27000,-4.875026913
462.27050,-5.180221321
462.27100,-0.6023052054
462.27150,4.585999726
462.27200,7.027554987
462.27250,5.501582949
462.27300,2.449638872
462.27350,-0.6023052054
462.27400,-3.043860467
462.27450,-4.569832506
462.27500,-3.349054875
462.27550,0.9236668331
462.27600,4.891194133
462.27650,5.501582949
462.27700,3.060027687
462.27750,0.6184724254
462.27800,-0.6023052054
462.27850,-2.128277244
462.27900,-3.349054875
462.27950,-1.517888429
462.28000,2.449638872
462.28050,4.891194133
462.28100,2.754833279
462.28150,0.008083609999
462.28200,-0.2971107977
462.28250,0.6184724254
462.28300,0.3132780177
462.28350,-1.517888429
462.28400,-2.433471652
462.28450,-1.517888429
462.28500,-1.517888429
462.28550,-2.433471652
462.28600,-1.517888429
462.28650,1.534055649
462.28700,4.280805318
462.28750,3.670416502
462.28800,1.228861241
462.28850,0.9236668331
462.28900,3.060027687
462.28950,5.196388541
462.29000,4.585999726
462.29050,2.144444464
462.29100,0.3132780177
462.29150,-0.6023052054
462.29200,-2.738666059
462.29250,-5.180221321
462.29300,-4.569832506
462.29350,-0.6023052054
462.29400,3.060027687
462.29450,3.060027687
462.29500,0.008083609999
462.29550,-2.433471652
462.29600,-4.264638098
462.29650,-6.095804544
462.29700,-7.316582175
462.29750,-7.92697099
462.29800,-7.92697099
462.29850,-9.147748621
462.29900,-10.06333184
462.29950,-8.232165398
462.30000,-2.738666059
462.30050,3.060027687
462.30100,6.417166172
462.30150,5.501582949
462.30200,0.9236668331
462.30250,-3.043860467
462.30300,-2.128277244
462.30350,4.891194133
462.30400,12.82624873
462.30450,14.65741518
462.30500,9.774304656
462.30550,4.280805318
462.30600,1.839250056
462.30650,0.008083609999
462.30700,-3.654249282
462.30750,-5.790610136
462.30800,-4.264638098
462.30850,-2.433471652
462.30900,-5.180221321
462.30950,-9.147748621
462.31000,-8.537359806
462.31050,-2.738666059
462.31100,0.9236668331
462.31150,0.3132780177
462.31200,-0.2971107977
462.31250,1.534055649
462.31300,3.670416502
462.31350,2.449638872
462.31400,-0.9074996131
462.31450,-3.349054875
462.31500,-4.264638098
462.31550,-5.485415729
462.31600,-5.485415729
462.31650,-3.043860467
462.31700,0.008083609999
462.31750,0.008083609999
462.31800,-3.349054875
462.31850,-5.485415729
462.31900,-4.264638098
462.31950,-2.433471652
462.32000,-2.128277244
462.32050,-2.738666059
462.32100,0.008083609999
462.32150,6.111971764
462.32200,13.43663755
462.32250,17.09897044
462.32300,14.96260959
462.32350,8.858721433
462.32400,3.060027687
462.32450,0.6184724254
462.32500,1.228861241
462.32550,3.060027687
462.32600,4.891194133
462.32650,6.111971764
462.32700,6.722360579
462.32750,4.891194133
462.32800,1.534055649
462.32850,-1.212694021
462.32900,-2.738666059
462.32950,-1.823082836
462.33000,-0.2971107977
462.33050,0.008083609999
462.33100,-0.2971107977
462.33150,0.3132780177
462.33200,1.839250056
462.33250,2.144444464
462.33300,-0.6023052054
462.33350,-3.95944369
462.33400,-3.654249282
462.33450,-0.9074996131
462.33500,0.008083609999
462.33550,-1.823082836
462.33600,-4.569832506
462.33650,-5.485415729
462.33700,-5.790610136
462.33750,-5.790610136
462.33800,-4.875026913
462.33850,-3.043860467
462.33900,-2.738666059
462.33950,-4.569832506
462.34000,-5.485415729
462.34050,-3.043860467
462.34100,-1.212694021
462.34150,-3.95944369
462.34200,-7.621776583
462.34250,-5.485415729
462.34300,1.839250056
462.34350,7.332749395
462.34400,6.722360579
462.34450,5.501582949
462.34500,7.637943803
462.34550,10.99508229
462.34600,10.38469347
462.34650,7.027554987
462.34700,4.891194133
462.34750,5.196388541
462.34800,5.196388541
462.34850,3.060027687
462.34900,0.3132780177
462.34950,-0.9074996131
462.35000,-2.128277244
462.35050,-3.043860467
462.35100,-3.349054875
462.35150,-2.128277244
462.35200,-0.6023052054
462.35250,0.008083609999
462.35300,-0.2971107977
462.35350,-1.212694021
462.35400,-2.433471652
462.35450,-3.349054875
462.35500,-3.95944369
462.35550,-6.400998952
462.35600,-10.67372066
462.35650,-14.64124796
462.35700,-14.64124796
462.35750,-9.758137436
462.35800,-1.823082836
462.35850,4.891194133
462.35900,9.163915841
462.35950,10.38469347
462.36000,9.469110249
462.36050,7.332749395
462.36100,4.891194133
462.36150,3.060027687
462.36200,1.839250056
462.36250,1.839250056
462.36300,1.534055649
462.36350,0.9236668331
462.36400,0.6184724254
462.36450,1.228861241
462.36500,2.754833279
462.36550,4.280805318
462.36600,4.280805318
462.36650,2.449638872
462.36700,0.3132780177
462.36750,0.008083609999
462.36800,1.839250056
462.36850,4.280805318
462.36900,4.280805318
462.36950,1.534055649
462.37000,-1.517888429
462.37050,-1.212694021
462.37100,2.144444464
462.37150,4.891194133
462.37200,3.365222095
462.37250,-0.6023052054
462.37300,-3.043860467
462.37350,-2.128277244
462.37400,-1.517888429
462.37450,-4.264638098
462.37500,-7.621776583
462.37550,-6.706193359
462.37600,-3.043860467
462.37650,-2.433471652
462.37700,-6.095804544
462.37750,-10.06333184
462.37800,-10.67372066
462.37850,-10.36852625
462.37900,-12.1996927
462.37950,-14.03085914
462.38000,-10.67372066
462.38050,-1.823082836
462.38100,5.196388541
462.38150,6.111971764
462.38200,1.534055649
462.38250,-1.823082836
462.38300,-0.9074996131
462.38350,2.144444464
462.38400,3.670416502
462.38450,3.365222095
462.38500,2.754833279
462.38550,3.670416502
462.38600,3.97561091
462.38650,2.754833279
462.38700,1.839250056
462.38750,3.365222095
462.38800,4.891194133
462.38850,3.365222095
462.38900,0.3132780177
462.38950,0.008083609999
462.39000,2.754833279
462.39050,4.585999726
462.39100,4.585999726
462.39150,3.97561091
462.39200,3.97561091
462.39250,3.060027687
462.39300,1.228861241
462.39350,0.008083609999
462.39400,-0.2971107977
462.39450,-1.517888429
462.39500,-2.738666059
462.39550,-2.433471652
462.39600,-1.823082836
462.39650,-3.043860467
462.39700,-4.875026913
462.39750,-4.875026913
462.39800,-3.654249282
462.39850,-4.569832506
462.39900,-8.232165398
462.39950,-10.97891507
462.40000,-11.28410947
462.40050,-9.758137436
462.40100,-7.92697099
462.40150,-5.180221321
462.40200,-1.212694021
462.40250,3.365222095
462.40300,8.248332618
462.40350,10.99508229
462.40400,7.94313821
462.40450,0.6184724254
462.40500,-2.433471652
462.40550,3.670416502
462.40600,14.35222077
462.40650,19.5405257
462.40700,16.48858163
462.40750,11.30027669
462.40800,9.469110249
462.40850,9.469110249
462.40900,7.94313821
462.40950,4.891194133
462.41000,1.228861241
462.41050,-1.823082836
462.41100,-3.95944369
462.41150,-4.875026913
462.41200,-6.400998952
462.41250,-8.842554213
462.41300,-8.842554213
462.41350,-3.043860467
462.41400,5.196388541
462.41450,9.163915841
462.41500,6.111971764
462.41550,0.9236668331
462.41600,-1.823082836
462.41650,-1.823082836
462.41700,-1.212694021
462.41750,-2.128277244
462.41800,-4.264638098
462.41850,-5.790610136
462.41900,-3.95944369
462.41950,0.008083609999
462.42000,2.449638872
462.42050,0.9236668331
462.42100,0.008083609999
462.42150,2.449638872
462.42200,5.501582949
462.42250,3.97561091
462.42300,-1.212694021
462.42350,-4.569832506
462.42400,-3.349054875
462.42450,-1.212694021
462.42500,-1.212694021
462.42550,-1.212694021
462.42600,0.6184724254
462.42650,3.060027687
462.42700,4.280805318
462.42750,4.585999726
462.42800,5.196388541
462.42850,7.332749395
462.42900,10.38469347
462.42950,12.82624873
462.43000,11.91066551
462.43050,7.027554987
462.43100,1.228861241
462.43150,-1.517888429
462.43200,-2.128277244
462.43250,-2.128277244
462.43300,-2.433471652
462.43350,-2.128277244
462.43400,-2.433471652
462.43450,-3.95944369
462.43500,-6.706193359
462.43550,-7.621776583
462.43600,-7.011387767
462.43650,-7.316582175
462.43700,-7.92697099
462.43750,-7.011387767
462.43800,-3.95944369
462.43850,-2.128277244
462.43900,-2.738666059
462.43950,-3.95944369
462.44000,-3.654249282
462.44050,-3.043860467
462.44100,-2.433471652
462.44150,-0.2971107977
462.44200,4.280805318
462.44250,7.027554987
462.44300,5.196388541
462.44350,1.228861241
462.44400,0.9236668331
462.44450,3.365222095
462.44500,3.365222095
462.44550,0.6184724254
462.44600,-0.9074996131
462.44650,0.3132780177
462.44700,1.534055649
462.44750,-0.2971107977
462.44800,-2.738666059
462.44850,-2.128277244
462.44900,1.534055649
462.44950,4.585999726
462.45000,4.585999726
462.45050,1.839250056
462.45100,-0.9074996131
462.45150,-3.349054875
462.45200,-4.569832506
462.45250,-3.95944369
462.45300,-1.823082836
462.45350,0.3132780177
462.45400,1.228861241
462.45450,0.3132780177
462.45500,-0.9074996131
462.45550,-2.433471652
462.45600,-3.043860467
462.45650,-3.654249282
462.45700,-4.875026913
462.45750,-5.790610136
462.45800,-6.095804544
462.45850,-5.180221321
462.45900,-3.349054875
462.45950,-2.128277244
462.46000,-1.517888429
462.46050,-0.9074996131
462.46100,0.008083609999
462.46150,0.008083609999
462.46200,-0.9074996131
462.46250,-1.517888429
462.46300,-0.9074996131
462.46350,-0.2971107977
462.46400,-0.2971107977
462.46450,-0.9074996131
462.46500,0.008083609999
462.46550,1.839250056
462.46600,3.365222095
462.46650,3.670416502
462.46700,4.280805318
462.46750,5.501582949
462.46800,6.417166172
462.46850,5.196388541
462.46900,2.144444464
462.46950,-1.517888429
462.47000,-5.790610136
462.47050,-9.452943029
462.47100,-10.67372066
462.47150,-8.842554213
462.47200,-5.790610136
462.47250,-4.569832506
462.47300,-3.95944369
462.47350,-3.654249282
462.47400,-3.349054875
462.47450,-3.043860467
462.47500,-2.433471652
462.47550,-1.823082836
462.47600,-1.823082836
462.47650,-2.433471652
462.47700,-2.128277244
462.47750,-2.128277244
462.47800,-3.95944369
462.47850,-6.095804544
462.47900,-5.485415729
462.47950,-2.128277244
462.48000,0.008083609999
462.48050,-0.9074996131
462.48100,-1.212694021
462.48150,1.228861241
462.48200,4.280805318
462.48250,4.891194133
462.48300,4.891194133
462.48350,4.891194133
462.48400,2.754833279
462.48450,-1.517888429
462.48500,-2.433471652
462.48550,6.111971764
462.48600,18.31974807
462.48650,22.28727537
462.48700,16.48858163
462.48750,9.163915841
462.48800,5.806777356
462.48850,4.585999726
462.48900,1.839250056
462.48950,0.008083609999
462.49000,0.008083609999
462.49050,0.3132780177
462.49100,-0.6023052054
462.49150,-2.738666059
462.49200,-3.349054875
462.49250,-1.212694021
462.49300,1.839250056
462.49350,4.280805318
462.49400,4.891194133
462.49450,3.060027687
462.49500,1.228861241
462.49550,0.9236668331
462.49600,1.839250056
462.49650,1.839250056
462.49700,0.3132780177
462.49750,-1.517888429
462.49800,-2.738666059
462.49850,-3.349054875
462.49900,-3.95944369
462.49950,-4.875026913
462.50000,-4.569832506
462.50050,-2.433471652
462.50100,0.9236668331
462.50150,3.365222095
462.50200,2.754833279
462.50250,0.008083609999
462.50300,-1.823082836
462.50350,-1.517888429
462.50400,0.008083609999
462.50450,2.449638872
462.50500,4.280805318
462.50550,6.111971764
462.50600,7.027554987
462.50650,6.722360579
462.50700,5.196388541
462.50750,2.754833279
462.50800,0.008083609999
462.50850,-2.128277244
462.50900,-2.738666059
462.50950,-1.823082836
462.51000,-0.9074996131
462.51050,-1.212694021
462.51100,-1.212694021
462.51150,-0.9074996131
462.51200,-1.212694021
462.51250,-3.95944369
462.51300,-7.011387767
462.51350,-6.706193359
462.51400,-3.043860467
462.51450,0.008083609999
462.51500,0.008083609999
462.51550,-2.128277244
462.51600,-3.654249282
462.51650,-3.349054875
462.51700,-3.654249282
462.51750,-4.875026913
462.51800,-5.180221321
462.51850,-3.95944369
462.51900,-2.738666059
462.51950,-2.433471652
462.52000,-1.212694021
462.52050,1.228861241
462.52100,3.365222095
462.52150,4.280805318
462.52200,4.585999726
462.52250,6.417166172
462.52300,7.637943803
462.52350,7.027554987
462.52400,5.196388541
462.52450,3.97561091
462.52500,3.670416502
462.52550,3.060027687
462.52600,1.839250056
462.52650,1.228861241
462.52700,1.534055649
462.52750,1.839250056
462.52800,0.3132780177
462.52850,-1.517888429
462.52900,-2.738666059
462.52950,-2.738666059
462.53000,-2.738666059
462.53050,-2.433471652
462.53100,-0.2971107977
462.53150,3.365222095
462.53200,5.806777356
462.53250,3.060027687
462.53300,-2.738666059
462.53350,-6.706193359
462.53400,-4.875026913
462.53450,0.008083609999
462.53500,3.670416502
462.53550,4.585999726
462.53600,4.585999726
462.53650,3.97561091
462.53700,1.839250056
462.53750,-2.433471652
462.53800,-7.316582175
462.53850,-10.97891507
462.53900,-11.28410947
462.53950,-8.232165398
462.54000,-2.738666059
462.54050,0.6184724254
462.54100,0.3132780177
462.54150,-1.212694021
462.54200,0.008083609999
462.54250,3.97561091
462.54300,6.722360579
462.54350,5.501582949
462.54400,2.754833279
462.54450,1.534055649
462.54500,2.144444464
462.54550,2.754833279
462.54600,2.144444464
462.54650,0.9236668331
462.54700,-0.2971107977
462.54750,-1.517888429
462.54800,-2.128277244
462.54850,-1.823082836
462.54900,-1.517888429
462.54950,-0.6023052054
462.55000,0.3132780177
462.55050,0.9236668331
462.55100,-0.2971107977
462.55150,-2.738666059
462.55200,-3.654249282
462.55250,-2.433471652
462.55300,-1.517888429
462.55350,-1.212694021
462.55400,-1.823082836
462.55450,-2.433471652
462.55500,-3.654249282
462.55550,-4.569832506
462.55600,-4.569832506
462.55650,-3.349054875
462.55700,-2.433471652
462.55750,-2.128277244
462.55800,-1.823082836
462.55850,-1.212694021
462.55900,-0.9074996131
462.55950,-1.823082836
462.56000,-2.433471652
462.56050,-1.823082836
462.56100,-0.6023052054
462.56150,0.008083609999
462.56200,0.008083609999
462.56250,0.008083609999
462.56300,0.9236668331
462.56350,2.754833279
462.56400,4.891194133
462.56450,5.806777356
462.56500,4.891194133
462.56550,2.754833279
462.56600,0.9236668331
462.56650,0.6184724254
462.56700,0.9236668331
462.56750,1.534055649
462.56800,3.060027687
462.56850,5.196388541
462.56900,6.722360579
462.56950,6.111971764
462.57000,5.196388541
462.57050,4.280805318
462.57100,2.754833279
462.57150,-0.6023052054
462.57200,-6.095804544
462.57250,-9.147748621
462.57300,-7.92697099
462.57350,-3.043860467
462.57400,0.3132780177
462.57450,0.9236668331
462.57500,-0.6023052054
462.57550,-3.043860467
462.57600,-4.569832506
462.57650,-4.264638098
462.57700,-2.738666059
462.57750,-1.823082836
462.57800,-3.654249282
462.57850,-6.706193359
462.57900,-7.92697099
462.57950,-5.485415729
462.58000,-0.9074996131
462.58050,2.449638872
462.58100,5.196388541
462.58150,6.417166172
462.58200,5.501582949
462.58250,3.670416502
462.58300,2.449638872
462.58350,3.060027687
462.58400,4.585999726
462.58450,4.585999726
462.58500,3.97561091
462.58550,3.670416502
462.58600,3.365222095
462.58650,2.144444464
462.58700,0.9236668331
462.58750,1.534055649
462.58800,3.670416502
462.58850,4.891194133
462.58900,5.196388541
462.58950,6.111971764
462.59000,6.722360579
462.59050,5.806777356
462.59100,3.670416502
462.59150,2.144444464
462.59200,2.144444464
462.59250,1.228861241
462.59300,0.008083609999
462.59350,-0.9074996131
462.59400,-1.517888429
462.59450,-3.654249282
462.59500,-7.011387767
462.59550,-7.316582175
462.59600,-2.433471652
462.59650,1.839250056
462.59700,0.6184724254
462.59750,-3.654249282
462.59800,-3.654249282
462.59850,0.6184724254
462.59900,2.754833279
462.59950,0.3132780177
462.60000,-1.517888429
462.60050,0.3132780177
462.60100,3.365222095
462.60150,2.144444464
462.60200,0.008083609999
462.60250,0.008083609999
462.60300,0.008083609999
462.60350,-2.433471652
462.60400,-5.180221321
462.60450,-1.517888429
462.60500,6.417166172
462.60550,11.91066551
462.60600,10.68988788
462.60650,7.94313821
462.60700,7.027554987
462.60750,6.722360579
462.60800,5.196388541
462.60850,3.365222095
462.60900,2.754833279
462.60950,1.534055649
462.61000,-1.212694021
462.61050,-4.569832506
462.61100,-7.011387767
462.61150,-8.232165398
462.61200,-9.147748621
462.61250,-8.842554213
462.61300,-7.621776583
462.61350,-7.92697099
462.61400,-10.36852625
462.61450,-11.89449829
462.61500,-10.97891507
462.61550,-8.537359806
462.61600,-6.095804544
462.61650,-3.349054875
462.61700,-1.212694021
462.61750,-0.2971107977
462.61800,-2.128277244
462.61850,-3.95944369
462.61900,-4.264638098
462.61950,-3.043860467
462.62000,-1.823082836
462.62050,-1.517888429
462.62100,-2.128277244
462.62150,-3.043860467
462.62200,-3.349054875
462.62250,-1.517888429
462.62300,1.534055649
462.62350,3.365222095
462.62400,2.449638872
462.62450,0.008083609999
462.62500,-0.6023052054
462.62550,0.008083609999
462.62600,1.228861241
462.62650,2.754833279
462.62700,4.585999726
462.62750,6.722360579
462.62800,7.637943803
462.62850,7.332749395
462.62900,5.806777356
462.62950,3.670416502
462.63000,1.534055649
462.63050,0.008083609999
462.63100,-0.6023052054
462.63150,-0.6023052054
462.63200,0.008083609999
462.63250,0.3132780177
462.63300,0.9236668331
462.63350,0.3132780177
462.63400,-2.738666059
462.63450,-7.621776583
462.63500,-9.452943029
462.63550,-6.095804544
462.63600,-1.823082836
462.63650,-1.212694021
462.63700,-3.654249282
462.63750,-4.264638098
462.63800,-1.517888429
462.63850,0.6184724254
462.63900,0.6184724254
462.63950,0.008083609999
462.64000,0.3132780177
462.64050,1.228861241
462.64100,0.008083609999
462.64150,-2.738666059
462.64200,-3.95944369
462.64250,-1.823082836
462.64300,2.754833279
462.64350,7.027554987
462.64400,8.858721433
462.64450,7.94313821
462.64500,6.417166172
462.64550,4.585999726
462.64600,2.449638872
462.64650,0.008083609999
462.64700,-1.517888429
462.64750,-0.9074996131
462.64800,1.839250056
462.64850,5.196388541
462.64900,6.417166172
462.64950,5.806777356
462.65000,3.670416502
462.65050,2.754833279
462.65100,3.060027687
462.65150,3.060027687
462.65200,0.9236668331
462.65250,-1.212694021
462.65300,-1.517888429
462.65350,0.6184724254
462.65400,2.754833279
462.65450,2.449638872
462.65500,0.9236668331
462.65550,-0.6023052054
462.65600,-2.128277244
462.65650,-3.95944369
462.65700,-5.180221321
462.65750,-5.485415729
462.65800,-5.485415729
462.65850,-5.790610136
462.65900,-5.180221321
462.65950,-3.043860467
462.66000,-0.6023052054
462.66050,0.008083609999
462.66100,-0.6023052054
462.66150,0.008083609999
462.66200,1.534055649
462.66250,2.449638872
462.66300,2.449638872
462.66350,2.754833279
462.66400,2.754833279
462.66450,1.228861241
462.66500,-1.212694021
462.66550,-3.349054875
462.66600,-3.95944369
462.66650,-3.654249282
462.66700,-2.128277244
462.66750,0.008083609999
462.66800,2.754833279
462.66850,3.060027687
462.66900,0.9236668331
462.66950,-1.212694021
462.67000,-1.517888429
462.67050,0.008083609999
462.67100,1.839250056
462.67150,2.449638872
462.67200,2.144444464
462.67250,0.9236668331
462.67300,-0.6023052054
462.67350,-1.823082836
462.67400,-2.433471652
462.67450,-2.738666059
462.67500,-3.043860467
462.67550,-3.043860467
462.67600,-2.738666059
462.67650,-4.264638098
462.67700,-7.011387767
462.67750,-8.232165398
462.67800,-7.011387767
462.67850,-6.400998952
462.67900,-8.232165398
462.67950,-10.06333184
462.68000,-6.706193359
462.68050,1.534055649
462.68100,9.469110249
462.68150,10.68988788
462.68200,6.111971764
462.68250,2.449638872
462.68300,3.670416502
462.68350,6.722360579
462.68400,7.027554987
462.68450,3.365222095
462.68500,0.008083609999
462.68550,-0.6023052054
462.68600,0.3132780177
462.68650,1.228861241
462.68700,1.534055649
462.68750,1.839250056
462.68800,0.9236668331
462.68850,-2.433471652
462.68900,-5.180221321
462.68950,-1.823082836
462.69000,7.027554987
462.69050,14.65741518
462.69100,15.267804
462.69150,11.6054711
462.69200,8.248332618
462.69250,6.417166172
462.69300,3.365222095
462.69350,-1.212694021
462.69400,-5.180221321
462.69450,-6.400998952
462.69500,-5.790610136
462.69550,-5.485415729
462.69600,-6.095804544
462.69650,-8.232165398
462.69700,-10.97891507
462.69750,-12.1996927
462.69800,-12.50488711
462.69850,-14.64124796
462.69900,-17.99838644
462.69950,-16.47241441
462.70000,-5.180221321
462.70050,9.469110249
462.70100,18.31974807
462.70150,17.40416485
462.70200,12.52105433
462.70250,9.469110249
462.70300,8.553527026
462.70350,6.722360579
462.70400,5.196388541
462.70450,4.585999726
462.70500,5.196388541
462.70550,4.891194133
462.70600,3.97561091
462.70650,3.060027687
462.70700,2.449638872
462.70750,2.144444464
462.70800,2.754833279
462.70850,3.365222095
462.70900,2.144444464
462.70950,0.008083609999
462.71000,-1.823082836
462.71050,-1.823082836
462.71100,-1.823082836
462.71150,-2.433471652
462.71200,-2.738666059
462.71250,-1.823082836
462.71300,-1.823082836
462.71350,-2.738666059
462.71400,-2.738666059
462.71450,-1.823082836
462.71500,-1.517888429
462.71550,-2.738666059
462.71600,-3.043860467
462.71650,-2.738666059
462.71700,-3.95944369
462.71750,-7.316582175
462.71800,-9.147748621
462.71850,-6.400998952
462.71900,-3.043860467
462.71950,-2.738666059
462.72000,-3.349054875
462.72050,-0.6023052054
462.72100,4.585999726
462.72150,7.637943803
462.72200,6.722360579
462.72250,4.280805318
462.72300,3.97561091
462.72350,3.365222095
462.72400,0.9236668331
462.72450,-1.823082836
462.72500,-2.128277244
462.72550,-0.2971107977
462.72600,0.008083609999
462.72650,-0.2971107977
462.72700,0.3132780177
462.72750,3.670416502
462.72800,4.891194133
462.72850,2.144444464
462.72900,-1.212694021
462.72950,0.6184724254
462.73000,7.332749395
462.73050,11.91066551
462.73100,10.38469347
462.73150,6.111971764
462.73200,3.365222095
462.73250,2.144444464
462.73300,0.3132780177
462.73350,-0.6023052054
462.73400,-0.6023052054
462.73450,-0.6023052054
462.73500,-2.433471652
462.73550,-5.180221321
462.73600,-5.790610136
462.73650,-5.485415729
462.73700,-5.790610136
462.73750,-7.316582175
462.73800,-7.316582175
462.73850,-4.875026913
462.73900,-2.128277244
462.73950,-0.6023052054
462.74000,0.008083609999
462.74050,0.6184724254
462.74100,0.008083609999
462.74150,-0.2971107977
462.74200,-0.2971107977
462.74250,0.008083609999
462.74300,-0.2971107977
462.74350,-2.433471652
462.74400,-3.95944369
462.74450,-2.433471652
462.74500,1.534055649
462.74550,5.196388541
462.74600,6.111971764
462.74650,4.891194133
462.74700,3.365222095
462.74750,1.839250056
462.74800,-0.6023052054
462.74850,-3.654249282
462.74900,-5.790610136
462.74950,-4.875026913
462.75000,-3.349054875
462.75050,-3.349054875
462.75100,-4.264638098
462.75150,-2.738666059
462.75200,2.754833279
462.75250,8.858721433
462.75300,9.469110249
462.75350,3.97561091
462.75400,-1.823082836
462.75450,-2.738666059
462.75500,-0.6023052054
462.75550,0.008083609999
462.75600,-2.128277244
462.75650,-2.433471652
462.75700,1.228861241
462.75750,6.722360579
462.75800,9.163915841
462.75850,7.332749395
462.75900,3.670416502
462.75950,-0.2971107977
462.76000,-4.264638098
462.76050,-5.485415729
462.76100,-3.654249282
462.76150,-1.517888429
462.76200,-2.433471652
462.76250,-6.400998952
462.76300,-8.537359806
462.76350,-6.706193359
462.76400,-1.823082836
462.76450,2.449638872
462.76500,4.891194133
462.76550,5.501582949
462.76600,6.417166172
462.76650,8.248332618
462.76700,10.07949906
462.76750,10.68988788
462.76800,9.774304656
462.76850,7.637943803
462.76900,4.891194133
462.76950,1.534055649
462.77000,-0.9074996131
462.77050,-2.128277244
462.77100,-1.823082836
462.77150,-1.823082836
462.77200,-3.349054875
462.77250,-5.180221321
462.77300,-4.875026913
462.77350,-1.823082836
462.77400,1.228861241
462.77450,2.144444464
462.77500,0.008083609999
462.77550,-2.738666059
462.77600,-3.654249282
462.77650,-1.823082836
462.77700,-0.2971107977
462.77750,-1.212694021
462.77800,-3.654249282
462.77850,-4.875026913
462.77900,-3.95944369
462.77950,-2.738666059
462.78000,-2.738666059
462.78050,-2.738666059
462.78100,-1.823082836
462.78150,-0.9074996131
462.78200,-0.6023052054
462.78250,-1.823082836
462.78300,-2.433471652
462.78350,-1.823082836
462.78400,0.008083609999
462.78450,0.6184724254
462.78500,0.008083609999
462.78550,-1.823082836
462.78600,-0.9074996131
462.78650,2.754833279
462.78700,6.417166172
462.78750,5.501582949
462.78800,0.008083609999
462.78850,-4.875026913
462.78900,-5.180221321
462.78950,-0.2971107977
462.79000,5.806777356
462.79050,9.163915841
462.79100,7.332749395
462.79150,2.449638872
462.79200,-0.6023052054
462.79250,-0.9074996131
462.79300,-0.2971107977
462.79350,-1.212694021
462.79400,-2.738666059
462.79450,-2.128277244
462.79500,0.008083609999
462.79550,0.6184724254
462.79600,-0.9074996131
462.79650,-3.043860467
462.79700,-1.517888429
462.79750,2.144444464
462.79800,3.97561091
462.79850,1.839250056
462.79900,-1.823082836
462.79950,-3.95944369
462.80000,-3.654249282
462.80050,-2.738666059
462.80100,-3.043860467
462.80150,-2.433471652
462.80200,1.228861241
462.80250,6.417166172
462.80300,8.248332618
462.80350,5.501582949
462.80400,2.754833279
462.80450,2.449638872
462.80500,3.97561091
462.80550,3.97561091
462.80600,3.670416502
462.80650,3.670416502
462.80700,3.97561091
462.80750,3.365222095
462.80800,3.060027687
462.80850,3.97561091
462.80900,3.670416502
462.80950,0.9236668331
462.81000,-2.128277244
462.81050,-4.264638098
462.81100,-6.400998952
462.81150,-9.452943029
462.81200,-10.67372066
462.81250,-7.316582175
462.81300,-2.128277244
462.81350,-0.2971107977
462.81400,-2.128277244
462.81450,-2.128277244
462.81500,0.008083609999
462.81550,1.839250056
462.81600,0.3132780177
462.81650,-2.738666059
462.81700,-5.180221321
462.81750,-6.400998952
462.81800,-7.011387767
462.81850,-5.790610136
462.81900,-2.738666059
462.81950,0.008083609999
462.82000,0.3132780177
462.82050,0.008083609999
462.82100,0.008083609999
462.82150,1.228861241
462.82200,0.9236668331
462.82250,-0.6023052054
462.82300,-1.212694021
462.82350,1.534055649
462.82400,6.111971764
462.82450,8.248332618
462.82500,7.027554987
462.82550,4.585999726
462.82600,3.670416502
462.82650,3.670416502
462.82700,2.144444464
462.82750,-0.2971107977
462.82800,-0.9074996131
462.82850,0.3132780177
462.82900,1.534055649
462.82950,0.6184724254
462.83000,-0.6023052054
462.83050,-0.9074996131
462.83100,-0.9074996131
462.83150,-0.6023052054
462.83200,-0.6023052054
462.83250,0.008083609999
462.83300,-0.2971107977
462.83350,-1.517888429
462.83400,-2.433471652
462.83450,-2.738666059
462.83500,-3.043860467
462.83550,-3.349054875
462.83600,-3.349054875
462.83650,-2.433471652
462.83700,-0.9074996131
462.83750,-0.6023052054
462.83800,-1.517888429
462.83850,-1.823082836
462.83900,-2.433471652
462.83950,-4.569832506
462.84000,-8.232165398
462.84050,-12.1996927
462.84100,-14.33605355
462.84150,-12.50488711
462.84200,-7.621776583
462.84250,-1.212694021
462.84300,5.501582949
462.84350,12.21585992
462.84400,16.18338722
462.84450,15.5729984
462.84500,10.99508229
462.84550,5.501582949
462.84600,1.534055649
462.84650,-1.517888429
462.84700,-4.264638098
462.84750,-5.180221321
462.84800,-3.349054875
462.84850,0.008083609999
462.84900,2.144444464
462.84950,1.228861241
462.85000,-0.2971107977
462.85050,-1.212694021
462.85100,-0.2971107977
462.85150,0.6184724254
462.85200,0.008083609999
462.85250,-2.128277244
462.85300,-6.706193359
462.85350,-9.452943029
462.85400,-7.316582175
462.85450,-0.6023052054
462.85500,6.111971764
462.85550,8.858721433
462.85600,7.027554987
462.85650,3.365222095
462.85700,0.3132780177
462.85750,-2.128277244
462.85800,-3.95944369
462.85850,-3.043860467
462.85900,0.008083609999
462.85950,2.449638872
462.86000,1.839250056
462.86050,-0.2971107977
462.86100,-1.517888429
462.86150,0.3132780177
462.86200,3.97561091
462.86250,6.722360579
462.86300,7.027554987
462.86350,5.806777356
462.86400,3.97561091
462.86450,2.754833279
462.86500,1.839250056
462.86550,1.534055649
462.86600,3.060027687
462.86650,6.417166172
462.86700,9.163915841
462.86750,9.469110249
462.86800,7.027554987
462.86850,2.754833279
462.86900,-1.823082836
462.86950,-6.706193359
462.87000,-9.758137436
462.87050,-9.147748621
462.87100,-4.875026913
462.87150,0.008083609999
462.87200,2.449638872
462.87250,2.144444464
462.87300,0.008083609999
462.87350,-2.433471652
462.87400,-3.95944369
462.87450,-3.654249282
462.87500,-1.823082836
462.87550,-0.2971107977
462.87600,0.008083609999
462.87650,-0.6023052054
462.87700,-1.517888429
462.87750,-2.738666059
462.87800,-3.654249282
462.87850,-4.264638098
462.87900,-3.654249282
462.87950,-2.128277244
462.88000,0.008083609999
462.88050,1.534055649
462.88100,2.449638872
462.88150,1.839250056
462.88200,0.6184724254
462.88250,0.008083609999
462.88300,1.534055649
462.88350,3.365222095
462.88400,3.365222095
462.88450,1.839250056
462.88500,2.144444464
462.88550,3.97561091
462.88600,4.280805318
462.88650,0.9236668331
462.88700,-2.433471652
462.88750,-3.654249282
462.88800,-3.654249282
462.88850,-3.95944369
462.88900,-3.654249282
462.88950,-0.9074996131
462.89000,2.144444464
462.89050,3.365222095
462.89100,2.144444464
462.89150,1.839250056
462.89200,2.144444464
462.89250,1.228861241
462.89300,0.3132780177
462.89350,0.008083609999
462.89400,-0.2971107977
462.89450,-2.738666059
462.89500,-4.264638098
462.89550,-2.433471652
462.89600,1.228861241
462.89650,2.449638872
462.89700,0.3132780177
462.89750,-0.9074996131
462.89800,-0.2971107977
462.89850,0.008083609999
462.89900,-0.6023052054
462.89950,-1.517888429
462.90000,-0.9074996131
462.90050,-0.2971107977
462.90100,-0.9074996131
462.90150,-2.433471652
462.90200,-4.569832506
462.90250,-6.095804544
462.90300,-4.264638098
462.90350,3.670416502
462.90400,13.43663755
462.90450,16.18338722
462.90500,10.68988788
462.90550,2.754833279
462.90600,0.008083609999
462.90650,0.9236668331
462.90700,3.060027687
462.90750,3.365222095
462.90800,2.449638872
462.90850,1.534055649
462.90900,0.9236668331
462.90950,0.9236668331
462.91000,0.3132780177
462.91050,-1.517888429
462.91100,-3.95944369
462.91150,-4.875026913
462.91200,-4.569832506
462.91250,-4.875026913
462.91300,-5.790610136
462.91350,-5.790610136
462.91400,-4.875026913
462.91450,-4.264638098
462.91500,-2.738666059
462.91550,0.3132780177
462.91600,4.585999726
462.91650,6.111971764
462.91700,4.891194133
462.91750,3.060027687
462.91800,2.144444464
462.91850,0.9236668331
462.91900,-2.433471652
462.91950,-7.621776583
462.92000,-11.58930388
462.92050,-12.50488711
462.92100,-10.36852625
462.92150,-7.011387767
462.92200,-5.180221321
462.92250,-4.569832506
462.92300,-3.043860467
462.92350,0.3132780177
462.92400,4.585999726
462.92450,5.806777356
462.92500,4.280805318
462.92550,2.144444464
462.92600,0.9236668331
462.92650,0.9236668331
462.92700,1.228861241
462.92750,1.228861241
462.92800,0.3132780177
462.92850,-0.6023052054
462.92900,-1.823082836
462.92950,-2.433471652
462.93000,-3.654249282
462.93050,-4.569832506
462.93100,-3.654249282
462.93150,-1.212694021
462.93200,0.9236668331
462.93250,1.534055649
462.93300,1.228861241
462.93350,0.6184724254
462.93400,0.008083609999
462.93450,-1.212694021
462.93500,-1.823082836
462.93550,-1.212694021
462.93600,0.008083609999
462.93650,0.008083609999
462.93700,-2.128277244
462.93750,-4.264638098
462.93800,-4.569832506
462.93850,-3.654249282
462.93900,-1.823082836
462.93950,-0.2971107977
462.94000,0.6184724254
462.94050,1.534055649
462.94100,1.839250056
462.94150,1.228861241
462.94200,0.3132780177
462.94250,0.6184724254
462.94300,1.839250056
462.94350,3.060027687
462.94400,4.891194133
462.94450,7.94313821
462.94500,10.68988788
462.94550,9.163915841
462.94600,3.060027687
462.94650,-2.128277244
462.94700,-1.212694021
462.94750,3.97561091
462.94800,7.027554987
462.94850,5.501582949
462.94900,2.754833279
462.94950,1.839250056
462.95000,1.534055649
462.95050,0.008083609999
462.95100,-1.517888429
462.95150,-1.212694021
462.95200,0.008083609999
462.95250,0.008083609999
462.95300,-1.212694021
462.95350,-2.738666059
462.95400,-3.654249282
462.95450,-3.95944369
462.95500,-3.95944369
462.95550,-2.128277244
462.95600,1.228861241
462.95650,5.501582949
462.95700,7.94313821
462.95750,8.248332618
462.95800,6.111971764
462.95850,2.754833279
462.95900,-0.2971107977
462.95950,-0.9074996131
462.96000,0.9236668331
462.96050,2.754833279
462.96100,1.839250056
462.96150,-0.2971107977
462.96200,-0.9074996131
462.96250,0.3132780177
462.96300,1.228861241
462.96350,0.6184724254
462.96400,0.9236668331
462.96450,3.97561091
462.96500,6.111971764
462.96550,5.196388541
462.96600,3.365222095
462.96650,2.754833279
462.96700,2.449638872
462.96750,-0.2971107977
462.96800,-3.349054875
462.96850,-2.738666059
462.96900,0.9236668331
462.96950,3.365222095
462.97000,3.365222095
462.97050,2.754833279
462.97100,2.449638872
462.97150,0.008083609999
462.97200,-3.95944369
462.97250,-6.400998952
462.97300,-5.180221321
462.97350,-1.823082836
462.97400,0.3132780177
462.97450,0.3132780177
462.97500,-0.2971107977
462.97550,-1.823082836
462.97600,-3.043860467
462.97650,-4.569832506
462.97700,-4.875026913
462.97750,-3.043860467
462.97800,0.008083609999
462.97850,2.754833279
462.97900,2.144444464
462.97950,0.008083609999
462.98000,-0.9074996131
462.98050,-0.9074996131
462.98100,-1.517888429
462.98150,-1.517888429
462.98200,0.6184724254
462.98250,4.280805318
462.98300,5.501582949
462.98350,3.060027687
462.98400,0.9236668331
462.98450,0.6184724254
462.98500,0.008083609999
462.98550,-2.433471652
462.98600,-2.738666059
462.98650,-0.6023052054
462.98700,-1.823082836
462.98750,-8.537359806
462.98800,-14.33605355
462.98850,-13.11527592
462.98900,-7.011387767
462.98950,-3.043860467
462.99000,-3.349054875
462.99050,-4.264638098
462.99100,-3.95944369
462.99150,-2.433471652
462.99200,-1.212694021
462.99250,0.008083609999
462.99300,0.008083609999
462.99350,-0.9074996131
462.99400,-2.433471652
462.99450,-3.043860467
462.99500,-3.95944369
462.99550,-6.095804544
462.99600,-7.621776583
462.99650,-7.011387767
462.99700,-5.485415729
462.99750,-4.569832506
462.99800,-4.264638098
462.99850,-3.349054875
462.99900,-1.517888429
462.99950,0.008083609999
463.00000,2.449638872
463.00050,6.722360579
463.00100,9.774304656
463.00150,9.163915841
463.00200,6.417166172
463.00250,5.196388541
463.00300,5.196388541
463.00350,4.891194133
463.00400,4.585999726
463.00450,4.280805318
463.00500,3.670416502
463.00550,2.754833279
463.00600,4.891194133
463.00650,11.6054711
463.00700,18.93013689
463.00750,19.84572011
463.00800,13.74183196
463.00850,6.111971764
463.00900,0.9236668331
463.00950,-3.043860467
463.01000,-6.095804544
463.01050,-5.180221321
463.01100,0.008083609999
463.01150,5.806777356
463.01200,8.248332618
463.01250,7.027554987
463.01300,4.891194133
463.01350,2.449638872
463.01400,0.008083609999
463.01450,-1.823082836
463.01500,-3.043860467
463.01550,-4.875026913
463.01600,-8.232165398
463.01650,-12.50488711
463.01700,-16.47241441
463.01750,-20.43994171
463.01800,-24.1022746
463.01850,-24.40746901
463.01900,-20.74513611
463.01950,-15.55683118
463.02000,-11.28410947
463.02050,-7.621776583
463.02100,-1.823082836
463.02150,4.280805318
463.02200,7.027554987
463.02250,6.417166172
463.02300,4.891194133
463.02350,4.891194133
463.02400,3.97561091
463.02450,1.228861241
463.02500,-0.6023052054
463.02550,0.3132780177
463.02600,3.060027687
463.02650,2.449638872
463.02700,0.3132780177
463.02750,0.9236668331
463.02800,5.806777356
463.02850,10.99508229
463.02900,11.91066551
463.02950,10.07949906
463.03000,7.637943803
463.03050,4.891194133
463.03100,0.3132780177
463.03150,-2.738666059
463.03200,-0.9074996131
463.03250,3.97561091
463.03300,6.417166172
463.03350,3.365222095
463.03400,-1.823082836
463.03450,-3.95944369
463.03500,-2.128277244
463.03550,-1.823082836
463.03600,-5.180221321
463.03650,-8.537359806
463.03700,-7.92697099
463.03750,-3.95944369
463.03800,-2.128277244
463.03850,-3.349054875
463.03900,-5.180221321
463.03950,-4.569832506
463.04000,-1.823082836
463.04050,0.9236668331
463.04100,3.670416502
463.04150,4.280805318
463.04200,2.449638872
463.04250,0.008083609999
463.04300,0.008083609999
463.04350,3.060027687
463.04400,4.891194133
463.04450,3.670416502
463.04500,3.97561091
463.04550,8.248332618
463.04600,13.43663755
463.04650,14.65741518
463.04700,10.99508229
463.04750,7.332749395
463.04800,6.722360579
463.04850,7.94313821
463.04900,7.94313821
463.04950,5.501582949
463.05000,2.449638872
463.05050,1.228861241
463.05100,0.6184724254
463.05150,-0.9074996131
463.05200,-4.569832506
463.05250,-6.095804544
463.05300,-4.264638098
463.05350,-3.043860467
463.05400,-5.180221321
463.05450,-7.316582175
463.05500,-3.654249282
463.05550,2.144444464
463.05600,3.670416502
463.05650,-0.2971107977
463.05700,-2.433471652
463.05750,1.228861241
463.05800,7.332749395
463.05850,8.858721433
463.05900,6.722360579
463.05950,4.891194133
463.06000,4.280805318
463.06050,1.839250056
463.06100,-2.128277244
463.06150,-4.569832506
463.06200,-3.349054875
463.06250,-0.2971107977
463.06300,0.6184724254
463.06350,0.008083609999
463.06400,-0.9074996131
463.06450,-0.2971107977
463.06500,-0.2971107977
463.06550,-2.433471652
463.06600,-4.264638098
463.06650,-1.517888429
463.06700,3.365222095
463.06750,4.585999726
463.06800,0.3132780177
463.06850,-3.95944369
463.06900,-4.875026913
463.06950,-4.875026913
463.07000,-7.621776583
463.07050,-9.147748621
463.07100,-4.569832506
463.07150,3.97561091
463.07200,10.68988788
463.07250,12.21585992
463.07300,10.38469347
463.07350,7.332749395
463.07400,3.670416502
463.07450,1.534055649
463.07500,0.6184724254
463.07550,-2.128277244
463.07600,-8.232165398
463.07650,-12.1996927
463.07700,-8.842554213
463.07750,-1.823082836
463.07800,-0.2971107977
463.07850,-5.790610136
463.07900,-10.97891507
463.07950,-10.06333184
463.08000,-5.485415729
463.08050,-2.433471652
463.08100,-1.517888429
463.08150,-0.6023052054
463.08200,0.3132780177
463.08250,0.3132780177
463.08300,-0.9074996131
463.08350,-2.128277244
463.08400,-1.212694021
463.08450,1.228861241
463.08500,3.97561091
463.08550,4.891194133
463.08600,3.365222095
463.08650,1.534055649
463.08700,2.144444464
463.08750,5.196388541
463.08800,7.637943803
463.08850,7.332749395
463.08900,4.280805318
463.08950,0.6184724254
463.09000,-0.9074996131
463.09050,-1.517888429
463.09100,-2.738666059
463.09150,-5.180221321
463.09200,-7.92697099
463.09250,-8.232165398
463.09300,-6.400998952
463.09350,-3.654249282
463.09400,-2.128277244
463.09450,-1.823082836
463.09500,-3.043860467
463.09550,-4.569832506
463.09600,-5.485415729
463.09650,-4.875026913
463.09700,-3.95944369
463.09750,-3.95944369
463.09800,-4.264638098
463.09850,-3.95944369
463.09900,-3.95944369
463.09950,-5.180221321
463.10000,-6.400998952
463.10050,-3.95944369
463.10100,1.534055649
463.10150,5.806777356
463.10200,6.111971764
463.10250,3.97561091
463.10300,2.449638872
463.10350,2.144444464
463.10400,1.839250056
463.10450,1.839250056
463.10500,2.754833279
463.10550,2.754833279
463.10600,1.228861241
463.10650,0.008083609999
463.10700,0.008083609999
463.10750,0.9236668331
463.10800,1.228861241
463.10850,0.6184724254
463.10900,0.008083609999
463.10950,-0.9074996131
463.11000,-1.212694021
463.11050,-0.9074996131
463.11100,0.008083609999
463.11150,0.9236668331
463.11200,0.008083609999
463.11250,-3.043860467
463.11300,-5.790610136
463.11350,-6.400998952
463.11400,-5.485415729
463.11450,-3.95944369
463.11500,-1.517888429
463.11550,2.144444464
463.11600,5.196388541
463.11650,4.891194133
463.11700,1.839250056
463.11750,-0.2971107977
463.11800,0.6184724254
463.11850,3.365222095
463.11900,3.97561091
463.11950,2.144444464
463.12000,1.839250056
463.12050,3.365222095
463.12100,3.670416502
463.12150,0.3132780177
463.12200,-4.264638098
463.12250,-6.706193359
463.12300,-6.400998952
463.12350,-3.95944369
463.12400,0.6184724254
463.12450,7.027554987
463.12500,12.52105433
463.12550,13.74183196
463.12600,11.6054711
463.12650,8.553527026
463.12700,5.196388541
463.12750,1.839250056
463.12800,-0.9074996131
463.12850,-3.043860467
463.12900,-4.875026913
463.12950,-6.706193359
463.13000,-5.790610136
463.13050,-1.823082836
463.13100,2.449638872
463.13150,4.280805318
463.13200,4.280805318
463.13250,4.891194133
463.13300,6.417166172
463.13350,5.806777356
463.13400,3.670416502
463.13450,2.449638872
463.13500,3.060027687
463.13550,2.754833279
463.13600,-0.2971107977
463.13650,-3.654249282
463.13700,-1.823082836
463.13750,2.754833279
463.13800,5.501582949
463.13850,3.670416502
463.13900,1.228861241
463.13950,2.144444464
463.14000,3.670416502
463.14050,1.228861241
463.14100,-4.569832506
463.14150,-7.316582175
463.14200,-4.569832506
463.14250,-0.6023052054
463.14300,-0.6023052054
463.14350,-2.738666059
463.14400,-2.738666059
463.14450,-0.9074996131
463.14500,-0.6023052054
463.14550,-1.823082836
463.14600,-1.212694021
463.14650,1.839250056
463.14700,4.585999726
463.14750,3.365222095
463.14800,-0.9074996131
463.14850,-4.569832506
463.14900,-5.790610136
463.14950,-4.875026913
463.15000,-3.349054875
463.15050,-1.823082836
463.15100,-0.9074996131
463.15150,0.008083609999
463.15200,2.754833279
463.15250,5.196388541
463.15300,5.501582949
463.15350,3.365222095
463.15400,0.6184724254
463.15450,-0.2971107977
463.15500,-1.212694021
463.15550,-2.738666059
463.15600,-4.264638098
463.15650,-5.485415729
463.15700,-6.400998952
463.15750,-7.621776583
463.15800,-8.842554213
463.15850,-8.842554213
463.15900,-7.621776583
463.15950,-5.790610136
463.16000,-4.264638098
463.16050,-3.654249282
463.16100,-4.264638098
463.16150,-4.569832506
463.16200,-2.433471652
463.16250,2.449638872
463.16300,9.163915841
463.16350,13.43663755
463.16400,14.35222077
463.16450,13.13144314
463.16500,10.99508229
463.16550,7.332749395
463.16600,2.449638872
463.16650,-0.9074996131
463.16700,-1.823082836
463.16750,-1.212694021
463.16800,-1.212694021
463.16850,-1.823082836
463.16900,-2.433471652
463.16950,-3.349054875
463.17000,-4.569832506
463.17050,-3.95944369
463.17100,0.6184724254
463.17150,6.722360579
463.17200,8.248332618
463.17250,3.97561091
463.17300,-1.823082836
463.17350,-5.485415729
463.17400,-7.316582175
463.17450,-9.758137436
463.17500,-10.36852625
463.17550,-6.706193359
463.17600,0.008083609999
463.17650,3.97561091
463.17700,2.449638872
463.17750,-2.128277244
463.17800,-5.180221321
463.17850,-3.654249282
463.17900,0.3132780177
463.17950,2.144444464
463.18000,-0.2971107977
463.18050,-5.180221321
463.18100,-7.011387767
463.18150,-3.95944369
463.18200,0.3132780177
463.18250,2.144444464
463.18300,0.9236668331
463.18350,0.008083609999
463.18400,1.228861241
463.18450,3.060027687
463.18500,2.754833279
463.18550,0.9236668331
463.18600,-0.9074996131
463.18650,-2.128277244
463.18700,-0.9074996131
463.18750,2.144444464
463.18800,7.027554987
463.18850,9.774304656
463.18900,9.163915841
463.18950,5.806777356
463.19000,3.365222095
463.19050,2.754833279
463.19100,2.754833279
463.19150,2.144444464
463.19200,1.228861241
463.19250,0.6184724254
463.19300,-0.2971107977
463.19350,-2.433471652
463.19400,-3.95944369
463.19450,-3.95944369
463.19500,-3.349054875
463.19550,-3.349054875
463.19600,-3.95944369
463.19650,-4.264638098
463.19700,-4.569832506
463.19750,-5.180221321
463.19800,-5.485415729
463.19850,-4.569832506
463.19900,-3.654249282
463.19950,-3.95944369
463.20000,-3.349054875
463.20050,-0.2971107977
463.20100,3.670416502
463.20150,5.501582949
463.20200,3.97561091
463.20250,2.754833279
463.20300,4.280805318
463.20350,6.417166172
463.20400,5.196388541
463.20450,1.534055649
463.20500,-0.2971107977
463.20550,0.3132780177
463.20600,2.449638872
463.20650,3.060027687
463.20700,1.534055649
463.20750,0.008083609999
463.20800,0.008083609999
463.20850,1.228861241
463.20900,1.228861241
463.20950,-0.6023052054
463.21000,-3.349054875
463.21050,-3.043860467
463.21100,0.008083609999
463.21150,2.449638872
463.21200,0.6184724254
463.21250,-2.738666059
463.21300,-4.264638098
463.21350,-3.654249282
463.21400,-2.433471652
463.21450,-2.128277244
463.21500,-2.128277244
463.21550,-2.433471652
463.21600,-3.043860467
463.21650,-3.349054875
463.21700,-2.433471652
463.21750,-1.823082836
463.21800,-3.043860467
463.21850,-4.569832506
463.21900,-4.875026913
463.21950,-3.349054875
463.22000,-3.349054875
463.22050,-5.180221321
463.22100,-5.485415729
463.22150,-2.738666059
463.22200,0.3132780177
463.22250,0.3132780177
463.22300,-3.043860467
463.22350,-6.095804544
463.22400,-5.485415729
463.22450,-1.823082836
463.22500,3.060027687
463.22550,7.027554987
463.22600,8.858721433
463.22650,8.553527026
463.22700,7.94313821
463.22750,9.774304656
463.22800,13.43663755
463.22850,15.87819281
463.22900,14.35222077
463.22950,9.469110249
463.23000,4.891194133
463.23050,3.670416502
463.23100,4.280805318
463.23150,3.670416502
463.23200,1.228861241
463.23250,-0.6023052054
463.23300,-1.823082836
463.23350,-2.738666059
463.23400,-3.95944369
463.23450,-3.349054875
463.23500,0.008083609999
463.23550,4.280805318
463.23600,4.891194133
463.23650,1.534055649
463.23700,-2.433471652
463.23750,-5.180221321
463.23800,-5.790610136
463.23850,-6.095804544
463.23900,-6.095804544
463.23950,-4.569832506
463.24000,-1.517888429
463.24050,0.6184724254
463.24100,0.3132780177
463.24150,-1.517888429
463.24200,-2.738666059
463.24250,0.008083609999
463.24300,4.585999726
463.24350,8.553527026
463.24400,9.774304656
463.24450,9.163915841
463.24500,7.332749395
463.24550,4.585999726
463.24600,0.9236668331
463.24650,-1.517888429
463.24700,-2.433471652
463.24750,-2.433471652
463.24800,-3.043860467
463.24850,-4.264638098
463.24900,-5.485415729
463.24950,-5.790610136
463.25000,-4.875026913
463.25050,-2.128277244
463.25100,0.008083609999
463.25150,0.008083609999
463.25200,-1.212694021
463.25250,-1.823082836
463.25300,-1.517888429
463.25350,-1.517888429
463.25400,-2.128277244
463.25450,-0.6023052054
463.25500,3.060027687
463.25550,6.417166172
463.25600,5.501582949
463.25650,2.144444464
463.25700,0.008083609999
463.25750,0.008083609999
463.25800,0.3132780177
463.25850,0.008083609999
463.25900,-0.2971107977
463.25950,-0.2971107977
463.26000,0.008083609999
463.26050,0.008083609999
463.26100,-0.6023052054
463.26150,-0.9074996131
463.26200,-0.2971107977
463.26250,0.3132780177
463.26300,0.3132780177
463.26350,0.008083609999
463.26400,0.008083609999
463.26450,0.008083609999
463.26500,-1.212694021
463.26550,-2.738666059
463.26600,-0.9074996131
463.26650,5.196388541
463.26700,11.91066551
463.26750,13.43663755
463.26800,9.469110249
463.26850,4.585999726
463.26900,1.228861241
463.26950,-0.2971107977
463.27000,-1.212694021
463.27050,-1.212694021
463.27100,-0.2971107977
463.27150,-0.9074996131
463.27200,-4.264638098
463.27250,-7.621776583
463.27300,-8.232165398
463.27350,-5.485415729
463.27400,-0.9074996131
463.27450,2.144444464
463.27500,1.839250056
463.27550,-1.212694021
463.27600,-3.043860467
463.27650,-0.9074996131
463.27700,3.060027687
463.27750,4.585999726
463.27800,1.534055649
463.27850,-2.433471652
463.27900,-4.875026913
463.27950,-5.180221321
463.28000,-5.180221321
463.28050,-4.875026913
463.28100,-1.823082836
463.28150,2.449638872
463.28200,5.196388541
463.28250,4.585999726
463.28300,1.534055649
463.28350,-0.2971107977
463.28400,0.008083609999
463.28450,1.228861241
463.28500,1.839250056
463.28550,1.228861241
463.28600,0.6184724254
463.28650,1.228861241
463.28700,2.449638872
463.28750,3.060027687
463.28800,2.449638872
463.28850,1.228861241
463.28900,0.3132780177
463.28950,0.008083609999
463.29000,0.008083609999
463.29050,0.6184724254
463.29100,1.228861241
463.29150,0.3132780177
463.29200,-1.212694021
463.29250,-2.738666059
463.29300,-3.654249282
463.29350,-4.264638098
463.29400,-4.569832506
463.29450,-3.95944369
463.29500,-2.738666059
463.29550,-1.823082836
463.29600,-1.212694021
463.29650,-1.212694021
463.29700,-1.212694021
463.29750,-0.9074996131
463.29800,-0.6023052054
463.29850,-2.128277244
463.29900,-4.875026913
463.29950,-7.92697099
463.30000,-8.842554213
463.30050,-7.621776583
463.30100,-5.790610136
463.30150,-3.043860467
463.30200,1.228861241
463.30250,6.722360579
463.30300,10.07949906
463.30350,9.469110249
463.30400,6.722360579
463.30450,4.280805318
463.30500,2.449638872
463.30550,0.3132780177
463.30600,-1.517888429
463.30650,-1.517888429
463.30700,0.9236668331
463.30750,3.97561091
463.30800,5.501582949
463.30850,4.891194133
463.30900,3.670416502
463.30950,1.228861241
463.31000,-1.212694021
463.31050,-3.043860467
463.31100,-2.433471652
463.31150,-0.9074996131
463.31200,-0.2971107977
463.31250,-1.212694021
463.31300,-3.349054875
463.31350,-5.180221321
463.31400,-6.400998952
463.31450,-6.400998952
463.31500,-6.095804544
463.31550,-6.706193359
463.31600,-8.842554213
463.31650,-10.67372066
463.31700,-9.147748621
463.31750,-4.264638098
463.31800,0.3132780177
463.31850,1.534055649
463.31900,0.3132780177
463.31950,-0.2971107977
463.32000,-0.9074996131
463.32050,-1.823082836
463.32100,-2.433471652
463.32150,-0.2971107977
463.32200,3.060027687
463.32250,4.280805318
463.32300,2.449638872
463.32350,0.6184724254
463.32400,1.839250056
463.32450,5.806777356
463.32500,9.163915841
463.32550,10.99508229
463.32600,10.99508229
463.32650,9.163915841
463.32700,5.806777356
463.32750,3.060027687
463.32800,0.3132780177
463.32850,-2.433471652
463.32900,-6.095804544
463.32950,-7.621776583
463.33000,-5.790610136
463.33050,-1.212694021
463.33100,2.144444464
463.33150,3.97561091
463.33200,3.670416502
463.33250,1.534055649
463.33300,-1.212694021
463.33350,-3.349054875
463.33400,-4.569832506
463.33450,-4.569832506
463.33500,-3.349054875
463.33550,-2.128277244
463.33600,-3.349054875
463.33650,-6.400998952
463.33700,-8.537359806
463.33750,-8.232165398
463.33800,-7.621776583
463.33850,-6.706193359
463.33900,-3.95944369
463.33950,1.228861241
463.34000,4.891194133
463.34050,3.97561091
463.34100,1.839250056
463.34150,3.060027687
463.34200,5.806777356
463.34250,4.585999726
463.34300,0.008083609999
463.34350,-0.2971107977
463.34400,3.365222095
463.34450,6.722360579
463.34500,5.196388541
463.34550,2.754833279
463.34600,2.144444464
463.34650,0.9236668331
463.34700,-1.517888429
463.34750,-0.9074996131
463.34800,5.501582949
463.34850,12.21585992
463.34900,11.91066551
463.34950,7.332749395
463.35000,4.585999726
463.35050,4.280805318
463.35100,2.754833279
463.35150,0.3132780177
463.35200,0.008083609999
463.35250,1.534055649
463.35300,0.3132780177
463.35350,-4.264638098
463.35400,-8.232165398
463.35450,-9.452943029
463.35500,-9.452943029
463.35550,-8.842554213
463.35600,-5.180221321
463.35650,0.008083609999
463.35700,2.144444464
463.35750,-1.823082836
463.35800,-7.92697099
463.35850,-10.06333184
463.35900,-8.232165398
463.35950,-7.316582175
463.36000,-9.452943029
463.36050,-9.452943029
463.36100,-2.738666059
463.36150,8.553527026
463.36200,19.5405257
463.36250,23.81324741
463.36300,21.06649774
463.36350,15.267804
463.36400,10.68988788
463.36450,8.858721433
463.36500,7.027554987
463.36550,4.585999726
463.36600,3.97561091
463.36650,7.332749395
463.36700,9.469110249
463.36750,5.501582949
463.36800,-1.212694021
463.36850,-1.823082836
463.36900,5.501582949
463.36950,12.52105433
463.37000,10.68988788
463.37050,3.060027687
463.37100,-2.738666059
463.37150,-5.180221321
463.37200,-6.400998952
463.37250,-6.095804544
463.37300,-2.738666059
463.37350,0.008083609999
463.37400,-1.823082836
463.37450,-6.706193359
463.37500,-5.790610136
463.37550,1.228861241
463.37600,6.111971764
463.37650,4.280805318
463.37700,0.3132780177
463.37750,-0.2971107977
463.37800,-0.9074996131
463.37850,-4.264638098
463.37900,-7.011387767
463.37950,-4.875026913
463.38000,-0.9074996131
463.38050,-0.9074996131
463.38100,-4.264638098
463.38150,-5.790610136
463.38200,-3.95944369
463.38250,-2.128277244
463.38300,-2.128277244
463.38350,-2.738666059
463.38400,-2.128277244
463.38450,-2.128277244
463.38500,-2.738666059
463.38550,-2.433471652
463.38600,-1.517888429
463.38650,-0.6023052054
463.38700,0.6184724254
463.38750,2.754833279
463.38800,3.97561091
463.38850,2.754833279
463.38900,1.228861241
463.38950,2.144444464
463.39000,3.97561091
463.39050,3.060027687
463.39100,-0.2971107977
463.39150,-2.738666059
463.39200,-2.433471652
463.39250,-1.212694021
463.39300,-1.823082836
463.39350,-3.043860467
463.39400,-3.95944369
463.39450,-4.875026913
463.39500,-6.400998952
463.39550,-7.011387767
463.39600,-6.706193359
463.39650,-6.706193359
463.39700,-7.316582175
463.39750,-6.706193359
463.39800,-4.875026913
463.39850,-3.95944369
463.39900,-5.485415729
463.39950,-7.92697099
463.40000,-7.92697099
463.40050,-6.095804544
463.40100,-4.875026913
463.40150,-4.264638098
463.40200,-1.823082836
463.40250,1.839250056
463.40300,4.585999726
463.40350,3.670416502
463.40400,0.6184724254
463.40450,-0.6023052054
463.40500,0.008083609999
463.40550,1.228861241
463.40600,1.839250056
463.40650,1.534055649
463.40700,1.228861241
463.40750,1.534055649
463.40800,3.670416502
463.40850,6.722360579
463.40900,9.163915841
463.40950,9.163915841
463.41000,7.027554987
463.41050,4.280805318
463.41100,1.534055649
463.41150,0.008083609999
463.41200,-0.2971107977
463.41250,-0.2971107977
463.41300,-0.6023052054
463.41350,-0.9074996131
463.41400,-0.9074996131
463.41450,-0.9074996131
463.41500,-1.212694021
463.41550,-2.433471652
463.41600,-2.738666059
463.41650,-0.6023052054
463.41700,3.670416502
463.41750,7.027554987
463.41800,6.722360579
463.41850,2.449638872
463.41900,-2.738666059
463.41950,-6.095804544
463.42000,-7.621776583
463.42050,-7.92697099
463.42100,-7.92697099
463.42150,-5.485415729
463.42200,-0.6023052054
463.42250,3.365222095
463.42300,4.280805318
463.42350,3.060027687
463.42400,2.754833279
463.42450,3.060027687
463.42500,1.534055649
463.42550,-1.517888429
463.42600,-4.264638098
463.42650,-4.264638098
463.42700,-3.654249282
463.42750,-3.349054875
463.42800,-2.433471652
463.42850,0.008083609999
463.42900,1.228861241
463.42950,2.144444464
463.43000,5.196388541
463.43050,10.99508229
463.43100,14.96260959
463.43150,12.21585992
463.43200,4.585999726
463.43250,-2.738666059
463.43300,-7.92697099
463.43350,-11.89449829
463.43400,-13.11527592
463.43450,-10.36852625
463.43500,-4.569832506
463.43550,0.3132780177
463.43600,2.144444464
463.43650,1.839250056
463.43700,0.6184724254
463.43750,-0.6023052054
463.43800,-0.6023052054
463.43850,1.534055649
463.43900,5.196388541
463.43950,7.027554987
463.44000,5.501582949
463.44050,1.839250056
463.44100,-0.9074996131
463.44150,-2.433471652
463.44200,-3.043860467
463.44250,-2.738666059
463.44300,-1.212694021
463.44350,1.228861241
463.44400,3.97561091
463.44450,3.365222095
463.44500,-0.2971107977
463.44550,-4.875026913
463.44600,-6.400998952
463.44650,-4.264638098
463.44700,-1.212694021
463.44750,0.008083609999
463.44800,0.008083609999
463.44850,1.228861241
463.44900,4.585999726
463.44950,7.94313821
463.45000,8.248332618
463.45050,6.111971764
463.45100,5.196388541
463.45150,7.332749395
463.45200,8.553527026
463.45250,5.806777356
463.45300,0.008083609999
463.45350,-3.654249282
463.45400,-4.264638098
463.45450,-3.95944369
463.45500,-4.264638098
463.45550,-2.433471652
463.45600,1.228861241
463.45650,3.670416502
463.45700,0.6184724254
463.45750,-3.95944369
463.45800,-4.875026913
463.45850,-0.6023052054
463.45900,4.280805318
463.45950,5.196388541
463.46000,1.839250056
463.46050,-2.128277244
463.46100,-4.264638098
463.46150,-3.95944369
463.46200,-2.738666059
463.46250,-3.043860467
463.46300,-4.569832506
463.46350,-4.875026913
463.46400,-3.654249282
463.46450,-2.128277244
463.46500,-1.212694021
463.46550,0.9236668331
463.46600,4.585999726
463.46650,7.637943803
463.46700,7.637943803
463.46750,7.027554987
463.46800,8.248332618
463.46850,10.07949906
463.46900,9.774304656
463.46950,6.111971764
463.47000,1.228861241
463.47050,-1.823082836
463.47100,-3.654249282
463.47150,-4.569832506
463.47200,-5.180221321
463.47250,-4.569832506
463.47300,-3.349054875
463.47350,-2.738666059
463.47400,-2.433471652
463.47450,-2.128277244
463.47500,-1.823082836
463.47550,-2.738666059
463.47600,-5.180221321
463.47650,-6.706193359
463.47700,-4.569832506
463.47750,-0.6023052054
463.47800,1.228861241
463.47850,0.3132780177
463.47900,-0.6023052054
463.47950,0.9236668331
463.48000,3.97561091
463.48050,5.501582949
463.48100,3.97561091
463.48150,1.839250056
463.48200,0.3132780177
463.48250,-0.2971107977
463.48300,0.008083609999
463.48350,0.6184724254
463.48400,1.228861241
463.48450,0.6184724254
463.48500,1.839250056
463.48550,6.111971764
463.48600,10.38469347
463.48650,10.07949906
463.48700,5.806777356
463.48750,2.144444464
463.48800,0.9236668331
463.48850,0.008083609999
463.48900,-2.128277244
463.48950,-2.738666059
463.49000,0.008083609999
463.49050,3.060027687
463.49100,4.585999726
463.49150,3.670416502
463.49200,2.144444464
463.49250,0.6184724254
463.49300,-0.2971107977
463.49350,-0.9074996131
463.49400,-0.9074996131
463.49450,-1.517888429
463.49500,-2.738666059
463.49550,-3.043860467
463.49600,-2.738666059
463.49650,-3.349054875
463.49700,-6.095804544
463.49750,-9.147748621
463.49800,-8.537359806
463.49850,-5.485415729
463.49900,-3.349054875
463.49950,-3.95944369
463.50000,-5.180221321
463.50050,-3.95944369
463.50100,-0.9074996131
463.50150,0.3132780177
463.50200,-0.9074996131
463.50250,-3.349054875
463.50300,-4.264638098
463.50350,-4.264638098
463.50400,-4.264638098
463.50450,-3.95944369
463.50500,-1.212694021
463.50550,3.97561091
463.50600,7.332749395
463.50650,4.891194133
463.50700,-1.517888429
463.50750,-5.790610136
463.50800,-4.569832506
463.50850,0.008083609999
463.50900,3.060027687
463.50950,5.196388541
463.51000,7.94313821
463.51050,9.774304656
463.51100,8.858721433
463.51150,6.111971764
463.51200,3.670416502
463.51250,3.365222095
463.51300,4.585999726
463.51350,6.417166172
463.51400,7.94313821
463.51450,7.332749395
463.51500,4.585999726
463.51550,0.008083609999
463.51600,-4.264638098
463.51650,-6.400998952
463.51700,-5.485415729
463.51750,-3.95944369
463.51800,-2.738666059
463.51850,-3.043860467
463.51900,-3.349054875
463.51950,-2.738666059
463.52000,-1.517888429
463.52050,-1.212694021
463.52100,-1.212694021
463.52150,0.008083609999
463.52200,2.449638872
463.52250,2.144444464
463.52300,-0.2971107977
463.52350,-1.517888429
463.52400,1.534055649
463.52450,6.722360579
463.52500,7.637943803
463.52550,3.670416502
463.52600,0.008083609999
463.52650,-1.212694021
463.52700,-0.6023052054
463.52750,0.008083609999
463.52800,0.008083609999
463.52850,-0.2971107977
463.52900,-2.738666059
463.52950,-5.790610136
463.53000,-6.706193359
463.53050,-5.180221321
463.53100,-3.654249282
463.53150,-3.654249282
463.53200,-3.043860467
463.53250,-1.212694021
463.53300,0.008083609999
463.53350,-0.2971107977
463.53400,-1.212694021
463.53450,-0.9074996131
463.53500,-0.6023052054
463.53550,-1.823082836
463.53600,-3.349054875
463.53650,-3.95944369
463.53700,-3.95944369
463.53750,-4.264638098
463.53800,-4.264638098
463.53850,-4.264638098
463.53900,-5.485415729
463.53950,-7.621776583
463.54000,-7.621776583
463.54050,-3.654249282
463.54100,1.228861241
463.54150,3.060027687
463.54200,2.754833279
463.54250,3.365222095
463.54300,5.196388541
463.54350,4.891194133
463.54400,3.365222095
463.54450,3.060027687
463.54500,5.806777356
463.54550,8.248332618
463.54600,7.332749395
463.54650,3.97561091
463.54700,2.449638872
463.54750,4.280805318
463.54800,6.722360579
463.54850,5.501582949
463.54900,1.839250056
463.54950,-0.2971107977
463.55000,1.534055649
463.55050,4.585999726
463.55100,4.891194133
463.55150,2.449638872
463.55200,-0.2971107977
463.55250,-3.043860467
463.55300,-5.485415729
463.55350,-7.316582175
463.55400,-6.095804544
463.55450,-3.349054875
463.55500,-2.433471652
463.55550,-3.654249282
463.55600,-3.043860467
463.55650,-0.2971107977
463.55700,0.9236668331
463.55750,-0.2971107977
463.55800,-1.823082836
463.55850,-1.517888429
463.55900,-1.212694021
463.55950,-2.433471652
463.56000,-3.043860467
463.56050,-2.128277244
463.56100,-2.433471652
463.56150,-5.180221321
463.56200,-5.790610136
463.56250,-1.212694021
463.56300,3.670416502
463.56350,2.754833279
463.56400,-2.738666059
463.56450,-5.790610136
463.56500,-2.433471652
463.56550,3.365222095
463.56600,7.027554987
463.56650,6.722360579
463.56700,3.670416502
463.56750,-0.2971107977
463.56800,-3.349054875
463.56850,-3.349054875
463.56900,-2.433471652
463.56950,-2.738666059
463.57000,-1.823082836
463.57050,3.060027687
463.57100,10.68988788
463.57150,14.96260959
463.57200,13.43663755
463.57250,8.553527026
463.57300,3.670416502
463.57350,-0.2971107977
463.57400,-3.043860467
463.57450,-3.95944369
463.57500,-4.569832506
463.57550,-6.400998952
463.57600,-7.92697099
463.57650,-7.011387767
463.57700,-4.569832506
463.57750,-4.569832506
463.57800,-7.621776583
463.57850,-8.842554213
463.57900,-5.485415729
463.57950,-1.517888429
463.58000,-0.9074996131
463.58050,-3.043860467
463.58100,-3.349054875
463.58150,-0.6023052054
463.58200,1.839250056
463.58250,1.228861241
463.58300,-0.6023052054
463.58350,-0.9074996131
463.58400,1.839250056
463.58450,5.501582949
463.58500,6.722360579
463.58550,3.670416502
463.58600,0.008083609999
463.58650,-0.2971107977
463.58700,4.280805318
463.58750,9.469110249
463.58800,9.469110249
463.58850,4.891194133
463.58900,0.3132780177
463.58950,-0.9074996131
463.59000,-2.738666059
463.59050,-5.485415729
463.59100,-5.180221321
463.59150,0.008083609999
463.59200,7.027554987
463.59250,8.858721433
463.59300,6.417166172
463.59350,4.280805318
463.59400,3.97561091
463.59450,2.449638872
463.59500,0.008083609999
463.59550,-0.9074996131
463.59600,0.6184724254
463.59650,1.839250056
463.59700,0.9236668331
463.59750,0.6184724254
463.59800,1.228861241
463.59850,0.008083609999
463.59900,-3.95944369
463.59950,-7.316582175
463.60000,-9.452943029
463.60050,-13.11527592
463.60100,-17.69319204
463.60150,-19.21916408
463.60200,-17.38799763
463.60250,-17.08280322
463.60300,-18.60877526
463.60350,-12.50488711
463.60400,3.97561091
463.60450,18.93013689
463.60500,19.84572011
463.60550,10.68988788
463.60600,5.196388541
463.60650,6.722360579
463.60700,8.248332618
463.60750,6.111971764
463.60800,5.501582949
463.60850,8.858721433
463.60900,10.99508229
463.60950,8.858721433
463.61000,6.111971764
463.61050,6.722360579
463.61100,7.637943803
463.61150,5.806777356
463.61200,2.754833279
463.61250,1.534055649
463.61300,1.839250056
463.61350,0.3132780177
463.61400,-1.517888429
463.61450,-1.823082836
463.61500,0.008083609999
463.61550,0.9236668331
463.61600,0.008083609999
463.61650,-2.128277244
463.61700,-3.043860467
463.61750,-3.043860467
463.61800,-2.433471652
463.61850,-1.212694021
463.61900,-0.2971107977
463.61950,-0.9074996131
463.62000,-3.043860467
463.62050,-5.485415729
463.62100,-7.011387767
463.62150,-6.706193359
463.62200,-5.790610136
463.62250,-3.654249282
463.62300,0.3132780177
463.62350,5.196388541
463.62400,8.248332618
463.62450,7.332749395
463.62500,5.196388541
463.62550,4.280805318
463.62600,6.111971764
463.62650,7.637943803
463.62700,6.722360579
463.62750,3.365222095
463.62800,0.9236668331
463.62850,0.3132780177
463.62900,1.228861241
463.62950,0.6184724254
463.63000,-1.517888429
463.63050,-3.654249282
463.63100,-1.823082836
463.63150,2.144444464
463.63200,4.891194133
463.63250,3.060027687
463.63300,-0.9074996131
463.63350,-4.264638098
463.63400,-5.790610136
463.63450,-6.400998952
463.63500,-7.011387767
463.63550,-7.621776583
463.63600,-7.92697099
463.63650,-8.537359806
463.63700,-8.537359806
463.63750,-7.316582175
463.63800,-5.180221321
463.63850,-3.349054875
463.63900,-2.433471652
463.63950,-1.212694021
463.64000,1.228861241
463.64050,3.670416502
463.64100,4.585999726
463.64150,3.060027687
463.64200,1.839250056
463.64250,0.6184724254
463.64300,-0.9074996131
463.64350,-3.95944369
463.64400,-6.400998952
463.64450,-5.485415729
463.64500,-0.9074996131
463.64550,3.670416502
463.64600,7.027554987
463.64650,8.858721433
463.64700,9.469110249
463.64750,8.553527026
463.64800,5.196388541
463.64850,1.534055649
463.64900,-0.6023052054
463.64950,-1.212694021
463.65000,-1.212694021
463.65050,-1.212694021
463.65100,-1.517888429
463.65150,-2.433471652
463.65200,-4.569832506
463.65250,-7.011387767
463.65300,-7.011387767
463.65350,-3.043860467
463.65400,2.449638872
463.65450,5.501582949
463.65500,4.585999726
463.65550,3.060027687
463.65600,2.754833279
463.65650,2.449638872
463.65700,0.008083609999
463.65750,-4.264638098
463.65800,-6.400998952
463.65850,-5.790610136
463.65900,-3.95944369
463.65950,-1.823082836
463.66000,0.008083609999
463.66050,1.839250056
463.66100,1.228861241
463.66150,-0.9074996131
463.66200,-3.349054875
463.66250,-3.654249282
463.66300,-2.433471652
463.66350,-0.2971107977
463.66400,1.839250056
463.66450,4.585999726
463.66500,5.501582949
463.66550,3.365222095
463.66600,1.534055649
463.66650,1.839250056
463.66700,4.585999726
463.66750,6.111971764
463.66800,5.196388541
463.66850,2.754833279
463.66900,1.534055649
463.66950,1.839250056
463.67000,3.365222095
463.67050,3.670416502
463.67100,1.228861241
463.67150,-0.9074996131
463.67200,-0.9074996131
463.67250,1.839250056
463.67300,4.280805318
463.67350,3.670416502
463.67400,1.228861241
463.67450,0.008083609999
463.67500,0.6184724254
463.67550,0.6184724254
463.67600,-0.2971107977
463.67650,-1.517888429
463.67700,-2.433471652
463.67750,-3.654249282
463.67800,-5.485415729
463.67850,-6.400998952
463.67900,-5.180221321
463.67950,-3.043860467
463.68000,-0.9074996131
463.68050,0.9236668331
463.68100,3.060027687
463.68150,3.060027687
463.68200,0.008083609999
463.68250,-2.128277244
463.68300,0.008083609999
463.68350,5.806777356
463.68400,7.637943803
463.68450,2.449638872
463.68500,-3.95944369
463.68550,-4.569832506
463.68600,-0.2971107977
463.68650,2.144444464
463.68700,0.3132780177
463.68750,-0.2971107977
463.68800,1.839250056
463.68850,4.585999726
463.68900,4.280805318
463.68950,2.144444464
463.69000,0.6184724254
463.69050,-2.433471652
463.69100,-8.537359806
463.69150,-12.50488711
463.69200,-10.36852625
463.69250,-6.400998952
463.69300,-6.095804544
463.69350,-7.621776583
463.69400,-4.875026913
463.69450,0.9236668331
463.69500,3.97561091
463.69550,2.449638872
463.69600,1.228861241
463.69650,2.754833279
463.69700,2.449638872
463.69750,-1.517888429
463.69800,-7.011387767
463.69850,-9.147748621
463.69900,-7.011387767
463.69950,-2.433471652
463.70000,2.754833279
463.70050,5.806777356
463.70100,3.97561091
463.70150,-0.2971107977
463.70200,-2.738666059
463.70250,-0.2971107977
463.70300,3.670416502
463.70350,5.196388541
463.70400,3.97561091
463.70450,2.449638872
463.70500,0.9236668331
463.70550,-0.6023052054
463.70600,-1.517888429
463.70650,1.228861241
463.70700,7.637943803
463.70750,12.52105433
463.70800,12.82624873
463.70850,9.163915841
463.70900,5.806777356
463.70950,4.891194133
463.71000,3.670416502
463.71050,0.6184724254
463.71100,-1.517888429
463.71150,-1.212694021
463.71200,-0.9074996131
463.71250,-2.738666059
463.71300,-4.569832506
463.71350,-2.433471652
463.71400,1.839250056
463.71450,2.754833279
463.71500,-1.823082836
463.71550,-7.621776583
463.71600,-9.452943029
463.71650,-7.621776583
463.71700,-6.400998952
463.71750,-5.790610136
463.71800,-4.875026913
463.71850,-3.043860467
463.71900,-1.517888429
463.71950,-1.212694021
463.72000,-1.517888429
463.72050,-1.823082836
463.72100,-1.517888429
463.72150,-0.9074996131
463.72200,-0.2971107977
463.72250,-0.2971107977
463.72300,-0.9074996131
463.72350,-0.9074996131
463.72400,0.008083609999
463.72450,1.228861241
463.72500,1.839250056
463.72550,0.9236668331
463.72600,0.008083609999
463.72650,0.3132780177
463.72700,1.839250056
463.72750,3.060027687
463.72800,2.754833279
463.72850,2.144444464
463.72900,3.365222095
463.72950,6.111971764
463.73000,7.637943803
463.73050,6.111971764
463.73100,3.670416502
463.73150,2.144444464
463.73200,2.449638872
463.73250,2.754833279
463.73300,2.449638872
463.73350,1.228861241
463.73400,-0.2971107977
463.73450,-1.823082836
463.73500,-3.043860467
463.73550,-4.264638098
463.73600,-6.706193359
463.73650,-8.232165398
463.73700,-7.316582175
463.73750,-4.264638098
463.73800,-1.517888429
463.73850,-0.2971107977
463.73900,-0.2971107977
463.73950,-1.212694021
463.74000,-2.738666059
463.74050,-3.654249282
463.74100,-3.043860467
463.74150,-2.128277244
463.74200,-1.823082836
463.74250,-1.823082836
463.74300,-1.212694021
463.74350,-0.6023052054
463.74400,-0.6023052054
463.74450,-0.9074996131
463.74500,-0.6023052054
463.74550,-0.2971107977
463.74600,-0.6023052054
463.74650,0.3132780177
463.74700,4.891194133
463.74750,9.774304656
463.74800,10.07949906
463.74850,6.111971764
463.74900,3.670416502
463.74950,4.280805318
463.75000,4.585999726
463.75050,2.144444464
463.75100,-0.2971107977
463.75150,-0.6023052054
463.75200,0.6184724254
463.75250,1.228861241
463.75300,1.839250056
463.75350,3.670416502
463.75400,5.806777356
463.75450,4.891194133
463.75500,1.534055649
463.75550,-0.9074996131
463.75600,-1.823082836
463.75650,-1.823082836
463.75700,-2.433471652
463.75750,-3.043860467
463.75800,-3.654249282
463.75850,-3.95944369
463.75900,-3.95944369
463.75950,-3.349054875
463.76000,-2.738666059
463.76050,-2.128277244
463.76100,-0.6023052054
463.76150,1.839250056
463.76200,3.97561091
463.76250,3.670416502
463.76300,1.228861241
463.76350,0.008083609999
463.76400,-0.2971107977
463.76450,-2.128277244
463.76500,-4.264638098
463.76550,-2.433471652
463.76600,3.060027687
463.76650,8.248332618
463.76700,8.248332618
463.76750,4.891194133
463.76800,3.060027687
463.76850,3.97561091
463.76900,5.196388541
463.76950,5.501582949
463.77000,5.196388541
463.77050,3.670416502
463.77100,0.9236668331
463.77150,-0.2971107977
463.77200,1.534055649
463.77250,5.806777356
463.77300,7.332749395
463.77350,4.891194133
463.77400,1.228861241
463.77450,-1.517888429
463.77500,-4.264638098
463.77550,-7.316582175
463.77600,-9.452943029
463.77650,-9.452943029
463.77700,-8.537359806
463.77750,-7.92697099
463.77800,-7.011387767
463.77850,-3.95944369
463.77900,0.008083609999
463.77950,2.754833279
463.78000,0.9236668331
463.78050,-3.349054875
463.78100,-7.011387767
463.78150,-7.92697099
463.78200,-7.011387767
463.78250,-4.569832506
463.78300,0.008083609999
463.78350,4.585999726
463.78400,6.417166172
463.78450,4.585999726
463.78500,1.839250056
463.78550,1.534055649
463.78600,3.060027687
463.78650,3.670416502
463.78700,3.365222095
463.78750,3.670416502
463.78800,3.670416502
463.78850,1.534055649
463.78900,-1.517888429
463.78950,-2.128277244
463.79000,0.008083609999
463.79050,1.534055649
463.79100,0.3132780177
463.79150,-2.433471652
463.79200,-5.485415729
463.79250,-7.011387767
463.79300,-7.621776583
463.79350,-7.316582175
463.79400,-6.706193359
463.79450,-5.180221321
463.79500,-2.738666059
463.79550,0.9236668331
463.79600,3.670416502
463.79650,2.754833279
463.79700,-0.6023052054
463.79750,-2.738666059
463.79800,-0.6023052054
463.79850,3.365222095
463.79900,6.417166172
463.79950,6.722360579
463.80000,4.891194133
463.80050,2.449638872
463.80100,0.3132780177
463.80150,0.3132780177
463.80200,1.228861241
463.80250,1.534055649
463.80300,1.228861241
463.80350,1.228861241
463.80400,2.144444464
463.80450,2.449638872
463.80500,1.228861241
463.80550,0.008083609999
463.80600,0.6184724254
463.80650,2.754833279
463.80700,4.891194133
463.80750,5.196388541
463.80800,3.670416502
463.80850,0.6184724254
463.80900,-2.433471652
463.80950,-5.790610136
463.81000,-8.842554213
463.81050,-10.67372066
463.81100,-10.67372066
463.81150,-7.316582175
463.81200,-0.2971107977
463.81250,5.501582949
463.81300,6.111971764
463.81350,1.839250056
463.81400,-1.823082836
463.81450,-0.6023052054
463.81500,3.670416502
463.81550,5.806777356
463.81600,3.060027687
463.81650,-1.517888429
463.81700,-4.569832506
463.81750,-6.095804544
463.81800,-6.400998952
463.81850,-5.180221321
463.81900,-3.349054875
463.81950,-2.128277244
463.82000,-1.517888429
463.82050,-0.2971107977
463.82100,2.144444464
463.82150,3.670416502
463.82200,1.839250056
463.82250,0.008083609999
463.82300,0.6184724254
463.82350,5.501582949
463.82400,9.469110249
463.82450,8.858721433
463.82500,4.891194133
463.82550,0.9236668331
463.82600,0.008083609999
463.82650,0.6184724254
463.82700,0.9236668331
463.82750,0.008083609999
463.82800,0.008083609999
463.82850,0.008083609999
463.82900,0.6184724254
463.82950,0.008083609999
463.83000,-1.823082836
463.83050,-3.043860467
463.83100,-2.738666059
463.83150,-2.128277244
463.83200,-0.9074996131
463.83250,0.9236668331
463.83300,2.754833279
463.83350,1.228861241
463.83400,-2.128277244
463.83450,-4.875026913
463.83500,-4.569832506
463.83550,-3.95944369
463.83600,-5.485415729
463.83650,-6.400998952
463.83700,-4.569832506
463.83750,-0.6023052054
463.83800,1.228861241
463.83850,0.3132780177
463.83900,-1.517888429
463.83950,-3.349054875
463.84000,-4.875026913
463.84050,-3.654249282
463.84100,0.008083609999
463.84150,2.754833279
463.84200,1.839250056
463.84250,-0.9074996131
463.84300,-0.9074996131
463.84350,1.839250056
463.84400,3.670416502
463.84450,2.144444464
463.84500,0.9236668331
463.84550,2.449638872
463.84600,3.97561091
463.84650,2.144444464
463.84700,-0.9074996131
463.84750,-1.517888429
463.84800,0.008083609999
463.84850,1.228861241
463.84900,0.6184724254
463.84950,0.3132780177
463.85000,0.3132780177
463.85050,0.008083609999
463.85100,-2.128277244
463.85150,-2.128277244
463.85200,0.3132780177
463.85250,3.97561091
463.85300,4.585999726
463.85350,2.144444464
463.85400,0.008083609999
463.85450,0.008083609999
463.85500,0.9236668331
463.85550,0.6184724254
463.85600,-0.2971107977
463.85650,-1.517888429
463.85700,-2.433471652
463.85750,-3.043860467
463.85800,-2.433471652
463.85850,-0.6023052054
463.85900,0.3132780177
463.85950,-0.9074996131
463.86000,-5.180221321
463.86050,-9.147748621
463.86100,-9.452943029
463.86150,-8.232165398
463.86200,-8.232165398
463.86250,-8.842554213
463.86300,-5.790610136
463.86350,0.9236668331
463.86400,8.248332618
463.86450,10.68988788
463.86500,8.248332618
463.86550,4.891194133
463.86600,3.670416502
463.86650,4.280805318
463.86700,5.196388541
463.86750,5.806777356
463.86800,5.806777356
463.86850,5.196388541
463.86900,4.585999726
463.86950,4.280805318
463.87000,3.670416502
463.87050,2.449638872
463.87100,1.228861241
463.87150,0.6184724254
463.87200,0.6184724254
463.87250,0.008083609999
463.87300,-1.823082836
463.87350,-3.043860467
463.87400,-3.349054875
463.87450,-2.738666059
463.87500,-2.128277244
463.87550,-2.433471652
463.87600,-3.349054875
463.87650,-3.349054875
463.87700,-2.433471652
463.87750,-1.212694021
463.87800,-1.517888429
463.87850,-2.738666059
463.87900,-3.95944369
463.87950,-4.264638098
463.88000,-5.180221321
463.88050,-6.400998952
463.88100,-5.790610136
463.88150,-1.517888429
463.88200,4.280805318
463.88250,8.248332618
463.88300,7.332749395
463.88350,3.97561091
463.88400,1.839250056
463.88450,2.449638872
463.88500,4.585999726
463.88550,5.501582949
463.88600,3.97561091
463.88650,2.144444464
463.88700,0.9236668331
463.88750,0.6184724254
463.88800,0.9236668331
463.88850,0.6184724254
463.88900,-1.212694021
463.88950,-3.349054875
463.89000,-1.823082836
463.89050,3.060027687
463.89100,7.332749395
463.89150,6.111971764
463.89200,2.449638872
463.89250,1.228861241
463.89300,1.839250056
463.89350,0.9236668331
463.89400,-2.433471652
463.89450,-4.264638098
463.89500,-4.264638098
463.89550,-5.485415729
463.89600,-8.232165398
463.89650,-7.621776583
463.89700,-2.128277244
463.89750,2.449638872
463.89800,2.754833279
463.89850,1.534055649
463.89900,3.365222095
463.89950,5.806777356
463.90000,4.585999726
463.90050,2.144444464
463.90100,3.060027687
463.90150,6.417166172
463.90200,6.417166172
463.90250,1.839250056
463.90300,-1.212694021
463.90350,0.008083609999
463.90400,2.449638872
463.90450,3.060027687
463.90500,2.754833279
463.90550,3.365222095
463.90600,3.365222095
463.90650,0.9236668331
463.90700,-1.212694021
463.90750,-1.823082836
463.90800,-1.212694021
463.90850,-2.128277244
463.90900,-3.043860467
463.90950,-1.823082836
463.91000,0.9236668331
463.91050,2.754833279
463.91100,1.534055649
463.91150,0.3132780177
463.91200,0.9236668331
463.91250,2.449638872
463.91300,2.449638872
463.91350,0.008083609999
463.91400,-2.738666059
463.91450,-3.95944369
463.91500,-3.654249282
463.91550,-4.569832506
463.91600,-7.316582175
463.91650,-9.758137436
463.91700,-7.92697099
463.91750,-2.738666059
463.91800,0.3132780177
463.91850,-0.9074996131
463.91900,-4.264638098
463.91950,-4.264638098
463.92000,-1.212694021
463.92050,0.008083609999
463.92100,-1.212694021
463.92150,-1.823082836
463.92200,-0.9074996131
463.92250,-2.128277244
463.92300,-5.485415729
463.92350,-6.095804544
463.92400,-1.212694021
463.92450,4.891194133
463.92500,7.637943803
463.92550,7.027554987
463.92600,5.806777356
463.92650,3.060027687
463.92700,-0.9074996131
463.92750,-2.128277244
463.92800,3.97561091
463.92850,13.43663755
463.92900,16.79377603
463.92950,12.21585992
463.93000,6.111971764
463.93050,3.365222095
463.93100,2.144444464
463.93150,-0.2971107977
463.93200,-3.654249282
463.93250,-4.569832506
463.93300,-2.128277244
463.93350,0.3132780177
463.93400,0.3132780177
463.93450,-1.212694021
463.93500,-2.738666059
463.93550,-2.738666059
463.93600,-1.823082836
463.93650,-1.517888429
463.93700,-1.823082836
463.93750,-2.433471652
463.93800,-3.043860467
463.93850,-3.349054875
463.93900,-3.349054875
463.93950,-3.654249282
463.94000,-4.264638098
463.94050,-5.485415729
463.94100,-6.400998952
463.94150,-6.706193359
463.94200,-6.095804544
463.94250,-4.875026913
463.94300,-3.043860467
463.94350,-2.128277244
463.94400,-2.128277244
463.94450,-2.433471652
463.94500,-1.823082836
463.94550,-0.6023052054
463.94600,0.3132780177
463.94650,1.839250056
463.94700,4.891194133
463.94750,8.248332618
463.94800,9.469110249
463.94850,7.94313821
463.94900,6.417166172
463.94950,6.722360579
463.95000,6.722360579
463.95050,4.585999726
463.95100,1.534055649
463.95150,-0.9074996131
463.95200,-3.043860467
463.95250,-4.264638098
463.95300,-3.349054875
463.95350,-0.2971107977
463.95400,1.839250056
463.95450,0.9236668331
463.95500,-1.517888429
463.95550,-3.349054875
463.95600,-3.349054875
463.95650,-3.654249282
463.95700,-4.875026913
463.95750,-5.485415729
463.95800,-4.569832506
463.95850,-3.654249282
463.95900,-3.349054875
463.95950,-3.654249282
463.96000,-3.043860467
463.96050,-1.823082836
463.96100,-0.9074996131
463.96150,-0.2971107977
463.96200,0.008083609999
463.96250,0.3132780177
463.96300,0.6184724254
463.96350,0.008083609999
463.96400,-0.2971107977
463.96450,0.008083609999
463.96500,1.839250056
463.96550,2.144444464
463.96600,0.3132780177
463.96650,-1.517888429
463.96700,-1.517888429
463.96750,0.6184724254
463.96800,2.754833279
463.96850,3.060027687
463.96900,2.449638872
463.96950,2.144444464
463.97000,1.839250056
463.97050,1.534055649
463.97100,0.9236668331
463.97150,0.9236668331
463.97200,0.6184724254
463.97250,-0.6023052054
463.97300,-2.128277244
463.97350,-2.128277244
463.97400,0.008083609999
463.97450,2.144444464
463.97500,2.449638872
463.97550,0.9236668331
463.97600,-0.9074996131
463.97650,-1.823082836
463.97700,-2.128277244
463.97750,-2.433471652
463.97800,-3.349054875
463.97850,-4.875026913
463.97900,-5.180221321
463.97950,-4.569832506
463.98000,-3.349054875
463.98050,-1.823082836
463.98100,-0.2971107977
463.98150,1.534055649
463.98200,3.670416502
463.98250,6.111971764
463.98300,7.332749395
463.98350,6.111971764
463.98400,2.144444464
463.98450,-0.2971107977
463.98500,0.9236668331
463.98550,5.196388541
463.98600,6.111971764
463.98650,1.839250056
463.98700,-2.433471652
463.98750,-1.212694021
463.98800,2.754833279
463.98850,4.280805318
463.98900,1.534055649
463.98950,-1.517888429
463.99000,-3.95944369
463.99050,-5.790610136
463.99100,-6.400998952
463.99150,-2.433471652
463.99200,5.501582949
463.99250,11.6054711
463.99300,10.68988788
463.99350,5.806777356
463.99400,1.839250056
463.99450,-0.9074996131
463.99500,-4.264638098
463.99550,-5.790610136
463.99600,-2.433471652
463.99650,2.754833279
463.99700,4.891194133
463.99750,1.839250056
463.99800,-1.212694021
463.99850,-2.738666059
463.99900,-3.654249282
463.99950,-4.569832506
464.00000,-4.264638098
464.00050,-1.823082836
464.00100,0.008083609999
464.00150,0.008083609999
464.00200,-0.9074996131
464.00250,0.008083609999
464.00300,2.449638872
464.00350,3.97561091
464.00400,3.670416502
464.00450,3.060027687
464.00500,3.060027687
464.00550,3.97561091
464.00600,4.585999726
464.00650,3.97561091
464.00700,1.534055649
464.00750,-1.212694021
464.00800,-2.738666059
464.00850,-1.212694021
464.00900,1.534055649
464.00950,3.060027687
464.01000,3.060027687
464.01050,2.449638872
464.01100,2.144444464
464.01150,1.839250056
464.01200,0.9236668331
464.01250,0.008083609999
464.01300,-2.738666059
464.01350,-6.095804544
464.01400,-9.452943029
464.01450,-10.67372066
464.01500,-10.06333184
464.01550,-8.842554213
464.01600,-7.011387767
464.01650,-3.654249282
464.01700,0.3132780177
464.01750,3.670416502
464.01800,3.97561091
464.01850,1.839250056
464.01900,0.008083609999
464.01950,-0.9074996131
464.02000,-2.128277244
464.02050,-3.043860467
464.02100,-3.654249282
464.02150,-4.569832506
464.02200,-6.095804544
464.02250,-5.790610136
464.02300,-1.212694021
464.02350,4.585999726
464.02400,7.027554987
464.02450,4.585999726
464.02500,1.534055649
464.02550,1.534055649
464.02600,2.754833279
464.02650,3.060027687
464.02700,3.670416502
464.02750,6.111971764
464.02800,8.248332618
464.02850,6.722360579
464.02900,2.449638872
464.02950,0.008083609999
464.03000,0.9236668331
464.03050,2.144444464
464.03100,0.6184724254
464.03150,-0.9074996131
464.03200,-0.2971107977
464.03250,2.449638872
464.03300,3.97561091
464.03350,1.839250056
464.03400,-1.517888429
464.03450,-4.569832506
464.03500,-5.790610136
464.03550,-6.095804544
464.03600,-6.400998952
464.03650,-5.790610136
464.03700,-3.349054875
464.03750,-0.6023052054
464.03800,-1.212694021
464.03850,-3.654249282
464.03900,-4.264638098
464.03950,-0.2971107977
464.04000,3.365222095
464.04050,3.97561091
464.04100,1.228861241
464.04150,0.008083609999
464.04200,0.008083609999
464.04250,0.9236668331
464.04300,1.839250056
464.04350,3.670416502
464.04400,4.891194133
464.04450,4.280805318
464.04500,2.754833279
464.04550,2.754833279
464.04600,4.585999726
464.04650,5.806777356
464.04700,4.280805318
464.04750,1.228861241
464.04800,-2.128277244
464.04850,-4.875026913
464.04900,-6.095804544
464.04950,-6.095804544
464.05000,-5.485415729
464.05050,-4.569832506
464.05100,-2.738666059
464.05150,0.008083609999
464.05200,2.449638872
464.05250,4.280805318
464.05300,6.111971764
464.05350,7.637943803
464.05400,6.722360579
464.05450,2.754833279
464.05500,-0.2971107977
464.05550,-0.9074996131
464.05600,0.008083609999
464.05650,-1.212694021
464.05700,-2.738666059
464.05750,-2.128277244
464.05800,-0.2971107977
464.05850,-1.517888429
464.05900,-5.790610136
464.05950,-8.232165398
464.06000,-6.400998952
464.06050,-2.128277244
464.06100,0.008083609999
464.06150,-0.2971107977
464.06200,-1.212694021
464.06250,0.3132780177
464.06300,5.196388541
464.06350,10.38469347
464.06400,13.43663755
464.06450,11.91066551
464.06500,7.94313821
464.06550,4.585999726
464.06600,3.060027687
464.06650,3.060027687
464.06700,2.754833279
464.06750,1.534055649
464.06800,0.9236668331
464.06850,2.449638872
464.06900,4.891194133
464.06950,5.196388541
464.07000,2.754833279
464.07050,0.008083609999
464.07100,-0.9074996131
464.07150,-1.517888429
464.07200,-2.738666059
464.07250,-3.043860467
464.07300,-1.517888429
464.07350,0.3132780177
464.07400,0.9236668331
464.07450,0.008083609999
464.07500,-1.517888429
464.07550,-2.433471652
464.07600,-3.349054875
464.07650,-4.875026913
464.07700,-5.180221321
464.07750,-4.264638098
464.07800,-3.349054875
464.07850,-3.349054875
464.07900,-3.349054875
464.07950,-3.654249282
464.08000,-5.180221321
464.08050,-7.011387767
464.08100,-8.232165398
464.08150,-7.621776583
464.08200,-4.569832506
464.08250,-0.2971107977
464.08300,3.060027687
464.08350,3.365222095
464.08400,0.008083609999
464.08450,-3.654249282
464.08500,-3.654249282
464.08550,-0.2971107977
464.08600,1.228861241
464.08650,-0.2971107977
464.08700,-2.738666059
464.08750,-2.738666059
464.08800,0.008083609999
464.08850,3.060027687
464.08900,5.196388541
464.08950,5.196388541
464.09000,2.449638872
464.09050,-1.517888429
464.09100,-5.180221321
464.09150,-7.92697099
464.09200,-9.147748621
464.09250,-7.316582175
464.09300,-2.433471652
464.09350,2.449638872
464.09400,3.670416502
464.09450,2.144444464
464.09500,2.449638872
464.09550,5.501582949
464.09600,7.027554987
464.09650,4.280805318
464.09700,0.3132780177
464.09750,-1.212694021
464.09800,-1.517888429
464.09850,-3.043860467
464.09900,-5.180221321
464.09950,-5.180221321
464.10000,-2.433471652
464.10050,0.008083609999
464.10100,0.6184724254
464.10150,0.3132780177
464.10200,0.008083609999
464.10250,0.6184724254
464.10300,0.9236668331
464.10350,0.9236668331
464.10400,0.9236668331
464.10450,0.3132780177
464.10500,-0.2971107977
464.10550,-1.212694021
464.10600,-1.212694021
464.10650,0.008083609999
464.10700,3.060027687
464.10750,5.501582949
464.10800,6.111971764
464.10850,4.280805318
464.10900,2.754833279
464.10950,3.060027687
464.11000,4.280805318
464.11050,4.280805318
464.11100,3.060027687
464.11150,2.144444464
464.11200,2.449638872
464.11250,2.754833279
464.11300,1.534055649
464.11350,0.008083609999
464.11400,-1.212694021
464.11450,-2.128277244
464.11500,-3.349054875
464.11550,-4.264638098
464.11600,-4.264638098
464.11650,-3.654249282
464.11700,-3.349054875
464.11750,-2.128277244
464.11800,0.008083609999
464.11850,1.228861241
464.11900,0.008083609999
464.11950,-3.349054875
464.12000,-7.011387767
464.12050,-8.842554213
464.12100,-9.452943029
464.12150,-10.36852625
464.12200,-10.06333184
464.12250,-6.095804544
464.12300,1.534055649
464.12350,9.163915841
464.12400,10.68988788
464.12450,6.417166172
464.12500,1.228861241
464.12550,-0.2971107977
464.12600,0.008083609999
464.12650,0.008083609999
464.12700,-0.6023052054
464.12750,0.9236668331
464.12800,5.501582949
464.12850,9.163915841
464.12900,8.858721433
464.12950,5.501582949
464.13000,2.449638872
464.13050,0.3132780177
464.13100,-2.433471652
464.13150,-5.790610136
464.13200,-4.569832506
464.13250,1.839250056
464.13300,8.553527026
464.13350,10.38469347
464.13400,8.248332618
464.13450,6.111971764
464.13500,6.417166172
464.13550,6.111971764
464.13600,4.280805318
464.13650,1.839250056
464.13700,0.9236668331
464.13750,0.9236668331
464.13800,0.9236668331
464.13850,0.3132780177
464.13900,-0.9074996131
464.13950,-4.264638098
464.14000,-8.537359806
464.14050,-9.758137436
464.14100,-6.706193359
464.14150,-2.738666059
464.14200,-1.823082836
464.14250,-3.95944369
464.14300,-5.790610136
464.14350,-7.011387767
464.14400,-8.842554213
464.14450,-9.758137436
464.14500,-7.316582175
464.14550,-0.6023052054
464.14600,5.501582949
464.14650,7.637943803
464.14700,6.722360579
464.14750,4.891194133
464.14800,3.670416502
464.14850,2.144444464
464.14900,0.6184724254
464.14950,1.228861241
464.15000,2.754833279
464.15050,3.365222095
464.15100,2.144444464
464.15150,0.9236668331
464.15200,0.9236668331
464.15250,1.534055649
464.15300,0.3132780177
464.15350,-2.433471652
464.15400,-4.875026913
464.15450,-4.875026913
464.15500,-3.043860467
464.15550,-1.517888429
464.15600,-1.212694021
464.15650,-1.212694021
464.15700,-1.517888429
464.15750,-3.349054875
464.15800,-7.92697099
464.15850,-11.58930388
464.15900,-11.28410947
464.15950,-7.92697099
464.16000,-4.875026913
464.16050,-4.569832506
464.16100,-3.349054875
464.16150,0.6184724254
464.16200,5.196388541
464.16250,7.027554987
464.16300,5.196388541
464.16350,3.060027687
464.16400,2.144444464
464.16450,1.839250056
464.16500,1.534055649
464.16550,1.839250056
464.16600,3.060027687
464.16650,3.97561091
464.16700,4.585999726
464.16750,4.280805318
464.16800,3.97561091
464.16850,3.97561091
464.16900,4.280805318
464.16950,3.365222095
464.17000,0.6184724254
464.17050,-1.212694021
464.17100,-1.517888429
464.17150,-1.517888429
464.17200,-2.738666059
464.17250,-3.043860467
464.17300,0.6184724254
464.17350,7.027554987
464.17400,9.163915841
464.17450,4.280805318
464.17500,-1.823082836
464.17550,-3.349054875
464.17600,-1.212694021
464.17650,0.008083609999
464.17700,-0.6023052054
464.17750,-0.9074996131
464.17800,0.008083609999
464.17850,0.9236668331
464.17900,0.9236668331
464.17950,0.008083609999
464.18000,-0.6023052054
464.18050,-1.823082836
464.18100,-2.738666059
464.18150,-3.043860467
464.18200,-3.95944369
464.18250,-5.790610136
464.18300,-6.706193359
464.18350,-3.95944369
464.18400,1.228861241
464.18450,6.111971764
464.18500,7.027554987
464.18550,5.806777356
464.18600,4.585999726
464.18650,3.97561091
464.18700,3.060027687
464.18750,1.228861241
464.18800,0.008083609999
464.18850,0.008083609999
464.18900,0.6184724254
464.18950,2.449638872
464.19000,3.060027687
464.19050,0.9236668331
464.19100,-1.517888429
464.19150,-1.517888429
464.19200,1.534055649
464.19250,4.585999726
464.19300,2.754833279
464.19350,-1.517888429
464.19400,-3.654249282
464.19450,-1.823082836
464.19500,0.008083609999
464.19550,-1.517888429
464.19600,-4.264638098
464.19650,-5.485415729
464.19700,-4.569832506
464.19750,-4.875026913
464.19800,-6.400998952
464.19850,-7.011387767
464.19900,-5.485415729
464.19950,-3.95944369
464.20000,-3.043860467
464.20050,-2.128277244
464.20100,-0.6023052054
464.20150,0.008083609999
464.20200,-1.823082836
464.20250,-4.875026913
464.20300,-5.790610136
464.20350,-2.433471652
464.20400,2.754833279
464.20450,6.722360579
464.20500,6.722360579
464.20550,5.806777356
464.20600,6.111971764
464.20650,7.027554987
464.20700,4.280805318
464.20750,0.3132780177
464.20800,0.6184724254
464.20850,7.637943803
464.20900,14.35222077
464.20950,14.04702636
464.21000,9.163915841
464.21050,6.111971764
464.21100,4.585999726
464.21150,2.144444464
464.21200,-0.9074996131
464.21250,-0.9074996131
464.21300,1.839250056
464.21350,3.060027687
464.21400,0.9236668331
464.21450,-0.6023052054
464.21500,-1.212694021
464.21550,-3.654249282
464.21600,-8.842554213
464.21650,-10.67372066
464.21700,-7.011387767
464.21750,-3.043860467
464.21800,-3.654249282
464.21850,-6.095804544
464.21900,-7.316582175
464.21950,-8.537359806
464.22000,-11.58930388
464.22050,-12.1996927
464.22100,-6.706193359
464.22150,0.008083609999
464.22200,1.534055649
464.22250,-1.823082836
464.22300,-3.654249282
464.22350,-1.517888429
464.22400,0.3132780177
464.22450,0.008083609999
464.22500,0.008083609999
464.22550,1.228861241
464.22600,3.060027687
464.22650,3.365222095
464.22700,3.670416502
464.22750,4.585999726
464.22800,5.806777356
464.22850,6.111971764
464.22900,5.501582949
464.22950,3.97561091
464.23000,0.9236668331
464.23050,-2.433471652
464.23100,-4.264638098
464.23150,-2.738666059
464.23200,0.008083609999
464.23250,1.839250056
464.23300,2.754833279
464.23350,3.060027687
464.23400,2.754833279
464.23450,2.449638872
464.23500,1.839250056
464.23550,0.6184724254
464.23600,-0.2971107977
464.23650,-1.517888429
464.23700,-2.128277244
464.23750,-2.433471652
464.23800,-3.654249282
464.23850,-4.875026913
464.23900,-6.400998952
464.23950,-9.452943029
464.24000,-13.42047033
464.24050,-14.64124796
464.24100,-10.36852625
464.24150,-3.043860467
464.24200,1.228861241
464.24250,1.534055649
464.24300,0.9236668331
464.24350,1.534055649
464.24400,2.449638872
464.24450,1.839250056
464.24500,0.9236668331
464.24550,2.144444464
464.24600,5.806777356
464.24650,9.163915841
464.24700,10.07949906
464.24750,8.858721433
464.24800,6.417166172
464.24850,3.365222095
464.24900,1.228861241
464.24950,1.839250056
464.25000,4.585999726
464.25050,6.111971764
464.25100,5.196388541
464.25150,2.754833279
464.25200,1.534055649
464.25250,2.144444464
464.25300,2.754833279
464.25350,2.144444464
464.25400,1.839250056
464.25450,1.839250056
464.25500,1.534055649
464.25550,0.6184724254
464.25600,0.008083609999
464.25650,0.008083609999
464.25700,-0.9074996131
464.25750,-3.349054875
464.25800,-5.790610136
464.25850,-8.232165398
464.25900,-10.67372066
464.25950,-11.58930388
464.26000,-8.842554213
464.26050,-3.043860467
464.26100,0.6184724254
464.26150,0.3132780177
464.26200,0.008083609999
464.26250,3.060027687
464.26300,7.332749395
464.26350,8.553527026
464.26400,7.027554987
464.26450,6.111971764
464.26500,5.806777356
464.26550,4.280805318
464.26600,1.534055649
464.26650,1.534055649
464.26700,5.196388541
464.26750,8.553527026
464.26800,8.858721433
464.26850,6.417166172
464.26900,4.585999726
464.26950,4.280805318
464.27000,4.891194133
464.27050,4.585999726
464.27100,4.280805318
464.27150,3.365222095
464.27200,2.144444464
464.27250,1.228861241
464.27300,0.3132780177
464.27350,0.008083609999
464.27400,-0.9074996131
464.27450,-2.128277244
464.27500,-3.043860467
464.27550,-3.654249282
464.27600,-3.349054875
464.27650,-3.043860467
464.27700,-2.738666059
464.27750,-3.95944369
464.27800,-6.095804544
464.27850,-7.011387767
464.27900,-6.095804544
464.27950,-3.95944369
464.28000,-1.517888429
464.28050,-0.2971107977
464.28100,0.3132780177
464.28150,0.9236668331
464.28200,1.839250056
464.28250,2.449638872
464.28300,2.144444464
464.28350,1.534055649
464.28400,0.9236668331
464.28450,0.9236668331
464.28500,0.6184724254
464.28550,0.9236668331
464.28600,1.534055649
464.28650,2.449638872
464.28700,2.449638872
464.28750,2.144444464
464.28800,2.449638872
464.28850,2.754833279
464.28900,0.9236668331
464.28950,-1.517888429
464.29000,-2.433471652
464.29050,-1.212694021
464.29100,-1.212694021
464.29150,-4.264638098
464.29200,-6.706193359
464.29250,-3.95944369
464.29300,0.9236668331
464.29350,2.449638872
464.29400,-0.9074996131
464.29450,-4.569832506
464.29500,-5.180221321
464.29550,-3.95944369
464.29600,-3.95944369
464.29650,-4.569832506
464.29700,-4.264638098
464.29750,-4.569832506
464.29800,-7.011387767
464.29850,-9.758137436
464.29900,-10.06333184
464.29950,-7.92697099
464.30000,-5.180221321
464.30050,-3.349054875
464.30100,-1.212694021
464.30150,1.839250056
464.30200,5.806777356
464.30250,8.858721433
464.30300,9.774304656
464.30350,9.163915841
464.30400,7.332749395
464.30450,5.806777356
464.30500,3.97561091
464.30550,1.534055649
464.30600,-0.6023052054
464.30650,-1.517888429
464.30700,-0.6023052054
464.30750,0.3132780177
464.30800,0.3132780177
464.30850,-0.2971107977
464.30900,-1.212694021
464.30950,-1.212694021
464.31000,-1.517888429
464.31050,-2.128277244
464.31100,-1.823082836
464.31150,-1.212694021
464.31200,-1.212694021
464.31250,-2.738666059
464.31300,-4.264638098
464.31350,-3.95944369
464.31400,-3.043860467
464.31450,-3.95944369
464.31500,-6.706193359
464.31550,-8.537359806
464.31600,-6.706193359
464.31650,-3.654249282
464.31700,-3.043860467
464.31750,-5.180221321
464.31800,-6.706193359
464.31850,-4.569832506
464.31900,0.008083609999
464.31950,3.97561091
464.32000,5.196388541
464.32050,5.196388541
464.32100,5.806777356
464.32150,6.111971764
464.32200,3.670416502
464.32250,0.008083609999
464.32300,-3.043860467
464.32350,-3.043860467
464.32400,-1.212694021
464.32450,0.008083609999
464.32500,0.9236668331
464.32550,2.144444464
464.32600,4.585999726
464.32650,6.722360579
464.32700,7.637943803
464.32750,6.722360579
464.32800,5.501582949
464.32850,3.670416502
464.32900,1.839250056
464.32950,1.839250056
464.33000,3.365222095
464.33050,6.111971764
464.33100,8.248332618
464.33150,8.858721433
464.33200,7.94313821
464.33250,6.111971764
464.33300,3.060027687
464.33350,-0.9074996131
464.33400,-5.790610136
464.33450,-10.36852625
464.33500,-13.42047033
464.33550,-14.33605355
464.33600,-11.89449829
464.33650,-6.706193359
464.33700,-2.128277244
464.33750,-0.2971107977
464.33800,-1.212694021
464.33850,-2.128277244
464.33900,-1.212694021
464.33950,-0.2971107977
464.34000,-0.6023052054
464.34050,-1.823082836
464.34100,-2.738666059
464.34150,-2.738666059
464.34200,-2.433471652
464.34250,-2.433471652
464.34300,-3.654249282
464.34350,-4.264638098
464.34400,-3.043860467
464.34450,0.3132780177
464.34500,3.670416502
464.34550,4.585999726
464.34600,3.365222095
464.34650,1.839250056
464.34700,1.534055649
464.34750,2.144444464
464.34800,2.754833279
464.34850,3.060027687
464.34900,2.449638872
464.34950,1.839250056
464.35000,2.754833279
464.35050,6.111971764
464.35100,9.469110249
464.35150,8.858721433
464.35200,5.501582949
464.35250,2.449638872
464.35300,1.839250056
464.35350,1.534055649
464.35400,0.3132780177
464.35450,-0.2971107977
464.35500,-0.2971107977
464.35550,-0.9074996131
464.35600,-1.517888429
464.35650,-0.9074996131
464.35700,0.008083609999
464.35750,-1.212694021
464.35800,-4.569832506
464.35850,-6.706193359
464.35900,-5.790610136
464.35950,-3.654249282
464.36000,-2.433471652
464.36050,-1.823082836
464.36100,-1.823082836
464.36150,-2.128277244
464.36200,-2.433471652
464.36250,-0.6023052054
464.36300,2.144444464
464.36350,3.97561091
464.36400,3.97561091
464.36450,4.280805318
464.36500,5.806777356
464.36550,7.332749395
464.36600,6.111971764
464.36650,3.365222095
464.36700,1.228861241
464.36750,0.9236668331
464.36800,2.449638872
464.36850,5.196388541
464.36900,6.722360579
464.36950,5.196388541
464.37000,1.228861241
464.37050,-1.212694021
464.37100,-0.6023052054
464.37150,1.534055649
464.37200,2.449638872
464.37250,1.839250056
464.37300,1.228861241
464.37350,0.008083609999
464.37400,-2.738666059
464.37450,-6.706193359
464.37500,-9.147748621
464.37550,-8.537359806
464.37600,-6.706193359
464.37650,-5.180221321
464.37700,-3.95944369
464.37750,-3.654249282
464.37800,-3.95944369
464.37850,-4.264638098
464.37900,-4.569832506
464.37950,-5.790610136
464.38000,-7.316582175
464.38050,-8.537359806
464.38100,-7.621776583
464.38150,-5.485415729
464.38200,-4.569832506
464.38250,-4.569832506
464.38300,-4.264638098
464.38350,-2.738666059
464.38400,-2.433471652
464.38450,-1.212694021
464.38500,3.060027687
464.38550,10.07949906
464.38600,14.04702636
464.38650,12.82624873
464.38700,10.38469347
464.38750,9.774304656
464.38800,8.248332618
464.38850,3.365222095
464.38900,0.008083609999
464.38950,0.9236668331
464.39000,4.585999726
464.39050,4.891194133
464.39100,3.060027687
464.39150,3.365222095
464.39200,4.891194133
464.39250,3.670416502
464.39300,1.534055649
464.39350,2.449638872
464.39400,4.585999726
464.39450,2.449638872
464.39500,-2.738666059
464.39550,-5.180221321
464.39600,-3.95944369
464.39650,-4.875026913
464.39700,-8.537359806
464.39750,-8.537359806
464.39800,-2.738666059
464.39850,0.9236668331
464.39900,-2.738666059
464.39950,-8.842554213
464.40000,-9.452943029
464.40050,-6.095804544
464.40100,-4.875026913
464.40150,-5.180221321
464.40200,-1.823082836
464.40250,6.111971764
464.40300,13.74183196
464.40350,14.96260959
464.40400,10.99508229
464.40450,5.501582949
464.40500,2.449638872
464.40550,2.144444464
464.40600,3.365222095
464.40650,3.060027687
464.40700,1.228861241
464.40750,2.144444464
464.40800,5.501582949
464.40850,7.027554987
464.40900,4.280805318
464.40950,0.3132780177
464.41000,0.008083609999
464.41050,1.534055649
464.41100,1.228861241
464.41150,-1.212694021
464.41200,-3.95944369
464.41250,-5.485415729
464.41300,-6.706193359
464.41350,-7.92697099
464.41400,-8.537359806
464.41450,-8.842554213
464.41500,-8.537359806
464.41550,-6.400998952
464.41600,-3.043860467
464.41650,-1.823082836
464.41700,-5.790610136
464.41750,-10.97891507
464.41800,-11.58930388
464.41850,-6.095804544
464.41900,0.6184724254
464.41950,4.585999726
464.42000,5.501582949
464.42050,3.97561091
464.42100,1.534055649
464.42150,-0.6023052054
464.42200,-1.517888429
464.42250,0.008083609999
464.42300,2.144444464
464.42350,4.585999726
464.42400,5.806777356
464.42450,5.806777356
464.42500,6.111971764
464.42550,6.722360579
464.42600,6.111971764
464.42650,2.144444464
464.42700,-3.349054875
464.42750,-7.92697099
464.42800,-8.537359806
464.42850,-7.011387767
464.42900,-5.180221321
464.42950,-3.349054875
464.43000,-0.9074996131
464.43050,0.9236668331
464.43100,0.9236668331
464.43150,0.008083609999
464.43200,0.008083609999
464.43250,0.6184724254
464.43300,0.9236668331
464.43350,1.534055649
464.43400,3.365222095
464.43450,5.806777356
464.43500,6.417166172
464.43550,3.670416502
464.43600,0.008083609999
464.43650,-2.433471652
464.43700,-3.349054875
464.43750,-4.264638098
464.43800,-4.569832506
464.43850,-3.349054875
464.43900,-0.9074996131
464.43950,0.9236668331
464.44000,1.534055649
464.44050,1.228861241
464.44100,0.9236668331
464.44150,0.6184724254
464.44200,0.008083609999
464.44250,0.6184724254
464.44300,2.144444464
464.44350,3.060027687
464.44400,2.449638872
464.44450,1.534055649
464.44500,1.534055649
464.44550,1.839250056
464.44600,1.534055649
464.44650,1.228861241
464.44700,1.839250056
464.44750,3.060027687
464.44800,3.060027687
464.44850,2.144444464
464.44900,1.839250056
464.44950,2.449638872
464.45000,3.365222095
464.45050,3.670416502
464.45100,3.060027687
464.45150,1.839250056
464.45200,0.3132780177
464.45250,-0.6023052054
464.45300,-1.517888429
464.45350,-2.433471652
464.45400,-3.95944369
464.45450,-5.790610136
464.45500,-6.095804544
464.45550,-4.569832506
464.45600,-2.433471652
464.45650,-2.128277244
464.45700,-3.043860467
464.45750,-3.654249282
464.45800,-3.654249282
464.45850,-4.264638098
464.45900,-6.400998952
464.45950,-7.92697099
464.46000,-5.180221321
464.46050,0.008083609999
464.46100,3.365222095
464.46150,2.754833279
464.46200,0.008083609999
464.46250,-1.212694021
464.46300,-1.517888429
464.46350,-1.212694021
464.46400,0.008083609999
464.46450,2.754833279
464.46500,4.280805318
464.46550,4.585999726
464.46600,5.196388541
464.46650,6.111971764
464.46700,4.891194133
464.46750,0.6184724254
464.46800,-2.433471652
464.46850,-1.212694021
464.46900,2.144444464
464.46950,3.670416502
464.47000,2.449638872
464.47050,0.6184724254
464.47100,0.008083609999
464.47150,0.008083609999
464.47200,1.839250056
464.47250,5.196388541
464.47300,6.722360579
464.47350,3.97561091
464.47400,0.008083609999
464.47450,-1.823082836
464.47500,-2.738666059
464.47550,-5.180221321
464.47600,-8.537359806
464.47650,-7.621776583
464.47700,-2.738666059
464.47750,0.9236668331
464.47800,0.9236668331
464.47850,0.008083609999
464.47900,0.6184724254
464.47950,1.839250056
464.48000,0.9236668331
464.48050,-1.517888429
464.48100,-1.823082836
464.48150,0.9236668331
464.48200,4.891194133
464.48250,5.806777356
464.48300,4.280805318
464.48350,2.449638872
464.48400,2.754833279
464.48450,3.365222095
464.48500,3.670416502
464.48550,4.585999726
464.48600,6.722360579
464.48650,8.553527026
464.48700,7.332749395
464.48750,4.280805318
464.48800,3.060027687
464.48850,3.670416502
464.48900,3.060027687
464.48950,0.008083609999
464.49000,-1.212694021
464.49050,0.008083609999
464.49100,0.9236668331
464.49150,-0.2971107977
464.49200,-1.823082836
464.49250,-0.9074996131
464.49300,-0.2971107977
464.49350,-1.823082836
464.49400,-4.569832506
464.49450,-5.790610136
464.49500,-5.180221321
464.49550,-5.180221321
464.49600,-4.875026913
464.49650,-3.654249282
464.49700,-2.738666059
464.49750,-2.433471652
464.49800,-2.738666059
464.49850,-1.823082836
464.49900,-1.517888429
464.49950,-3.043860467
464.50000,-5.790610136
464.50050,-7.316582175
464.50100,-6.706193359
464.50150,-3.349054875
464.50200,0.6184724254
464.50250,4.280805318
464.50300,5.196388541
464.50350,3.670416502
464.50400,2.144444464
464.50450,0.6184724254
464.50500,-0.2971107977
464.50550,-0.2971107977
464.50600,2.449638872
464.50650,6.722360579
464.50700,7.94313821
464.50750,5.501582949
464.50800,2.754833279
464.50850,1.534055649
464.50900,1.228861241
464.50950,0.008083609999
464.51000,-0.9074996131
464.51050,-0.2971107977
464.51100,0.6184724254
464.51150,1.534055649
464.51200,2.144444464
464.51250,2.144444464
464.51300,0.6184724254
464.51350,-1.823082836
464.51400,-3.95944369
464.51450,-4.569832506
464.51500,-5.485415729
464.51550,-6.095804544
464.51600,-4.264638098
464.51650,-0.9074996131
464.51700,0.008083609999
464.51750,-3.349054875
464.51800,-8.537359806
464.51850,-11.58930388
464.51900,-12.1996927
464.51950,-10.67372066
464.52000,-7.316582175
464.52050,-1.212694021
464.52100,5.196388541
464.52150,8.858721433
464.52200,7.637943803
464.52250,4.585999726
464.52300,2.754833279
464.52350,2.754833279
464.52400,3.365222095
464.52450,2.449638872
464.52500,0.9236668331
464.52550,0.008083609999
464.52600,0.008083609999
464.52650,0.008083609999
464.52700,0.008083609999
464.52750,0.008083609999
464.52800,0.008083609999
464.52850,0.008083609999
464.52900,0.008083609999
464.52950,1.839250056
464.53000,6.417166172
464.53050,9.774304656
464.53100,8.858721433
464.53150,5.196388541
464.53200,3.365222095
464.53250,3.97561091
464.53300,2.449638872
464.53350,-3.349054875
464.53400,-9.147748621
464.53450,-7.92697099
464.53500,0.6184724254
464.53550,9.163915841
464.53600,10.68988788
464.53650,5.501582949
464.53700,0.008083609999
464.53750,-3.95944369
464.53800,-6.400998952
464.53850,-8.537359806
464.53900,-10.67372066
464.53950,-12.1996927
464.54000,-11.89449829
464.54050,-9.452943029
464.54100,-6.706193359
464.54150,-4.569832506
464.54200,-2.433471652
464.54250,-0.6023052054
464.54300,-0.9074996131
464.54350,-3.95944369
464.54400,-7.011387767
464.54450,-6.095804544
464.54500,-1.823082836
464.54550,0.6184724254
464.54600,-0.2971107977
464.54650,-3.349054875
464.54700,-4.569832506
464.54750,-2.738666059
464.54800,0.9236668331
464.54850,3.97561091
464.54900,6.111971764
464.54950,7.332749395
464.55000,7.94313821
464.55050,7.637943803
464.55100,4.585999726
464.55150,0.6184724254
464.55200,-2.128277244
464.55250,-2.433471652
464.55300,-2.738666059
464.55350,-5.180221321
464.55400,-6.706193359
464.55450,-3.043860467
464.55500,5.501582949
464.55550,12.21585992
464.55600,11.91066551
464.55650,7.027554987
464.55700,2.449638872
464.55750,1.228861241
464.55800,0.3132780177
464.55850,-1.517888429
464.55900,-3.95944369
464.55950,-2.738666059
464.56000,1.839250056
464.56050,7.332749395
464.56100,8.553527026
464.56150,5.501582949
464.56200,3.060027687
464.56250,3.97561091
464.56300,5.196388541
464.56350,3.365222095
464.56400,-0.2971107977
464.56450,-3.043860467
464.56500,-3.349054875
464.56550,-3.654249282
464.56600,-3.349054875
464.56650,-1.212694021
464.56700,1.228861241
464.56750,2.449638872
464.56800,2.144444464
464.56850,1.839250056
464.56900,2.144444464
464.56950,1.228861241
464.57000,-1.212694021
464.57050,-3.349054875
464.57100,-3.349054875
464.57150,-2.128277244
464.57200,-0.6023052054
464.57250,0.9236668331
464.57300,2.144444464
464.57350,0.9236668331
464.57400,-1.823082836
464.57450,-3.95944369
464.57500,-3.043860467
464.57550,-0.9074996131
464.57600,0.008083609999
464.57650,-1.517888429
464.57700,-3.043860467
464.57750,-3.349054875
464.57800,-2.738666059
464.57850,-2.128277244
464.57900,-1.517888429
464.57950,-0.9074996131
464.58000,-0.6023052054
464.58050,-0.9074996131
464.58100,-0.9074996131
464.58150,-0.6023052054
464.58200,-0.2971107977
464.58250,0.008083609999
464.58300,1.839250056
464.58350,3.97561091
464.58400,5.501582949
464.58450,6.111971764
464.58500,6.111971764
464.58550,5.501582949
464.58600,4.585999726
464.58650,3.670416502
464.58700,3.670416502
464.58750,3.97561091
464.58800,4.891194133
464.58850,6.111971764
464.58900,6.722360579
464.58950,6.111971764
464.59000,3.060027687
464.59050,-0.2971107977
464.59100,-2.433471652
464.59150,-1.517888429
464.59200,-0.2971107977
464.59250,-1.212694021
464.59300,-3.043860467
464.59350,-3.349054875
464.59400,-2.128277244
464.59450,-1.212694021
464.59500,-2.433471652
464.59550,-5.180221321
464.59600,-6.706193359
464.59650,-6.706193359
464.59700,-4.264638098
464.59750,-0.2971107977
464.59800,3.670416502
464.59850,5.501582949
464.59900,3.670416502
464.59950,-0.2971107977
464.60000,-3.349054875
464.60050,-3.95944369
464.60100,-3.349054875
464.60150,-2.738666059
464.60200,-1.517888429
464.60250,0.008083609999
464.60300,1.534055649
464.60350,1.839250056
464.60400,0.6184724254
464.60450,-0.9074996131
464.60500,-2.433471652
464.60550,-2.128277244
464.60600,-0.6023052054
464.60650,0.008083609999
464.60700,0.008083609999
464.60750,0.008083609999
464.60800,1.534055649
464.60850,3.060027687
464.60900,2.754833279
464.60950,0.9236668331
464.61000,0.3132780177
464.61050,0.6184724254
464.61100,-0.9074996131
464.61150,-4.875026913
464.61200,-8.232165398
464.61250,-8.232165398
464.61300,-5.790610136
464.61350,-2.433471652
