"type","name","time_units","begin_time","frequency","count","units"
"signal","Ultium EMG-EXT.CARP.ULN. RT","s",461.98000,2000,22000,"uV"

"time","value"
461.98000,-6.340448137
461.98050,-4.814476099
461.98100,-1.762532022
461.98150,0.06863442452
461.98200,1.289412055
461.98250,2.815384094
461.98300,4.64655054
461.98350,4.951744948
461.98400,4.341356132
461.98450,4.951744948
461.98500,6.782911394
461.98550,7.393300209
461.98600,6.477716986
461.98650,6.172522579
461.98700,7.698494617
461.98750,10.14004988
461.98800,10.44524429
461.98850,8.003689025
461.98900,4.64655054
461.98950,1.594606463
461.99000,-0.2365599832
461.99050,-2.067726429
461.99100,-3.593698468
461.99150,-4.509281691
461.99200,-5.424864914
461.99250,-6.03525373
461.99300,-5.424864914
461.99350,-3.898892876
461.99400,-2.372920837
461.99450,-2.372920837
461.99500,-4.204087283
461.99550,-6.950836953
461.99600,-7.561225768
461.99650,-6.340448137
461.99700,-5.730059322
461.99750,-6.950836953
461.99800,-8.476808991
461.99850,-6.950836953
461.99900,-4.204087283
461.99950,-2.372920837
462.00000,-2.067726429
462.00050,0.06863442452
462.00100,2.815384094
462.00150,3.120578502
462.00200,0.3738288322
462.00250,-0.8469487986
462.00300,1.289412055
462.00350,4.341356132
462.00400,4.036161725
462.00450,0.9842176476
462.00500,0.06863442452
462.00550,2.510189686
462.00600,5.562133763
462.00650,6.172522579
462.00700,5.256939355
462.00750,6.172522579
462.00800,8.003689025
462.00850,8.308883432
462.00900,6.172522579
462.00950,4.341356132
462.01000,4.64655054
462.01050,6.172522579
462.01100,5.256939355
462.01150,0.3738288322
462.01200,-6.03525373
462.01250,-11.52875307
462.01300,-13.66511392
462.01350,-12.44433629
462.01400,-9.697586622
462.01450,-6.950836953
462.01500,-5.119670506
462.01550,-3.593698468
462.01600,-2.678115245
462.01650,-1.762532022
462.01700,-0.8469487986
462.01750,-0.2365599832
462.01800,-0.8469487986
462.01850,-2.067726429
462.01900,-2.678115245
462.01950,-2.067726429
462.02000,-0.5417543909
462.02050,0.3738288322
462.02100,0.9842176476
462.02150,1.899800871
462.02200,4.036161725
462.02250,6.172522579
462.02300,7.088105802
462.02350,6.477716986
462.02400,5.562133763
462.02450,5.562133763
462.02500,6.477716986
462.02550,7.698494617
462.02600,8.003689025
462.02650,8.003689025
462.02700,9.224466656
462.02750,11.36082751
462.02800,11.66602192
462.02850,8.919272248
462.02900,3.425772909
462.02950,-0.2365599832
462.03000,-1.152143206
462.03050,0.6790232399
462.03100,2.204995278
462.03150,2.204995278
462.03200,0.6790232399
462.03250,-0.5417543909
462.03300,-2.067726429
462.03350,-2.372920837
462.03400,-1.457337614
462.03450,-1.152143206
462.03500,-2.678115245
462.03550,-5.424864914
462.03600,-7.561225768
462.03650,-7.866420176
462.03700,-7.866420176
462.03750,-8.476808991
462.03800,-8.171614583
462.03850,-5.730059322
462.03900,-2.983309652
462.03950,-2.372920837
462.04000,-3.28850406
462.04050,-3.28850406
462.04100,-0.8469487986
462.04150,1.899800871
462.04200,3.120578502
462.04250,4.341356132
462.04300,6.477716986
462.04350,8.003689025
462.04400,7.088105802
462.04450,4.64655054
462.04500,1.899800871
462.04550,0.9842176476
462.04600,2.204995278
462.04650,4.64655054
462.04700,6.477716986
462.04750,6.477716986
462.04800,5.562133763
462.04850,4.64655054
462.04900,3.425772909
462.04950,0.6790232399
462.05000,-1.152143206
462.05050,-0.8469487986
462.05100,0.3738288322
462.05150,0.6790232399
462.05200,0.06863442452
462.05250,0.06863442452
462.05300,0.3738288322
462.05350,-0.8469487986
462.05400,-4.814476099
462.05450,-8.476808991
462.05500,-10.00278103
462.05550,-10.91836425
462.05600,-11.52875307
462.05650,-10.30797544
462.05700,-7.25603136
462.05750,-5.119670506
462.05800,-5.119670506
462.05850,-6.03525373
462.05900,-5.119670506
462.05950,-3.593698468
462.06000,-2.678115245
462.06050,-1.762532022
462.06100,-0.8469487986
462.06150,-0.2365599832
462.06200,-0.2365599832
462.06250,0.3738288322
462.06300,3.730967317
462.06350,7.088105802
462.06400,7.393300209
462.06450,5.256939355
462.06500,3.730967317
462.06550,4.951744948
462.06600,7.393300209
462.06650,8.919272248
462.06700,8.003689025
462.06750,5.562133763
462.06800,2.815384094
462.06850,1.594606463
462.06900,1.899800871
462.06950,1.594606463
462.07000,0.06863442452
462.07050,-2.067726429
462.07100,-2.983309652
462.07150,-2.067726429
462.07200,-1.152143206
462.07250,-2.067726429
462.07300,-3.898892876
462.07350,-4.814476099
462.07400,-4.814476099
462.07450,-4.509281691
462.07500,-4.814476099
462.07550,-4.814476099
462.07600,-4.509281691
462.07650,-3.593698468
462.07700,-2.372920837
462.07750,-0.8469487986
462.07800,-0.5417543909
462.07850,-2.067726429
462.07900,-4.814476099
462.07950,-6.950836953
462.08000,-6.950836953
462.08050,-4.814476099
462.08100,-0.8469487986
462.08150,3.425772909
462.08200,6.477716986
462.08250,6.477716986
462.08300,5.562133763
462.08350,6.477716986
462.08400,8.61407784
462.08450,8.61407784
462.08500,5.256939355
462.08550,2.510189686
462.08600,3.120578502
462.08650,5.562133763
462.08700,7.088105802
462.08750,6.477716986
462.08800,5.256939355
462.08850,4.036161725
462.08900,2.815384094
462.08950,2.204995278
462.09000,2.204995278
462.09050,1.289412055
462.09100,-0.5417543909
462.09150,-2.983309652
462.09200,-3.593698468
462.09250,-3.28850406
462.09300,-3.898892876
462.09350,-6.03525373
462.09400,-7.25603136
462.09450,-6.950836953
462.09500,-6.950836953
462.09550,-7.866420176
462.09600,-8.171614583
462.09650,-7.25603136
462.09700,-6.340448137
462.09750,-6.340448137
462.09800,-5.730059322
462.09850,-2.983309652
462.09900,0.06863442452
462.09950,1.899800871
462.10000,3.425772909
462.10050,5.256939355
462.10100,6.782911394
462.10150,7.088105802
462.10200,6.477716986
462.10250,7.088105802
462.10300,8.308883432
462.10350,7.698494617
462.10400,4.036161725
462.10450,0.3738288322
462.10500,0.06863442452
462.10550,2.815384094
462.10600,4.951744948
462.10650,4.64655054
462.10700,2.815384094
462.10750,1.899800871
462.10800,2.815384094
462.10850,4.036161725
462.10900,4.341356132
462.10950,4.341356132
462.11000,5.256939355
462.11050,5.867328171
462.11100,4.951744948
462.11150,2.510189686
462.11200,-0.2365599832
462.11250,-3.593698468
462.11300,-6.950836953
462.11350,-9.392392214
462.11400,-9.392392214
462.11450,-7.866420176
462.11500,-6.950836953
462.11550,-8.171614583
462.11600,-9.087197807
462.11650,-7.866420176
462.11700,-5.730059322
462.11750,-4.814476099
462.11800,-5.119670506
462.11850,-6.03525373
462.11900,-6.340448137
462.11950,-6.645642545
462.12000,-6.340448137
462.12050,-3.898892876
462.12100,-0.2365599832
462.12150,2.510189686
462.12200,4.036161725
462.12250,5.562133763
462.12300,7.393300209
462.12350,8.308883432
462.12400,7.088105802
462.12450,6.477716986
462.12500,7.393300209
462.12550,8.003689025
462.12600,5.562133763
462.12650,1.289412055
462.12700,0.06863442452
462.12750,1.594606463
462.12800,2.815384094
462.12850,2.510189686
462.12900,2.815384094
462.12950,4.036161725
462.13000,4.341356132
462.13050,2.204995278
462.13100,-0.8469487986
462.13150,-2.067726429
462.13200,-1.457337614
462.13250,-0.5417543909
462.13300,-0.5417543909
462.13350,-1.457337614
462.13400,-3.898892876
462.13450,-7.25603136
462.13500,-9.392392214
462.13550,-8.782003399
462.13600,-6.645642545
462.13650,-5.119670506
462.13700,-5.424864914
462.13750,-6.340448137
462.13800,-7.25603136
462.13850,-6.340448137
462.13900,-4.204087283
462.13950,-1.762532022
462.14000,-0.5417543909
462.14050,0.06863442452
462.14100,1.594606463
462.14150,3.120578502
462.14200,3.120578502
462.14250,2.510189686
462.14300,3.730967317
462.14350,7.088105802
462.14400,9.834855471
462.14450,10.14004988
462.14500,9.224466656
462.14550,9.224466656
462.14600,8.919272248
462.14650,7.088105802
462.14700,4.64655054
462.14750,4.341356132
462.14800,4.951744948
462.14850,5.562133763
462.14900,4.64655054
462.14950,3.120578502
462.15000,2.510189686
462.15050,2.815384094
462.15100,3.120578502
462.15150,3.120578502
462.15200,1.899800871
462.15250,-0.2365599832
462.15300,-2.983309652
462.15350,-5.730059322
462.15400,-7.866420176
462.15450,-9.392392214
462.15500,-10.00278103
462.15550,-9.392392214
462.15600,-8.476808991
462.15650,-8.171614583
462.15700,-7.561225768
462.15750,-6.645642545
462.15800,-5.119670506
462.15850,-3.28850406
462.15900,-1.457337614
462.15950,-0.5417543909
462.16000,-2.678115245
462.16050,-6.645642545
462.16100,-8.171614583
462.16150,-5.730059322
462.16200,-1.457337614
462.16250,1.289412055
462.16300,2.815384094
462.16350,4.951744948
462.16400,6.477716986
462.16450,6.782911394
462.16500,6.782911394
462.16550,9.529661063
462.16600,13.19199396
462.16650,13.19199396
462.16700,8.308883432
462.16750,3.120578502
462.16800,1.899800871
462.16850,2.815384094
462.16900,2.815384094
462.16950,0.9842176476
462.17000,0.06863442452
462.17050,0.6790232399
462.17100,1.594606463
462.17150,1.289412055
462.17200,0.3738288322
462.17250,-1.457337614
462.17300,-3.898892876
462.17350,-5.119670506
462.17400,-4.814476099
462.17450,-4.509281691
462.17500,-6.645642545
462.17550,-9.697586622
462.17600,-10.91836425
462.17650,-9.392392214
462.17700,-7.561225768
462.17750,-6.645642545
462.17800,-5.730059322
462.17850,-3.593698468
462.17900,-1.152143206
462.17950,0.06863442452
462.18000,0.06863442452
462.18050,0.06863442452
462.18100,0.06863442452
462.18150,0.3738288322
462.18200,1.289412055
462.18250,1.899800871
462.18300,1.899800871
462.18350,2.204995278
462.18400,3.120578502
462.18450,4.341356132
462.18500,5.256939355
462.18550,5.562133763
462.18600,6.172522579
462.18650,7.698494617
462.18700,8.61407784
462.18750,8.308883432
462.18800,7.088105802
462.18850,6.782911394
462.18900,8.308883432
462.18950,9.529661063
462.19000,7.393300209
462.19050,0.9842176476
462.19100,-5.730059322
462.19150,-9.087197807
462.19200,-7.866420176
462.19250,-5.119670506
462.19300,-4.509281691
462.19350,-5.424864914
462.19400,-6.340448137
462.19450,-5.730059322
462.19500,-4.814476099
462.19550,-4.204087283
462.19600,-4.814476099
462.19650,-6.03525373
462.19700,-6.03525373
462.19750,-3.593698468
462.19800,-0.8469487986
462.19850,-0.5417543909
462.19900,-1.762532022
462.19950,-1.152143206
462.20000,1.899800871
462.20050,4.036161725
462.20100,1.899800871
462.20150,-1.457337614
462.20200,-2.678115245
462.20250,0.06863442452
462.20300,2.815384094
462.20350,4.951744948
462.20400,6.477716986
462.20450,8.308883432
462.20500,9.529661063
462.20550,9.834855471
462.20600,9.529661063
462.20650,8.919272248
462.20700,7.393300209
462.20750,5.256939355
462.20800,4.036161725
462.20850,4.64655054
462.20900,5.867328171
462.20950,6.782911394
462.21000,6.172522579
462.21050,4.341356132
462.21100,0.6790232399
462.21150,-2.983309652
462.21200,-6.340448137
462.21250,-8.171614583
462.21300,-8.476808991
462.21350,-9.087197807
462.21400,-9.392392214
462.21450,-8.782003399
462.21500,-6.950836953
462.21550,-4.509281691
462.21600,-2.678115245
462.21650,-2.372920837
462.21700,-2.983309652
462.21750,-4.814476099
462.21800,-6.950836953
462.21850,-7.561225768
462.21900,-6.340448137
462.21950,-4.204087283
462.22000,-2.983309652
462.22050,-2.983309652
462.22100,-2.372920837
462.22150,0.6790232399
462.22200,4.951744948
462.22250,7.393300209
462.22300,6.172522579
462.22350,4.341356132
462.22400,4.036161725
462.22450,4.951744948
462.22500,4.951744948
462.22550,3.730967317
462.22600,3.120578502
462.22650,3.730967317
462.22700,4.64655054
462.22750,4.341356132
462.22800,3.730967317
462.22850,4.341356132
462.22900,5.256939355
462.22950,4.951744948
462.23000,3.120578502
462.23050,1.594606463
462.23100,1.899800871
462.23150,3.425772909
462.23200,3.730967317
462.23250,1.289412055
462.23300,-3.28850406
462.23350,-7.866420176
462.23400,-9.087197807
462.23450,-7.866420176
462.23500,-6.03525373
462.23550,-6.03525373
462.23600,-6.950836953
462.23650,-6.645642545
462.23700,-6.645642545
462.23750,-8.476808991
462.23800,-10.91836425
462.23850,-11.22355866
462.23900,-8.476808991
462.23950,-5.119670506
462.24000,-2.983309652
462.24050,-0.5417543909
462.24100,2.204995278
462.24150,4.341356132
462.24200,3.730967317
462.24250,3.425772909
462.24300,4.64655054
462.24350,6.477716986
462.24400,6.782911394
462.24450,5.867328171
462.24500,5.867328171
462.24550,6.782911394
462.24600,6.477716986
462.24650,4.036161725
462.24700,2.510189686
462.24750,3.730967317
462.24800,6.782911394
462.24850,8.003689025
462.24900,7.393300209
462.24950,6.477716986
462.25000,5.562133763
462.25050,3.425772909
462.25100,-0.8469487986
462.25150,-5.424864914
462.25200,-8.171614583
462.25250,-8.476808991
462.25300,-7.866420176
462.25350,-7.866420176
462.25400,-8.171614583
462.25450,-7.561225768
462.25500,-6.645642545
462.25550,-6.03525373
462.25600,-6.03525373
462.25650,-6.03525373
462.25700,-6.03525373
462.25750,-6.645642545
462.25800,-6.03525373
462.25850,-3.898892876
462.25900,-1.152143206
462.25950,0.06863442452
462.26000,-0.8469487986
462.26050,-1.762532022
462.26100,-1.152143206
462.26150,0.9842176476
462.26200,4.951744948
462.26250,9.224466656
462.26300,11.97121632
462.26350,10.14004988
462.26400,4.341356132
462.26450,-0.2365599832
462.26500,0.3738288322
462.26550,4.951744948
462.26600,8.308883432
462.26650,7.698494617
462.26700,5.867328171
462.26750,5.562133763
462.26800,5.867328171
462.26850,4.951744948
462.26900,3.730967317
462.26950,3.425772909
462.27000,4.036161725
462.27050,3.730967317
462.27100,1.594606463
462.27150,-1.152143206
462.27200,-3.898892876
462.27250,-5.424864914
462.27300,-4.814476099
462.27350,-2.372920837
462.27400,0.3738288322
462.27450,1.289412055
462.27500,-0.5417543909
462.27550,-4.204087283
462.27600,-6.645642545
462.27650,-6.950836953
462.27700,-6.950836953
462.27750,-7.866420176
462.27800,-8.476808991
462.27850,-6.950836953
462.27900,-3.898892876
462.27950,-2.067726429
462.28000,-2.067726429
462.28050,-1.457337614
462.28100,0.3738288322
462.28150,3.120578502
462.28200,4.341356132
462.28250,4.951744948
462.28300,5.562133763
462.28350,6.782911394
462.28400,7.393300209
462.28450,7.088105802
462.28500,7.698494617
462.28550,8.61407784
462.28600,8.61407784
462.28650,6.477716986
462.28700,4.036161725
462.28750,3.425772909
462.28800,4.64655054
462.28850,5.256939355
462.28900,4.341356132
462.28950,3.120578502
462.29000,1.594606463
462.29050,0.06863442452
462.29100,-1.762532022
462.29150,-2.678115245
462.29200,-2.372920837
462.29250,-1.762532022
462.29300,-2.678115245
462.29350,-5.119670506
462.29400,-7.25603136
462.29450,-8.171614583
462.29500,-7.866420176
462.29550,-6.950836953
462.29600,-5.119670506
462.29650,-2.983309652
462.29700,-1.762532022
462.29750,-1.457337614
462.29800,-0.5417543909
462.29850,1.899800871
462.29900,4.64655054
462.29950,3.425772909
462.30000,-2.983309652
462.30050,-10.91836425
462.30100,-14.27550274
462.30150,-10.61316985
462.30200,-2.983309652
462.30250,3.120578502
462.30300,5.562133763
462.30350,4.64655054
462.30400,3.730967317
462.30450,4.951744948
462.30500,6.477716986
462.30550,5.256939355
462.30600,2.204995278
462.30650,1.899800871
462.30700,5.562133763
462.30750,8.003689025
462.30800,5.256939355
462.30850,0.6790232399
462.30900,1.289412055
462.30950,5.562133763
462.31000,6.477716986
462.31050,1.289412055
462.31100,-4.509281691
462.31150,-6.340448137
462.31200,-5.424864914
462.31250,-5.424864914
462.31300,-6.645642545
462.31350,-7.25603136
462.31400,-6.950836953
462.31450,-6.950836953
462.31500,-6.950836953
462.31550,-6.03525373
462.31600,-4.814476099
462.31650,-4.509281691
462.31700,-4.509281691
462.31750,-3.898892876
462.31800,-2.067726429
462.31850,-0.5417543909
462.31900,-0.8469487986
462.31950,-2.372920837
462.32000,-3.28850406
462.32050,-1.762532022
462.32100,0.3738288322
462.32150,0.9842176476
462.32200,-0.2365599832
462.32250,-1.762532022
462.32300,-0.5417543909
462.32350,2.510189686
462.32400,5.256939355
462.32450,7.393300209
462.32500,8.61407784
462.32550,9.529661063
462.32600,8.61407784
462.32650,7.088105802
462.32700,6.477716986
462.32750,7.088105802
462.32800,8.308883432
462.32850,8.61407784
462.32900,7.393300209
462.32950,4.64655054
462.33000,1.289412055
462.33050,-0.5417543909
462.33100,-2.067726429
462.33150,-3.593698468
462.33200,-6.340448137
462.33250,-7.866420176
462.33300,-6.950836953
462.33350,-5.730059322
462.33400,-6.03525373
462.33450,-7.561225768
462.33500,-8.171614583
462.33550,-6.950836953
462.33600,-6.340448137
462.33650,-6.03525373
462.33700,-4.814476099
462.33750,-2.678115245
462.33800,-1.762532022
462.33850,-2.067726429
462.33900,-2.067726429
462.33950,-0.5417543909
462.34000,0.9842176476
462.34050,2.204995278
462.34100,3.425772909
462.34150,6.172522579
462.34200,8.61407784
462.34250,8.003689025
462.34300,4.951744948
462.34350,3.120578502
462.34400,4.341356132
462.34450,6.477716986
462.34500,8.003689025
462.34550,8.308883432
462.34600,8.61407784
462.34650,8.61407784
462.34700,8.003689025
462.34750,6.172522579
462.34800,4.64655054
462.34850,3.425772909
462.34900,3.425772909
462.34950,3.730967317
462.35000,4.036161725
462.35050,2.815384094
462.35100,0.6790232399
462.35150,-0.5417543909
462.35200,-2.067726429
462.35250,-3.593698468
462.35300,-5.730059322
462.35350,-7.561225768
462.35400,-8.171614583
462.35450,-7.25603136
462.35500,-5.424864914
462.35550,-2.372920837
462.35600,0.6790232399
462.35650,2.510189686
462.35700,1.289412055
462.35750,-2.678115245
462.35800,-8.171614583
462.35850,-13.35991951
462.35900,-15.19108596
462.35950,-13.05472511
462.36000,-8.171614583
462.36050,-3.28850406
462.36100,0.06863442452
462.36150,1.594606463
462.36200,2.204995278
462.36250,2.815384094
462.36300,3.730967317
462.36350,4.64655054
462.36400,5.256939355
462.36450,4.951744948
462.36500,4.341356132
462.36550,3.730967317
462.36600,4.64655054
462.36650,6.172522579
462.36700,6.477716986
462.36750,5.562133763
462.36800,4.64655054
462.36850,4.951744948
462.36900,5.256939355
462.36950,4.64655054
462.37000,4.036161725
462.37050,4.341356132
462.37100,3.730967317
462.37150,0.3738288322
462.37200,-2.983309652
462.37250,-4.509281691
462.37300,-3.898892876
462.37350,-3.898892876
462.37400,-5.119670506
462.37450,-4.814476099
462.37500,-2.678115245
462.37550,-2.372920837
462.37600,-5.424864914
462.37650,-9.087197807
462.37700,-10.61316985
462.37750,-9.697586622
462.37800,-7.866420176
462.37850,-5.424864914
462.37900,-3.593698468
462.37950,-2.067726429
462.38000,-0.5417543909
462.38050,2.204995278
462.38100,4.036161725
462.38150,2.204995278
462.38200,0.06863442452
462.38250,0.9842176476
462.38300,5.562133763
462.38350,8.308883432
462.38400,7.088105802
462.38450,5.562133763
462.38500,5.867328171
462.38550,5.867328171
462.38600,4.341356132
462.38650,3.730967317
462.38700,5.256939355
462.38750,6.782911394
462.38800,6.477716986
462.38850,4.951744948
462.38900,4.951744948
462.38950,4.951744948
462.39000,3.730967317
462.39050,1.899800871
462.39100,0.06863442452
462.39150,-1.762532022
462.39200,-3.28850406
462.39250,-3.28850406
462.39300,-2.372920837
462.39350,-2.678115245
462.39400,-3.898892876
462.39450,-4.509281691
462.39500,-3.898892876
462.39550,-4.509281691
462.39600,-5.424864914
462.39650,-4.814476099
462.39700,-2.678115245
462.39750,-2.372920837
462.39800,-4.814476099
462.39850,-6.645642545
462.39900,-6.03525373
462.39950,-4.204087283
462.40000,-0.8469487986
462.40050,3.730967317
462.40100,7.698494617
462.40150,7.393300209
462.40200,4.951744948
462.40250,5.562133763
462.40300,9.529661063
462.40350,10.14004988
462.40400,3.730967317
462.40450,-3.28850406
462.40500,-5.730059322
462.40550,-3.898892876
462.40600,-2.983309652
462.40650,-2.678115245
462.40700,-1.762532022
462.40750,-0.8469487986
462.40800,-1.457337614
462.40850,-2.067726429
462.40900,-0.8469487986
462.40950,0.3738288322
462.41000,0.6790232399
462.41050,0.06863442452
462.41100,-0.5417543909
462.41150,-1.457337614
462.41200,-2.372920837
462.41250,-1.457337614
462.41300,0.06863442452
462.41350,-0.2365599832
462.41400,-4.814476099
462.41450,-9.697586622
462.41500,-10.91836425
462.41550,-8.476808991
462.41600,-5.424864914
462.41650,-3.898892876
462.41700,-3.28850406
462.41750,-2.678115245
462.41800,-1.762532022
462.41850,-0.8469487986
462.41900,-0.5417543909
462.41950,-1.457337614
462.42000,-0.8469487986
462.42050,1.899800871
462.42100,5.256939355
462.42150,3.730967317
462.42200,-0.2365599832
462.42250,-2.678115245
462.42300,-0.8469487986
462.42350,0.9842176476
462.42400,2.510189686
462.42450,4.951744948
462.42500,8.308883432
462.42550,8.308883432
462.42600,4.951744948
462.42650,3.120578502
462.42700,5.256939355
462.42750,7.698494617
462.42800,6.782911394
462.42850,4.64655054
462.42900,3.425772909
462.42950,2.204995278
462.43000,0.6790232399
462.43050,0.06863442452
462.43100,0.06863442452
462.43150,0.06863442452
462.43200,-0.8469487986
462.43250,-1.457337614
462.43300,-1.457337614
462.43350,-2.372920837
462.43400,-5.119670506
462.43450,-7.561225768
462.43500,-6.950836953
462.43550,-5.424864914
462.43600,-4.814476099
462.43650,-4.814476099
462.43700,-4.204087283
462.43750,-3.28850406
462.43800,-2.983309652
462.43850,-2.372920837
462.43900,-0.5417543909
462.43950,0.6790232399
462.44000,-0.2365599832
462.44050,-1.762532022
462.44100,-1.457337614
462.44150,-0.5417543909
462.44200,-1.457337614
462.44250,-3.28850406
462.44300,-2.983309652
462.44350,0.3738288322
462.44400,4.951744948
462.44450,6.782911394
462.44500,6.782911394
462.44550,6.782911394
462.44600,7.698494617
462.44650,8.003689025
462.44700,7.393300209
462.44750,6.477716986
462.44800,6.477716986
462.44850,7.393300209
462.44900,7.088105802
462.44950,5.562133763
462.45000,3.120578502
462.45050,1.289412055
462.45100,0.3738288322
462.45150,0.06863442452
462.45200,-0.8469487986
462.45250,-1.457337614
462.45300,-2.372920837
462.45350,-4.204087283
462.45400,-6.340448137
462.45450,-6.950836953
462.45500,-5.730059322
462.45550,-4.509281691
462.45600,-4.814476099
462.45650,-6.03525373
462.45700,-6.03525373
462.45750,-3.898892876
462.45800,-0.8469487986
462.45850,0.06863442452
462.45900,-1.152143206
462.45950,-2.372920837
462.46000,-0.5417543909
462.46050,3.120578502
462.46100,3.425772909
462.46150,-0.5417543909
462.46200,-5.424864914
462.46250,-4.509281691
462.46300,0.3738288322
462.46350,4.64655054
462.46400,5.256939355
462.46450,4.951744948
462.46500,5.562133763
462.46550,6.172522579
462.46600,5.867328171
462.46650,6.172522579
462.46700,7.393300209
462.46750,8.61407784
462.46800,7.698494617
462.46850,5.562133763
462.46900,4.036161725
462.46950,3.120578502
462.47000,2.204995278
462.47050,0.6790232399
462.47100,-0.8469487986
462.47150,-2.067726429
462.47200,-2.983309652
462.47250,-2.983309652
462.47300,-2.678115245
462.47350,-3.593698468
462.47400,-5.119670506
462.47450,-5.730059322
462.47500,-5.730059322
462.47550,-6.03525373
462.47600,-6.645642545
462.47650,-6.340448137
462.47700,-4.814476099
462.47750,-3.593698468
462.47800,-2.983309652
462.47850,-2.067726429
462.47900,-0.2365599832
462.47950,0.6790232399
462.48000,0.9842176476
462.48050,0.6790232399
462.48100,1.289412055
462.48150,2.815384094
462.48200,5.256939355
462.48250,6.477716986
462.48300,5.256939355
462.48350,1.899800871
462.48400,0.3738288322
462.48450,2.815384094
462.48500,5.256939355
462.48550,3.120578502
462.48600,-1.762532022
462.48650,-3.593698468
462.48700,-0.5417543909
462.48750,2.510189686
462.48800,2.815384094
462.48850,2.204995278
462.48900,3.120578502
462.48950,4.036161725
462.49000,2.815384094
462.49050,0.06863442452
462.49100,-1.457337614
462.49150,-1.457337614
462.49200,-1.152143206
462.49250,-1.152143206
462.49300,-2.372920837
462.49350,-4.509281691
462.49400,-7.25603136
462.49450,-8.782003399
462.49500,-9.392392214
462.49550,-9.392392214
462.49600,-9.392392214
462.49650,-8.476808991
462.49700,-6.645642545
462.49750,-5.730059322
462.49800,-5.424864914
462.49850,-4.814476099
462.49900,-2.983309652
462.49950,-1.152143206
462.50000,0.06863442452
462.50050,0.3738288322
462.50100,0.9842176476
462.50150,0.6790232399
462.50200,1.289412055
462.50250,3.730967317
462.50300,6.477716986
462.50350,7.698494617
462.50400,7.698494617
462.50450,8.003689025
462.50500,8.308883432
462.50550,7.088105802
462.50600,5.256939355
462.50650,4.951744948
462.50700,6.477716986
462.50750,6.477716986
462.50800,4.951744948
462.50850,3.425772909
462.50900,3.120578502
462.50950,2.510189686
462.51000,1.289412055
462.51050,0.3738288322
462.51100,1.594606463
462.51150,2.204995278
462.51200,0.9842176476
462.51250,-0.8469487986
462.51300,-1.762532022
462.51350,-2.067726429
462.51400,-3.593698468
462.51450,-5.424864914
462.51500,-6.340448137
462.51550,-6.03525373
462.51600,-5.730059322
462.51650,-5.119670506
462.51700,-4.204087283
462.51750,-3.593698468
462.51800,-4.509281691
462.51850,-5.424864914
462.51900,-4.204087283
462.51950,0.06863442452
462.52000,4.036161725
462.52050,6.172522579
462.52100,5.256939355
462.52150,1.594606463
462.52200,-3.28850406
462.52250,-6.950836953
462.52300,-6.340448137
462.52350,-2.067726429
462.52400,1.594606463
462.52450,3.120578502
462.52500,3.120578502
462.52550,4.036161725
462.52600,6.172522579
462.52650,7.393300209
462.52700,6.782911394
462.52750,4.036161725
462.52800,1.289412055
462.52850,0.3738288322
462.52900,1.289412055
462.52950,1.899800871
462.53000,0.9842176476
462.53050,-0.5417543909
462.53100,-1.152143206
462.53150,-1.762532022
462.53200,-3.593698468
462.53250,-4.509281691
462.53300,-2.983309652
462.53350,-0.2365599832
462.53400,-0.5417543909
462.53450,-3.28850406
462.53500,-5.119670506
462.53550,-4.814476099
462.53600,-4.204087283
462.53650,-5.424864914
462.53700,-6.03525373
462.53750,-4.509281691
462.53800,-2.678115245
462.53850,-2.678115245
462.53900,-2.983309652
462.53950,-2.372920837
462.54000,-1.762532022
462.54050,-3.28850406
462.54100,-5.730059322
462.54150,-5.119670506
462.54200,-1.457337614
462.54250,2.204995278
462.54300,4.036161725
462.54350,5.562133763
462.54400,8.308883432
462.54450,10.44524429
462.54500,9.529661063
462.54550,6.172522579
462.54600,4.036161725
462.54650,4.64655054
462.54700,6.782911394
462.54750,8.003689025
462.54800,7.393300209
462.54850,6.172522579
462.54900,4.951744948
462.54950,3.730967317
462.55000,2.815384094
462.55050,2.204995278
462.55100,1.289412055
462.55150,0.06863442452
462.55200,-1.152143206
462.55250,-2.678115245
462.55300,-3.593698468
462.55350,-3.898892876
462.55400,-4.204087283
462.55450,-4.509281691
462.55500,-5.119670506
462.55550,-6.03525373
462.55600,-6.645642545
462.55650,-6.645642545
462.55700,-5.730059322
462.55750,-4.509281691
462.55800,-3.898892876
462.55850,-3.28850406
462.55900,-2.372920837
462.55950,-0.8469487986
462.56000,0.06863442452
462.56050,0.06863442452
462.56100,0.06863442452
462.56150,1.899800871
462.56200,4.341356132
462.56250,5.562133763
462.56300,4.64655054
462.56350,4.036161725
462.56400,4.341356132
462.56450,5.562133763
462.56500,6.782911394
462.56550,8.003689025
462.56600,8.61407784
462.56650,8.308883432
462.56700,7.393300209
462.56750,7.698494617
462.56800,8.003689025
462.56850,7.088105802
462.56900,4.341356132
462.56950,2.815384094
462.57000,2.510189686
462.57050,1.289412055
462.57100,-1.762532022
462.57150,-4.204087283
462.57200,-2.372920837
462.57250,0.06863442452
462.57300,-0.2365599832
462.57350,-4.509281691
462.57400,-7.866420176
462.57450,-7.866420176
462.57500,-6.340448137
462.57550,-4.204087283
462.57600,-2.067726429
462.57650,-1.152143206
462.57700,-2.678115245
462.57750,-4.204087283
462.57800,-2.372920837
462.57850,1.899800871
462.57900,3.730967317
462.57950,-0.5417543909
462.58000,-7.866420176
462.58050,-12.44433629
462.58100,-11.52875307
462.58150,-6.340448137
462.58200,-0.2365599832
462.58250,4.036161725
462.58300,5.256939355
462.58350,4.64655054
462.58400,4.036161725
462.58450,4.951744948
462.58500,5.562133763
462.58550,4.951744948
462.58600,5.256939355
462.58650,6.782911394
462.58700,7.698494617
462.58750,6.782911394
462.58800,4.951744948
462.58850,4.341356132
462.58900,4.951744948
462.58950,5.256939355
462.59000,4.036161725
462.59050,3.120578502
462.59100,1.899800871
462.59150,0.3738288322
462.59200,-1.762532022
462.59250,-3.593698468
462.59300,-5.424864914
462.59350,-6.03525373
462.59400,-5.424864914
462.59450,-4.204087283
462.59500,-4.204087283
462.59550,-6.340448137
462.59600,-8.476808991
462.59650,-7.866420176
462.59700,-5.119670506
462.59750,-3.593698468
462.59800,-5.119670506
462.59850,-7.866420176
462.59900,-8.476808991
462.59950,-6.645642545
462.60000,-3.28850406
462.60050,-0.8469487986
462.60100,0.06863442452
462.60150,1.594606463
462.60200,4.341356132
462.60250,5.867328171
462.60300,5.256939355
462.60350,4.341356132
462.60400,5.562133763
462.60450,8.308883432
462.60500,8.61407784
462.60550,6.172522579
462.60600,4.64655054
462.60650,5.562133763
462.60700,7.393300209
462.60750,8.003689025
462.60800,7.393300209
462.60850,6.477716986
462.60900,4.036161725
462.60950,1.899800871
462.61000,0.9842176476
462.61050,1.594606463
462.61100,2.204995278
462.61150,0.9842176476
462.61200,-0.8469487986
462.61250,-2.067726429
462.61300,-2.983309652
462.61350,-3.593698468
462.61400,-3.593698468
462.61450,-3.898892876
462.61500,-5.730059322
462.61550,-8.782003399
462.61600,-10.61316985
462.61650,-9.697586622
462.61700,-8.476808991
462.61750,-8.782003399
462.61800,-9.697586622
462.61850,-8.476808991
462.61900,-6.03525373
462.61950,-4.509281691
462.62000,-4.509281691
462.62050,-4.814476099
462.62100,-3.898892876
462.62150,-1.762532022
462.62200,0.6790232399
462.62250,2.510189686
462.62300,3.730967317
462.62350,4.64655054
462.62400,6.477716986
462.62450,9.224466656
462.62500,11.66602192
462.62550,12.27641073
462.62600,12.27641073
462.62650,11.36082751
462.62700,8.919272248
462.62750,4.341356132
462.62800,-0.2365599832
462.62850,-2.678115245
462.62900,-3.28850406
462.62950,-2.678115245
462.63000,-2.067726429
462.63050,-0.2365599832
462.63100,1.594606463
462.63150,2.204995278
462.63200,1.289412055
462.63250,0.06863442452
462.63300,-1.152143206
462.63350,-2.983309652
462.63400,-3.898892876
462.63450,-2.983309652
462.63500,-2.372920837
462.63550,-4.509281691
462.63600,-9.087197807
462.63650,-12.44433629
462.63700,-12.44433629
462.63750,-11.22355866
462.63800,-10.30797544
462.63850,-9.392392214
462.63900,-7.25603136
462.63950,-5.730059322
462.64000,-4.509281691
462.64050,-3.593698468
462.64100,-1.762532022
462.64150,0.06863442452
462.64200,1.289412055
462.64250,3.120578502
462.64300,4.951744948
462.64350,5.867328171
462.64400,5.256939355
462.64450,5.256939355
462.64500,6.477716986
462.64550,7.088105802
462.64600,5.867328171
462.64650,4.64655054
462.64700,5.562133763
462.64750,7.698494617
462.64800,8.61407784
462.64850,8.003689025
462.64900,6.782911394
462.64950,4.64655054
462.65000,1.594606463
462.65050,-0.2365599832
462.65100,-0.5417543909
462.65150,0.06863442452
462.65200,-1.152143206
462.65250,-3.28850406
462.65300,-5.119670506
462.65350,-5.730059322
462.65400,-5.730059322
462.65450,-6.03525373
462.65500,-6.340448137
462.65550,-6.340448137
462.65600,-6.03525373
462.65650,-6.03525373
462.65700,-5.730059322
462.65750,-5.119670506
462.65800,-4.204087283
462.65850,-3.28850406
462.65900,-2.983309652
462.65950,-2.678115245
462.66000,-1.457337614
462.66050,0.06863442452
462.66100,0.6790232399
462.66150,-0.5417543909
462.66200,-2.372920837
462.66250,-1.762532022
462.66300,0.06863442452
462.66350,1.594606463
462.66400,3.120578502
462.66450,5.867328171
462.66500,8.61407784
462.66550,9.529661063
462.66600,8.61407784
462.66650,8.919272248
462.66700,10.44524429
462.66750,9.834855471
462.66800,5.867328171
462.66850,1.594606463
462.66900,0.06863442452
462.66950,0.06863442452
462.67000,0.06863442452
462.67050,-0.2365599832
462.67100,-0.8469487986
462.67150,-2.067726429
462.67200,-3.28850406
462.67250,-4.204087283
462.67300,-4.204087283
462.67350,-4.509281691
462.67400,-5.730059322
462.67450,-6.340448137
462.67500,-6.645642545
462.67550,-6.645642545
462.67600,-6.340448137
462.67650,-5.119670506
462.67700,-3.28850406
462.67750,-2.372920837
462.67800,-2.372920837
462.67850,-1.762532022
462.67900,-0.2365599832
462.67950,0.3738288322
462.68000,0.3738288322
462.68050,0.06863442452
462.68100,-1.457337614
462.68150,-3.593698468
462.68200,-3.898892876
462.68250,-1.457337614
462.68300,1.899800871
462.68350,3.730967317
462.68400,3.425772909
462.68450,3.730967317
462.68500,6.172522579
462.68550,8.308883432
462.68600,8.919272248
462.68650,8.919272248
462.68700,9.224466656
462.68750,8.919272248
462.68800,7.088105802
462.68850,4.951744948
462.68900,4.951744948
462.68950,5.256939355
462.69000,2.815384094
462.69050,-2.067726429
462.69100,-6.03525373
462.69150,-6.03525373
462.69200,-4.204087283
462.69250,-3.898892876
462.69300,-4.204087283
462.69350,-2.983309652
462.69400,-1.457337614
462.69450,-2.067726429
462.69500,-4.814476099
462.69550,-6.03525373
462.69600,-4.204087283
462.69650,-0.8469487986
462.69700,0.3738288322
462.69750,0.3738288322
462.69800,0.9842176476
462.69850,3.425772909
462.69900,6.782911394
462.69950,8.308883432
462.70000,5.867328171
462.70050,0.06863442452
462.70100,-5.730059322
462.70150,-6.950836953
462.70200,-3.898892876
462.70250,0.3738288322
462.70300,2.510189686
462.70350,2.510189686
462.70400,0.3738288322
462.70450,-1.457337614
462.70500,-2.372920837
462.70550,-0.8469487986
462.70600,2.204995278
462.70650,4.64655054
462.70700,4.951744948
462.70750,4.64655054
462.70800,5.256939355
462.70850,5.867328171
462.70900,5.256939355
462.70950,4.036161725
462.71000,3.425772909
462.71050,3.425772909
462.71100,3.120578502
462.71150,1.594606463
462.71200,-0.2365599832
462.71250,-2.678115245
462.71300,-4.509281691
462.71350,-5.730059322
462.71400,-5.424864914
462.71450,-4.204087283
462.71500,-3.593698468
462.71550,-3.898892876
462.71600,-4.204087283
462.71650,-3.593698468
462.71700,-2.983309652
462.71750,-2.983309652
462.71800,-2.678115245
462.71850,-1.152143206
462.71900,0.3738288322
462.71950,0.6790232399
462.72000,-0.5417543909
462.72050,-1.457337614
462.72100,-0.8469487986
462.72150,0.06863442452
462.72200,-0.2365599832
462.72250,-0.5417543909
462.72300,0.3738288322
462.72350,2.815384094
462.72400,4.951744948
462.72450,6.782911394
462.72500,8.61407784
462.72550,9.834855471
462.72600,10.14004988
462.72650,9.834855471
462.72700,8.61407784
462.72750,6.782911394
462.72800,4.64655054
462.72850,3.120578502
462.72900,2.815384094
462.72950,2.204995278
462.73000,0.9842176476
462.73050,0.06863442452
462.73100,0.9842176476
462.73150,0.9842176476
462.73200,-0.8469487986
462.73250,-4.204087283
462.73300,-5.424864914
462.73350,-5.119670506
462.73400,-5.424864914
462.73450,-6.340448137
462.73500,-6.645642545
462.73550,-6.03525373
462.73600,-5.424864914
462.73650,-5.424864914
462.73700,-5.119670506
462.73750,-4.509281691
462.73800,-3.898892876
462.73850,-3.28850406
462.73900,-2.372920837
462.73950,-1.762532022
462.74000,-2.372920837
462.74050,-3.593698468
462.74100,-3.593698468
462.74150,-1.457337614
462.74200,0.9842176476
462.74250,2.815384094
462.74300,4.64655054
462.74350,7.088105802
462.74400,8.919272248
462.74450,8.919272248
462.74500,7.393300209
462.74550,6.782911394
462.74600,7.393300209
462.74650,8.003689025
462.74700,8.308883432
462.74750,8.308883432
462.74800,8.919272248
462.74850,8.308883432
462.74900,6.172522579
462.74950,3.425772909
462.75000,1.594606463
462.75050,1.289412055
462.75100,1.594606463
462.75150,1.594606463
462.75200,-0.2365599832
462.75250,-4.204087283
462.75300,-6.950836953
462.75350,-6.03525373
462.75400,-3.28850406
462.75450,-2.983309652
462.75500,-6.950836953
462.75550,-10.91836425
462.75600,-11.83394748
462.75650,-10.61316985
462.75700,-10.61316985
462.75750,-11.52875307
462.75800,-11.22355866
462.75850,-8.476808991
462.75900,-4.814476099
462.75950,-1.762532022
462.76000,-0.5417543909
462.76050,-1.152143206
462.76100,-3.28850406
462.76150,-3.28850406
462.76200,-0.8469487986
462.76250,2.815384094
462.76300,4.951744948
462.76350,5.562133763
462.76400,5.867328171
462.76450,6.782911394
462.76500,6.782911394
462.76550,5.867328171
462.76600,4.64655054
462.76650,4.64655054
462.76700,5.562133763
462.76750,5.867328171
462.76800,4.341356132
462.76850,1.594606463
462.76900,-0.2365599832
462.76950,-0.2365599832
462.77000,0.6790232399
462.77050,0.6790232399
462.77100,-0.2365599832
462.77150,-0.5417543909
462.77200,0.06863442452
462.77250,0.06863442452
462.77300,-1.457337614
462.77350,-4.204087283
462.77400,-6.645642545
462.77450,-8.782003399
462.77500,-9.087197807
462.77550,-7.561225768
462.77600,-5.119670506
462.77650,-4.204087283
462.77700,-5.730059322
462.77750,-7.25603136
462.77800,-6.340448137
462.77850,-3.898892876
462.77900,-2.372920837
462.77950,-2.678115245
462.78000,-3.28850406
462.78050,-2.067726429
462.78100,0.3738288322
462.78150,2.815384094
462.78200,3.730967317
462.78250,4.341356132
462.78300,5.867328171
462.78350,8.308883432
462.78400,10.14004988
462.78450,10.14004988
462.78500,9.224466656
462.78550,8.003689025
462.78600,7.088105802
462.78650,5.562133763
462.78700,4.341356132
462.78750,4.64655054
462.78800,5.867328171
462.78850,8.003689025
462.78900,8.919272248
462.78950,7.393300209
462.79000,3.730967317
462.79050,0.06863442452
462.79100,-0.2365599832
462.79150,0.06863442452
462.79200,-1.457337614
462.79250,-6.03525373
462.79300,-9.697586622
462.79350,-9.697586622
462.79400,-7.866420176
462.79450,-7.25603136
462.79500,-7.866420176
462.79550,-7.866420176
462.79600,-7.25603136
462.79650,-6.950836953
462.79700,-7.25603136
462.79750,-6.340448137
462.79800,-5.119670506
462.79850,-3.898892876
462.79900,-3.28850406
462.79950,-2.372920837
462.80000,-0.8469487986
462.80050,1.289412055
462.80100,4.341356132
462.80150,6.477716986
462.80200,4.951744948
462.80250,0.3738288322
462.80300,-3.28850406
462.80350,-2.678115245
462.80400,1.594606463
462.80450,5.562133763
462.80500,6.477716986
462.80550,5.562133763
462.80600,4.951744948
462.80650,6.172522579
462.80700,8.003689025
462.80750,8.308883432
462.80800,6.172522579
462.80850,3.120578502
462.80900,1.899800871
462.80950,2.510189686
462.81000,2.510189686
462.81050,1.289412055
462.81100,1.289412055
462.81150,3.425772909
462.81200,4.951744948
462.81250,2.510189686
462.81300,-1.457337614
462.81350,-4.204087283
462.81400,-5.424864914
462.81450,-7.561225768
462.81500,-9.697586622
462.81550,-10.00278103
462.81600,-7.866420176
462.81650,-6.340448137
462.81700,-5.730059322
462.81750,-4.814476099
462.81800,-3.898892876
462.81850,-5.730059322
462.81900,-7.866420176
462.81950,-6.950836953
462.82000,-2.372920837
462.82050,1.594606463
462.82100,1.899800871
462.82150,0.6790232399
462.82200,1.899800871
462.82250,4.64655054
462.82300,6.172522579
462.82350,7.088105802
462.82400,8.003689025
462.82450,8.308883432
462.82500,7.088105802
462.82550,5.256939355
462.82600,5.256939355
462.82650,6.782911394
462.82700,7.393300209
462.82750,5.867328171
462.82800,4.341356132
462.82850,4.036161725
462.82900,4.951744948
462.82950,4.951744948
462.83000,4.036161725
462.83050,3.120578502
462.83100,2.510189686
462.83150,1.899800871
462.83200,0.06863442452
462.83250,-3.593698468
462.83300,-7.866420176
462.83350,-10.61316985
462.83400,-10.91836425
462.83450,-9.087197807
462.83500,-6.950836953
462.83550,-6.340448137
462.83600,-6.645642545
462.83650,-7.561225768
462.83700,-7.561225768
462.83750,-6.03525373
462.83800,-4.509281691
462.83850,-3.593698468
462.83900,-2.983309652
462.83950,-1.762532022
462.84000,-0.5417543909
462.84050,-0.5417543909
462.84100,-1.152143206
462.84150,-0.5417543909
462.84200,0.9842176476
462.84250,2.815384094
462.84300,3.120578502
462.84350,1.899800871
462.84400,1.594606463
462.84450,3.120578502
462.84500,5.562133763
462.84550,6.477716986
462.84600,5.867328171
462.84650,4.341356132
462.84700,4.64655054
462.84750,5.562133763
462.84800,5.562133763
462.84850,4.036161725
462.84900,2.204995278
462.84950,2.204995278
462.85000,3.120578502
462.85050,3.425772909
462.85100,2.204995278
462.85150,1.289412055
462.85200,0.9842176476
462.85250,0.6790232399
462.85300,0.06863442452
462.85350,0.06863442452
462.85400,0.3738288322
462.85450,-0.2365599832
462.85500,-4.204087283
462.85550,-8.782003399
462.85600,-11.22355866
462.85650,-10.91836425
462.85700,-9.697586622
462.85750,-8.171614583
462.85800,-6.340448137
462.85850,-3.593698468
462.85900,-2.067726429
462.85950,-1.762532022
462.86000,-1.762532022
462.86050,-0.2365599832
462.86100,2.510189686
462.86150,4.64655054
462.86200,5.256939355
462.86250,4.036161725
462.86300,2.815384094
462.86350,2.204995278
462.86400,2.510189686
462.86450,2.815384094
462.86500,3.120578502
462.86550,4.64655054
462.86600,6.782911394
462.86650,7.393300209
462.86700,5.867328171
462.86750,4.341356132
462.86800,3.730967317
462.86850,3.425772909
462.86900,2.815384094
462.86950,3.425772909
462.87000,4.951744948
462.87050,5.562133763
462.87100,3.120578502
462.87150,0.06863442452
462.87200,-0.8469487986
462.87250,-1.762532022
462.87300,-5.119670506
462.87350,-8.476808991
462.87400,-8.782003399
462.87450,-5.424864914
462.87500,-3.593698468
462.87550,-5.730059322
462.87600,-8.171614583
462.87650,-8.171614583
462.87700,-6.645642545
462.87750,-6.950836953
462.87800,-8.171614583
462.87850,-8.476808991
462.87900,-7.25603136
462.87950,-5.119670506
462.88000,-3.28850406
462.88050,-2.067726429
462.88100,-1.457337614
462.88150,-0.8469487986
462.88200,1.289412055
462.88250,4.036161725
462.88300,4.951744948
462.88350,3.730967317
462.88400,3.730967317
462.88450,6.172522579
462.88500,8.308883432
462.88550,7.088105802
462.88600,4.64655054
462.88650,5.867328171
462.88700,9.529661063
462.88750,11.66602192
462.88800,10.44524429
462.88850,8.919272248
462.88900,9.224466656
462.88950,8.61407784
462.89000,4.64655054
462.89050,-0.5417543909
462.89100,-2.983309652
462.89150,-2.067726429
462.89200,-0.5417543909
462.89250,-1.457337614
462.89300,-4.814476099
462.89350,-7.25603136
462.89400,-7.25603136
462.89450,-5.730059322
462.89500,-4.814476099
462.89550,-6.950836953
462.89600,-10.00278103
462.89650,-11.22355866
462.89700,-9.697586622
462.89750,-8.782003399
462.89800,-10.30797544
462.89850,-12.44433629
462.89900,-11.52875307
462.89950,-7.866420176
462.90000,-4.509281691
462.90050,-2.678115245
462.90100,-1.762532022
462.90150,-0.2365599832
462.90200,0.9842176476
462.90250,2.204995278
462.90300,3.730967317
462.90350,4.951744948
462.90400,5.562133763
462.90450,5.256939355
462.90500,4.951744948
462.90550,5.867328171
462.90600,7.698494617
462.90650,9.224466656
462.90700,10.14004988
462.90750,10.14004988
462.90800,9.224466656
462.90850,8.003689025
462.90900,6.782911394
462.90950,4.64655054
462.91000,1.899800871
462.91050,-0.2365599832
462.91100,-0.8469487986
462.91150,0.06863442452
462.91200,0.6790232399
462.91250,0.06863442452
462.91300,-1.457337614
462.91350,-2.678115245
462.91400,-2.983309652
462.91450,-2.983309652
462.91500,-3.28850406
462.91550,-3.898892876
462.91600,-4.204087283
462.91650,-4.814476099
462.91700,-6.03525373
462.91750,-7.25603136
462.91800,-6.950836953
462.91850,-6.03525373
462.91900,-5.730059322
462.91950,-6.340448137
462.92000,-5.424864914
462.92050,-1.762532022
462.92100,0.6790232399
462.92150,0.06863442452
462.92200,-1.457337614
462.92250,-0.2365599832
462.92300,3.120578502
462.92350,5.256939355
462.92400,3.730967317
462.92450,1.899800871
462.92500,3.120578502
462.92550,5.867328171
462.92600,7.088105802
462.92650,6.477716986
462.92700,5.867328171
462.92750,6.172522579
462.92800,6.782911394
462.92850,6.782911394
462.92900,5.562133763
462.92950,3.425772909
462.93000,2.510189686
462.93050,3.730967317
462.93100,4.951744948
462.93150,2.815384094
462.93200,-1.762532022
462.93250,-5.119670506
462.93300,-4.509281691
462.93350,-2.983309652
462.93400,-3.28850406
462.93450,-4.814476099
462.93500,-5.119670506
462.93550,-4.814476099
462.93600,-5.119670506
462.93650,-6.645642545
462.93700,-7.561225768
462.93750,-6.645642545
462.93800,-4.204087283
462.93850,-2.372920837
462.93900,-1.457337614
462.93950,-2.067726429
462.94000,-3.593698468
462.94050,-5.119670506
462.94100,-4.509281691
462.94150,-1.152143206
462.94200,2.510189686
462.94250,5.562133763
462.94300,7.393300209
462.94350,9.224466656
462.94400,10.75043869
462.94450,10.14004988
462.94500,8.003689025
462.94550,6.782911394
462.94600,8.308883432
462.94650,11.36082751
462.94700,13.19199396
462.94750,12.27641073
462.94800,9.529661063
462.94850,6.477716986
462.94900,4.341356132
462.94950,4.341356132
462.95000,5.256939355
462.95050,3.425772909
462.95100,-2.067726429
462.95150,-7.866420176
462.95200,-8.171614583
462.95250,-4.509281691
462.95300,-3.28850406
462.95350,-6.645642545
462.95400,-9.697586622
462.95450,-9.087197807
462.95500,-7.25603136
462.95550,-8.476808991
462.95600,-10.91836425
462.95650,-10.91836425
462.95700,-8.476808991
462.95750,-7.25603136
462.95800,-8.171614583
462.95850,-8.476808991
462.95900,-5.730059322
462.95950,-2.678115245
462.96000,-1.762532022
462.96050,-1.762532022
462.96100,0.06863442452
462.96150,2.815384094
462.96200,4.64655054
462.96250,4.64655054
462.96300,5.562133763
462.96350,7.393300209
462.96400,8.61407784
462.96450,7.088105802
462.96500,4.951744948
462.96550,4.036161725
462.96600,4.64655054
462.96650,6.782911394
462.96700,8.308883432
462.96750,9.224466656
462.96800,8.61407784
462.96850,6.782911394
462.96900,5.256939355
462.96950,4.036161725
462.97000,2.815384094
462.97050,1.594606463
462.97100,0.9842176476
462.97150,1.289412055
462.97200,0.9842176476
462.97250,-0.5417543909
462.97300,-4.509281691
462.97350,-9.392392214
462.97400,-11.83394748
462.97450,-9.392392214
462.97500,-3.28850406
462.97550,1.899800871
462.97600,2.815384094
462.97650,0.9842176476
462.97700,0.6790232399
462.97750,1.594606463
462.97800,0.06863442452
462.97850,-4.509281691
462.97900,-7.866420176
462.97950,-7.561225768
462.98000,-4.814476099
462.98050,-2.983309652
462.98100,-1.762532022
462.98150,0.06863442452
462.98200,3.120578502
462.98250,4.64655054
462.98300,5.562133763
462.98350,6.172522579
462.98400,6.172522579
462.98450,4.951744948
462.98500,4.64655054
462.98550,6.782911394
462.98600,9.529661063
462.98650,10.14004988
462.98700,8.61407784
462.98750,8.003689025
462.98800,8.61407784
462.98850,8.61407784
462.98900,7.088105802
462.98950,4.64655054
462.99000,3.425772909
462.99050,2.815384094
462.99100,1.899800871
462.99150,0.3738288322
462.99200,-0.2365599832
462.99250,-0.8469487986
462.99300,-1.457337614
462.99350,-2.372920837
462.99400,-3.28850406
462.99450,-3.593698468
462.99500,-3.593698468
462.99550,-3.593698468
462.99600,-4.509281691
462.99650,-6.645642545
462.99700,-9.392392214
462.99750,-10.91836425
462.99800,-9.087197807
462.99850,-5.424864914
462.99900,-3.593698468
462.99950,-6.340448137
463.00000,-10.61316985
463.00050,-11.83394748
463.00100,-8.782003399
463.00150,-5.119670506
463.00200,-3.28850406
463.00250,-1.152143206
463.00300,1.899800871
463.00350,5.562133763
463.00400,7.698494617
463.00450,9.834855471
463.00500,12.27641073
463.00550,13.19199396
463.00600,9.529661063
463.00650,3.425772909
463.00700,-0.8469487986
463.00750,-3.593698468
463.00800,-4.814476099
463.00850,-4.204087283
463.00900,-0.5417543909
463.00950,2.510189686
463.01000,2.510189686
463.01050,0.9842176476
463.01100,2.204995278
463.01150,4.64655054
463.01200,3.730967317
463.01250,-0.8469487986
463.01300,-4.814476099
463.01350,-6.03525373
463.01400,-6.340448137
463.01450,-7.866420176
463.01500,-8.476808991
463.01550,-7.561225768
463.01600,-6.950836953
463.01650,-9.087197807
463.01700,-11.83394748
463.01750,-11.83394748
463.01800,-9.697586622
463.01850,-6.340448137
463.01900,-3.28850406
463.01950,0.06863442452
463.02000,2.204995278
463.02050,2.815384094
463.02100,2.510189686
463.02150,3.425772909
463.02200,5.256939355
463.02250,5.867328171
463.02300,4.341356132
463.02350,2.204995278
463.02400,1.594606463
463.02450,2.815384094
463.02500,4.64655054
463.02550,5.867328171
463.02600,5.562133763
463.02650,4.036161725
463.02700,2.204995278
463.02750,1.899800871
463.02800,2.815384094
463.02850,3.730967317
463.02900,3.425772909
463.02950,3.120578502
463.03000,2.815384094
463.03050,1.594606463
463.03100,0.3738288322
463.03150,0.06863442452
463.03200,0.6790232399
463.03250,0.06863442452
463.03300,-1.762532022
463.03350,-4.509281691
463.03400,-6.03525373
463.03450,-7.25603136
463.03500,-8.476808991
463.03550,-7.561225768
463.03600,-4.509281691
463.03650,-2.067726429
463.03700,-2.372920837
463.03750,-2.983309652
463.03800,-2.372920837
463.03850,-1.762532022
463.03900,-2.067726429
463.03950,-1.152143206
463.04000,0.6790232399
463.04050,0.06863442452
463.04100,-5.424864914
463.04150,-10.00278103
463.04200,-7.25603136
463.04250,-0.2365599832
463.04300,2.510189686
463.04350,0.6790232399
463.04400,-0.8469487986
463.04450,0.06863442452
463.04500,1.899800871
463.04550,2.204995278
463.04600,2.815384094
463.04650,3.730967317
463.04700,3.120578502
463.04750,0.6790232399
463.04800,-0.5417543909
463.04850,0.6790232399
463.04900,4.036161725
463.04950,5.562133763
463.05000,4.341356132
463.05050,1.594606463
463.05100,0.06863442452
463.05150,0.06863442452
463.05200,1.289412055
463.05250,0.9842176476
463.05300,-0.5417543909
463.05350,-1.762532022
463.05400,-0.8469487986
463.05450,-0.5417543909
463.05500,-2.983309652
463.05550,-6.340448137
463.05600,-6.645642545
463.05650,-6.03525373
463.05700,-7.866420176
463.05750,-11.22355866
463.05800,-12.13914188
463.05850,-9.392392214
463.05900,-6.03525373
463.05950,-4.204087283
463.06000,-3.593698468
463.06050,-2.372920837
463.06100,-0.8469487986
463.06150,0.6790232399
463.06200,2.510189686
463.06250,4.341356132
463.06300,6.782911394
463.06350,9.224466656
463.06400,11.36082751
463.06450,11.0556331
463.06500,8.919272248
463.06550,8.003689025
463.06600,9.224466656
463.06650,10.14004988
463.06700,8.308883432
463.06750,5.256939355
463.06800,4.341356132
463.06850,5.256939355
463.06900,6.172522579
463.06950,6.172522579
463.07000,6.477716986
463.07050,5.867328171
463.07100,3.425772909
463.07150,-0.2365599832
463.07200,-2.372920837
463.07250,-2.067726429
463.07300,-2.372920837
463.07350,-4.204087283
463.07400,-5.424864914
463.07450,-5.424864914
463.07500,-5.424864914
463.07550,-6.645642545
463.07600,-7.561225768
463.07650,-6.645642545
463.07700,-5.424864914
463.07750,-6.03525373
463.07800,-8.171614583
463.07850,-8.476808991
463.07900,-5.730059322
463.07950,-2.372920837
463.08000,-0.2365599832
463.08050,0.3738288322
463.08100,0.3738288322
463.08150,0.06863442452
463.08200,-0.8469487986
463.08250,-0.8469487986
463.08300,1.289412055
463.08350,4.951744948
463.08400,7.393300209
463.08450,8.003689025
463.08500,7.393300209
463.08550,8.003689025
463.08600,9.224466656
463.08650,10.44524429
463.08700,10.14004988
463.08750,7.698494617
463.08800,4.951744948
463.08850,3.730967317
463.08900,5.256939355
463.08950,7.088105802
463.09000,6.477716986
463.09050,3.120578502
463.09100,0.3738288322
463.09150,-0.2365599832
463.09200,-0.8469487986
463.09250,-2.067726429
463.09300,-2.372920837
463.09350,-1.457337614
463.09400,-0.2365599832
463.09450,-0.8469487986
463.09500,-2.372920837
463.09550,-3.898892876
463.09600,-3.898892876
463.09650,-2.678115245
463.09700,-2.067726429
463.09750,-2.372920837
463.09800,-4.204087283
463.09850,-5.730059322
463.09900,-6.340448137
463.09950,-5.119670506
463.10000,-2.983309652
463.10050,-1.762532022
463.10100,-1.152143206
463.10150,-0.5417543909
463.10200,0.3738288322
463.10250,1.594606463
463.10300,2.510189686
463.10350,3.425772909
463.10400,4.341356132
463.10450,5.562133763
463.10500,6.782911394
463.10550,7.698494617
463.10600,7.393300209
463.10650,6.172522579
463.10700,4.951744948
463.10750,4.341356132
463.10800,5.256939355
463.10850,6.477716986
463.10900,6.477716986
463.10950,5.256939355
463.11000,4.036161725
463.11050,3.425772909
463.11100,2.204995278
463.11150,0.06863442452
463.11200,-1.457337614
463.11250,-0.8469487986
463.11300,0.9842176476
463.11350,2.204995278
463.11400,1.594606463
463.11450,0.06863442452
463.11500,-2.067726429
463.11550,-5.730059322
463.11600,-9.392392214
463.11650,-10.30797544
463.11700,-8.171614583
463.11750,-6.03525373
463.11800,-7.25603136
463.11850,-10.00278103
463.11900,-11.22355866
463.11950,-10.30797544
463.12000,-9.087197807
463.12050,-7.25603136
463.12100,-4.204087283
463.12150,-0.8469487986
463.12200,0.9842176476
463.12250,2.510189686
463.12300,5.256939355
463.12350,8.919272248
463.12400,9.529661063
463.12450,6.172522579
463.12500,2.510189686
463.12550,2.204995278
463.12600,4.036161725
463.12650,4.036161725
463.12700,1.899800871
463.12750,0.6790232399
463.12800,2.510189686
463.12850,6.477716986
463.12900,9.529661063
463.12950,10.44524429
463.13000,9.529661063
463.13050,7.393300209
463.13100,4.341356132
463.13150,0.6790232399
463.13200,-3.593698468
463.13250,-7.25603136
463.13300,-9.087197807
463.13350,-9.392392214
463.13400,-9.087197807
463.13450,-8.171614583
463.13500,-6.950836953
463.13550,-5.424864914
463.13600,-4.204087283
463.13650,-3.593698468
463.13700,-3.898892876
463.13750,-5.730059322
463.13800,-8.171614583
463.13850,-9.392392214
463.13900,-8.171614583
463.13950,-6.340448137
463.14000,-6.950836953
463.14050,-7.561225768
463.14100,-5.119670506
463.14150,-1.152143206
463.14200,0.3738288322
463.14250,-0.5417543909
463.14300,0.06863442452
463.14350,4.036161725
463.14400,7.698494617
463.14450,7.698494617
463.14500,6.782911394
463.14550,7.393300209
463.14600,8.003689025
463.14650,5.867328171
463.14700,3.120578502
463.14750,3.730967317
463.14800,8.003689025
463.14850,10.44524429
463.14900,8.919272248
463.14950,5.562133763
463.15000,4.64655054
463.15050,4.951744948
463.15100,4.341356132
463.15150,1.289412055
463.15200,-2.372920837
463.15250,-5.424864914
463.15300,-7.25603136
463.15350,-7.866420176
463.15400,-7.866420176
463.15450,-7.561225768
463.15500,-7.25603136
463.15550,-7.561225768
463.15600,-7.561225768
463.15650,-7.561225768
463.15700,-7.25603136
463.15750,-6.645642545
463.15800,-4.814476099
463.15850,-2.067726429
463.15900,-0.8469487986
463.15950,-1.457337614
463.16000,-2.983309652
463.16050,-3.28850406
463.16100,-1.457337614
463.16150,0.3738288322
463.16200,1.289412055
463.16250,0.9842176476
463.16300,0.9842176476
463.16350,2.204995278
463.16400,4.341356132
463.16450,5.562133763
463.16500,4.951744948
463.16550,4.036161725
463.16600,5.256939355
463.16650,7.698494617
463.16700,8.919272248
463.16750,7.088105802
463.16800,4.951744948
463.16850,3.425772909
463.16900,2.510189686
463.16950,2.510189686
463.17000,4.951744948
463.17050,7.698494617
463.17100,6.782911394
463.17150,1.289412055
463.17200,-3.593698468
463.17250,-4.204087283
463.17300,-1.762532022
463.17350,-0.2365599832
463.17400,0.06863442452
463.17450,1.289412055
463.17500,1.899800871
463.17550,-0.2365599832
463.17600,-5.730059322
463.17650,-11.52875307
463.17700,-13.66511392
463.17750,-11.83394748
463.17800,-8.782003399
463.17850,-7.25603136
463.17900,-8.476808991
463.17950,-9.697586622
463.18000,-7.561225768
463.18050,-1.762532022
463.18100,2.510189686
463.18150,2.510189686
463.18200,0.3738288322
463.18250,0.3738288322
463.18300,2.815384094
463.18350,4.951744948
463.18400,5.256939355
463.18450,5.562133763
463.18500,7.088105802
463.18550,8.003689025
463.18600,7.393300209
463.18650,7.088105802
463.18700,7.698494617
463.18750,8.003689025
463.18800,5.867328171
463.18850,3.120578502
463.18900,2.204995278
463.18950,3.425772909
463.19000,3.425772909
463.19050,1.594606463
463.19100,0.3738288322
463.19150,1.289412055
463.19200,2.510189686
463.19250,1.899800871
463.19300,0.06863442452
463.19350,-1.152143206
463.19400,-1.762532022
463.19450,-2.983309652
463.19500,-4.509281691
463.19550,-5.119670506
463.19600,-5.424864914
463.19650,-6.03525373
463.19700,-6.03525373
463.19750,-4.509281691
463.19800,-3.28850406
463.19850,-3.898892876
463.19900,-5.424864914
463.19950,-4.509281691
463.20000,-1.152143206
463.20050,0.3738288322
463.20100,0.06863442452
463.20150,0.6790232399
463.20200,3.120578502
463.20250,4.64655054
463.20300,3.425772909
463.20350,1.594606463
463.20400,2.815384094
463.20450,5.562133763
463.20500,6.172522579
463.20550,3.425772909
463.20600,0.9842176476
463.20650,0.6790232399
463.20700,1.899800871
463.20750,4.341356132
463.20800,6.782911394
463.20850,8.003689025
463.20900,7.698494617
463.20950,6.477716986
463.21000,6.172522579
463.21050,4.951744948
463.21100,1.594606463
463.21150,-2.067726429
463.21200,-4.204087283
463.21250,-5.730059322
463.21300,-7.561225768
463.21350,-9.087197807
463.21400,-9.697586622
463.21450,-10.00278103
463.21500,-10.91836425
463.21550,-10.61316985
463.21600,-7.561225768
463.21650,-4.509281691
463.21700,-5.424864914
463.21750,-7.866420176
463.21800,-7.25603136
463.21850,-3.28850406
463.21900,-0.8469487986
463.21950,-0.5417543909
463.22000,0.9842176476
463.22050,4.64655054
463.22100,5.867328171
463.22150,3.120578502
463.22200,-0.2365599832
463.22250,-1.152143206
463.22300,-1.762532022
463.22350,-3.593698468
463.22400,-4.814476099
463.22450,-2.372920837
463.22500,0.6790232399
463.22550,1.899800871
463.22600,0.9842176476
463.22650,0.06863442452
463.22700,0.6790232399
463.22750,2.510189686
463.22800,4.951744948
463.22850,7.088105802
463.22900,8.308883432
463.22950,7.088105802
463.23000,5.256939355
463.23050,3.425772909
463.23100,1.289412055
463.23150,-0.8469487986
463.23200,-1.762532022
463.23250,-1.152143206
463.23300,-0.8469487986
463.23350,-1.762532022
463.23400,-2.983309652
463.23450,-3.28850406
463.23500,-2.983309652
463.23550,-3.593698468
463.23600,-3.898892876
463.23650,-2.983309652
463.23700,-2.372920837
463.23750,-2.372920837
463.23800,-2.067726429
463.23850,-0.2365599832
463.23900,0.06863442452
463.23950,-1.152143206
463.24000,-2.678115245
463.24050,-1.152143206
463.24100,1.289412055
463.24150,2.815384094
463.24200,3.120578502
463.24250,4.64655054
463.24300,6.172522579
463.24350,5.867328171
463.24400,4.341356132
463.24450,4.341356132
463.24500,6.477716986
463.24550,8.308883432
463.24600,8.61407784
463.24650,9.529661063
463.24700,11.36082751
463.24750,11.97121632
463.24800,9.834855471
463.24850,7.698494617
463.24900,7.088105802
463.24950,6.477716986
463.25000,3.425772909
463.25050,-0.2365599832
463.25100,-2.067726429
463.25150,-2.067726429
463.25200,-2.067726429
463.25250,-3.28850406
463.25300,-5.119670506
463.25350,-6.340448137
463.25400,-6.645642545
463.25450,-5.730059322
463.25500,-5.424864914
463.25550,-6.03525373
463.25600,-7.561225768
463.25650,-7.866420176
463.25700,-6.645642545
463.25750,-5.424864914
463.25800,-5.424864914
463.25850,-5.424864914
463.25900,-4.509281691
463.25950,-3.593698468
463.26000,-2.983309652
463.26050,-1.762532022
463.26100,0.6790232399
463.26150,2.815384094
463.26200,2.204995278
463.26250,1.289412055
463.26300,2.815384094
463.26350,5.867328171
463.26400,7.393300209
463.26450,7.393300209
463.26500,7.698494617
463.26550,8.919272248
463.26600,8.003689025
463.26650,4.64655054
463.26700,1.594606463
463.26750,1.289412055
463.26800,2.510189686
463.26850,4.341356132
463.26900,5.867328171
463.26950,6.782911394
463.27000,5.562133763
463.27050,2.204995278
463.27100,-0.2365599832
463.27150,-0.5417543909
463.27200,0.3738288322
463.27250,0.06863442452
463.27300,-2.067726429
463.27350,-4.509281691
463.27400,-6.645642545
463.27450,-7.866420176
463.27500,-7.866420176
463.27550,-6.645642545
463.27600,-4.814476099
463.27650,-5.119670506
463.27700,-7.25603136
463.27750,-7.866420176
463.27800,-5.119670506
463.27850,-1.457337614
463.27900,0.06863442452
463.27950,0.06863442452
463.28000,1.899800871
463.28050,5.256939355
463.28100,6.477716986
463.28150,2.204995278
463.28200,-3.898892876
463.28250,-6.950836953
463.28300,-4.814476099
463.28350,-0.5417543909
463.28400,2.204995278
463.28450,4.341356132
463.28500,6.477716986
463.28550,8.003689025
463.28600,8.003689025
463.28650,7.393300209
463.28700,7.088105802
463.28750,7.393300209
463.28800,7.393300209
463.28850,7.088105802
463.28900,5.562133763
463.28950,3.425772909
463.29000,1.289412055
463.29050,0.9842176476
463.29100,2.204995278
463.29150,2.204995278
463.29200,0.3738288322
463.29250,-2.067726429
463.29300,-2.983309652
463.29350,-3.28850406
463.29400,-3.898892876
463.29450,-4.814476099
463.29500,-5.119670506
463.29550,-5.424864914
463.29600,-6.950836953
463.29650,-8.782003399
463.29700,-8.476808991
463.29750,-6.950836953
463.29800,-6.03525373
463.29850,-6.645642545
463.29900,-6.340448137
463.29950,-4.204087283
463.30000,-2.067726429
463.30050,-0.5417543909
463.30100,1.289412055
463.30150,4.64655054
463.30200,5.562133763
463.30250,3.120578502
463.30300,-0.8469487986
463.30350,-2.067726429
463.30400,0.6790232399
463.30450,5.867328171
463.30500,8.919272248
463.30550,8.003689025
463.30600,5.867328171
463.30650,6.172522579
463.30700,9.224466656
463.30750,9.834855471
463.30800,4.64655054
463.30850,-2.983309652
463.30900,-6.950836953
463.30950,-5.119670506
463.31000,-1.457337614
463.31050,-0.2365599832
463.31100,-0.5417543909
463.31150,-0.5417543909
463.31200,0.06863442452
463.31250,-0.2365599832
463.31300,-1.152143206
463.31350,-2.067726429
463.31400,-3.28850406
463.31450,-5.424864914
463.31500,-6.950836953
463.31550,-6.950836953
463.31600,-6.340448137
463.31650,-7.25603136
463.31700,-8.782003399
463.31750,-8.782003399
463.31800,-7.561225768
463.31850,-6.950836953
463.31900,-7.561225768
463.31950,-7.866420176
463.32000,-6.950836953
463.32050,-5.424864914
463.32100,-2.678115245
463.32150,0.9842176476
463.32200,4.036161725
463.32250,4.64655054
463.32300,4.036161725
463.32350,5.562133763
463.32400,8.61407784
463.32450,10.14004988
463.32500,8.308883432
463.32550,5.867328171
463.32600,4.64655054
463.32650,3.425772909
463.32700,1.594606463
463.32750,0.6790232399
463.32800,2.510189686
463.32850,4.64655054
463.32900,4.64655054
463.32950,3.730967317
463.33000,4.341356132
463.33050,5.256939355
463.33100,2.510189686
463.33150,-2.678115245
463.33200,-6.645642545
463.33250,-6.340448137
463.33300,-4.204087283
463.33350,-3.28850406
463.33400,-3.593698468
463.33450,-4.204087283
463.33500,-6.03525373
463.33550,-8.782003399
463.33600,-9.087197807
463.33650,-5.730059322
463.33700,-2.372920837
463.33750,-2.372920837
463.33800,-4.509281691
463.33850,-4.509281691
463.33900,-2.983309652
463.33950,-3.28850406
463.34000,-5.424864914
463.34050,-5.730059322
463.34100,-2.372920837
463.34150,0.06863442452
463.34200,0.06863442452
463.34250,0.3738288322
463.34300,2.510189686
463.34350,3.730967317
463.34400,1.899800871
463.34450,-0.5417543909
463.34500,-0.2365599832
463.34550,0.6790232399
463.34600,0.06863442452
463.34650,0.06863442452
463.34700,4.64655054
463.34750,10.14004988
463.34800,9.834855471
463.34850,3.425772909
463.34900,-0.5417543909
463.34950,0.06863442452
463.35000,2.204995278
463.35050,1.899800871
463.35100,1.899800871
463.35150,4.036161725
463.35200,4.341356132
463.35250,0.06863442452
463.35300,-5.730059322
463.35350,-6.645642545
463.35400,-4.204087283
463.35450,-3.593698468
463.35500,-4.814476099
463.35550,-4.509281691
463.35600,-3.28850406
463.35650,-4.204087283
463.35700,-7.866420176
463.35750,-8.782003399
463.35800,-6.03525373
463.35850,-2.678115245
463.35900,-1.457337614
463.35950,0.3738288322
463.36000,5.562133763
463.36050,10.75043869
463.36100,11.97121632
463.36150,8.919272248
463.36200,4.64655054
463.36250,0.06863442452
463.36300,-3.898892876
463.36350,-6.645642545
463.36400,-6.340448137
463.36450,-3.898892876
463.36500,-1.457337614
463.36550,0.6790232399
463.36600,3.730967317
463.36650,6.172522579
463.36700,5.867328171
463.36750,4.341356132
463.36800,3.730967317
463.36850,4.64655054
463.36900,5.867328171
463.36950,6.172522579
463.37000,5.562133763
463.37050,4.341356132
463.37100,3.120578502
463.37150,3.120578502
463.37200,3.730967317
463.37250,3.425772909
463.37300,0.6790232399
463.37350,-3.28850406
463.37400,-5.730059322
463.37450,-4.814476099
463.37500,-2.372920837
463.37550,-1.762532022
463.37600,-3.593698468
463.37650,-5.730059322
463.37700,-6.03525373
463.37750,-5.119670506
463.37800,-4.509281691
463.37850,-5.119670506
463.37900,-6.340448137
463.37950,-6.645642545
463.38000,-5.730059322
463.38050,-4.509281691
463.38100,-2.983309652
463.38150,-1.152143206
463.38200,0.6790232399
463.38250,2.815384094
463.38300,4.036161725
463.38350,4.951744948
463.38400,5.867328171
463.38450,6.782911394
463.38500,7.393300209
463.38550,7.698494617
463.38600,8.919272248
463.38650,9.529661063
463.38700,8.919272248
463.38750,6.782911394
463.38800,4.341356132
463.38850,2.204995278
463.38900,1.289412055
463.38950,1.899800871
463.39000,3.425772909
463.39050,4.036161725
463.39100,3.425772909
463.39150,1.594606463
463.39200,0.06863442452
463.39250,-0.8469487986
463.39300,-0.8469487986
463.39350,-0.5417543909
463.39400,-0.2365599832
463.39450,-0.5417543909
463.39500,-0.8469487986
463.39550,-1.457337614
463.39600,-2.678115245
463.39650,-4.204087283
463.39700,-4.814476099
463.39750,-5.119670506
463.39800,-5.424864914
463.39850,-6.340448137
463.39900,-6.03525373
463.39950,-3.28850406
463.40000,0.06863442452
463.40050,2.510189686
463.40100,2.815384094
463.40150,2.815384094
463.40200,4.341356132
463.40250,6.782911394
463.40300,7.698494617
463.40350,7.088105802
463.40400,6.172522579
463.40450,6.172522579
463.40500,6.477716986
463.40550,6.477716986
463.40600,6.477716986
463.40650,5.562133763
463.40700,4.951744948
463.40750,5.562133763
463.40800,7.393300209
463.40850,7.698494617
463.40900,5.562133763
463.40950,2.204995278
463.41000,0.6790232399
463.41050,1.899800871
463.41100,3.120578502
463.41150,2.510189686
463.41200,1.899800871
463.41250,2.510189686
463.41300,2.815384094
463.41350,0.6790232399
463.41400,-2.983309652
463.41450,-6.340448137
463.41500,-6.645642545
463.41550,-5.119670506
463.41600,-3.898892876
463.41650,-4.204087283
463.41700,-5.424864914
463.41750,-7.25603136
463.41800,-8.782003399
463.41850,-9.087197807
463.41900,-7.561225768
463.41950,-5.730059322
463.42000,-3.898892876
463.42050,-2.372920837
463.42100,-2.067726429
463.42150,-3.898892876
463.42200,-6.340448137
463.42250,-6.340448137
463.42300,-2.983309652
463.42350,1.289412055
463.42400,4.951744948
463.42450,7.088105802
463.42500,9.224466656
463.42550,10.44524429
463.42600,9.224466656
463.42650,8.003689025
463.42700,8.003689025
463.42750,8.919272248
463.42800,9.224466656
463.42850,8.61407784
463.42900,7.393300209
463.42950,5.256939355
463.43000,1.594606463
463.43050,-1.762532022
463.43100,-2.372920837
463.43150,-0.5417543909
463.43200,0.9842176476
463.43250,1.594606463
463.43300,2.510189686
463.43350,4.341356132
463.43400,3.730967317
463.43450,-0.8469487986
463.43500,-7.25603136
463.43550,-11.83394748
463.43600,-12.7495307
463.43650,-10.91836425
463.43700,-8.476808991
463.43750,-6.950836953
463.43800,-8.171614583
463.43850,-10.61316985
463.43900,-11.52875307
463.43950,-9.087197807
463.44000,-5.730059322
463.44050,-3.593698468
463.44100,-2.372920837
463.44150,-1.457337614
463.44200,-0.2365599832
463.44250,0.6790232399
463.44300,2.510189686
463.44350,4.64655054
463.44400,5.867328171
463.44450,6.172522579
463.44500,7.393300209
463.44550,8.919272248
463.44600,9.834855471
463.44650,9.834855471
463.44700,9.529661063
463.44750,9.529661063
463.44800,6.782911394
463.44850,0.9842176476
463.44900,-3.898892876
463.44950,-4.509281691
463.45000,-1.457337614
463.45050,-1.152143206
463.45100,-4.509281691
463.45150,-7.561225768
463.45200,-6.340448137
463.45250,-2.983309652
463.45300,-1.457337614
463.45350,-2.067726429
463.45400,-1.152143206
463.45450,-0.2365599832
463.45500,-2.067726429
463.45550,-7.25603136
463.45600,-11.52875307
463.45650,-11.83394748
463.45700,-9.697586622
463.45750,-7.25603136
463.45800,-5.730059322
463.45850,-5.424864914
463.45900,-7.25603136
463.45950,-9.392392214
463.46000,-8.171614583
463.46050,-3.28850406
463.46100,0.3738288322
463.46150,1.289412055
463.46200,0.6790232399
463.46250,2.204995278
463.46300,4.951744948
463.46350,6.477716986
463.46400,6.782911394
463.46450,6.782911394
463.46500,7.088105802
463.46550,5.867328171
463.46600,4.341356132
463.46650,4.341356132
463.46700,5.867328171
463.46750,6.172522579
463.46800,4.64655054
463.46850,3.120578502
463.46900,3.120578502
463.46950,3.425772909
463.47000,3.120578502
463.47050,2.510189686
463.47100,3.120578502
463.47150,4.036161725
463.47200,3.120578502
463.47250,-0.5417543909
463.47300,-6.03525373
463.47350,-9.697586622
463.47400,-10.00278103
463.47450,-7.866420176
463.47500,-6.03525373
463.47550,-5.424864914
463.47600,-5.119670506
463.47650,-4.204087283
463.47700,-2.678115245
463.47750,-2.067726429
463.47800,-2.067726429
463.47850,-2.983309652
463.47900,-5.424864914
463.47950,-8.171614583
463.48000,-9.697586622
463.48050,-8.476808991
463.48100,-5.119670506
463.48150,-2.067726429
463.48200,-1.152143206
463.48250,-0.8469487986
463.48300,0.3738288322
463.48350,3.730967317
463.48400,6.782911394
463.48450,7.698494617
463.48500,6.782911394
463.48550,6.172522579
463.48600,6.782911394
463.48650,7.393300209
463.48700,7.393300209
463.48750,7.088105802
463.48800,7.088105802
463.48850,6.782911394
463.48900,5.562133763
463.48950,4.341356132
463.49000,3.730967317
463.49050,2.204995278
463.49100,-0.2365599832
463.49150,-2.067726429
463.49200,-1.152143206
463.49250,0.3738288322
463.49300,0.06863442452
463.49350,-1.762532022
463.49400,-2.372920837
463.49450,-1.152143206
463.49500,-1.152143206
463.49550,-3.593698468
463.49600,-6.645642545
463.49650,-7.25603136
463.49700,-5.424864914
463.49750,-3.28850406
463.49800,-3.593698468
463.49850,-6.03525373
463.49900,-7.866420176
463.49950,-6.340448137
463.50000,-3.593698468
463.50050,-2.067726429
463.50100,-2.372920837
463.50150,-0.5417543909
463.50200,3.425772909
463.50250,6.477716986
463.50300,6.477716986
463.50350,5.562133763
463.50400,6.477716986
463.50450,6.172522579
463.50500,3.120578502
463.50550,0.06863442452
463.50600,0.6790232399
463.50650,4.951744948
463.50700,8.308883432
463.50750,8.308883432
463.50800,7.393300209
463.50850,6.477716986
463.50900,4.64655054
463.50950,1.594606463
463.51000,0.06863442452
463.51050,0.6790232399
463.51100,1.899800871
463.51150,1.899800871
463.51200,0.6790232399
463.51250,0.06863442452
463.51300,-1.457337614
463.51350,-4.204087283
463.51400,-8.171614583
463.51450,-10.61316985
463.51500,-10.91836425
463.51550,-9.697586622
463.51600,-8.782003399
463.51650,-8.476808991
463.51700,-7.866420176
463.51750,-6.340448137
463.51800,-4.204087283
463.51850,-3.593698468
463.51900,-3.593698468
463.51950,-2.372920837
463.52000,0.6790232399
463.52050,2.204995278
463.52100,0.06863442452
463.52150,-2.983309652
463.52200,-3.28850406
463.52250,0.3738288322
463.52300,4.341356132
463.52350,5.562133763
463.52400,4.341356132
463.52450,3.120578502
463.52500,3.425772909
463.52550,4.951744948
463.52600,7.088105802
463.52650,9.834855471
463.52700,10.75043869
463.52750,9.224466656
463.52800,7.088105802
463.52850,6.477716986
463.52900,6.477716986
463.52950,5.867328171
463.53000,4.341356132
463.53050,4.036161725
463.53100,4.64655054
463.53150,4.341356132
463.53200,1.289412055
463.53250,-1.762532022
463.53300,-3.593698468
463.53350,-2.983309652
463.53400,-1.762532022
463.53450,-2.067726429
463.53500,-3.898892876
463.53550,-5.424864914
463.53600,-5.730059322
463.53650,-5.730059322
463.53700,-6.340448137
463.53750,-7.25603136
463.53800,-6.645642545
463.53850,-4.509281691
463.53900,-3.28850406
463.53950,-3.28850406
463.54000,-3.593698468
463.54050,-2.983309652
463.54100,-2.678115245
463.54150,-4.204087283
463.54200,-6.03525373
463.54250,-5.119670506
463.54300,-1.762532022
463.54350,1.289412055
463.54400,3.730967317
463.54450,5.867328171
463.54500,7.698494617
463.54550,8.003689025
463.54600,7.088105802
463.54650,7.088105802
463.54700,8.003689025
463.54750,7.393300209
463.54800,4.64655054
463.54850,3.730967317
463.54900,6.172522579
463.54950,9.224466656
463.55000,8.61407784
463.55050,4.341356132
463.55100,0.6790232399
463.55150,0.9842176476
463.55200,2.204995278
463.55250,1.899800871
463.55300,0.3738288322
463.55350,0.06863442452
463.55400,0.06863442452
463.55450,-0.8469487986
463.55500,-2.983309652
463.55550,-4.204087283
463.55600,-4.204087283
463.55650,-5.424864914
463.55700,-6.645642545
463.55750,-5.424864914
463.55800,-2.983309652
463.55850,-3.28850406
463.55900,-6.950836953
463.55950,-9.697586622
463.56000,-8.476808991
463.56050,-5.424864914
463.56100,-2.678115245
463.56150,0.06863442452
463.56200,2.815384094
463.56250,3.425772909
463.56300,0.6790232399
463.56350,-0.5417543909
463.56400,3.120578502
463.56450,9.834855471
463.56500,12.27641073
463.56550,9.224466656
463.56600,4.64655054
463.56650,1.899800871
463.56700,1.289412055
463.56750,1.594606463
463.56800,3.730967317
463.56850,7.088105802
463.56900,8.61407784
463.56950,7.698494617
463.57000,5.867328171
463.57050,4.341356132
463.57100,1.899800871
463.57150,-2.067726429
463.57200,-5.730059322
463.57250,-6.950836953
463.57300,-6.340448137
463.57350,-5.730059322
463.57400,-4.814476099
463.57450,-3.593698468
463.57500,-2.983309652
463.57550,-3.28850406
463.57600,-3.593698468
463.57650,-2.372920837
463.57700,-2.067726429
463.57750,-3.28850406
463.57800,-4.814476099
463.57850,-4.814476099
463.57900,-3.593698468
463.57950,-2.983309652
463.58000,-3.593698468
463.58050,-2.983309652
463.58100,-0.5417543909
463.58150,1.594606463
463.58200,3.120578502
463.58250,5.256939355
463.58300,6.782911394
463.58350,5.867328171
463.58400,2.204995278
463.58450,-1.152143206
463.58500,-0.8469487986
463.58550,2.204995278
463.58600,4.341356132
463.58650,3.730967317
463.58700,1.899800871
463.58750,0.9842176476
463.58800,1.594606463
463.58850,2.204995278
463.58900,2.510189686
463.58950,3.425772909
463.59000,5.867328171
463.59050,8.61407784
463.59100,8.61407784
463.59150,4.951744948
463.59200,-0.5417543909
463.59250,-4.814476099
463.59300,-7.25603136
463.59350,-7.866420176
463.59400,-6.950836953
463.59450,-4.509281691
463.59500,-2.983309652
463.59550,-4.509281691
463.59600,-7.561225768
463.59650,-9.087197807
463.59700,-7.866420176
463.59750,-5.730059322
463.59800,-5.119670506
463.59850,-5.119670506
463.59900,-5.424864914
463.59950,-5.730059322
463.60000,-5.119670506
463.60050,-2.983309652
463.60100,0.06863442452
463.60150,1.289412055
463.60200,2.204995278
463.60250,5.256939355
463.60300,10.14004988
463.60350,11.97121632
463.60400,8.308883432
463.60450,3.425772909
463.60500,2.204995278
463.60550,4.036161725
463.60600,5.562133763
463.60650,5.256939355
463.60700,5.562133763
463.60750,7.088105802
463.60800,7.393300209
463.60850,5.867328171
463.60900,4.951744948
463.60950,4.951744948
463.61000,4.951744948
463.61050,3.120578502
463.61100,1.289412055
463.61150,0.06863442452
463.61200,0.06863442452
463.61250,-0.5417543909
463.61300,-1.762532022
463.61350,-2.678115245
463.61400,-3.593698468
463.61450,-5.119670506
463.61500,-5.730059322
463.61550,-5.424864914
463.61600,-5.424864914
463.61650,-6.340448137
463.61700,-6.645642545
463.61750,-5.730059322
463.61800,-4.814476099
463.61850,-6.03525373
463.61900,-7.866420176
463.61950,-6.950836953
463.62000,-3.593698468
463.62050,-0.8469487986
463.62100,0.06863442452
463.62150,0.6790232399
463.62200,2.510189686
463.62250,3.425772909
463.62300,2.815384094
463.62350,1.899800871
463.62400,1.594606463
463.62450,0.6790232399
463.62500,-0.2365599832
463.62550,-0.5417543909
463.62600,1.289412055
463.62650,4.036161725
463.62700,5.256939355
463.62750,5.562133763
463.62800,5.867328171
463.62850,5.867328171
463.62900,4.951744948
463.62950,3.425772909
463.63000,2.815384094
463.63050,2.204995278
463.63100,0.9842176476
463.63150,-1.152143206
463.63200,-2.983309652
463.63250,-3.28850406
463.63300,-2.372920837
463.63350,-2.067726429
463.63400,-2.678115245
463.63450,-4.204087283
463.63500,-5.424864914
463.63550,-6.340448137
463.63600,-6.03525373
463.63650,-5.730059322
463.63700,-6.340448137
463.63750,-7.561225768
463.63800,-8.476808991
463.63850,-7.561225768
463.63900,-4.509281691
463.63950,-2.067726429
463.64000,-2.372920837
463.64050,-4.509281691
463.64100,-4.814476099
463.64150,-2.983309652
463.64200,-1.152143206
463.64250,-2.067726429
463.64300,-2.678115245
463.64350,-0.2365599832
463.64400,4.036161725
463.64450,7.088105802
463.64500,6.782911394
463.64550,6.172522579
463.64600,6.172522579
463.64650,5.562133763
463.64700,3.730967317
463.64750,2.510189686
463.64800,3.425772909
463.64850,4.64655054
463.64900,4.64655054
463.64950,4.341356132
463.65000,5.256939355
463.65050,6.172522579
463.65100,4.036161725
463.65150,0.06863442452
463.65200,-2.372920837
463.65250,-1.762532022
463.65300,-0.2365599832
463.65350,-0.8469487986
463.65400,-3.898892876
463.65450,-6.950836953
463.65500,-8.476808991
463.65550,-8.782003399
463.65600,-8.476808991
463.65650,-7.561225768
463.65700,-5.730059322
463.65750,-4.204087283
463.65800,-3.593698468
463.65850,-3.593698468
463.65900,-3.28850406
463.65950,-2.983309652
463.66000,-3.28850406
463.66050,-4.204087283
463.66100,-4.204087283
463.66150,-2.678115245
463.66200,-0.8469487986
463.66250,0.06863442452
463.66300,0.9842176476
463.66350,3.120578502
463.66400,5.256939355
463.66450,5.867328171
463.66500,5.562133763
463.66550,6.782911394
463.66600,8.919272248
463.66650,10.14004988
463.66700,8.61407784
463.66750,4.951744948
463.66800,1.899800871
463.66850,2.204995278
463.66900,4.341356132
463.66950,5.867328171
463.67000,5.256939355
463.67050,3.425772909
463.67100,3.120578502
463.67150,2.815384094
463.67200,0.6790232399
463.67250,-2.983309652
463.67300,-5.730059322
463.67350,-5.119670506
463.67400,-3.593698468
463.67450,-3.28850406
463.67500,-4.204087283
463.67550,-4.204087283
463.67600,-3.593698468
463.67650,-3.898892876
463.67700,-4.509281691
463.67750,-4.509281691
463.67800,-2.678115245
463.67850,-1.152143206
463.67900,-0.8469487986
463.67950,-1.457337614
463.68000,-2.678115245
463.68050,-3.898892876
463.68100,-4.814476099
463.68150,-2.983309652
463.68200,1.289412055
463.68250,5.867328171
463.68300,7.088105802
463.68350,4.036161725
463.68400,0.9842176476
463.68450,1.594606463
463.68500,4.951744948
463.68550,7.088105802
463.68600,6.782911394
463.68650,6.477716986
463.68700,8.003689025
463.68750,9.834855471
463.68800,8.308883432
463.68850,5.562133763
463.68900,4.951744948
463.68950,6.477716986
463.69000,7.393300209
463.69050,6.782911394
463.69100,6.477716986
463.69150,5.867328171
463.69200,3.425772909
463.69250,0.6790232399
463.69300,0.6790232399
463.69350,2.510189686
463.69400,2.510189686
463.69450,-0.8469487986
463.69500,-4.509281691
463.69550,-5.424864914
463.69600,-4.814476099
463.69650,-4.814476099
463.69700,-5.730059322
463.69750,-5.424864914
463.69800,-3.898892876
463.69850,-3.28850406
463.69900,-4.509281691
463.69950,-7.25603136
463.70000,-8.782003399
463.70050,-7.561225768
463.70100,-3.898892876
463.70150,-0.8469487986
463.70200,0.06863442452
463.70250,0.6790232399
463.70300,2.204995278
463.70350,3.730967317
463.70400,4.341356132
463.70450,5.256939355
463.70500,7.088105802
463.70550,8.919272248
463.70600,9.224466656
463.70650,8.003689025
463.70700,7.698494617
463.70750,8.61407784
463.70800,8.003689025
463.70850,4.64655054
463.70900,0.9842176476
463.70950,0.06863442452
463.71000,0.6790232399
463.71050,1.899800871
463.71100,1.594606463
463.71150,0.9842176476
463.71200,2.204995278
463.71250,4.036161725
463.71300,3.425772909
463.71350,-0.2365599832
463.71400,-6.03525373
463.71450,-10.30797544
463.71500,-11.22355866
463.71550,-10.61316985
463.71600,-9.697586622
463.71650,-9.697586622
463.71700,-9.392392214
463.71750,-8.476808991
463.71800,-7.561225768
463.71850,-6.645642545
463.71900,-5.730059322
463.71950,-4.509281691
463.72000,-2.983309652
463.72050,-1.762532022
463.72100,-0.8469487986
463.72150,-0.2365599832
463.72200,0.6790232399
463.72250,1.899800871
463.72300,3.120578502
463.72350,4.036161725
463.72400,5.256939355
463.72450,6.477716986
463.72500,7.393300209
463.72550,8.003689025
463.72600,8.308883432
463.72650,8.919272248
463.72700,8.61407784
463.72750,8.003689025
463.72800,7.698494617
463.72850,7.698494617
463.72900,6.477716986
463.72950,3.730967317
463.73000,1.594606463
463.73050,1.899800871
463.73100,2.815384094
463.73150,2.204995278
463.73200,-0.5417543909
463.73250,-2.983309652
463.73300,-3.28850406
463.73350,-2.067726429
463.73400,-2.067726429
463.73450,-3.28850406
463.73500,-5.119670506
463.73550,-6.03525373
463.73600,-6.340448137
463.73650,-6.03525373
463.73700,-6.340448137
463.73750,-7.25603136
463.73800,-8.782003399
463.73850,-9.087197807
463.73900,-8.476808991
463.73950,-7.866420176
463.74000,-6.645642545
463.74050,-4.814476099
463.74100,-2.067726429
463.74150,-0.5417543909
463.74200,-0.5417543909
463.74250,-0.2365599832
463.74300,0.9842176476
463.74350,3.120578502
463.74400,4.341356132
463.74450,5.256939355
463.74500,6.477716986
463.74550,6.172522579
463.74600,4.341356132
463.74650,2.815384094
463.74700,3.730967317
463.74750,5.867328171
463.74800,5.867328171
463.74850,3.425772909
463.74900,1.289412055
463.74950,1.899800871
463.75000,3.120578502
463.75050,3.425772909
463.75100,2.510189686
463.75150,1.289412055
463.75200,0.06863442452
463.75250,-1.152143206
463.75300,-1.152143206
463.75350,-1.762532022
463.75400,-3.898892876
463.75450,-7.25603136
463.75500,-8.476808991
463.75550,-6.950836953
463.75600,-6.340448137
463.75650,-8.476808991
463.75700,-10.91836425
463.75750,-10.30797544
463.75800,-8.171614583
463.75850,-7.25603136
463.75900,-7.866420176
463.75950,-7.866420176
463.76000,-6.340448137
463.76050,-3.593698468
463.76100,-1.457337614
463.76150,-0.5417543909
463.76200,-0.2365599832
463.76250,0.06863442452
463.76300,1.594606463
463.76350,3.730967317
463.76400,5.256939355
463.76450,7.698494617
463.76500,11.97121632
463.76550,15.93874362
463.76600,13.80238277
463.76650,4.951744948
463.76700,-2.983309652
463.76750,-3.28850406
463.76800,1.289412055
463.76850,4.341356132
463.76900,2.510189686
463.76950,0.3738288322
463.77000,1.289412055
463.77050,2.815384094
463.77100,2.204995278
463.77150,0.6790232399
463.77200,0.06863442452
463.77250,0.06863442452
463.77300,0.06863442452
463.77350,0.6790232399
463.77400,0.06863442452
463.77450,-2.372920837
463.77500,-6.03525373
463.77550,-7.866420176
463.77600,-7.25603136
463.77650,-5.730059322
463.77700,-4.814476099
463.77750,-3.593698468
463.77800,-1.762532022
463.77850,-0.8469487986
463.77900,-1.762532022
463.77950,-2.983309652
463.78000,-3.593698468
463.78050,-4.814476099
463.78100,-7.25603136
463.78150,-7.561225768
463.78200,-3.593698468
463.78250,1.594606463
463.78300,3.120578502
463.78350,0.9842176476
463.78400,0.06863442452
463.78450,2.204995278
463.78500,5.562133763
463.78550,6.782911394
463.78600,5.867328171
463.78650,5.562133763
463.78700,5.867328171
463.78750,6.782911394
463.78800,7.698494617
463.78850,8.919272248
463.78900,9.529661063
463.78950,8.919272248
463.79000,7.088105802
463.79050,4.951744948
463.79100,3.120578502
463.79150,1.899800871
463.79200,1.289412055
463.79250,1.289412055
463.79300,0.9842176476
463.79350,0.06863442452
463.79400,-1.457337614
463.79450,-3.593698468
463.79500,-5.730059322
463.79550,-7.561225768
463.79600,-7.561225768
463.79650,-5.730059322
463.79700,-4.509281691
463.79750,-4.814476099
463.79800,-6.950836953
463.79850,-8.782003399
463.79900,-9.087197807
463.79950,-8.476808991
463.80000,-7.25603136
463.80050,-6.340448137
463.80100,-4.814476099
463.80150,-2.067726429
463.80200,0.3738288322
463.80250,1.899800871
463.80300,1.899800871
463.80350,2.204995278
463.80400,2.815384094
463.80450,3.120578502
463.80500,3.425772909
463.80550,4.951744948
463.80600,7.393300209
463.80650,8.61407784
463.80700,7.088105802
463.80750,5.256939355
463.80800,6.172522579
463.80850,9.224466656
463.80900,10.14004988
463.80950,8.61407784
463.81000,7.393300209
463.81050,8.61407784
463.81100,9.529661063
463.81150,8.308883432
463.81200,4.64655054
463.81250,-0.2365599832
463.81300,-5.119670506
463.81350,-7.561225768
463.81400,-6.340448137
463.81450,-3.898892876
463.81500,-4.814476099
463.81550,-9.697586622
463.81600,-13.66511392
463.81650,-12.13914188
463.81700,-6.340448137
463.81750,-2.372920837
463.81800,-2.067726429
463.81850,-3.593698468
463.81900,-3.593698468
463.81950,-2.372920837
463.82000,-2.372920837
463.82050,-4.204087283
463.82100,-6.03525373
463.82150,-5.119670506
463.82200,-2.067726429
463.82250,0.9842176476
463.82300,2.204995278
463.82350,2.815384094
463.82400,3.730967317
463.82450,4.951744948
463.82500,5.562133763
463.82550,6.477716986
463.82600,8.919272248
463.82650,11.36082751
463.82700,12.27641073
463.82750,11.97121632
463.82800,11.36082751
463.82850,9.834855471
463.82900,6.782911394
463.82950,3.730967317
463.83000,2.510189686
463.83050,2.815384094
463.83100,2.204995278
463.83150,0.6790232399
463.83200,0.06863442452
463.83250,-0.2365599832
463.83300,-1.152143206
463.83350,-2.983309652
463.83400,-4.204087283
463.83450,-3.898892876
463.83500,-3.593698468
463.83550,-4.204087283
463.83600,-5.119670506
463.83650,-6.03525373
463.83700,-7.25603136
463.83750,-8.171614583
463.83800,-8.476808991
463.83850,-7.866420176
463.83900,-6.340448137
463.83950,-4.509281691
463.84000,-2.372920837
463.84050,-0.5417543909
463.84100,-0.5417543909
463.84150,-0.8469487986
463.84200,-0.5417543909
463.84250,0.06863442452
463.84300,0.9842176476
463.84350,1.289412055
463.84400,2.510189686
463.84450,4.341356132
463.84500,5.867328171
463.84550,5.256939355
463.84600,4.341356132
463.84650,4.951744948
463.84700,6.782911394
463.84750,8.308883432
463.84800,8.003689025
463.84850,6.172522579
463.84900,4.64655054
463.84950,4.64655054
463.85000,4.951744948
463.85050,4.64655054
463.85100,3.120578502
463.85150,1.594606463
463.85200,0.3738288322
463.85250,0.06863442452
463.85300,-0.5417543909
463.85350,-1.762532022
463.85400,-3.28850406
463.85450,-4.509281691
463.85500,-4.204087283
463.85550,-3.898892876
463.85600,-5.730059322
463.85650,-8.171614583
463.85700,-8.782003399
463.85750,-7.866420176
463.85800,-7.866420176
463.85850,-9.697586622
463.85900,-10.91836425
463.85950,-8.476808991
463.86000,-3.898892876
463.86050,-0.2365599832
463.86100,1.289412055
463.86150,2.510189686
463.86200,4.64655054
463.86250,6.782911394
463.86300,8.308883432
463.86350,7.088105802
463.86400,1.899800871
463.86450,-4.814476099
463.86500,-8.171614583
463.86550,-5.119670506
463.86600,1.289412055
463.86650,5.256939355
463.86700,4.951744948
463.86750,4.341356132
463.86800,4.64655054
463.86850,4.64655054
463.86900,3.730967317
463.86950,2.815384094
463.87000,3.120578502
463.87050,3.120578502
463.87100,1.899800871
463.87150,0.06863442452
463.87200,-1.152143206
463.87250,-1.152143206
463.87300,-0.5417543909
463.87350,0.06863442452
463.87400,0.06863442452
463.87450,-1.457337614
463.87500,-3.28850406
463.87550,-3.28850406
463.87600,-2.372920837
463.87650,-3.28850406
463.87700,-6.03525373
463.87750,-7.25603136
463.87800,-4.509281691
463.87850,-0.2365599832
463.87900,0.06863442452
463.87950,-2.983309652
463.88000,-4.814476099
463.88050,-3.593698468
463.88100,-2.372920837
463.88150,-3.593698468
463.88200,-5.424864914
463.88250,-4.814476099
463.88300,-1.457337614
463.88350,1.594606463
463.88400,3.730967317
463.88450,4.64655054
463.88500,4.64655054
463.88550,4.341356132
463.88600,4.951744948
463.88650,6.477716986
463.88700,8.308883432
463.88750,8.308883432
463.88800,7.698494617
463.88850,7.393300209
463.88900,7.393300209
463.88950,5.867328171
463.89000,3.425772909
463.89050,1.594606463
463.89100,0.6790232399
463.89150,0.3738288322
463.89200,0.06863442452
463.89250,-0.2365599832
463.89300,-0.2365599832
463.89350,-0.2365599832
463.89400,-1.457337614
463.89450,-2.983309652
463.89500,-3.593698468
463.89550,-3.28850406
463.89600,-3.593698468
463.89650,-4.509281691
463.89700,-6.03525373
463.89750,-6.03525373
463.89800,-5.119670506
463.89850,-5.119670506
463.89900,-5.730059322
463.89950,-5.424864914
463.90000,-2.983309652
463.90050,-1.762532022
463.90100,-2.678115245
463.90150,-4.814476099
463.90200,-4.814476099
463.90250,-2.678115245
463.90300,-1.152143206
463.90350,-0.8469487986
463.90400,0.06863442452
463.90450,2.510189686
463.90500,4.951744948
463.90550,6.172522579
463.90600,6.782911394
463.90650,7.698494617
463.90700,8.61407784
463.90750,8.919272248
463.90800,9.834855471
463.90850,11.97121632
463.90900,11.97121632
463.90950,8.61407784
463.91000,4.036161725
463.91050,2.510189686
463.91100,3.730967317
463.91150,4.036161725
463.91200,1.594606463
463.91250,-2.372920837
463.91300,-4.509281691
463.91350,-3.898892876
463.91400,-2.372920837
463.91450,-2.372920837
463.91500,-3.898892876
463.91550,-3.898892876
463.91600,-1.152143206
463.91650,0.06863442452
463.91700,-3.593698468
463.91750,-11.22355866
463.91800,-15.49628037
463.91850,-14.27550274
463.91900,-11.22355866
463.91950,-9.697586622
463.92000,-8.476808991
463.92050,-5.730059322
463.92100,-2.678115245
463.92150,-1.152143206
463.92200,0.06863442452
463.92250,2.815384094
463.92300,4.64655054
463.92350,3.425772909
463.92400,1.594606463
463.92450,1.899800871
463.92500,3.120578502
463.92550,3.120578502
463.92600,3.425772909
463.92650,6.782911394
463.92700,11.0556331
463.92750,11.0556331
463.92800,7.088105802
463.92850,4.036161725
463.92900,3.730967317
463.92950,3.730967317
463.93000,1.899800871
463.93050,0.6790232399
463.93100,2.815384094
463.93150,5.867328171
463.93200,5.562133763
463.93250,2.204995278
463.93300,-0.5417543909
463.93350,-1.457337614
463.93400,-1.762532022
463.93450,-2.678115245
463.93500,-4.509281691
463.93550,-5.424864914
463.93600,-6.03525373
463.93650,-7.25603136
463.93700,-8.171614583
463.93750,-7.866420176
463.93800,-6.340448137
463.93850,-5.119670506
463.93900,-5.119670506
463.93950,-4.814476099
463.94000,-2.983309652
463.94050,-0.5417543909
463.94100,1.594606463
463.94150,3.120578502
463.94200,2.815384094
463.94250,0.6790232399
463.94300,-0.2365599832
463.94350,1.289412055
463.94400,6.172522579
463.94450,9.224466656
463.94500,8.003689025
463.94550,6.172522579
463.94600,7.088105802
463.94650,8.919272248
463.94700,8.61407784
463.94750,6.477716986
463.94800,4.951744948
463.94850,4.036161725
463.94900,2.510189686
463.94950,0.6790232399
463.95000,0.3738288322
463.95050,1.289412055
463.95100,2.204995278
463.95150,2.815384094
463.95200,3.425772909
463.95250,1.594606463
463.95300,-2.678115245
463.95350,-7.866420176
463.95400,-9.087197807
463.95450,-6.645642545
463.95500,-4.814476099
463.95550,-5.730059322
463.95600,-6.950836953
463.95650,-7.561225768
463.95700,-7.866420176
463.95750,-8.476808991
463.95800,-7.561225768
463.95850,-6.340448137
463.95900,-6.03525373
463.95950,-6.645642545
463.96000,-5.730059322
463.96050,-2.983309652
463.96100,-1.762532022
463.96150,-3.593698468
463.96200,-6.03525373
463.96250,-5.119670506
463.96300,-0.2365599832
463.96350,5.256939355
463.96400,8.003689025
463.96450,7.698494617
463.96500,6.172522579
463.96550,6.172522579
463.96600,7.698494617
463.96650,9.224466656
463.96700,8.919272248
463.96750,7.393300209
463.96800,6.782911394
463.96850,6.782911394
463.96900,6.782911394
463.96950,6.782911394
463.97000,7.088105802
463.97050,6.172522579
463.97100,3.425772909
463.97150,0.06863442452
463.97200,-0.2365599832
463.97250,2.204995278
463.97300,4.036161725
463.97350,0.6790232399
463.97400,-5.424864914
463.97450,-10.30797544
463.97500,-11.22355866
463.97550,-9.697586622
463.97600,-8.171614583
463.97650,-7.561225768
463.97700,-7.866420176
463.97750,-8.171614583
463.97800,-8.476808991
463.97850,-7.866420176
463.97900,-6.645642545
463.97950,-5.119670506
463.98000,-3.593698468
463.98050,-2.067726429
463.98100,-0.8469487986
463.98150,-1.152143206
463.98200,-2.372920837
463.98250,-2.067726429
463.98300,0.3738288322
463.98350,3.730967317
463.98400,5.867328171
463.98450,6.782911394
463.98500,7.393300209
463.98550,6.477716986
463.98600,4.64655054
463.98650,4.64655054
463.98700,8.003689025
463.98750,11.0556331
463.98800,9.529661063
463.98850,5.562133763
463.98900,4.64655054
463.98950,7.088105802
463.99000,8.308883432
463.99050,6.477716986
463.99100,4.64655054
463.99150,4.341356132
463.99200,3.730967317
463.99250,1.899800871
463.99300,0.3738288322
463.99350,0.06863442452
463.99400,-2.067726429
463.99450,-6.03525373
463.99500,-9.087197807
463.99550,-10.00278103
463.99600,-11.52875307
463.99650,-13.97030833
463.99700,-14.27550274
463.99750,-11.22355866
463.99800,-6.950836953
463.99850,-5.119670506
463.99900,-5.424864914
463.99950,-5.119670506
464.00000,-3.898892876
464.00050,-3.28850406
464.00100,-2.678115245
464.00150,-1.152143206
464.00200,0.06863442452
464.00250,0.3738288322
464.00300,0.06863442452
464.00350,-0.2365599832
464.00400,-0.8469487986
464.00450,-0.8469487986
464.00500,1.289412055
464.00550,5.256939355
464.00600,6.782911394
464.00650,5.562133763
464.00700,4.036161725
464.00750,4.951744948
464.00800,7.088105802
464.00850,8.003689025
464.00900,7.698494617
464.00950,7.698494617
464.01000,7.393300209
464.01050,6.172522579
464.01100,4.64655054
464.01150,4.341356132
464.01200,4.036161725
464.01250,2.204995278
464.01300,0.06863442452
464.01350,0.06863442452
464.01400,1.289412055
464.01450,1.289412055
464.01500,-0.5417543909
464.01550,-2.678115245
464.01600,-3.898892876
464.01650,-4.509281691
464.01700,-5.730059322
464.01750,-6.950836953
464.01800,-7.25603136
464.01850,-6.645642545
464.01900,-5.730059322
464.01950,-6.340448137
464.02000,-7.561225768
464.02050,-7.866420176
464.02100,-6.340448137
464.02150,-3.28850406
464.02200,-0.8469487986
464.02250,0.06863442452
464.02300,0.6790232399
464.02350,3.120578502
464.02400,5.562133763
464.02450,5.867328171
464.02500,4.036161725
464.02550,3.120578502
464.02600,4.64655054
464.02650,6.477716986
464.02700,6.782911394
464.02750,5.867328171
464.02800,6.172522579
464.02850,7.088105802
464.02900,7.393300209
464.02950,6.477716986
464.03000,5.562133763
464.03050,5.256939355
464.03100,4.951744948
464.03150,4.64655054
464.03200,4.64655054
464.03250,4.341356132
464.03300,2.204995278
464.03350,-0.5417543909
464.03400,-2.067726429
464.03450,-0.8469487986
464.03500,0.9842176476
464.03550,0.3738288322
464.03600,-3.28850406
464.03650,-8.476808991
464.03700,-12.44433629
464.03750,-13.97030833
464.03800,-12.7495307
464.03850,-9.697586622
464.03900,-7.25603136
464.03950,-7.25603136
464.04000,-8.782003399
464.04050,-9.087197807
464.04100,-6.645642545
464.04150,-3.28850406
464.04200,-1.457337614
464.04250,-0.8469487986
464.04300,0.06863442452
464.04350,0.6790232399
464.04400,1.594606463
464.04450,2.510189686
464.04500,4.036161725
464.04550,5.867328171
464.04600,7.088105802
464.04650,6.477716986
464.04700,4.64655054
464.04750,3.120578502
464.04800,3.425772909
464.04850,5.256939355
464.04900,7.393300209
464.04950,7.088105802
464.05000,4.951744948
464.05050,3.120578502
464.05100,3.120578502
464.05150,3.425772909
464.05200,1.899800871
464.05250,-0.5417543909
464.05300,-2.678115245
464.05350,-2.678115245
464.05400,-2.372920837
464.05450,-2.983309652
464.05500,-4.204087283
464.05550,-4.509281691
464.05600,-4.814476099
464.05650,-4.509281691
464.05700,-4.509281691
464.05750,-5.119670506
464.05800,-7.25603136
464.05850,-10.30797544
464.05900,-11.83394748
464.05950,-9.087197807
464.06000,-4.509281691
464.06050,-1.457337614
464.06100,-1.762532022
464.06150,-2.983309652
464.06200,-2.372920837
464.06250,-0.2365599832
464.06300,0.6790232399
464.06350,0.6790232399
464.06400,0.06863442452
464.06450,-0.5417543909
464.06500,-0.2365599832
464.06550,1.289412055
464.06600,4.951744948
464.06650,8.61407784
464.06700,10.44524429
464.06750,9.529661063
464.06800,7.698494617
464.06850,6.172522579
464.06900,5.562133763
464.06950,4.341356132
464.07000,3.120578502
464.07050,2.510189686
464.07100,2.510189686
464.07150,2.510189686
464.07200,2.204995278
464.07250,0.9842176476
464.07300,-0.5417543909
464.07350,-2.372920837
464.07400,-4.204087283
464.07450,-5.730059322
464.07500,-6.340448137
464.07550,-6.340448137
464.07600,-5.730059322
464.07650,-5.119670506
464.07700,-5.424864914
464.07750,-6.03525373
464.07800,-6.340448137
464.07850,-5.730059322
464.07900,-4.814476099
464.07950,-3.593698468
464.08000,-2.372920837
464.08050,-1.152143206
464.08100,0.06863442452
464.08150,1.899800871
464.08200,2.815384094
464.08250,1.899800871
464.08300,0.6790232399
464.08350,1.594606463
464.08400,4.951744948
464.08450,8.308883432
464.08500,8.919272248
464.08550,8.003689025
464.08600,8.003689025
464.08650,9.529661063
464.08700,9.834855471
464.08750,9.224466656
464.08800,8.919272248
464.08850,8.61407784
464.08900,6.477716986
464.08950,3.120578502
464.09000,0.6790232399
464.09050,0.9842176476
464.09100,2.510189686
464.09150,3.120578502
464.09200,2.204995278
464.09250,0.3738288322
464.09300,-1.762532022
464.09350,-3.28850406
464.09400,-3.28850406
464.09450,-2.067726429
464.09500,-1.762532022
464.09550,-3.28850406
464.09600,-5.424864914
464.09650,-6.950836953
464.09700,-8.782003399
464.09750,-10.91836425
464.09800,-12.44433629
464.09850,-10.91836425
464.09900,-7.25603136
464.09950,-4.814476099
464.10000,-4.509281691
464.10050,-5.119670506
464.10100,-4.204087283
464.10150,-1.457337614
464.10200,1.289412055
464.10250,3.120578502
464.10300,4.951744948
464.10350,6.477716986
464.10400,6.782911394
464.10450,5.867328171
464.10500,6.172522579
464.10550,9.224466656
464.10600,13.19199396
464.10650,13.19199396
464.10700,8.61407784
464.10750,3.425772909
464.10800,1.899800871
464.10850,3.120578502
464.10900,4.036161725
464.10950,3.120578502
464.11000,2.510189686
464.11050,2.815384094
464.11100,2.815384094
464.11150,1.899800871
464.11200,0.6790232399
464.11250,0.06863442452
464.11300,-0.8469487986
464.11350,-1.457337614
464.11400,-2.067726429
464.11450,-2.372920837
464.11500,-2.678115245
464.11550,-3.28850406
464.11600,-4.204087283
464.11650,-4.814476099
464.11700,-5.119670506
464.11750,-5.730059322
464.11800,-6.340448137
464.11850,-6.950836953
464.11900,-6.340448137
464.11950,-4.814476099
464.12000,-3.28850406
464.12050,-2.067726429
464.12100,0.06863442452
464.12150,4.036161725
464.12200,7.698494617
464.12250,6.782911394
464.12300,0.6790232399
464.12350,-4.509281691
464.12400,-4.204087283
464.12450,0.3738288322
464.12500,4.951744948
464.12550,7.088105802
464.12600,8.003689025
464.12650,10.14004988
464.12700,12.58160514
464.12750,12.58160514
464.12800,8.61407784
464.12850,2.510189686
464.12900,-1.457337614
464.12950,-1.152143206
464.13000,1.899800871
464.13050,4.951744948
464.13100,6.172522579
464.13150,5.562133763
464.13200,3.730967317
464.13250,0.9842176476
464.13300,-2.372920837
464.13350,-5.119670506
464.13400,-5.119670506
464.13450,-3.28850406
464.13500,-3.28850406
464.13550,-5.730059322
464.13600,-8.171614583
464.13650,-8.476808991
464.13700,-7.561225768
464.13750,-7.25603136
464.13800,-6.950836953
464.13850,-5.730059322
464.13900,-4.204087283
464.13950,-4.204087283
464.14000,-5.119670506
464.14050,-3.898892876
464.14100,-0.8469487986
464.14150,1.899800871
464.14200,2.510189686
464.14250,2.204995278
464.14300,3.425772909
464.14350,6.172522579
464.14400,8.61407784
464.14450,9.529661063
464.14500,8.003689025
464.14550,4.64655054
464.14600,0.9842176476
464.14650,-1.152143206
464.14700,-0.8469487986
464.14750,1.289412055
464.14800,4.036161725
464.14850,5.256939355
464.14900,5.562133763
464.14950,4.341356132
464.15000,2.204995278
464.15050,0.3738288322
464.15100,0.06863442452
464.15150,0.6790232399
464.15200,0.6790232399
464.15250,-0.5417543909
464.15300,-2.372920837
464.15350,-2.372920837
464.15400,-1.152143206
464.15450,-2.067726429
464.15500,-5.119670506
464.15550,-8.476808991
464.15600,-9.087197807
464.15650,-7.561225768
464.15700,-6.340448137
464.15750,-6.340448137
464.15800,-6.03525373
464.15850,-4.814476099
464.15900,-3.593698468
464.15950,-3.898892876
464.16000,-4.204087283
464.16050,-3.28850406
464.16100,-2.678115245
464.16150,-3.28850406
464.16200,-5.119670506
464.16250,-6.340448137
464.16300,-5.730059322
464.16350,-3.28850406
464.16400,0.06863442452
464.16450,2.815384094
464.16500,3.730967317
464.16550,2.510189686
464.16600,1.899800871
464.16650,3.425772909
464.16700,5.867328171
464.16750,6.172522579
464.16800,4.951744948
464.16850,4.036161725
464.16900,4.951744948
464.16950,5.867328171
464.17000,5.867328171
464.17050,4.64655054
464.17100,3.730967317
464.17150,3.425772909
464.17200,3.730967317
464.17250,3.730967317
464.17300,2.204995278
464.17350,-0.8469487986
464.17400,-4.509281691
464.17450,-5.730059322
464.17500,-5.119670506
464.17550,-5.119670506
464.17600,-6.645642545
464.17650,-6.950836953
464.17700,-4.814476099
464.17750,-3.28850406
464.17800,-4.814476099
464.17850,-7.561225768
464.17900,-8.171614583
464.17950,-6.645642545
464.18000,-5.424864914
464.18050,-4.814476099
464.18100,-2.372920837
464.18150,1.594606463
464.18200,4.64655054
464.18250,4.036161725
464.18300,2.204995278
464.18350,1.289412055
464.18400,1.899800871
464.18450,2.204995278
464.18500,0.9842176476
464.18550,-0.2365599832
464.18600,0.06863442452
464.18650,3.120578502
464.18700,6.477716986
464.18750,8.308883432
464.18800,8.61407784
464.18850,8.61407784
464.18900,7.393300209
464.18950,4.64655054
464.19000,1.899800871
464.19050,0.9842176476
464.19100,0.9842176476
464.19150,0.06863442452
464.19200,-2.678115245
464.19250,-5.119670506
464.19300,-5.730059322
464.19350,-4.814476099
464.19400,-5.119670506
464.19450,-6.340448137
464.19500,-6.950836953
464.19550,-6.645642545
464.19600,-7.25603136
464.19650,-8.476808991
464.19700,-7.866420176
464.19750,-4.814476099
464.19800,-1.762532022
464.19850,-2.372920837
464.19900,-5.119670506
464.19950,-5.119670506
464.20000,-2.678115245
464.20050,-2.067726429
464.20100,-3.898892876
464.20150,-3.898892876
464.20200,0.06863442452
464.20250,4.64655054
464.20300,4.64655054
464.20350,1.899800871
464.20400,1.594606463
464.20450,4.341356132
464.20500,7.393300209
464.20550,8.61407784
464.20600,8.308883432
464.20650,8.003689025
464.20700,7.698494617
464.20750,8.919272248
464.20800,11.0556331
464.20850,11.0556331
464.20900,7.088105802
464.20950,2.204995278
464.21000,0.6790232399
464.21050,2.815384094
464.21100,4.036161725
464.21150,3.425772909
464.21200,1.594606463
464.21250,0.06863442452
464.21300,-2.067726429
464.21350,-5.730059322
464.21400,-8.171614583
464.21450,-7.866420176
464.21500,-6.645642545
464.21550,-6.03525373
464.21600,-6.340448137
464.21650,-6.645642545
464.21700,-6.645642545
464.21750,-6.645642545
464.21800,-6.340448137
464.21850,-6.03525373
464.21900,-6.03525373
464.21950,-4.814476099
464.22000,-2.372920837
464.22050,-0.2365599832
464.22100,0.06863442452
464.22150,-1.152143206
464.22200,-1.457337614
464.22250,0.06863442452
464.22300,2.815384094
464.22350,5.256939355
464.22400,6.477716986
464.22450,7.088105802
464.22500,6.782911394
464.22550,6.782911394
464.22600,7.088105802
464.22650,7.698494617
464.22700,8.003689025
464.22750,8.61407784
464.22800,8.919272248
464.22850,8.919272248
464.22900,7.393300209
464.22950,6.172522579
464.23000,6.782911394
464.23050,9.529661063
464.23100,11.0556331
464.23150,9.529661063
464.23200,5.256939355
464.23250,0.6790232399
464.23300,-1.457337614
464.23350,-2.067726429
464.23400,-2.067726429
464.23450,-2.983309652
464.23500,-4.814476099
464.23550,-6.03525373
464.23600,-6.645642545
464.23650,-7.25603136
464.23700,-7.25603136
464.23750,-6.340448137
464.23800,-4.814476099
464.23850,-4.204087283
464.23900,-4.204087283
464.23950,-3.28850406
464.24000,-1.762532022
464.24050,-1.152143206
464.24100,-1.762532022
464.24150,-0.8469487986
464.24200,1.594606463
464.24250,3.730967317
464.24300,2.815384094
464.24350,0.6790232399
464.24400,0.6790232399
464.24450,4.036161725
464.24500,8.003689025
464.24550,9.529661063
464.24600,8.61407784
464.24650,7.698494617
464.24700,7.088105802
464.24750,6.782911394
464.24800,5.867328171
464.24850,5.562133763
464.24900,7.393300209
464.24950,10.14004988
464.25000,10.44524429
464.25050,5.256939355
464.25100,-0.8469487986
464.25150,-3.28850406
464.25200,-1.457337614
464.25250,-0.5417543909
464.25300,-3.898892876
464.25350,-8.171614583
464.25400,-9.392392214
464.25450,-7.866420176
464.25500,-6.340448137
464.25550,-6.03525373
464.25600,-6.340448137
464.25650,-6.645642545
464.25700,-6.340448137
464.25750,-6.03525373
464.25800,-6.340448137
464.25850,-6.645642545
464.25900,-5.730059322
464.25950,-2.678115245
464.26000,-0.8469487986
464.26050,-3.28850406
464.26100,-8.171614583
464.26150,-9.087197807
464.26200,-4.509281691
464.26250,-0.2365599832
464.26300,-1.762532022
464.26350,-5.119670506
464.26400,-3.898892876
464.26450,1.289412055
464.26500,5.562133763
464.26550,6.172522579
464.26600,5.867328171
464.26650,6.782911394
464.26700,6.782911394
464.26750,4.64655054
464.26800,2.510189686
464.26850,3.730967317
464.26900,7.088105802
464.26950,9.834855471
464.27000,8.919272248
464.27050,5.562133763
464.27100,1.289412055
464.27150,-1.457337614
464.27200,-3.28850406
464.27250,-3.898892876
464.27300,-3.28850406
464.27350,-2.983309652
464.27400,-3.593698468
464.27450,-4.204087283
464.27500,-4.509281691
464.27550,-4.204087283
464.27600,-5.119670506
464.27650,-6.950836953
464.27700,-8.476808991
464.27750,-8.171614583
464.27800,-6.645642545
464.27850,-6.340448137
464.27900,-6.340448137
464.27950,-4.814476099
464.28000,-2.067726429
464.28050,-1.152143206
464.28100,-2.067726429
464.28150,-2.678115245
464.28200,-1.457337614
464.28250,-0.5417543909
464.28300,-0.5417543909
464.28350,0.06863442452
464.28400,2.510189686
464.28450,5.562133763
464.28500,7.088105802
464.28550,7.393300209
464.28600,7.698494617
464.28650,8.308883432
464.28700,8.308883432
464.28750,7.698494617
464.28800,7.393300209
464.28850,7.393300209
464.28900,7.393300209
464.28950,8.003689025
464.29000,8.003689025
464.29050,5.867328171
464.29100,2.815384094
464.29150,1.289412055
464.29200,1.899800871
464.29250,1.594606463
464.29300,-0.8469487986
464.29350,-5.119670506
464.29400,-6.950836953
464.29450,-5.119670506
464.29500,-2.678115245
464.29550,-2.678115245
464.29600,-4.814476099
464.29650,-6.950836953
464.29700,-6.950836953
464.29750,-5.730059322
464.29800,-5.119670506
464.29850,-5.730059322
464.29900,-6.340448137
464.29950,-5.424864914
464.30000,-3.28850406
464.30050,-1.152143206
464.30100,-0.2365599832
464.30150,-1.457337614
464.30200,-4.204087283
464.30250,-6.340448137
464.30300,-6.340448137
464.30350,-4.204087283
464.30400,-2.372920837
464.30450,-0.5417543909
464.30500,1.594606463
464.30550,4.036161725
464.30600,5.256939355
464.30650,4.951744948
464.30700,5.256939355
464.30750,6.477716986
464.30800,6.172522579
464.30850,3.730967317
464.30900,1.594606463
464.30950,1.899800871
464.31000,3.425772909
464.31050,3.425772909
464.31100,2.204995278
464.31150,1.899800871
464.31200,2.204995278
464.31250,0.9842176476
464.31300,-1.152143206
464.31350,-2.678115245
464.31400,-2.983309652
464.31450,-3.28850406
464.31500,-3.593698468
464.31550,-2.983309652
464.31600,-2.067726429
464.31650,-2.983309652
464.31700,-6.03525373
464.31750,-7.561225768
464.31800,-6.340448137
464.31850,-4.204087283
464.31900,-3.593698468
464.31950,-4.814476099
464.32000,-4.814476099
464.32050,-3.28850406
464.32100,-2.067726429
464.32150,-1.152143206
464.32200,0.06863442452
464.32250,2.204995278
464.32300,3.730967317
464.32350,4.036161725
464.32400,3.730967317
464.32450,4.64655054
464.32500,7.088105802
464.32550,9.529661063
464.32600,10.14004988
464.32650,9.529661063
464.32700,9.529661063
464.32750,10.14004988
464.32800,10.14004988
464.32850,7.698494617
464.32900,4.64655054
464.32950,3.425772909
464.33000,4.951744948
464.33050,7.393300209
464.33100,7.698494617
464.33150,5.256939355
464.33200,1.289412055
464.33250,-2.067726429
464.33300,-3.898892876
464.33350,-3.593698468
464.33400,-2.983309652
464.33450,-4.509281691
464.33500,-9.392392214
464.33550,-13.97030833
464.33600,-14.58069715
464.33650,-12.44433629
464.33700,-11.22355866
464.33750,-13.05472511
464.33800,-14.58069715
464.33850,-13.05472511
464.33900,-9.697586622
464.33950,-7.25603136
464.34000,-6.340448137
464.34050,-5.119670506
464.34100,-2.372920837
464.34150,0.3738288322
464.34200,2.204995278
464.34250,2.510189686
464.34300,2.510189686
464.34350,2.510189686
464.34400,1.899800871
464.34450,0.9842176476
464.34500,1.594606463
464.34550,4.036161725
464.34600,6.477716986
464.34650,8.308883432
464.34700,9.224466656
464.34750,10.44524429
464.34800,10.44524429
464.34850,8.919272248
464.34900,7.088105802
464.34950,5.867328171
464.35000,5.562133763
464.35050,5.256939355
464.35100,4.341356132
464.35150,3.730967317
464.35200,3.425772909
464.35250,2.510189686
464.35300,1.899800871
464.35350,1.594606463
464.35400,0.6790232399
464.35450,-2.067726429
464.35500,-6.340448137
464.35550,-9.392392214
464.35600,-10.00278103
464.35650,-9.697586622
464.35700,-9.697586622
464.35750,-8.782003399
464.35800,-6.340448137
464.35850,-4.509281691
464.35900,-3.898892876
464.35950,-3.898892876
464.36000,-2.678115245
464.36050,-1.152143206
464.36100,-0.2365599832
464.36150,0.6790232399
464.36200,3.730967317
464.36250,7.088105802
464.36300,8.308883432
464.36350,7.088105802
464.36400,5.562133763
464.36450,6.172522579
464.36500,8.003689025
464.36550,8.919272248
464.36600,8.919272248
464.36650,9.834855471
464.36700,11.0556331
464.36750,11.36082751
464.36800,10.14004988
464.36850,8.308883432
464.36900,7.088105802
464.36950,4.64655054
464.37000,0.06863442452
464.37050,-5.119670506
464.37100,-6.645642545
464.37150,-2.983309652
464.37200,0.3738288322
464.37250,0.3738288322
464.37300,-2.372920837
464.37350,-4.509281691
464.37400,-4.814476099
464.37450,-5.730059322
464.37500,-8.171614583
464.37550,-10.61316985
464.37600,-10.61316985
464.37650,-9.087197807
464.37700,-8.476808991
464.37750,-9.392392214
464.37800,-9.697586622
464.37850,-8.476808991
464.37900,-6.03525373
464.37950,-3.593698468
464.38000,-2.678115245
464.38050,-2.678115245
464.38100,-2.983309652
464.38150,-2.067726429
464.38200,-1.152143206
464.38250,-0.2365599832
464.38300,1.289412055
464.38350,4.951744948
464.38400,8.61407784
464.38450,9.224466656
464.38500,6.782911394
464.38550,4.036161725
464.38600,3.730967317
464.38650,5.256939355
464.38700,4.951744948
464.38750,3.425772909
464.38800,3.425772909
464.38850,5.562133763
464.38900,7.088105802
464.38950,6.172522579
464.39000,3.730967317
464.39050,2.204995278
464.39100,1.594606463
464.39150,1.289412055
464.39200,0.6790232399
464.39250,0.06863442452
464.39300,-1.152143206
464.39350,-2.372920837
464.39400,-2.067726429
464.39450,-0.5417543909
464.39500,0.06863442452
464.39550,-1.457337614
464.39600,-2.678115245
464.39650,-0.8469487986
464.39700,0.6790232399
464.39750,-2.067726429
464.39800,-9.087197807
464.39850,-12.44433629
464.39900,-8.782003399
464.39950,-3.593698468
464.40000,-2.372920837
464.40050,-3.28850406
464.40100,-2.067726429
464.40150,0.06863442452
464.40200,-0.2365599832
464.40250,-4.204087283
464.40300,-7.25603136
464.40350,-6.340448137
464.40400,-2.983309652
464.40450,0.06863442452
464.40500,2.815384094
464.40550,4.036161725
464.40600,4.036161725
464.40650,4.036161725
464.40700,5.256939355
464.40750,7.393300209
464.40800,8.919272248
464.40850,9.224466656
464.40900,9.529661063
464.40950,9.224466656
464.41000,7.698494617
464.41050,4.64655054
464.41100,1.594606463
464.41150,0.3738288322
464.41200,0.6790232399
464.41250,0.9842176476
464.41300,0.6790232399
464.41350,0.06863442452
464.41400,0.3738288322
464.41450,0.6790232399
464.41500,-0.2365599832
464.41550,-3.898892876
464.41600,-7.25603136
464.41650,-7.25603136
464.41700,-3.593698468
464.41750,-1.152143206
464.41800,-2.678115245
464.41850,-6.340448137
464.41900,-8.171614583
464.41950,-9.392392214
464.42000,-9.697586622
464.42050,-6.340448137
464.42100,0.6790232399
464.42150,7.393300209
464.42200,7.088105802
464.42250,1.899800871
464.42300,0.06863442452
464.42350,4.036161725
464.42400,8.003689025
464.42450,6.477716986
464.42500,2.815384094
464.42550,0.9842176476
464.42600,1.289412055
464.42650,1.289412055
464.42700,1.594606463
464.42750,4.036161725
464.42800,7.393300209
464.42850,9.529661063
464.42900,10.14004988
464.42950,9.529661063
464.43000,7.393300209
464.43050,4.951744948
464.43100,3.425772909
464.43150,4.036161725
464.43200,4.64655054
464.43250,4.036161725
464.43300,2.815384094
464.43350,1.289412055
464.43400,-0.5417543909
464.43450,-4.204087283
464.43500,-6.950836953
464.43550,-6.950836953
464.43600,-5.424864914
464.43650,-4.204087283
464.43700,-4.509281691
464.43750,-4.509281691
464.43800,-5.119670506
464.43850,-6.03525373
464.43900,-7.25603136
464.43950,-6.950836953
464.44000,-6.340448137
464.44050,-6.03525373
464.44100,-5.730059322
464.44150,-3.898892876
464.44200,-1.762532022
464.44250,-1.457337614
464.44300,-2.678115245
464.44350,-2.372920837
464.44400,0.3738288322
464.44450,3.120578502
464.44500,3.730967317
464.44550,4.341356132
464.44600,5.867328171
464.44650,8.003689025
464.44700,8.003689025
464.44750,6.477716986
464.44800,5.256939355
464.44850,5.256939355
464.44900,6.172522579
464.44950,6.782911394
464.45000,6.477716986
464.45050,5.256939355
464.45100,3.120578502
464.45150,1.594606463
464.45200,0.9842176476
464.45250,0.6790232399
464.45300,0.06863442452
464.45350,-0.5417543909
464.45400,-0.8469487986
464.45450,-0.8469487986
464.45500,-0.8469487986
464.45550,-2.067726429
464.45600,-3.898892876
464.45650,-5.424864914
464.45700,-6.645642545
464.45750,-7.25603136
464.45800,-7.561225768
464.45850,-6.645642545
464.45900,-4.814476099
464.45950,-3.898892876
464.46000,-5.424864914
464.46050,-7.866420176
464.46100,-8.782003399
464.46150,-6.645642545
464.46200,-2.983309652
464.46250,-0.5417543909
464.46300,0.06863442452
464.46350,0.06863442452
464.46400,0.06863442452
464.46450,0.9842176476
464.46500,2.815384094
464.46550,4.341356132
464.46600,4.036161725
464.46650,2.815384094
464.46700,4.036161725
464.46750,7.088105802
464.46800,8.919272248
464.46850,8.308883432
464.46900,7.393300209
464.46950,6.782911394
464.47000,5.867328171
464.47050,4.036161725
464.47100,2.815384094
464.47150,3.730967317
464.47200,4.036161725
464.47250,1.594606463
464.47300,-1.457337614
464.47350,-2.983309652
464.47400,-2.678115245
464.47450,-2.983309652
464.47500,-3.28850406
464.47550,-2.372920837
464.47600,-0.2365599832
464.47650,0.06863442452
464.47700,-1.762532022
464.47750,-4.814476099
464.47800,-6.645642545
464.47850,-7.866420176
464.47900,-9.697586622
464.47950,-11.52875307
464.48000,-10.91836425
464.48050,-7.866420176
464.48100,-4.814476099
464.48150,-3.593698468
464.48200,-4.509281691
464.48250,-5.119670506
464.48300,-3.593698468
464.48350,-0.8469487986
464.48400,1.289412055
464.48450,3.425772909
464.48500,4.951744948
464.48550,6.172522579
464.48600,7.393300209
464.48650,8.308883432
464.48700,8.61407784
464.48750,7.698494617
464.48800,5.867328171
464.48850,3.730967317
464.48900,2.510189686
464.48950,2.510189686
464.49000,2.510189686
464.49050,3.120578502
464.49100,3.120578502
464.49150,2.204995278
464.49200,0.9842176476
464.49250,0.6790232399
464.49300,1.289412055
464.49350,1.289412055
464.49400,0.06863442452
464.49450,-1.152143206
464.49500,-0.5417543909
464.49550,0.06863442452
464.49600,-1.152143206
464.49650,-3.593698468
464.49700,-6.03525373
464.49750,-7.866420176
464.49800,-9.697586622
464.49850,-10.91836425
464.49900,-10.61316985
464.49950,-9.697586622
464.50000,-8.476808991
464.50050,-5.730059322
464.50100,-1.762532022
464.50150,0.3738288322
464.50200,-0.5417543909
464.50250,-2.372920837
464.50300,-1.457337614
464.50350,0.9842176476
464.50400,2.510189686
464.50450,2.815384094
464.50500,4.64655054
464.50550,6.782911394
464.50600,6.477716986
464.50650,4.036161725
464.50700,2.815384094
464.50750,4.036161725
464.50800,5.867328171
464.50850,6.782911394
464.50900,8.003689025
464.50950,9.224466656
464.51000,9.529661063
464.51050,8.61407784
464.51100,7.088105802
464.51150,6.477716986
464.51200,5.562133763
464.51250,4.341356132
464.51300,2.815384094
464.51350,0.06863442452
464.51400,-4.509281691
464.51450,-9.087197807
464.51500,-11.52875307
464.51550,-11.52875307
464.51600,-10.91836425
464.51650,-11.22355866
464.51700,-11.83394748
464.51750,-10.91836425
464.51800,-8.171614583
464.51850,-3.593698468
464.51900,0.06863442452
464.51950,0.6790232399
464.52000,-1.152143206
464.52050,-3.593698468
464.52100,-4.509281691
464.52150,-4.509281691
464.52200,-4.814476099
464.52250,-3.898892876
464.52300,-1.457337614
464.52350,-0.2365599832
464.52400,-1.152143206
464.52450,-2.067726429
464.52500,-0.8469487986
464.52550,1.594606463
464.52600,2.815384094
464.52650,3.425772909
464.52700,5.562133763
464.52750,8.308883432
464.52800,8.919272248
464.52850,7.698494617
464.52900,8.003689025
464.52950,9.529661063
464.53000,8.61407784
464.53050,5.256939355
464.53100,2.510189686
464.53150,3.120578502
464.53200,4.64655054
464.53250,4.64655054
464.53300,3.425772909
464.53350,2.510189686
464.53400,0.3738288322
464.53450,-3.28850406
464.53500,-9.087197807
464.53550,-14.27550274
464.53600,-17.32744681
464.53650,-15.80147478
464.53700,-10.61316985
464.53750,-6.03525373
464.53800,-6.340448137
464.53850,-9.697586622
464.53900,-9.697586622
464.53950,-5.424864914
464.54000,-1.457337614
464.54050,-1.152143206
464.54100,-1.152143206
464.54150,0.9842176476
464.54200,2.510189686
464.54250,1.594606463
464.54300,2.204995278
464.54350,7.698494617
464.54400,13.19199396
464.54450,11.36082751
464.54500,4.64655054
464.54550,2.204995278
464.54600,6.477716986
464.54650,11.66602192
464.54700,11.66602192
464.54750,8.003689025
464.54800,4.951744948
464.54850,4.036161725
464.54900,3.730967317
464.54950,3.120578502
464.55000,3.120578502
464.55050,2.204995278
464.55100,0.3738288322
464.55150,-1.152143206
464.55200,-2.372920837
464.55250,-3.28850406
464.55300,-2.067726429
464.55350,1.899800871
464.55400,6.172522579
464.55450,4.951744948
464.55500,-1.457337614
464.55550,-7.25603136
464.55600,-7.561225768
464.55650,-4.509281691
464.55700,-3.898892876
464.55750,-6.645642545
464.55800,-9.392392214
464.55850,-8.782003399
464.55900,-6.340448137
464.55950,-5.424864914
464.56000,-6.645642545
464.56050,-7.25603136
464.56100,-4.814476099
464.56150,-1.152143206
464.56200,0.3738288322
464.56250,0.3738288322
464.56300,0.6790232399
464.56350,1.289412055
464.56400,1.899800871
464.56450,3.120578502
464.56500,6.172522579
464.56550,9.834855471
464.56600,10.14004988
464.56650,7.393300209
464.56700,5.562133763
464.56750,7.393300209
464.56800,9.224466656
464.56850,7.698494617
464.56900,4.951744948
464.56950,5.562133763
464.57000,7.698494617
464.57050,7.393300209
464.57100,4.951744948
464.57150,3.425772909
464.57200,2.815384094
464.57250,1.289412055
464.57300,-0.8469487986
464.57350,-0.8469487986
464.57400,0.6790232399
464.57450,0.6790232399
464.57500,-2.372920837
464.57550,-5.730059322
464.57600,-6.03525373
464.57650,-4.509281691
464.57700,-4.814476099
464.57750,-5.730059322
464.57800,-5.730059322
464.57850,-4.509281691
464.57900,-4.204087283
464.57950,-6.340448137
464.58000,-9.087197807
464.58050,-9.697586622
464.58100,-7.25603136
464.58150,-3.593698468
464.58200,-1.152143206
464.58250,-0.2365599832
464.58300,0.06863442452
464.58350,1.594606463
464.58400,3.425772909
464.58450,4.341356132
464.58500,4.951744948
464.58550,5.867328171
464.58600,7.088105802
464.58650,6.782911394
464.58700,4.64655054
464.58750,2.510189686
464.58800,1.594606463
464.58850,1.899800871
464.58900,2.510189686
464.58950,3.120578502
464.59000,4.341356132
464.59050,5.562133763
464.59100,5.562133763
464.59150,4.341356132
464.59200,3.425772909
464.59250,3.120578502
464.59300,2.510189686
464.59350,0.9842176476
464.59400,-0.8469487986
464.59450,-2.067726429
464.59500,-1.457337614
464.59550,0.06863442452
464.59600,2.204995278
464.59650,3.120578502
464.59700,2.510189686
464.59750,-0.2365599832
464.59800,-5.119670506
464.59850,-10.61316985
464.59900,-15.19108596
464.59950,-16.717058
464.60000,-14.58069715
464.60050,-10.30797544
464.60100,-6.950836953
464.60150,-4.814476099
464.60200,-2.678115245
464.60250,0.06863442452
464.60300,2.815384094
464.60350,4.341356132
464.60400,4.341356132
464.60450,2.815384094
464.60500,0.9842176476
464.60550,0.9842176476
464.60600,3.120578502
464.60650,5.867328171
464.60700,7.393300209
464.60750,7.088105802
464.60800,6.477716986
464.60850,5.867328171
464.60900,6.172522579
464.60950,8.003689025
464.61000,9.834855471
464.61050,9.834855471
464.61100,7.088105802
464.61150,3.730967317
464.61200,2.815384094
464.61250,4.036161725
464.61300,3.730967317
464.61350,0.3738288322
464.61400,-4.509281691
464.61450,-8.476808991
464.61500,-9.087197807
464.61550,-6.950836953
464.61600,-4.509281691
464.61650,-2.983309652
464.61700,-2.372920837
464.61750,-1.762532022
464.61800,-1.762532022
464.61850,-3.28850406
464.61900,-6.340448137
464.61950,-9.087197807
464.62000,-10.91836425
464.62050,-12.44433629
464.62100,-12.13914188
464.62150,-8.782003399
464.62200,-4.814476099
464.62250,-3.28850406
464.62300,-4.814476099
464.62350,-5.119670506
464.62400,-1.762532022
464.62450,2.510189686
464.62500,3.730967317
464.62550,3.120578502
464.62600,3.425772909
464.62650,5.256939355
464.62700,6.172522579
464.62750,6.172522579
464.62800,7.088105802
464.62850,8.61407784
464.62900,9.224466656
464.62950,8.003689025
464.63000,6.782911394
464.63050,6.782911394
464.63100,7.393300209
464.63150,7.393300209
464.63200,7.393300209
464.63250,7.088105802
464.63300,5.256939355
464.63350,2.510189686
464.63400,0.06863442452
464.63450,0.06863442452
464.63500,0.06863442452
464.63550,-0.8469487986
