"type","name","time_units","begin_time","frequency","count","units"
"signal","Ultium EMG-BRACHIORAD. RT","s",10.98000,2000,22000,"uV"

"time","value"
10.98000,23.82422892
10.98050,32.67486674
10.98100,39.38914371
10.98150,39.99953253
10.98200,37.25278286
10.98250,36.64239404
10.98300,39.99953253
10.98350,42.7462822
10.98400,39.38914371
10.98450,29.62292266
10.98500,21.99306247
10.98550,22.9086457
10.98600,26.57097859
10.98650,16.49956313
10.98700,-13.71468323
10.98750,-50.33801215
10.98800,-68.34448221
10.98850,-58.57826116
10.98900,-35.99387499
10.98950,-18.59779375
10.99000,-10.35754474
10.99050,-5.169239813
10.99100,-0.2861292898
10.99150,0.01906511792
10.99200,-5.474434221
10.99250,-9.441961521
10.99300,-5.169239813
10.99350,7.64892531
10.99400,25.96058977
10.99450,43.0514766
10.99500,51.90211443
10.99550,48.23978153
10.99600,37.86317167
10.99650,31.75928352
10.99700,33.89564437
10.99750,33.89564437
10.99800,18.9411184
10.99850,-11.27312797
10.99900,-45.14970722
10.99950,-70.48084306
11.00000,-82.68861937
11.00050,-84.51978582
11.00100,-81.46784174
11.00150,-77.19512003
11.00200,-70.48084306
11.00250,-56.1367059
11.00300,-33.85751414
11.00350,-10.96793356
11.00400,5.207370049
11.00450,16.19436873
11.00500,25.96058977
11.00550,32.36967233
11.00600,29.62292266
11.00650,19.2463128
11.00700,7.038536495
11.00750,-3.338073367
11.00800,-9.441961521
11.00850,-6.084823036
11.00900,5.817758864
11.00950,14.05800787
11.01000,3.68139801
11.01050,-19.51337697
11.01100,-32.94193091
11.01150,-22.87051546
11.01200,-0.8965181052
11.01250,14.05800787
11.01300,18.33072958
11.01350,18.63592399
11.01400,18.9411184
11.01450,16.80475754
11.01500,12.22684143
11.01550,8.564508534
11.01600,6.42814768
11.01650,3.376203603
11.01700,0.3242595256
11.01750,0.01906511792
11.01800,1.239842749
11.01850,1.545037156
11.01900,2.155425972
11.01950,6.122953272
11.02000,11.0060638
11.02050,10.70086939
11.02100,5.817758864
11.02150,3.071009195
11.02200,6.122953272
11.02250,9.480091757
11.02300,7.954119718
11.02350,3.68139801
11.02400,0.01906511792
11.02450,-2.727684551
11.02500,-3.643267774
11.02550,-0.8965181052
11.02600,5.817758864
11.02650,11.3112582
11.02700,11.0060638
11.02750,7.954119718
11.02800,7.64892531
11.02850,8.869702941
11.02900,6.733342087
11.02950,1.545037156
11.03000,-0.5913236975
11.03050,2.155425972
11.03100,8.259314126
11.03150,14.36320228
11.03200,18.02553517
11.03250,15.88917432
11.03300,7.64892531
11.03350,-3.338073367
11.03400,-11.27312797
11.03450,-14.01987764
11.03500,-12.79910001
11.03550,-8.526378298
11.03600,-2.422490144
11.03650,1.239842749
11.03700,0.01906511792
11.03750,-4.25365659
11.03800,-7.000406259
11.03850,-7.610795075
11.03900,-9.136767113
11.03950,-11.88351678
11.04000,-13.71468323
11.04050,-14.01987764
11.04100,-13.40948882
11.04150,-9.441961521
11.04200,0.934648341
11.04250,15.2787855
11.04300,26.26578418
11.04350,30.53850589
11.04400,30.53850589
11.04450,28.70733944
11.04500,23.51903451
11.04550,14.9735911
11.04600,7.343730903
11.04650,3.071009195
11.04700,0.934648341
11.04750,-2.422490144
11.04800,-9.747155929
11.04850,-21.95493224
11.04900,-39.65620788
11.04950,-58.57826116
11.05000,-70.78603747
11.05050,-68.64967661
11.05100,-53.38995623
11.05150,-33.85751414
11.05200,-17.98740494
11.05250,-10.05235034
11.05300,-7.915989482
11.05350,-8.22118389
11.05400,-6.695211852
11.05450,-1.201712513
11.05500,6.122953272
11.05550,12.22684143
11.05600,10.70086939
11.05650,0.6294539333
11.05700,-11.57832237
11.05750,-18.29259934
11.05800,-16.15623849
11.05850,-10.35754474
11.05900,-8.22118389
11.05950,-10.35754474
11.06000,-11.27312797
11.06050,-7.915989482
11.06100,-2.422490144
11.06150,1.850231564
11.06200,3.986592418
11.06250,5.207370049
11.06300,6.733342087
11.06350,9.480091757
11.06400,12.83723024
11.06450,15.2787855
11.06500,15.88917432
11.06550,16.19436873
11.06600,18.02553517
11.06650,20.46709043
11.06700,18.9411184
11.06750,13.44761906
11.06800,10.70086939
11.06850,14.05800787
11.06900,16.19436873
11.06950,6.122953272
11.07000,-14.32507204
11.07050,-32.3315421
11.07100,-35.99387499
11.07150,-27.14323717
11.07200,-14.32507204
11.07250,-4.25365659
11.07300,1.239842749
11.07350,4.291786826
11.07400,7.954119718
11.07450,13.44761906
11.07500,16.19436873
11.07550,11.92164702
11.07600,3.071009195
11.07650,-1.201712513
11.07700,0.01906511792
11.07750,3.376203603
11.07800,5.512564457
11.07850,10.39567498
11.07900,16.49956313
11.07950,14.36320228
11.08000,1.545037156
11.08050,-11.27312797
11.08100,-12.18871119
11.08150,-3.338073367
11.08200,5.207370049
11.08250,9.785286164
11.08300,14.05800787
11.08350,18.33072958
11.08400,17.41514636
11.08450,9.480091757
11.08500,0.3242595256
11.08550,-2.117295736
11.08600,3.986592418
11.08650,15.88917432
11.08700,24.12942333
11.08750,18.9411184
11.08800,0.01906511792
11.08850,-18.90298816
11.08900,-21.34454342
11.08950,-2.422490144
11.09000,25.04500655
11.09050,41.22031016
11.09100,32.36967233
11.09150,-0.5913236975
11.09200,-40.57179111
11.09250,-63.76656609
11.09300,-57.35748353
11.09350,-28.97440361
11.09400,3.071009195
11.09450,23.2138401
11.09500,21.68786806
11.09550,-1.506906921
11.09600,-33.24712532
11.09650,-47.89645689
11.09700,-32.02634769
11.09750,-3.643267774
11.09800,3.376203603
11.09850,-16.4614329
11.09900,-36.60426381
11.09950,-31.41595888
11.10000,-12.18871119
11.10050,-9.136767113
11.10100,-29.27959802
11.10150,-50.64320656
11.10200,-54.30553945
11.10250,-42.40295755
11.10300,-26.53284835
11.10350,-11.88351678
11.10400,3.376203603
11.10450,18.02553517
11.10500,27.79175622
11.10550,33.28525556
11.10600,35.42161641
11.10650,32.67486674
11.10700,23.82422892
11.10750,14.05800787
11.10800,9.174897349
11.10850,11.0060638
11.10900,18.02553517
11.10950,27.48656181
11.11000,35.42161641
11.11050,36.94758845
11.11100,32.67486674
11.11150,29.31772826
11.11200,31.1488947
11.11250,34.20083878
11.11300,31.75928352
11.11350,22.60345129
11.11400,11.0060638
11.11450,0.934648341
11.11500,-5.169239813
11.11550,-7.610795075
11.11600,-7.610795075
11.11650,-7.915989482
11.11700,-8.526378298
11.11750,-4.25365659
11.11800,3.986592418
11.11850,8.259314126
11.11900,0.01906511792
11.11950,-14.63026645
11.12000,-21.34454342
11.12050,-14.63026645
11.12100,-2.727684551
11.12150,2.765814787
11.12200,2.155425972
11.12250,0.6294539333
11.12300,2.46062038
11.12350,6.122953272
11.12400,9.480091757
11.12450,11.3112582
11.12500,11.3112582
11.12550,8.259314126
11.12600,4.596981233
11.12650,4.291786826
11.12700,8.259314126
11.12750,13.75281346
11.12800,17.10995195
11.12850,18.33072958
11.12900,19.55150721
11.12950,20.77228484
11.13000,21.07747925
11.13050,20.77228484
11.13100,21.68786806
11.13150,23.51903451
11.13200,22.60345129
11.13250,18.02553517
11.13300,11.92164702
11.13350,7.343730903
11.13400,3.986592418
11.13450,0.934648341
11.13500,-0.5913236975
11.13550,-0.5913236975
11.13600,-0.5913236975
11.13650,-1.506906921
11.13700,-1.812101328
11.13750,-2.422490144
11.13800,-6.390017444
11.13850,-14.93546086
11.13900,-22.26012664
11.13950,-22.56532105
11.14000,-14.93546086
11.14050,-3.338073367
11.14100,7.038536495
11.14150,11.92164702
11.14200,9.174897349
11.14250,3.68139801
11.14300,5.817758864
11.14350,14.36320228
11.14400,14.05800787
11.14450,-4.25365659
11.14500,-26.83804276
11.14550,-31.72115328
11.14600,-17.98740494
11.14650,-3.948462182
11.14700,-0.8965181052
11.14750,-2.422490144
11.14800,-0.5913236975
11.14850,1.850231564
11.14900,0.6294539333
11.14950,-1.506906921
11.15000,-1.506906921
11.15050,-0.8965181052
11.15100,-1.201712513
11.15150,-1.506906921
11.15200,-1.506906921
11.15250,-4.864045405
11.15300,-12.4939056
11.15350,-19.51337697
11.15400,-21.03934901
11.15450,-16.76662731
11.15500,-9.136767113
11.15550,0.01906511792
11.15600,6.42814768
11.15650,5.512564457
11.15700,-1.812101328
11.15750,-7.915989482
11.15800,-7.000406259
11.15850,-1.506906921
11.15900,1.239842749
11.15950,1.239842749
11.16000,2.155425972
11.16050,7.64892531
11.16100,14.9735911
11.16150,18.02553517
11.16200,13.14242465
11.16250,5.512564457
11.16300,4.291786826
11.16350,12.22684143
11.16400,21.38267366
11.16450,22.9086457
11.16500,16.80475754
11.16550,7.343730903
11.16600,-3.948462182
11.16650,-19.51337697
11.16700,-36.60426381
11.16750,-45.76009604
11.16800,-42.40295755
11.16850,-30.19518124
11.16900,-16.15623849
11.16950,-6.084823036
11.17000,-1.201712513
11.17050,0.01906511792
11.17100,0.01906511792
11.17150,-0.8965181052
11.17200,-3.338073367
11.17250,-7.305600667
11.17300,-10.05235034
11.17350,-10.96793356
11.17400,-11.57832237
11.17450,-13.40948882
11.17500,-14.01987764
11.17550,-11.57832237
11.17600,-6.695211852
11.17650,-2.727684551
11.17700,0.01906511792
11.17750,2.155425972
11.17800,2.46062038
11.17850,0.6294539333
11.17900,-0.2861292898
11.17950,0.6294539333
11.18000,3.071009195
11.18050,3.376203603
11.18100,1.545037156
11.18150,0.6294539333
11.18200,0.6294539333
11.18250,0.01906511792
11.18300,-4.25365659
11.18350,-9.441961521
11.18400,-11.88351678
11.18450,-6.390017444
11.18500,7.64892531
11.18550,23.2138401
11.18600,29.31772826
11.18650,19.2463128
11.18700,-0.5913236975
11.18750,-17.98740494
11.18800,-22.56532105
11.18850,-14.01987764
11.18900,-0.8965181052
11.18950,5.817758864
11.19000,-1.506906921
11.19050,-21.95493224
11.19100,-43.92892959
11.19150,-54.91592827
11.19200,-50.33801215
11.19250,-35.07829177
11.19300,-18.29259934
11.19350,-6.084823036
11.19400,-0.2861292898
11.19450,0.934648341
11.19500,0.6294539333
11.19550,0.01906511792
11.19600,-3.032878959
11.19650,-7.610795075
11.19700,-9.747155929
11.19750,-4.25365659
11.19800,6.733342087
11.19850,18.33072958
11.19900,27.48656181
11.19950,35.72681082
11.20000,41.83069897
11.20050,40.91511575
11.20100,33.89564437
11.20150,30.8437003
11.20200,34.20083878
11.20250,28.40214503
11.20300,-0.8965181052
11.20350,-43.01334637
11.20400,-66.20812135
11.20450,-54.30553945
11.20500,-26.22765394
11.20550,-10.96793356
11.20600,-15.24065527
11.20650,-22.87051546
11.20700,-20.12376579
11.20750,-8.22118389
11.20800,3.376203603
11.20850,10.70086939
11.20900,14.66839669
11.20950,18.33072958
11.21000,22.9086457
11.21050,24.43461773
11.21100,19.55150721
11.21150,9.174897349
11.21200,0.3242595256
11.21250,-2.422490144
11.21300,-0.2861292898
11.21350,3.071009195
11.21400,6.122953272
11.21450,7.954119718
11.21500,6.733342087
11.21550,3.376203603
11.21600,0.934648341
11.21650,3.071009195
11.21700,7.64892531
11.21750,11.3112582
11.21800,13.44761906
11.21850,14.66839669
11.21900,14.05800787
11.21950,10.39567498
11.22000,7.038536495
11.22050,7.64892531
11.22100,11.92164702
11.22150,15.58397991
11.22200,17.10995195
11.22250,17.41514636
11.22300,17.41514636
11.22350,16.19436873
11.22400,15.58397991
11.22450,19.2463128
11.22500,27.79175622
11.22550,34.8112276
11.22600,34.50603319
11.22650,27.48656181
11.22700,18.9411184
11.22750,12.53203583
11.22800,9.174897349
11.22850,6.733342087
11.22900,1.850231564
11.22950,-10.05235034
11.23000,-28.05882039
11.23050,-42.70815196
11.23100,-43.92892959
11.23150,-30.80557006
11.23200,-14.63026645
11.23250,-3.338073367
11.23300,4.291786826
11.23350,13.14242465
11.23400,18.63592399
11.23450,15.2787855
11.23500,6.42814768
11.23550,2.765814787
11.23600,8.869702941
11.23650,19.85670162
11.23700,28.40214503
11.23750,31.1488947
11.23800,29.31772826
11.23850,29.01253385
11.23900,37.86317167
11.23950,49.46055917
11.24000,40.91511575
11.24050,-3.032878959
11.24100,-63.76656609
11.24150,-99.47431179
11.24200,-94.28600686
11.24250,-74.75356477
11.24300,-70.78603747
11.24350,-78.41589766
11.24400,-73.83798155
11.24450,-51.25359538
11.24500,-27.75362598
11.24550,-14.32507204
11.24600,-4.558850998
11.24650,9.785286164
11.24700,25.35020096
11.24750,30.8437003
11.24800,25.65539536
11.24850,18.9411184
11.24900,21.68786806
11.24950,33.28525556
11.25000,41.22031016
11.25050,35.116422
11.25100,21.38267366
11.25150,18.02553517
11.25200,30.8437003
11.25250,43.0514766
11.25300,34.8112276
11.25350,8.259314126
11.25400,-18.59779375
11.25450,-36.60426381
11.25500,-49.11723452
11.25550,-57.66267794
11.25600,-56.1367059
11.25650,-40.87698551
11.25700,-19.51337697
11.25750,-1.201712513
11.25800,9.480091757
11.25850,13.75281346
11.25900,12.22684143
11.25950,7.954119718
11.26000,5.817758864
11.26050,8.869702941
11.26100,14.05800787
11.26150,16.19436873
11.26200,14.05800787
11.26250,9.785286164
11.26300,5.817758864
11.26350,2.765814787
11.26400,-1.201712513
11.26450,-7.305600667
11.26500,-13.40948882
11.26550,-15.24065527
11.26600,-11.57832237
11.26650,-6.390017444
11.26700,-2.422490144
11.26750,0.01906511792
11.26800,2.46062038
11.26850,5.817758864
11.26900,7.038536495
11.26950,4.902175641
11.27000,0.6294539333
11.27050,-1.506906921
11.27100,-0.5913236975
11.27150,1.545037156
11.27200,2.765814787
11.27250,2.765814787
11.27300,3.68139801
11.27350,4.902175641
11.27400,4.902175641
11.27450,4.902175641
11.27500,8.259314126
11.27550,12.53203583
11.27600,13.14242465
11.27650,10.09048057
11.27700,11.61645261
11.27750,20.16189603
11.27800,27.1813674
11.27850,25.65539536
11.27900,20.16189603
11.27950,17.10995195
11.28000,14.05800787
11.28050,7.038536495
11.28100,0.3242595256
11.28150,1.545037156
11.28200,6.733342087
11.28250,6.42814768
11.28300,-1.201712513
11.28350,-14.01987764
11.28400,-32.94193091
11.28450,-56.74709471
11.28500,-70.17564865
11.28550,-60.1042332
11.28600,-35.07829177
11.28650,-15.54584967
11.28700,-7.305600667
11.28750,1.850231564
11.28800,20.77228484
11.28850,42.13589338
11.28900,59.53197462
11.28950,73.26572297
11.29000,81.81116638
11.29050,83.64233283
11.29100,85.16830487
11.29150,90.05141539
11.29200,84.55791605
11.29250,51.59692002
11.29300,6.122953272
11.29350,-16.15623849
11.29400,-14.01987764
11.29450,-28.66920921
11.29500,-89.09770193
11.29550,-166.0066927
11.29600,-206.5975489
11.29650,-192.8638005
11.29700,-147.3898338
11.29750,-97.33795094
11.29800,-55.52631708
11.29850,-28.05882039
11.29900,-14.63026645
11.29950,-6.084823036
11.30000,0.934648341
11.30050,0.01906511792
11.30100,-14.32507204
11.30150,-27.75362598
11.30200,-25.00687631
11.30250,-12.4939056
11.30300,-7.915989482
11.30350,-11.27312797
11.30400,-7.915989482
11.30450,6.122953272
11.30500,18.9411184
11.30550,23.51903451
11.30600,25.35020096
11.30650,28.40214503
11.30700,28.40214503
11.30750,23.82422892
11.30800,20.77228484
11.30850,23.82422892
11.30900,28.70733944
11.30950,29.31772826
11.31000,26.876173
11.31050,25.04500655
11.31100,24.73981214
11.31150,22.60345129
11.31200,17.41514636
11.31250,11.61645261
11.31300,7.954119718
11.31350,8.869702941
11.31400,13.44761906
11.31450,18.33072958
11.31500,20.16189603
11.31550,18.9411184
11.31600,16.80475754
11.31650,16.49956313
11.31700,19.85670162
11.31750,26.26578418
11.31800,32.06447793
11.31850,32.36967233
11.31900,27.79175622
11.31950,24.43461773
11.32000,25.04500655
11.32050,24.12942333
11.32100,16.49956313
11.32150,4.596981233
11.32200,-1.506906921
11.32250,1.850231564
11.32300,11.61645261
11.32350,18.9411184
11.32400,21.07747925
11.32450,19.55150721
11.32500,17.72034076
11.32550,17.41514636
11.32600,17.41514636
11.32650,15.58397991
11.32700,11.92164702
11.32750,9.785286164
11.32800,12.53203583
11.32850,17.10995195
11.32900,18.33072958
11.32950,14.05800787
11.33000,7.954119718
11.33050,0.6294539333
11.33100,-11.27312797
11.33150,-30.80557006
11.33200,-49.42242893
11.33250,-53.38995623
11.33300,-39.65620788
11.33350,-19.81857138
11.33400,-7.610795075
11.33450,-5.169239813
11.33500,-1.201712513
11.33550,10.39567498
11.33600,23.2138401
11.33650,26.57097859
11.33700,20.77228484
11.33750,14.05800787
11.33800,12.53203583
11.33850,12.83723024
11.33900,10.70086939
11.33950,7.038536495
11.34000,7.038536495
11.34050,10.39567498
11.34100,12.22684143
11.34150,8.259314126
11.34200,-0.2861292898
11.34250,-10.05235034
11.34300,-17.37701612
11.34350,-22.56532105
11.34400,-28.66920921
11.34450,-35.07829177
11.34500,-33.85751414
11.34550,-19.20818257
11.34600,0.934648341
11.34650,9.785286164
11.34700,2.46062038
11.34750,-6.084823036
11.34800,-3.032878959
11.34850,0.6294539333
11.34900,-14.32507204
11.34950,-48.81204011
11.35000,-76.58473122
11.35050,-77.19512003
11.35100,-56.44190031
11.35150,-35.07829177
11.35200,-21.95493224
11.35250,-12.18871119
11.35300,-2.727684551
11.35350,3.071009195
11.35400,3.986592418
11.35450,3.68139801
11.35500,4.291786826
11.35550,3.071009195
11.35600,-1.201712513
11.35650,-3.948462182
11.35700,-0.5913236975
11.35750,4.596981233
11.35800,6.122953272
11.35850,2.765814787
11.35900,-1.201712513
11.35950,-2.727684551
11.36000,0.01906511792
11.36050,5.817758864
11.36100,11.0060638
11.36150,11.3112582
11.36200,8.259314126
11.36250,7.343730903
11.36300,11.92164702
11.36350,17.10995195
11.36400,17.72034076
11.36450,17.10995195
11.36500,22.29825688
11.36550,29.31772826
11.36600,26.26578418
11.36650,11.0060638
11.36700,-5.169239813
11.36750,-14.01987764
11.36800,-21.03934901
11.36850,-35.07829177
11.36900,-50.33801215
11.36950,-52.77956741
11.37000,-38.13023584
11.37050,-18.59779375
11.37100,-6.695211852
11.37150,-2.422490144
11.37200,0.01906511792
11.37250,2.155425972
11.37300,1.850231564
11.37350,0.01906511792
11.37400,0.3242595256
11.37450,5.512564457
11.37500,12.22684143
11.37550,17.10995195
11.37600,17.72034076
11.37650,14.66839669
11.37700,11.3112582
11.37750,11.3112582
11.37800,15.2787855
11.37850,17.72034076
11.37900,13.44761906
11.37950,6.42814768
11.38000,5.817758864
11.38050,12.22684143
11.38100,16.80475754
11.38150,11.61645261
11.38200,0.6294539333
11.38250,-4.864045405
11.38300,0.01906511792
11.38350,11.0060638
11.38400,20.46709043
11.38450,20.46709043
11.38500,8.564508534
11.38550,-11.57832237
11.38600,-29.58479243
11.38650,-34.77309736
11.38700,-28.66920921
11.38750,-22.87051546
11.38800,-27.44843158
11.38850,-41.48737433
11.38900,-54.00034505
11.38950,-54.91592827
11.39000,-44.234124
11.39050,-28.3640148
11.39100,-14.32507204
11.39150,-5.169239813
11.39200,0.6294539333
11.39250,6.733342087
11.39300,13.44761906
11.39350,18.9411184
11.39400,21.07747925
11.39450,18.9411184
11.39500,14.9735911
11.39550,12.53203583
11.39600,14.66839669
11.39650,20.46709043
11.39700,27.1813674
11.39750,31.75928352
11.39800,33.28525556
11.39850,31.75928352
11.39900,28.40214503
11.39950,26.876173
11.40000,27.1813674
11.40050,27.1813674
11.40100,25.35020096
11.40150,27.79175622
11.40200,36.03200523
11.40250,36.64239404
11.40300,11.0060638
11.40350,-37.21465262
11.40400,-79.63667529
11.40450,-87.8769243
11.40500,-64.0717605
11.40550,-33.55231973
11.40600,-14.01987764
11.40650,-5.169239813
11.40700,0.01906511792
11.40750,3.986592418
11.40800,6.733342087
11.40850,8.869702941
11.40900,11.3112582
11.40950,11.3112582
11.41000,9.480091757
11.41050,7.64892531
11.41100,7.64892531
11.41150,6.733342087
11.41200,4.902175641
11.41250,3.071009195
11.41300,1.850231564
11.41350,0.3242595256
11.41400,-1.201712513
11.41450,-1.812101328
11.41500,-1.201712513
11.41550,-1.201712513
11.41600,-1.201712513
11.41650,3.986592418
11.41700,17.41514636
11.41750,30.53850589
11.41800,33.89564437
11.41850,25.65539536
11.41900,13.44761906
11.41950,5.817758864
11.42000,4.902175641
11.42050,7.343730903
11.42100,9.174897349
11.42150,10.09048057
11.42200,13.14242465
11.42250,17.72034076
11.42300,17.10995195
11.42350,5.512564457
11.42400,-11.88351678
11.42450,-24.09129309
11.42500,-22.87051546
11.42550,-14.01987764
11.42600,-6.695211852
11.42650,-2.727684551
11.42700,0.934648341
11.42750,5.512564457
11.42800,6.122953272
11.42850,3.68139801
11.42900,4.596981233
11.42950,11.3112582
11.43000,16.49956313
11.43050,14.05800787
11.43100,9.174897349
11.43150,10.39567498
11.43200,16.49956313
11.43250,19.85670162
11.43300,18.9411184
11.43350,20.46709043
11.43400,26.26578418
11.43450,26.26578418
11.43500,10.39567498
11.43550,-17.37701612
11.43600,-42.70815196
11.43650,-55.52631708
11.43700,-57.96787235
11.43750,-54.91592827
11.43800,-49.72762334
11.43850,-40.87698551
11.43900,-28.66920921
11.43950,-15.24065527
11.44000,-5.779628628
11.44050,-3.948462182
11.44100,-7.610795075
11.44150,-9.441961521
11.44200,-5.779628628
11.44250,-0.8965181052
11.44300,-0.5913236975
11.44350,-3.948462182
11.44400,-3.643267774
11.44450,4.596981233
11.44500,17.10995195
11.44550,27.48656181
11.44600,32.36967233
11.44650,31.45408911
11.44700,26.26578418
11.44750,20.46709043
11.44800,19.55150721
11.44850,23.2138401
11.44900,25.65539536
11.44950,25.04500655
11.45000,27.1813674
11.45050,36.64239404
11.45100,42.7462822
11.45150,30.8437003
11.45200,2.46062038
11.45250,-21.64973783
11.45300,-26.22765394
11.45350,-17.98740494
11.45400,-12.4939056
11.45450,-14.32507204
11.45500,-14.93546086
11.45550,-12.18871119
11.45600,-13.10429441
11.45650,-23.17570987
11.45700,-38.13023584
11.45750,-50.33801215
11.45800,-54.30553945
11.45850,-50.03281775
11.45900,-39.35101348
11.45950,-26.53284835
11.46000,-15.24065527
11.46050,-6.084823036
11.46100,0.01906511792
11.46150,2.46062038
11.46200,2.765814787
11.46250,4.596981233
11.46300,7.954119718
11.46350,6.733342087
11.46400,-2.422490144
11.46450,-12.4939056
11.46500,-11.27312797
11.46550,-1.201712513
11.46600,4.291786826
11.46650,1.545037156
11.46700,-0.5913236975
11.46750,4.902175641
11.46800,11.92164702
11.46850,11.92164702
11.46900,6.42814768
11.46950,4.596981233
11.47000,7.64892531
11.47050,9.174897349
11.47100,8.259314126
11.47150,10.09048057
11.47200,17.72034076
11.47250,28.09695063
11.47300,37.55797727
11.47350,43.35667101
11.47400,44.88264305
11.47450,42.13589338
11.47500,37.86317167
11.47550,33.59044997
11.47600,25.65539536
11.47650,14.66839669
11.47700,9.174897349
11.47750,10.39567498
11.47800,0.6294539333
11.47850,-39.04581907
11.47900,-94.89639568
11.47950,-126.0262253
11.48000,-109.5457272
11.48050,-64.0717605
11.48100,-19.51337697
11.48150,14.9735911
11.48200,42.44108779
11.48250,57.70080817
11.48300,56.78522495
11.48350,51.90211443
11.48400,52.81769765
11.48450,46.7138095
11.48500,17.72034076
11.48550,-18.90298816
11.48600,-32.94193091
11.48650,-23.78609868
11.48700,-23.48090428
11.48750,-45.14970722
11.48800,-64.98734372
11.48850,-62.85098287
11.48900,-51.25359538
11.48950,-50.94840097
11.49000,-57.05228912
11.49050,-49.72762334
11.49100,-28.3640148
11.49150,-9.747155929
11.49200,-1.201712513
11.49250,3.986592418
11.49300,10.39567498
11.49350,13.14242465
11.49400,10.39567498
11.49450,8.259314126
11.49500,10.09048057
11.49550,13.14242465
11.49600,15.58397991
11.49650,19.85670162
11.49700,24.43461773
11.49750,25.35020096
11.49800,22.60345129
11.49850,25.04500655
11.49900,36.03200523
11.49950,47.62939272
11.50000,50.6813368
11.50050,48.85017035
11.50100,50.9865312
11.50150,54.03847528
11.50200,41.83069897
11.50250,6.42814768
11.50300,-34.16270854
11.50350,-52.47437301
11.50400,-39.04581907
11.50450,-12.4939056
11.50500,2.46062038
11.50550,-0.8965181052
11.50600,-15.24065527
11.50650,-28.66920921
11.50700,-33.55231973
11.50750,-26.83804276
11.50800,-13.71468323
11.50850,-7.000406259
11.50900,-12.4939056
11.50950,-21.03934901
11.51000,-18.59779375
11.51050,-5.779628628
11.51100,5.817758864
11.51150,10.09048057
11.51200,9.785286164
11.51250,7.954119718
11.51300,3.986592418
11.51350,0.01906511792
11.51400,0.01906511792
11.51450,4.291786826
11.51500,7.038536495
11.51550,7.038536495
11.51600,10.09048057
11.51650,18.02553517
11.51700,25.04500655
11.51750,26.26578418
11.51800,24.73981214
11.51850,25.35020096
11.51900,27.48656181
11.51950,29.92811707
11.52000,32.98006115
11.52050,36.33719963
11.52100,37.25278286
11.52150,38.47356049
11.52200,42.13589338
11.52250,39.99953253
11.52300,21.38267366
11.52350,-8.22118389
11.52400,-25.00687631
11.52450,-15.54584967
11.52500,3.071009195
11.52550,6.42814768
11.52600,-8.526378298
11.52650,-28.3640148
11.52700,-43.62373518
11.52750,-55.83151149
11.52800,-61.01981642
11.52850,-51.25359538
11.52900,-29.88998684
11.52950,-13.40948882
11.53000,-10.66273915
11.53050,-14.01987764
11.53100,-12.79910001
11.53150,-4.864045405
11.53200,3.986592418
11.53250,9.785286164
11.53300,11.3112582
11.53350,9.174897349
11.53400,7.954119718
11.53450,11.92164702
11.53500,18.33072958
11.53550,21.07747925
11.53600,19.85670162
11.53650,20.77228484
11.53700,25.96058977
11.53750,27.79175622
11.53800,19.85670162
11.53850,7.64892531
11.53900,0.3242595256
11.53950,0.3242595256
11.54000,1.850231564
11.54050,0.6294539333
11.54100,-4.25365659
11.54150,-14.32507204
11.54200,-28.05882039
11.54250,-39.35101348
11.54300,-40.57179111
11.54350,-30.19518124
11.54400,-16.76662731
11.54450,-8.526378298
11.54500,-6.695211852
11.54550,-5.474434221
11.54600,0.01906511792
11.54650,5.512564457
11.54700,5.207370049
11.54750,-1.506906921
11.54800,-7.610795075
11.54850,-4.558850998
11.54900,3.376203603
11.54950,7.343730903
11.55000,5.512564457
11.55050,3.986592418
11.55100,7.64892531
11.55150,10.09048057
11.55200,7.64892531
11.55250,3.68139801
11.55300,3.986592418
11.55350,6.42814768
11.55400,5.817758864
11.55450,3.68139801
11.55500,4.291786826
11.55550,5.207370049
11.55600,2.46062038
11.55650,-0.5913236975
11.55700,1.545037156
11.55750,7.954119718
11.55800,10.09048057
11.55850,6.42814768
11.55900,3.376203603
11.55950,4.902175641
11.56000,6.122953272
11.56050,1.545037156
11.56100,-5.474434221
11.56150,-8.22118389
11.56200,-5.169239813
11.56250,-0.5913236975
11.56300,1.239842749
11.56350,0.934648341
11.56400,0.3242595256
11.56450,1.545037156
11.56500,3.376203603
11.56550,4.291786826
11.56600,3.376203603
11.56650,2.155425972
11.56700,2.155425972
11.56750,3.68139801
11.56800,5.512564457
11.56850,6.122953272
11.56900,4.596981233
11.56950,0.3242595256
11.57000,-1.201712513
11.57050,3.376203603
11.57100,12.53203583
11.57150,19.85670162
11.57200,23.51903451
11.57250,26.876173
11.57300,29.01253385
11.57350,23.2138401
11.57400,4.596981233
11.57450,-20.73415461
11.57500,-40.87698551
11.57550,-47.59126248
11.57600,-39.65620788
11.57650,-23.78609868
11.57700,-14.01987764
11.57750,-21.95493224
11.57800,-43.01334637
11.57850,-59.79903879
11.57900,-58.88345557
11.57950,-44.234124
11.58000,-29.58479243
11.58050,-20.4289602
11.58100,-14.01987764
11.58150,-6.695211852
11.58200,-0.5913236975
11.58250,0.934648341
11.58300,-0.8965181052
11.58350,-6.084823036
11.58400,-11.88351678
11.58450,-14.93546086
11.58500,-12.4939056
11.58550,-3.338073367
11.58600,12.53203583
11.58650,31.1488947
11.58700,44.27225423
11.58750,48.85017035
11.58800,48.54497594
11.58850,47.32419831
11.58900,42.7462822
11.58950,32.98006115
11.59000,23.51903451
11.59050,20.16189603
11.59100,19.2463128
11.59150,14.36320228
11.59200,10.70086939
11.59250,14.05800787
11.59300,14.05800787
11.59350,-10.35754474
11.59400,-60.1042332
11.59450,-103.4418391
11.59500,-110.4613105
11.59550,-84.21459141
11.59600,-51.86398419
11.59650,-31.11076447
11.59700,-19.20818257
11.59750,-9.747155929
11.59800,-2.422490144
11.59850,0.01906511792
11.59900,0.6294539333
11.59950,4.596981233
11.60000,11.3112582
11.60050,15.2787855
11.60100,9.785286164
11.60150,-4.558850998
11.60200,-18.90298816
11.60250,-22.56532105
11.60300,-13.10429441
11.60350,0.3242595256
11.60400,10.39567498
11.60450,16.80475754
11.60500,21.99306247
11.60550,24.43461773
11.60600,21.68786806
11.60650,18.02553517
11.60700,21.38267366
11.60750,34.50603319
11.60800,46.7138095
11.60850,41.83069897
11.60900,11.61645261
11.60950,-32.02634769
11.61000,-65.90292695
11.61050,-71.70162069
11.61100,-54.30553945
11.61150,-31.72115328
11.61200,-16.4614329
11.61250,-5.169239813
11.61300,7.64892531
11.61350,17.72034076
11.61400,17.72034076
11.61450,8.869702941
11.61500,1.850231564
11.61550,2.155425972
11.61600,6.733342087
11.61650,11.0060638
11.61700,12.83723024
11.61750,14.36320228
11.61800,17.41514636
11.61850,23.82422892
11.61900,31.75928352
11.61950,34.20083878
11.62000,32.36967233
11.62050,34.50603319
11.62100,43.35667101
11.62150,44.27225423
11.62200,23.51903451
11.62250,-5.474434221
11.62300,-15.85104408
11.62350,0.01906511792
11.62400,20.16189603
11.62450,24.43461773
11.62500,18.63592399
11.62550,14.66839669
11.62600,9.480091757
11.62650,-3.948462182
11.62700,-16.76662731
11.62750,-13.40948882
11.62800,1.239842749
11.62850,7.64892531
11.62900,-3.643267774
11.62950,-22.26012664
11.63000,-35.99387499
11.63050,-42.70815196
11.63100,-44.53931841
11.63150,-39.65620788
11.63200,-28.05882039
11.63250,-15.54584967
11.63300,-6.695211852
11.63350,0.01906511792
11.63400,5.512564457
11.63450,7.954119718
11.63500,7.343730903
11.63550,8.564508534
11.63600,13.44761906
11.63650,16.19436873
11.63700,12.83723024
11.63750,9.785286164
11.63800,12.22684143
11.63850,16.80475754
11.63900,13.75281346
11.63950,2.765814787
11.64000,-6.695211852
11.64050,-8.22118389
11.64100,-4.25365659
11.64150,-0.2861292898
11.64200,2.46062038
11.64250,6.122953272
11.64300,8.259314126
11.64350,5.207370049
11.64400,0.3242595256
11.64450,1.545037156
11.64500,11.0060638
11.64550,21.38267366
11.64600,24.12942333
11.64650,18.63592399
11.64700,11.92164702
11.64750,8.564508534
11.64800,7.343730903
11.64850,7.038536495
11.64900,6.733342087
11.64950,5.817758864
11.65000,3.376203603
11.65050,1.545037156
11.65100,4.291786826
11.65150,9.785286164
11.65200,11.0060638
11.65250,3.986592418
11.65300,-3.338073367
11.65350,-3.948462182
11.65400,0.6294539333
11.65450,3.071009195
11.65500,1.239842749
11.65550,0.3242595256
11.65600,1.850231564
11.65650,3.376203603
11.65700,3.071009195
11.65750,0.934648341
11.65800,-2.727684551
11.65850,-7.610795075
11.65900,-7.915989482
11.65950,-0.8965181052
11.66000,6.122953272
11.66050,5.207370049
11.66100,-1.812101328
11.66150,-4.558850998
11.66200,0.934648341
11.66250,10.39567498
11.66300,19.2463128
11.66350,29.01253385
11.66400,36.03200523
11.66450,34.8112276
11.66500,27.79175622
11.66550,25.35020096
11.66600,27.1813674
11.66650,21.99306247
11.66700,5.512564457
11.66750,-8.831572705
11.66800,-11.27312797
11.66850,-10.05235034
11.66900,-19.51337697
11.66950,-35.68868058
11.67000,-39.04581907
11.67050,-20.73415461
11.67100,5.207370049
11.67150,19.55150721
11.67200,16.49956313
11.67250,3.986592418
11.67300,-7.000406259
11.67350,-16.4614329
11.67400,-23.48090428
11.67450,-21.95493224
11.67500,-8.22118389
11.67550,4.902175641
11.67600,-6.084823036
11.67650,-47.59126248
11.67700,-93.67561805
11.67750,-110.1561161
11.67800,-90.01328515
11.67850,-54.91592827
11.67900,-26.53284835
11.67950,-8.831572705
11.68000,3.68139801
11.68050,12.53203583
11.68100,17.41514636
11.68150,21.99306247
11.68200,28.40214503
11.68250,32.98006115
11.68300,32.06447793
11.68350,29.01253385
11.68400,28.70733944
11.68450,31.1488947
11.68500,30.8437003
11.68550,25.65539536
11.68600,18.63592399
11.68650,10.39567498
11.68700,-1.812101328
11.68750,-20.4289602
11.68800,-40.57179111
11.68850,-52.1691786
11.68900,-50.33801215
11.68950,-39.35101348
11.69000,-28.97440361
11.69050,-23.48090428
11.69100,-20.73415461
11.69150,-17.68221053
11.69200,-15.85104408
11.69250,-14.63026645
11.69300,-8.22118389
11.69350,5.207370049
11.69400,17.41514636
11.69450,17.10995195
11.69500,6.42814768
11.69550,0.01906511792
11.69600,7.954119718
11.69650,23.82422892
11.69700,34.50603319
11.69750,33.89564437
11.69800,26.876173
11.69850,19.55150721
11.69900,16.80475754
11.69950,19.2463128
11.70000,22.9086457
11.70050,21.07747925
11.70100,12.83723024
11.70150,6.733342087
11.70200,9.174897349
11.70250,14.9735911
11.70300,14.66839669
11.70350,8.564508534
11.70400,5.817758864
11.70450,11.61645261
11.70500,21.38267366
11.70550,30.23331148
11.70600,35.42161641
11.70650,33.89564437
11.70700,26.876173
11.70750,21.38267366
11.70800,19.85670162
11.70850,13.14242465
11.70900,-5.779628628
11.70950,-27.44843158
11.71000,-37.51984703
11.71050,-40.87698551
11.71100,-55.83151149
11.71150,-81.46784174
11.71200,-93.06522923
11.71250,-73.83798155
11.71300,-36.2990694
11.71350,-2.422490144
11.71400,19.2463128
11.71450,31.45408911
11.71500,33.59044997
11.71550,25.96058977
11.71600,15.88917432
11.71650,9.785286164
11.71700,6.122953272
11.71750,3.986592418
11.71800,6.122953272
11.71850,6.122953272
11.71900,-9.747155929
11.71950,-42.09776314
11.72000,-68.34448221
11.72050,-67.73409339
11.72100,-46.06529045
11.72150,-23.78609868
11.72200,-9.441961521
11.72250,1.239842749
11.72300,11.3112582
11.72350,15.88917432
11.72400,14.36320228
11.72450,12.22684143
11.72500,11.3112582
11.72550,9.174897349
11.72600,5.512564457
11.72650,4.596981233
11.72700,9.174897349
11.72750,18.9411184
11.72800,31.45408911
11.72850,40.60992134
11.72900,40.30472693
11.72950,30.53850589
11.73000,17.72034076
11.73050,9.480091757
11.73100,7.343730903
11.73150,11.3112582
11.73200,20.77228484
11.73250,29.31772826
11.73300,27.48656181
11.73350,14.66839669
11.73400,2.46062038
11.73450,-0.2861292898
11.73500,1.545037156
11.73550,1.545037156
11.73600,-0.8965181052
11.73650,-1.812101328
11.73700,-2.117295736
11.73750,-6.084823036
11.73800,-13.10429441
11.73850,-20.12376579
11.73900,-27.14323717
11.73950,-35.38348618
11.74000,-40.57179111
11.74050,-38.13023584
11.74100,-28.66920921
11.74150,-17.07182171
11.74200,-6.390017444
11.74250,2.155425972
11.74300,7.343730903
11.74350,10.70086939
11.74400,15.58397991
11.74450,18.33072958
11.74500,11.3112582
11.74550,-2.727684551
11.74600,-9.441961521
11.74650,-2.727684551
11.74700,1.545037156
11.74750,-12.18871119
11.74800,-35.07829177
11.74850,-41.79256874
11.74900,-27.75362598
11.74950,-10.66273915
11.75000,-3.032878959
11.75050,-0.2861292898
11.75100,3.071009195
11.75150,1.239842749
11.75200,-8.831572705
11.75250,-18.59779375
11.75300,-17.98740494
11.75350,-11.27312797
11.75400,-3.948462182
11.75450,5.207370049
11.75500,19.55150721
11.75550,30.8437003
11.75600,32.98006115
11.75650,31.45408911
11.75700,35.116422
11.75750,39.38914371
11.75800,33.28525556
11.75850,18.02553517
11.75900,7.343730903
11.75950,5.512564457
11.76000,3.071009195
11.76050,-7.000406259
11.76100,-18.59779375
11.76150,-21.03934901
11.76200,-14.63026645
11.76250,-5.474434221
11.76300,0.3242595256
11.76350,2.765814787
11.76400,1.850231564
11.76450,1.239842749
11.76500,3.68139801
11.76550,8.564508534
11.76600,12.22684143
11.76650,11.92164702
11.76700,10.09048057
11.76750,9.480091757
11.76800,9.785286164
11.76850,9.785286164
11.76900,8.564508534
11.76950,6.733342087
11.77000,4.902175641
11.77050,4.902175641
11.77100,5.512564457
11.77150,3.376203603
11.77200,-1.506906921
11.77250,-6.084823036
11.77300,-6.695211852
11.77350,-5.169239813
11.77400,-2.422490144
11.77450,4.291786826
11.77500,15.58397991
11.77550,24.43461773
11.77600,25.65539536
11.77650,23.51903451
11.77700,25.04500655
11.77750,27.79175622
11.77800,27.79175622
11.77850,27.79175622
11.77900,30.8437003
11.77950,25.96058977
11.78000,2.155425972
11.78050,-32.3315421
11.78100,-58.27306675
11.78150,-69.56525984
11.78200,-77.80550885
11.78250,-86.35095226
11.78300,-80.85745292
11.78350,-55.22112268
11.78400,-25.92245954
11.78450,-13.10429441
11.78500,-13.71468323
11.78550,-10.66273915
11.78600,0.6294539333
11.78650,10.09048057
11.78700,10.39567498
11.78750,6.733342087
11.78800,6.42814768
11.78850,9.480091757
11.78900,12.83723024
11.78950,15.2787855
11.79000,18.63592399
11.79050,22.60345129
11.79100,25.35020096
11.79150,25.04500655
11.79200,20.77228484
11.79250,14.66839669
11.79300,10.70086939
11.79350,10.39567498
11.79400,11.0060638
11.79450,5.207370049
11.79500,-9.747155929
11.79550,-28.66920921
11.79600,-40.87698551
11.79650,-41.18217992
11.79700,-33.24712532
11.79750,-22.87051546
11.79800,-13.40948882
11.79850,-4.25365659
11.79900,3.376203603
11.79950,7.343730903
11.80000,8.259314126
11.80050,9.174897349
11.80100,11.61645261
11.80150,13.44761906
11.80200,13.75281346
11.80250,13.44761906
11.80300,13.75281346
11.80350,12.22684143
11.80400,7.343730903
11.80450,1.239842749
11.80500,-1.812101328
11.80550,0.01906511792
11.80600,6.122953272
11.80650,14.66839669
11.80700,21.38267366
11.80750,22.9086457
11.80800,19.2463128
11.80850,13.75281346
11.80900,11.61645261
11.80950,14.9735911
11.81000,21.07747925
11.81050,24.12942333
11.81100,22.29825688
11.81150,19.85670162
11.81200,18.9411184
11.81250,16.80475754
11.81300,10.70086939
11.81350,5.512564457
11.81400,8.259314126
11.81450,14.66839669
11.81500,9.174897349
11.81550,-15.85104408
11.81600,-47.59126248
11.81650,-63.46137168
11.81700,-57.05228912
11.81750,-40.87698551
11.81800,-27.14323717
11.81850,-15.54584967
11.81900,-3.643267774
11.81950,2.46062038
11.82000,-5.474434221
11.82050,-25.00687631
11.82100,-41.48737433
11.82150,-43.31854078
11.82200,-33.24712532
11.82250,-20.4289602
11.82300,-9.136767113
11.82350,1.239842749
11.82400,10.70086939
11.82450,18.02553517
11.82500,23.51903451
11.82550,29.01253385
11.82600,32.98006115
11.82650,32.67486674
11.82700,29.31772826
11.82750,27.48656181
11.82800,27.79175622
11.82850,29.31772826
11.82900,32.98006115
11.82950,39.99953253
11.83000,41.22031016
11.83050,23.82422892
11.83100,-9.747155929
11.83150,-38.43543025
11.83200,-41.79256874
11.83250,-25.61726513
11.83300,-8.831572705
11.83350,-0.5913236975
11.83400,2.765814787
11.83450,1.850231564
11.83500,-12.79910001
11.83550,-44.234124
11.83600,-75.9743424
11.83650,-86.65614667
11.83700,-71.39642628
11.83750,-43.92892959
11.83800,-22.56532105
11.83850,-12.79910001
11.83900,-9.136767113
11.83950,-5.169239813
11.84000,0.01906511792
11.84050,3.986592418
11.84100,4.291786826
11.84150,2.765814787
11.84200,1.545037156
11.84250,2.46062038
11.84300,5.207370049
11.84350,7.954119718
11.84400,9.785286164
11.84450,9.785286164
11.84500,10.70086939
11.84550,15.58397991
11.84600,23.82422892
11.84650,31.45408911
11.84700,32.98006115
11.84750,28.09695063
11.84800,22.29825688
11.84850,19.55150721
11.84900,19.55150721
11.84950,18.9411184
11.85000,15.2787855
11.85050,10.09048057
11.85100,3.986592418
11.85150,-0.5913236975
11.85200,-1.506906921
11.85250,3.68139801
11.85300,12.83723024
11.85350,20.46709043
11.85400,23.82422892
11.85450,23.2138401
11.85500,19.85670162
11.85550,14.9735911
11.85600,11.92164702
11.85650,12.83723024
11.85700,13.14242465
11.85750,7.343730903
11.85800,0.01906511792
11.85850,0.01906511792
11.85900,3.986592418
11.85950,-4.558850998
11.86000,-32.02634769
11.86050,-60.40942761
11.86100,-66.81851017
11.86150,-51.86398419
11.86200,-31.11076447
11.86250,-14.63026645
11.86300,-0.5913236975
11.86350,11.92164702
11.86400,20.77228484
11.86450,25.35020096
11.86500,29.31772826
11.86550,32.36967233
11.86600,30.8437003
11.86650,22.9086457
11.86700,11.92164702
11.86750,2.155425972
11.86800,-0.8965181052
11.86850,4.902175641
11.86900,12.22684143
11.86950,3.376203603
11.87000,-26.22765394
11.87050,-56.74709471
11.87100,-62.24059405
11.87150,-42.09776314
11.87200,-18.90298816
11.87250,-7.305600667
11.87300,-2.727684551
11.87350,1.239842749
11.87400,3.376203603
11.87450,0.3242595256
11.87500,-1.812101328
11.87550,1.545037156
11.87600,8.564508534
11.87650,13.75281346
11.87700,17.10995195
11.87750,22.60345129
11.87800,32.06447793
11.87850,41.83069897
11.87900,47.0190039
11.87950,44.27225423
11.88000,33.89564437
11.88050,20.16189603
11.88100,10.09048057
11.88150,7.343730903
11.88200,9.480091757
11.88250,9.785286164
11.88300,-1.201712513
11.88350,-26.22765394
11.88400,-54.30553945
11.88450,-67.12370458
11.88500,-55.22112268
11.88550,-26.53284835
11.88600,0.01906511792
11.88650,13.44761906
11.88700,15.88917432
11.88750,14.05800787
11.88800,12.22684143
11.88850,11.92164702
11.88900,14.05800787
11.88950,17.72034076
11.89000,19.2463128
11.89050,16.49956313
11.89100,9.785286164
11.89150,-2.117295736
11.89200,-20.73415461
11.89250,-39.96140229
11.89300,-44.84451281
11.89350,-27.14323717
11.89400,-0.5913236975
11.89450,12.53203583
11.89500,6.733342087
11.89550,-1.506906921
11.89600,-1.506906921
11.89650,-1.506906921
11.89700,-10.66273915
11.89750,-20.12376579
11.89800,-16.15623849
11.89850,-4.864045405
11.89900,-5.169239813
11.89950,-20.4289602
11.90000,-34.46790295
11.90050,-34.77309736
11.90100,-24.70168191
11.90150,-8.22118389
11.90200,11.92164702
11.90250,23.82422892
11.90300,8.869702941
11.90350,-30.50037565
11.90400,-63.76656609
11.90450,-63.15617728
11.90500,-33.24712532
11.90550,0.934648341
11.90600,22.9086457
11.90650,32.06447793
11.90700,31.75928352
11.90750,25.35020096
11.90800,20.77228484
11.90850,22.60345129
11.90900,25.65539536
11.90950,22.60345129
11.91000,15.2787855
11.91050,11.61645261
11.91100,11.61645261
11.91150,8.564508534
11.91200,-0.2861292898
11.91250,-10.35754474
11.91300,-17.68221053
11.91350,-21.64973783
11.91400,-20.12376579
11.91450,-10.96793356
11.91500,1.239842749
11.91550,8.869702941
11.91600,9.174897349
11.91650,7.038536495
11.91700,6.122953272
11.91750,5.207370049
11.91800,2.765814787
11.91850,2.765814787
11.91900,6.733342087
11.91950,11.61645261
11.92000,12.53203583
11.92050,11.61645261
11.92100,11.61645261
11.92150,12.53203583
11.92200,11.61645261
11.92250,10.09048057
11.92300,10.70086939
11.92350,13.75281346
11.92400,14.66839669
11.92450,11.3112582
11.92500,5.817758864
11.92550,3.376203603
11.92600,3.986592418
11.92650,5.207370049
11.92700,4.902175641
11.92750,3.986592418
11.92800,3.986592418
11.92850,4.596981233
11.92900,4.902175641
11.92950,4.902175641
11.93000,5.512564457
11.93050,7.954119718
11.93100,11.92164702
11.93150,14.9735911
11.93200,15.58397991
11.93250,15.88917432
11.93300,17.10995195
11.93350,16.19436873
11.93400,10.70086939
11.93450,3.986592418
11.93500,4.291786826
11.93550,13.14242465
11.93600,17.41514636
11.93650,2.46062038
11.93700,-27.14323717
11.93750,-49.11723452
11.93800,-45.45490163
11.93850,-23.17570987
11.93900,-5.474434221
11.93950,-6.695211852
11.94000,-20.12376579
11.94050,-28.97440361
11.94100,-25.61726513
11.94150,-13.40948882
11.94200,-1.201712513
11.94250,5.817758864
11.94300,7.64892531
11.94350,7.038536495
11.94400,7.954119718
11.94450,9.174897349
11.94500,7.038536495
11.94550,3.376203603
11.94600,2.46062038
11.94650,3.071009195
11.94700,-5.169239813
11.94750,-27.44843158
11.94800,-48.50684571
11.94850,-48.50684571
11.94900,-24.70168191
11.94950,5.207370049
11.95000,27.1813674
11.95050,38.7787549
11.95100,42.13589338
11.95150,37.55797727
11.95200,28.70733944
11.95250,23.2138401
11.95300,23.51903451
11.95350,22.29825688
11.95400,16.49956313
11.95450,13.75281346
11.95500,17.41514636
11.95550,11.3112582
11.95600,-18.59779375
11.95650,-62.24059405
11.95700,-87.57172989
11.95750,-76.58473122
11.95800,-44.53931841
11.95850,-17.68221053
11.95900,-6.695211852
11.95950,-4.25365659
11.96000,-2.422490144
11.96050,0.3242595256
11.96100,2.46062038
11.96150,4.596981233
11.96200,6.122953272
11.96250,6.122953272
11.96300,6.42814768
11.96350,9.174897349
11.96400,14.9735911
11.96450,19.2463128
11.96500,17.72034076
11.96550,11.3112582
11.96600,5.207370049
11.96650,3.68139801
11.96700,6.122953272
11.96750,9.174897349
11.96800,9.480091757
11.96850,6.733342087
11.96900,1.545037156
11.96950,-3.032878959
11.97000,-5.169239813
11.97050,-3.338073367
11.97100,-0.2861292898
11.97150,-0.8965181052
11.97200,-5.474434221
11.97250,-7.915989482
11.97300,-3.948462182
11.97350,2.155425972
11.97400,3.68139801
11.97450,-0.5913236975
11.97500,-4.558850998
11.97550,-3.643267774
11.97600,0.01906511792
11.97650,3.986592418
11.97700,9.480091757
11.97750,14.66839669
11.97800,15.2787855
11.97850,12.53203583
11.97900,12.83723024
11.97950,15.88917432
11.98000,14.66839669
11.98050,5.512564457
11.98100,-1.812101328
11.98150,-2.117295736
11.98200,-0.8965181052
11.98250,-4.558850998
11.98300,-4.864045405
11.98350,4.596981233
11.98400,10.09048057
11.98450,-5.779628628
11.98500,-36.60426381
11.98550,-53.08476182
11.98600,-43.62373518
11.98650,-24.70168191
11.98700,-15.24065527
11.98750,-11.57832237
11.98800,-4.558850998
11.98850,2.765814787
11.98900,2.155425972
11.98950,-2.727684551
11.99000,-1.812101328
11.99050,5.207370049
11.99100,11.3112582
11.99150,12.53203583
11.99200,13.14242465
11.99250,15.88917432
11.99300,18.63592399
11.99350,17.72034076
11.99400,13.75281346
11.99450,8.259314126
11.99500,2.765814787
11.99550,-1.201712513
11.99600,-3.643267774
11.99650,-5.779628628
11.99700,-10.35754474
11.99750,-19.20818257
11.99800,-29.58479243
11.99850,-37.21465262
11.99900,-36.60426381
11.99950,-28.97440361
12.00000,-20.73415461
12.00050,-17.68221053
12.00100,-19.20818257
12.00150,-20.12376579
12.00200,-17.07182171
12.00250,-11.27312797
12.00300,-7.000406259
12.00350,-6.084823036
12.00400,-7.000406259
12.00450,-6.390017444
12.00500,-0.8965181052
12.00550,6.733342087
12.00600,13.14242465
12.00650,15.2787855
12.00700,13.44761906
12.00750,9.480091757
12.00800,6.42814768
12.00850,7.038536495
12.00900,9.480091757
12.00950,10.09048057
12.01000,7.954119718
12.01050,7.64892531
12.01100,11.3112582
12.01150,14.66839669
12.01200,15.88917432
12.01250,18.63592399
12.01300,25.35020096
12.01350,29.92811707
12.01400,27.79175622
12.01450,25.35020096
12.01500,28.70733944
12.01550,30.53850589
12.01600,22.9086457
12.01650,16.49956313
12.01700,24.73981214
12.01750,35.42161641
12.01800,22.60345129
12.01850,-14.63026645
12.01900,-46.67567926
12.01950,-53.69515064
12.02000,-50.03281775
12.02050,-54.00034505
12.02100,-58.57826116
12.02150,-46.67567926
12.02200,-22.87051546
12.02250,-6.084823036
12.02300,-1.812101328
12.02350,0.6294539333
12.02400,7.343730903
12.02450,11.92164702
12.02500,10.09048057
12.02550,6.733342087
12.02600,6.733342087
12.02650,10.09048057
12.02700,11.92164702
12.02750,11.61645261
12.02800,11.3112582
12.02850,15.88917432
12.02900,25.65539536
12.02950,34.50603319
12.03000,33.28525556
12.03050,21.99306247
12.03100,10.39567498
12.03150,7.038536495
12.03200,10.70086939
12.03250,14.05800787
12.03300,15.88917432
12.03350,20.77228484
12.03400,29.01253385
12.03450,31.75928352
12.03500,19.85670162
12.03550,-4.25365659
12.03600,-26.83804276
12.03650,-33.85751414
12.03700,-24.09129309
12.03750,-8.22118389
12.03800,4.291786826
12.03850,11.92164702
12.03900,14.9735911
12.03950,14.36320228
12.04000,9.480091757
12.04050,1.239842749
12.04100,-8.22118389
12.04150,-18.29259934
12.04200,-23.48090428
12.04250,-22.87051546
12.04300,-22.56532105
12.04350,-30.80557006
12.04400,-44.234124
12.04450,-49.72762334
12.04500,-40.87698551
12.04550,-25.61726513
12.04600,-14.32507204
12.04650,-7.305600667
12.04700,-0.8965181052
12.04750,3.376203603
12.04800,4.902175641
12.04850,6.42814768
12.04900,12.53203583
12.04950,21.38267366
12.05000,28.40214503
12.05050,30.8437003
12.05100,26.57097859
12.05150,11.61645261
12.05200,-10.96793356
12.05250,-29.88998684
12.05300,-34.46790295
12.05350,-25.31207072
12.05400,-14.01987764
12.05450,-7.305600667
12.05500,-5.169239813
12.05550,-3.032878959
12.05600,0.01906511792
12.05650,5.207370049
12.05700,12.53203583
12.05750,20.46709043
12.05800,25.65539536
12.05850,23.2138401
12.05900,13.14242465
12.05950,0.934648341
12.06000,-6.084823036
12.06050,-4.864045405
12.06100,1.545037156
12.06150,7.954119718
12.06200,10.70086939
12.06250,10.70086939
12.06300,10.09048057
12.06350,12.22684143
12.06400,16.49956313
12.06450,18.9411184
12.06500,16.80475754
12.06550,13.14242465
12.06600,14.05800787
12.06650,17.72034076
12.06700,17.10995195
12.06750,8.564508534
12.06800,0.01906511792
12.06850,-2.727684551
12.06900,-3.338073367
12.06950,-10.66273915
12.07000,-24.70168191
12.07050,-35.99387499
12.07100,-36.2990694
12.07150,-26.53284835
12.07200,-13.10429441
12.07250,-2.727684551
12.07300,2.155425972
12.07350,3.071009195
12.07400,2.46062038
12.07450,1.850231564
12.07500,2.46062038
12.07550,4.291786826
12.07600,6.733342087
12.07650,7.343730903
12.07700,3.986592418
12.07750,-0.5913236975
12.07800,-4.558850998
12.07850,-6.390017444
12.07900,-6.695211852
12.07950,-4.25365659
12.08000,-0.5913236975
12.08050,0.6294539333
12.08100,0.01906511792
12.08150,0.3242595256
12.08200,3.68139801
12.08250,4.596981233
12.08300,0.01906511792
12.08350,-2.727684551
12.08400,4.291786826
12.08450,17.41514636
12.08500,26.876173
12.08550,29.62292266
12.08600,29.01253385
12.08650,25.96058977
12.08700,20.77228484
12.08750,19.55150721
12.08800,24.12942333
12.08850,26.57097859
12.08900,21.38267366
12.08950,18.02553517
12.09000,21.07747925
12.09050,13.14242465
12.09100,-25.61726513
12.09150,-81.77303615
12.09200,-116.2600042
12.09250,-110.1561161
12.09300,-81.46784174
12.09350,-54.00034505
12.09400,-33.55231973
12.09450,-17.37701612
12.09500,-8.526378298
12.09550,-7.305600667
12.09600,-6.084823036
12.09650,-0.8965181052
12.09700,1.545037156
12.09750,-2.422490144
12.09800,-6.390017444
12.09850,-4.558850998
12.09900,-0.2861292898
12.09950,2.765814787
12.10000,7.954119718
12.10050,16.49956313
12.10100,22.9086457
12.10150,24.12942333
12.10200,25.35020096
12.10250,29.62292266
12.10300,30.53850589
12.10350,23.82422892
12.10400,16.49956313
12.10450,13.75281346
12.10500,9.480091757
12.10550,-1.812101328
12.10600,-12.79910001
12.10650,-10.66273915
12.10700,2.46062038
12.10750,12.83723024
12.10800,14.05800787
12.10850,11.92164702
12.10900,13.44761906
12.10950,16.19436873
12.11000,16.19436873
12.11050,14.66839669
12.11100,14.36320228
12.11150,13.75281346
12.11200,10.70086939
12.11250,6.122953272
12.11300,3.071009195
12.11350,1.545037156
12.11400,2.155425972
12.11450,4.291786826
12.11500,5.207370049
12.11550,2.46062038
12.11600,-1.812101328
12.11650,-2.422490144
12.11700,1.239842749
12.11750,3.68139801
12.11800,0.934648341
12.11850,0.01906511792
12.11900,6.733342087
12.11950,14.66839669
12.12000,14.66839669
12.12050,7.64892531
12.12100,2.765814787
12.12150,2.765814787
12.12200,4.291786826
12.12250,6.42814768
12.12300,12.53203583
12.12350,19.85670162
12.12400,18.63592399
12.12450,8.259314126
12.12500,-0.8965181052
12.12550,-1.506906921
12.12600,4.291786826
12.12650,13.14242465
12.12700,21.07747925
12.12750,20.16189603
12.12800,1.545037156
12.12850,-28.97440361
12.12900,-50.64320656
12.12950,-48.81204011
12.13000,-32.02634769
12.13050,-16.76662731
12.13100,-9.441961521
12.13150,-5.169239813
12.13200,-1.201712513
12.13250,0.01906511792
12.13300,-1.812101328
12.13350,-5.169239813
12.13400,-7.305600667
12.13450,-4.864045405
12.13500,3.071009195
12.13550,8.869702941
12.13600,-0.5913236975
12.13650,-28.97440361
12.13700,-57.35748353
12.13750,-64.68214931
12.13800,-49.72762334
12.13850,-28.97440361
12.13900,-14.01987764
12.13950,-4.864045405
12.14000,1.545037156
12.14050,3.986592418
12.14100,1.239842749
12.14150,-3.948462182
12.14200,-7.610795075
12.14250,-9.136767113
12.14300,-9.441961521
12.14350,-8.22118389
12.14400,-4.558850998
12.14450,-1.812101328
12.14500,-1.812101328
12.14550,-3.032878959
12.14600,-1.201712513
12.14650,5.512564457
12.14700,13.75281346
12.14750,18.9411184
12.14800,19.85670162
12.14850,19.55150721
12.14900,18.9411184
12.14950,16.49956313
12.15000,10.70086939
12.15050,3.071009195
12.15100,-1.201712513
12.15150,-1.201712513
12.15200,0.3242595256
12.15250,0.934648341
12.15300,-0.5913236975
12.15350,-1.506906921
12.15400,1.239842749
12.15450,6.122953272
12.15500,8.564508534
12.15550,6.733342087
12.15600,4.291786826
12.15650,3.986592418
12.15700,5.512564457
12.15750,4.902175641
12.15800,1.850231564
12.15850,-1.506906921
12.15900,-3.643267774
12.15950,-5.169239813
12.16000,-6.390017444
12.16050,-5.779628628
12.16100,-3.032878959
12.16150,-0.2861292898
12.16200,-0.5913236975
12.16250,-3.338073367
12.16300,-5.779628628
12.16350,-5.169239813
12.16400,-1.201712513
12.16450,5.207370049
12.16500,13.14242465
12.16550,21.38267366
12.16600,28.70733944
12.16650,32.36967233
12.16700,29.62292266
12.16750,21.99306247
12.16800,14.05800787
12.16850,10.70086939
12.16900,13.75281346
12.16950,19.2463128
12.17000,21.38267366
12.17050,16.19436873
12.17100,7.038536495
12.17150,-0.5913236975
12.17200,-3.032878959
12.17250,-2.422490144
12.17300,-2.117295736
12.17350,-2.422490144
12.17400,-2.727684551
12.17450,-3.643267774
12.17500,-6.695211852
12.17550,-12.79910001
12.17600,-19.81857138
12.17650,-25.31207072
12.17700,-25.92245954
12.17750,-19.81857138
12.17800,-8.831572705
12.17850,1.239842749
12.17900,11.0060638
12.17950,22.60345129
12.18000,32.67486674
12.18050,27.1813674
12.18100,-0.5913236975
12.18150,-36.60426381
12.18200,-55.22112268
12.18250,-46.67567926
12.18300,-24.09129309
12.18350,-6.390017444
12.18400,0.01906511792
12.18450,-1.812101328
12.18500,-9.747155929
12.18550,-22.26012664
12.18600,-33.55231973
12.18650,-37.21465262
12.18700,-32.94193091
12.18750,-24.09129309
12.18800,-13.71468323
12.18850,-2.422490144
12.18900,6.122953272
12.18950,9.785286164
12.19000,7.343730903
12.19050,3.376203603
12.19100,0.934648341
12.19150,0.934648341
12.19200,2.46062038
12.19250,4.291786826
12.19300,6.122953272
12.19350,6.122953272
12.19400,3.376203603
12.19450,-1.201712513
12.19500,-5.474434221
12.19550,-6.084823036
12.19600,-3.643267774
12.19650,0.01906511792
12.19700,3.68139801
12.19750,8.869702941
12.19800,16.80475754
12.19850,25.96058977
12.19900,34.20083878
12.19950,42.44108779
12.20000,51.29172561
12.20050,58.31119699
12.20100,59.53197462
12.20150,55.86964173
12.20200,51.90211443
12.20250,48.85017035
12.20300,41.22031016
12.20350,22.29825688
12.20400,-7.305600667
12.20450,-39.65620788
12.20500,-63.46137168
12.20550,-73.22759273
12.20600,-71.39642628
12.20650,-63.76656609
12.20700,-52.77956741
12.20750,-37.51984703
12.20800,-20.4289602
12.20850,-10.96793356
12.20900,-17.37701612
12.20950,-35.07829177
12.21000,-47.89645689
12.21050,-45.76009604
12.21100,-32.3315421
12.21150,-19.81857138
12.21200,-11.88351678
12.21250,-4.25365659
12.21300,4.596981233
12.21350,9.480091757
12.21400,7.343730903
12.21450,3.986592418
12.21500,5.817758864
12.21550,11.3112582
12.21600,13.75281346
12.21650,13.75281346
12.21700,18.9411184
12.21750,32.36967233
12.21800,45.79822627
12.21850,51.29172561
12.21900,47.93458713
12.21950,41.52550457
12.22000,34.20083878
12.22050,24.43461773
12.22100,12.83723024
12.22150,4.902175641
12.22200,5.512564457
12.22250,14.05800787
12.22300,20.77228484
12.22350,10.70086939
12.22400,-19.81857138
12.22450,-55.22112268
12.22500,-70.17564865
12.22550,-56.74709471
12.22600,-28.97440361
12.22650,-6.695211852
12.22700,6.42814768
12.22750,16.49956313
12.22800,25.65539536
12.22850,29.31772826
12.22900,27.1813674
12.22950,21.99306247
12.23000,13.44761906
12.23050,0.01906511792
12.23100,-14.63026645
12.23150,-21.95493224
12.23200,-19.20818257
12.23250,-11.57832237
12.23300,-4.864045405
12.23350,-0.8965181052
12.23400,0.3242595256
12.23450,0.934648341
12.23500,4.291786826
12.23550,11.0060638
12.23600,14.9735911
12.23650,12.22684143
12.23700,7.343730903
12.23750,9.480091757
12.23800,18.33072958
12.23850,25.65539536
12.23900,27.79175622
12.23950,28.40214503
12.24000,29.31772826
12.24050,27.1813674
12.24100,19.55150721
12.24150,11.3112582
12.24200,7.954119718
12.24250,8.259314126
12.24300,7.64892531
12.24350,3.376203603
12.24400,-2.422490144
12.24450,-7.000406259
12.24500,-7.610795075
12.24550,-5.779628628
12.24600,-6.390017444
12.24650,-10.96793356
12.24700,-14.63026645
12.24750,-11.27312797
12.24800,-2.422490144
12.24850,3.68139801
12.24900,4.596981233
12.24950,4.291786826
12.25000,5.512564457
12.25050,5.207370049
12.25100,1.239842749
12.25150,-0.2861292898
12.25200,3.986592418
12.25250,9.480091757
12.25300,7.343730903
12.25350,-1.506906921
12.25400,-8.831572705
12.25450,-8.526378298
12.25500,-4.25365659
12.25550,-0.5913236975
12.25600,0.934648341
12.25650,1.545037156
12.25700,-1.506906921
12.25750,-7.610795075
12.25800,-12.18871119
12.25850,-9.441961521
12.25900,-0.8965181052
12.25950,8.869702941
12.26000,17.72034076
12.26050,23.82422892
12.26100,25.96058977
12.26150,23.2138401
12.26200,18.02553517
12.26250,13.44761906
12.26300,11.61645261
12.26350,11.92164702
12.26400,11.92164702
12.26450,12.53203583
12.26500,14.66839669
12.26550,13.14242465
12.26600,-3.948462182
12.26650,-39.35101348
12.26700,-76.88992562
12.26750,-92.76003482
12.26800,-78.41589766
12.26850,-49.11723452
12.26900,-24.3964875
12.26950,-11.57832237
12.27000,-6.390017444
12.27050,-6.084823036
12.27100,-9.136767113
12.27150,-12.79910001
12.27200,-12.18871119
12.27250,-7.000406259
12.27300,-2.117295736
12.27350,-0.2861292898
12.27400,-0.8965181052
12.27450,-2.422490144
12.27500,-3.948462182
12.27550,-5.169239813
12.27600,-4.864045405
12.27650,-4.25365659
12.27700,-5.169239813
12.27750,-7.915989482
12.27800,-10.05235034
12.27850,-10.35754474
12.27900,-10.05235034
12.27950,-9.747155929
12.28000,-8.831572705
12.28050,-6.390017444
12.28100,-3.948462182
12.28150,-2.117295736
12.28200,0.3242595256
12.28250,6.42814768
12.28300,13.44761906
12.28350,13.75281346
12.28400,4.902175641
12.28450,-5.779628628
12.28500,-8.22118389
12.28550,-0.8965181052
12.28600,8.259314126
12.28650,13.14242465
12.28700,14.66839669
12.28750,16.19436873
12.28800,17.41514636
12.28850,17.41514636
12.28900,18.02553517
12.28950,20.77228484
12.29000,21.99306247
12.29050,16.80475754
12.29100,7.64892531
12.29150,1.239842749
12.29200,0.6294539333
12.29250,1.850231564
12.29300,-0.5913236975
12.29350,-10.05235034
12.29400,-23.48090428
12.29450,-31.72115328
12.29500,-24.09129309
12.29550,-1.812101328
12.29600,18.02553517
12.29650,19.2463128
12.29700,5.817758864
12.29750,-1.201712513
12.29800,4.291786826
12.29850,4.902175641
12.29900,-19.20818257
12.29950,-58.27306675
12.30000,-79.9418697
12.30050,-69.26006543
12.30100,-41.18217992
12.30150,-18.90298816
12.30200,-6.084823036
12.30250,5.512564457
12.30300,16.49956313
12.30350,19.2463128
12.30400,14.36320228
12.30450,12.22684143
12.30500,15.2787855
12.30550,17.41514636
12.30600,16.80475754
12.30650,18.63592399
12.30700,22.60345129
12.30750,17.10995195
12.30800,-2.422490144
12.30850,-25.00687631
12.30900,-35.07829177
12.30950,-32.63673651
12.31000,-27.14323717
12.31050,-21.34454342
12.31100,-11.88351678
12.31150,-1.812101328
12.31200,4.291786826
12.31250,8.564508534
12.31300,16.80475754
12.31350,25.96058977
12.31400,28.09695063
12.31450,21.99306247
12.31500,14.66839669
12.31550,8.869702941
12.31600,0.3242595256
12.31650,-10.66273915
12.31700,-17.37701612
12.31750,-14.01987764
12.31800,-4.558850998
12.31850,4.291786826
12.31900,12.22684143
12.31950,19.2463128
12.32000,24.43461773
12.32050,26.57097859
12.32100,26.57097859
12.32150,25.04500655
12.32200,21.07747925
12.32250,15.2787855
12.32300,12.22684143
12.32350,13.14242465
12.32400,12.83723024
12.32450,6.122953272
12.32500,-3.643267774
12.32550,-9.441961521
12.32600,-5.779628628
12.32650,3.376203603
12.32700,12.22684143
12.32750,15.2787855
12.32800,11.61645261
12.32850,6.42814768
12.32900,5.817758864
12.32950,10.70086939
12.33000,15.2787855
12.33050,14.36320228
12.33100,10.39567498
12.33150,9.174897349
12.33200,11.92164702
12.33250,11.92164702
12.33300,3.986592418
12.33350,-9.136767113
12.33400,-21.34454342
12.33450,-25.92245954
12.33500,-22.26012664
12.33550,-12.18871119
12.33600,0.3242595256
12.33650,11.61645261
12.33700,19.85670162
12.33750,24.43461773
12.33800,27.79175622
12.33850,32.36967233
12.33900,38.16836608
12.33950,43.0514766
12.34000,45.18783746
12.34050,45.79822627
12.34100,45.49303187
12.34150,43.0514766
12.34200,36.64239404
12.34250,27.48656181
12.34300,14.36320228
12.34350,-7.915989482
12.34400,-42.70815196
12.34450,-78.72109207
12.34500,-100.0847006
12.34550,-103.7470335
12.34600,-100.0847006
12.34650,-95.50678449
12.34700,-83.29900818
12.34750,-59.79903879
12.34800,-36.60426381
12.34850,-29.27959802
12.34900,-35.38348618
12.34950,-38.74062466
12.35000,-28.66920921
12.35050,-12.18871119
12.35100,-0.8965181052
12.35150,2.155425972
12.35200,2.46062038
12.35250,4.291786826
12.35300,8.869702941
12.35350,14.36320228
12.35400,19.2463128
12.35450,22.29825688
12.35500,25.04500655
12.35550,28.09695063
12.35600,29.92811707
12.35650,27.79175622
12.35700,24.43461773
12.35750,24.12942333
12.35800,25.35020096
12.35850,24.73981214
12.35900,25.96058977
12.35950,35.116422
12.36000,48.54497594
12.36050,47.62939272
12.36100,18.02553517
12.36150,-27.44843158
12.36200,-58.88345557
12.36250,-57.05228912
12.36300,-32.3315421
12.36350,-6.084823036
12.36400,9.174897349
12.36450,15.88917432
12.36500,17.41514636
12.36550,14.9735911
12.36600,11.0060638
12.36650,10.39567498
12.36700,13.75281346
12.36750,14.66839669
12.36800,8.869702941
12.36850,-0.2861292898
12.36900,-7.305600667
12.36950,-9.136767113
12.37000,-7.915989482
12.37050,-4.864045405
12.37100,-0.8965181052
12.37150,1.850231564
12.37200,2.46062038
12.37250,1.545037156
12.37300,2.155425972
12.37350,4.291786826
12.37400,6.733342087
12.37450,6.733342087
12.37500,5.817758864
12.37550,6.733342087
12.37600,10.39567498
12.37650,14.66839669
12.37700,15.58397991
12.37750,11.3112582
12.37800,3.68139801
12.37850,-1.506906921
12.37900,-1.812101328
12.37950,1.545037156
12.38000,3.376203603
12.38050,1.545037156
12.38100,-0.5913236975
12.38150,1.239842749
12.38200,6.42814768
12.38250,8.869702941
12.38300,6.42814768
12.38350,3.986592418
12.38400,5.817758864
12.38450,11.0060638
12.38500,13.75281346
12.38550,14.05800787
12.38600,13.44761906
12.38650,13.44761906
12.38700,11.92164702
12.38750,9.174897349
12.38800,6.42814768
12.38850,4.596981233
12.38900,2.155425972
12.38950,-1.506906921
12.39000,-6.390017444
12.39050,-11.27312797
12.39100,-15.85104408
12.39150,-17.98740494
12.39200,-16.76662731
12.39250,-14.32507204
12.39300,-13.40948882
12.39350,-15.24065527
12.39400,-16.76662731
12.39450,-16.15623849
12.39500,-13.10429441
12.39550,-8.831572705
12.39600,-3.948462182
12.39650,-1.201712513
12.39700,-3.338073367
12.39750,-9.136767113
12.39800,-14.93546086
12.39850,-17.68221053
12.39900,-19.20818257
12.39950,-20.12376579
12.40000,-17.37701612
12.40050,-8.22118389
12.40100,2.155425972
12.40150,8.259314126
12.40200,11.3112582
12.40250,15.58397991
12.40300,19.2463128
12.40350,20.77228484
12.40400,25.96058977
12.40450,39.38914371
12.40500,47.62939272
12.40550,29.01253385
12.40600,-14.93546086
12.40650,-52.77956741
12.40700,-58.27306675
12.40750,-39.04581907
12.40800,-20.73415461
12.40850,-12.79910001
12.40900,-7.610795075
12.40950,-0.8965181052
12.41000,3.68139801
12.41050,8.259314126
12.41100,18.33072958
12.41150,31.75928352
12.41200,39.99953253
12.41250,39.99953253
12.41300,40.30472693
12.41350,46.7138095
12.41400,57.09041936
12.41450,61.66833547
12.41500,51.90211443
12.41550,24.73981214
12.41600,-10.05235034
12.41650,-34.77309736
12.41700,-39.35101348
12.41750,-32.63673651
12.41800,-29.58479243
12.41850,-33.55231973
12.41900,-36.90945821
12.41950,-35.38348618
12.42000,-32.3315421
12.42050,-30.50037565
12.42100,-32.3315421
12.42150,-38.74062466
12.42200,-46.67567926
12.42250,-47.89645689
12.42300,-38.13023584
12.42350,-24.3964875
12.42400,-15.24065527
12.42450,-10.66273915
12.42500,-5.779628628
12.42550,-1.201712513
12.42600,0.6294539333
12.42650,3.68139801
12.42700,8.869702941
12.42750,8.564508534
12.42800,-4.558850998
12.42850,-24.09129309
12.42900,-36.60426381
12.42950,-37.51984703
12.43000,-32.3315421
12.43050,-25.00687631
12.43100,-15.54584967
12.43150,-6.084823036
12.43200,-0.8965181052
12.43250,0.01906511792
12.43300,1.239842749
12.43350,1.545037156
12.43400,-0.8965181052
12.43450,-2.117295736
12.43500,2.46062038
12.43550,11.0060638
12.43600,14.9735911
12.43650,13.44761906
12.43700,12.53203583
12.43750,13.75281346
12.43800,12.22684143
12.43850,6.122953272
12.43900,1.545037156
12.43950,4.291786826
12.44000,11.61645261
12.44050,18.33072958
12.44100,24.73981214
12.44150,32.36967233
12.44200,38.47356049
12.44250,38.47356049
12.44300,36.03200523
12.44350,37.25278286
12.44400,42.13589338
12.44450,43.96705983
12.44500,41.83069897
12.44550,38.47356049
12.44600,34.20083878
12.44650,26.876173
12.44700,19.85670162
12.44750,18.63592399
12.44800,16.80475754
12.44850,1.850231564
12.44900,-25.00687631
12.44950,-45.76009604
12.45000,-49.72762334
12.45050,-48.2016513
12.45100,-55.83151149
12.45150,-64.98734372
12.45200,-59.18864998
12.45250,-39.96140229
12.45300,-24.3964875
12.45350,-19.51337697
12.45400,-15.85104408
12.45450,-7.305600667
12.45500,-0.8965181052
12.45550,-2.117295736
12.45600,-5.779628628
12.45650,-3.643267774
12.45700,0.934648341
12.45750,2.155425972
12.45800,0.01906511792
12.45850,0.01906511792
12.45900,4.902175641
12.45950,11.61645261
12.46000,16.49956313
12.46050,16.19436873
12.46100,11.92164702
12.46150,6.42814768
12.46200,4.596981233
12.46250,7.64892531
12.46300,11.3112582
12.46350,10.70086939
12.46400,6.733342087
12.46450,4.291786826
12.46500,5.512564457
12.46550,8.259314126
12.46600,9.174897349
12.46650,9.174897349
12.46700,12.53203583
12.46750,19.2463128
12.46800,23.51903451
12.46850,21.07747925
12.46900,14.66839669
12.46950,9.785286164
12.47000,7.343730903
12.47050,4.902175641
12.47100,0.3242595256
12.47150,-6.390017444
12.47200,-13.10429441
12.47250,-17.07182171
12.47300,-14.01987764
12.47350,-3.643267774
12.47400,7.343730903
12.47450,11.3112582
12.47500,7.64892531
12.47550,3.68139801
12.47600,5.512564457
12.47650,10.09048057
12.47700,11.0060638
12.47750,9.174897349
12.47800,9.174897349
12.47850,14.36320228
12.47900,22.29825688
12.47950,33.59044997
12.48000,50.07094798
12.48050,65.63586277
12.48100,64.72027955
12.48150,39.99953253
12.48200,8.869702941
12.48250,-3.643267774
12.48300,4.291786826
12.48350,16.19436873
12.48400,22.60345129
12.48450,30.23331148
12.48500,33.89564437
12.48550,5.207370049
12.48600,-68.95487102
12.48650,-155.3248884
12.48700,-196.8313278
12.48750,-174.8573305
12.48800,-122.058698
12.48850,-75.9743424
12.48900,-46.67567926
12.48950,-25.31207072
12.49000,-10.35754474
12.49050,-4.25365659
12.49100,-0.8965181052
12.49150,6.42814768
12.49200,14.66839669
12.49250,14.05800787
12.49300,5.512564457
12.49350,-1.506906921
12.49400,-2.727684551
12.49450,-1.201712513
12.49500,-0.5913236975
12.49550,0.01906511792
12.49600,3.376203603
12.49650,7.343730903
12.49700,11.0060638
12.49750,15.58397991
12.49800,21.38267366
12.49850,27.1813674
12.49900,32.36967233
12.49950,37.25278286
12.50000,40.91511575
12.50050,41.83069897
12.50100,40.30472693
12.50150,39.0839493
12.50200,37.55797727
12.50250,32.06447793
12.50300,21.68786806
12.50350,11.61645261
12.50400,6.733342087
12.50450,5.512564457
12.50500,1.545037156
12.50550,-8.831572705
12.50600,-22.26012664
12.50650,-29.58479243
12.50700,-23.17570987
12.50750,-5.779628628
12.50800,10.70086939
12.50850,18.33072958
12.50900,19.55150721
12.50950,24.12942333
12.51000,34.20083878
12.51050,39.0839493
12.51100,30.53850589
12.51150,12.22684143
12.51200,-6.390017444
12.51250,-24.09129309
12.51300,-42.09776314
12.51350,-55.22112268
12.51400,-54.30553945
12.51450,-40.57179111
12.51500,-25.00687631
12.51550,-16.76662731
12.51600,-14.63026645
12.51650,-13.10429441
12.51700,-10.96793356
12.51750,-9.136767113
12.51800,-5.474434221
12.51850,1.850231564
12.51900,11.61645261
12.51950,18.63592399
12.52000,21.99306247
12.52050,23.82422892
12.52100,25.04500655
12.52150,24.12942333
12.52200,21.07747925
12.52250,19.55150721
12.52300,21.38267366
12.52350,24.73981214
12.52400,25.96058977
12.52450,23.82422892
12.52500,20.46709043
12.52550,17.10995195
12.52600,13.44761906
12.52650,8.259314126
12.52700,3.68139801
12.52750,1.239842749
12.52800,0.3242595256
12.52850,-0.5913236975
12.52900,-1.506906921
12.52950,0.01906511792
12.53000,3.376203603
12.53050,4.596981233
12.53100,0.934648341
12.53150,-3.643267774
12.53200,-4.558850998
12.53250,-0.5913236975
12.53300,2.46062038
12.53350,2.46062038
12.53400,1.850231564
12.53450,4.596981233
12.53500,9.785286164
12.53550,13.75281346
12.53600,15.88917432
12.53650,17.10995195
12.53700,18.9411184
12.53750,19.55150721
12.53800,18.33072958
12.53850,14.66839669
12.53900,9.785286164
12.53950,5.207370049
12.54000,2.46062038
12.54050,-0.5913236975
12.54100,-9.441961521
12.54150,-22.26012664
12.54200,-32.63673651
12.54250,-34.46790295
12.54300,-31.11076447
12.54350,-30.19518124
12.54400,-35.38348618
12.54450,-43.62373518
12.54500,-48.50684571
12.54550,-44.53931841
12.54600,-30.80557006
12.54650,-14.01987764
12.54700,-1.201712513
12.54750,9.480091757
12.54800,23.51903451
12.54850,33.89564437
12.54900,22.60345129
12.54950,-10.35754474
12.55000,-39.35101348
12.55050,-39.96140229
12.55100,-20.12376579
12.55150,-4.864045405
12.55200,-1.506906921
12.55250,1.850231564
12.55300,11.61645261
12.55350,18.9411184
12.55400,18.9411184
12.55450,16.80475754
12.55500,16.19436873
12.55550,13.14242465
12.55600,10.39567498
12.55650,14.36320228
12.55700,20.16189603
12.55750,13.75281346
12.55800,-7.305600667
12.55850,-29.88998684
12.55900,-44.84451281
12.55950,-57.96787235
12.56000,-71.09123188
12.56050,-70.48084306
12.56100,-48.50684571
12.56150,-17.98740494
12.56200,1.545037156
12.56250,9.480091757
12.56300,15.88917432
12.56350,21.68786806
12.56400,20.16189603
12.56450,13.14242465
12.56500,8.869702941
12.56550,8.564508534
12.56600,5.512564457
12.56650,-0.2861292898
12.56700,-3.032878959
12.56750,-0.5913236975
12.56800,-0.2861292898
12.56850,-5.474434221
12.56900,-8.831572705
12.56950,-5.169239813
12.57000,1.850231564
12.57050,8.259314126
12.57100,14.05800787
12.57150,20.77228484
12.57200,24.43461773
12.57250,23.2138401
12.57300,21.07747925
12.57350,20.16189603
12.57400,15.88917432
12.57450,6.733342087
12.57500,1.239842749
12.57550,7.038536495
12.57600,17.72034076
12.57650,17.72034076
12.57700,3.376203603
12.57750,-13.10429441
12.57800,-21.34454342
12.57850,-21.64973783
12.57900,-18.90298816
12.57950,-14.01987764
12.58000,-7.000406259
12.58050,-1.812101328
12.58100,-1.812101328
12.58150,-5.474434221
12.58200,-7.610795075
12.58250,-6.695211852
12.58300,-3.948462182
12.58350,0.6294539333
12.58400,5.512564457
12.58450,6.733342087
12.58500,2.765814787
12.58550,0.3242595256
12.58600,6.42814768
12.58650,20.46709043
12.58700,35.72681082
12.58750,46.10342068
12.58800,50.07094798
12.58850,47.62939272
12.58900,40.91511575
12.58950,34.20083878
12.59000,28.70733944
12.59050,21.68786806
12.59100,15.2787855
12.59150,15.88917432
12.59200,20.77228484
12.59250,13.14242465
12.59300,-18.59779375
12.59350,-61.32501083
12.59400,-88.79250752
12.59450,-90.31847956
12.59500,-79.63667529
12.59550,-69.26006543
12.59600,-56.74709471
12.59650,-37.21465262
12.59700,-18.59779375
12.59750,-11.57832237
12.59800,-13.40948882
12.59850,-14.32507204
12.59900,-10.66273915
12.59950,-6.390017444
12.60000,-2.117295736
12.60050,6.42814768
12.60100,21.99306247
12.60150,39.38914371
12.60200,49.46055917
12.60250,45.79822627
12.60300,32.06447793
12.60350,18.33072958
12.60400,13.44761906
12.60450,17.10995195
12.60500,25.65539536
12.60550,36.33719963
12.60600,43.66186542
12.60650,37.25278286
12.60700,11.92164702
12.60750,-19.20818257
12.60800,-34.77309736
12.60850,-27.44843158
12.60900,-10.05235034
12.60950,4.596981233
12.61000,17.10995195
12.61050,27.48656181
12.61100,24.73981214
12.61150,0.934648341
12.61200,-29.88998684
12.61250,-44.234124
12.61300,-32.63673651
12.61350,-12.18871119
12.61400,-7.305600667
12.61450,-27.14323717
12.61500,-59.49384438
12.61550,-82.07823055
12.61600,-80.24706411
12.61650,-56.74709471
12.61700,-27.44843158
12.61750,-6.084823036
12.61800,4.291786826
12.61850,9.480091757
12.61900,12.83723024
12.61950,12.53203583
12.62000,8.259314126
12.62050,3.071009195
12.62100,2.155425972
12.62150,5.207370049
12.62200,8.564508534
12.62250,9.785286164
12.62300,11.0060638
12.62350,12.83723024
12.62400,13.14242465
12.62450,11.0060638
12.62500,11.0060638
12.62550,16.19436873
12.62600,23.82422892
12.62650,27.1813674
12.62700,23.82422892
12.62750,18.02553517
12.62800,13.44761906
12.62850,11.3112582
12.62900,10.70086939
12.62950,11.0060638
12.63000,8.259314126
12.63050,-0.2861292898
12.63100,-13.40948882
12.63150,-22.87051546
12.63200,-24.09129309
12.63250,-17.68221053
12.63300,-7.610795075
12.63350,2.46062038
12.63400,10.39567498
12.63450,13.14242465
12.63500,12.22684143
12.63550,11.0060638
12.63600,11.61645261
12.63650,12.22684143
12.63700,13.44761906
12.63750,16.80475754
12.63800,20.46709043
12.63850,18.33072958
12.63900,9.785286164
12.63950,1.239842749
12.64000,-1.506906921
12.64050,-1.201712513
12.64100,-1.506906921
12.64150,-2.422490144
12.64200,-2.727684551
12.64250,-3.032878959
12.64300,-2.727684551
12.64350,0.934648341
12.64400,8.869702941
12.64450,16.49956313
12.64500,21.38267366
12.64550,23.51903451
12.64600,22.9086457
12.64650,18.63592399
12.64700,14.05800787
12.64750,14.9735911
12.64800,20.16189603
12.64850,19.85670162
12.64900,8.869702941
12.64950,-3.338073367
12.65000,-6.390017444
12.65050,-1.506906921
12.65100,0.01906511792
12.65150,-3.643267774
12.65200,-7.610795075
12.65250,-7.305600667
12.65300,-5.474434221
12.65350,-3.338073367
12.65400,0.934648341
12.65450,7.343730903
12.65500,9.785286164
12.65550,4.291786826
12.65600,-3.032878959
12.65650,-5.779628628
12.65700,-4.558850998
12.65750,-5.779628628
12.65800,-10.05235034
12.65850,-10.35754474
12.65900,-1.812101328
12.65950,11.3112582
12.66000,22.29825688
12.66050,26.876173
12.66100,25.04500655
12.66150,17.41514636
12.66200,7.343730903
12.66250,0.01906511792
12.66300,-0.8965181052
12.66350,-0.2861292898
12.66400,-4.558850998
12.66450,-12.4939056
12.66500,-18.90298816
12.66550,-21.34454342
12.66600,-25.00687631
12.66650,-33.85751414
12.66700,-42.09776314
12.66750,-41.18217992
12.66800,-29.27959802
12.66850,-13.40948882
12.66900,-0.8965181052
12.66950,5.817758864
12.67000,10.39567498
12.67050,13.44761906
12.67100,15.58397991
12.67150,13.14242465
12.67200,0.01906511792
12.67250,-26.22765394
12.67300,-56.1367059
12.67350,-73.22759273
12.67400,-68.95487102
12.67450,-50.03281775
12.67500,-29.27959802
12.67550,-11.88351678
12.67600,2.765814787
12.67650,13.14242465
12.67700,16.80475754
12.67750,17.72034076
12.67800,20.46709043
12.67850,21.07747925
12.67900,11.3112582
12.67950,-6.084823036
12.68000,-21.95493224
12.68050,-33.55231973
12.68100,-49.42242893
12.68150,-66.51331576
12.68200,-66.81851017
12.68250,-42.70815196
12.68300,-11.88351678
12.68350,3.376203603
12.68400,6.42814768
12.68450,13.44761906
12.68500,28.09695063
12.68550,37.86317167
12.68600,36.94758845
12.68650,32.36967233
12.68700,30.23331148
12.68750,27.48656181
12.68800,24.12942333
12.68850,25.65539536
12.68900,31.45408911
12.68950,35.116422
12.69000,35.72681082
12.69050,36.03200523
12.69100,31.75928352
12.69150,11.61645261
12.69200,-20.73415461
12.69250,-43.92892959
12.69300,-42.70815196
12.69350,-26.53284835
12.69400,-13.10429441
12.69450,-6.084823036
12.69500,1.239842749
12.69550,10.70086939
12.69600,14.9735911
12.69650,9.480091757
12.69700,-1.506906921
12.69750,-10.96793356
12.69800,-13.10429441
12.69850,-6.084823036
12.69900,4.902175641
12.69950,13.75281346
12.70000,17.10995195
12.70050,15.88917432
12.70100,13.14242465
12.70150,10.39567498
12.70200,9.785286164
12.70250,11.61645261
12.70300,12.53203583
12.70350,8.869702941
12.70400,2.765814787
12.70450,0.3242595256
12.70500,2.46062038
12.70550,4.902175641
12.70600,5.817758864
12.70650,9.174897349
12.70700,15.88917432
12.70750,21.07747925
12.70800,19.2463128
12.70850,14.05800787
12.70900,11.3112582
12.70950,14.05800787
12.71000,17.72034076
12.71050,16.80475754
12.71100,13.44761906
12.71150,12.83723024
12.71200,16.49956313
12.71250,15.88917432
12.71300,4.291786826
12.71350,-12.18871119
12.71400,-19.81857138
12.71450,-14.93546086
12.71500,-6.695211852
12.71550,-3.948462182
12.71600,-2.422490144
12.71650,4.291786826
12.71700,14.05800787
12.71750,19.2463128
12.71800,18.9411184
12.71850,18.02553517
12.71900,18.33072958
12.71950,17.10995195
12.72000,12.22684143
12.72050,5.207370049
12.72100,0.6294539333
12.72150,3.986592418
12.72200,15.88917432
12.72250,28.70733944
12.72300,30.23331148
12.72350,14.66839669
12.72400,-7.915989482
12.72450,-18.90298816
12.72500,-7.305600667
12.72550,15.88917432
12.72600,28.09695063
12.72650,21.38267366
12.72700,14.66839669
12.72750,25.04500655
12.72800,34.50603319
12.72850,3.68139801
12.72900,-72.61720392
12.72950,-146.4742506
12.73000,-163.8703318
12.73050,-122.6690868
12.73100,-63.76656609
12.73150,-21.03934901
12.73200,1.545037156
12.73250,13.75281346
12.73300,21.07747925
12.73350,24.12942333
12.73400,20.46709043
12.73450,2.765814787
12.73500,-28.05882039
12.73550,-57.96787235
12.73600,-70.48084306
12.73650,-68.64967661
12.73700,-65.59773254
12.73750,-63.76656609
12.73800,-53.69515064
12.73850,-31.11076447
12.73900,-6.390017444
12.73950,9.174897349
12.74000,15.2787855
12.74050,15.88917432
12.74100,14.66839669
12.74150,15.58397991
12.74200,19.55150721
12.74250,21.38267366
12.74300,17.41514636
12.74350,11.61645261
12.74400,11.92164702
12.74450,18.02553517
12.74500,22.60345129
12.74550,22.60345129
12.74600,21.99306247
12.74650,22.29825688
12.74700,21.68786806
12.74750,20.16189603
12.74800,20.16189603
12.74850,20.77228484
12.74900,18.9411184
12.74950,14.66839669
12.75000,13.14242465
12.75050,16.19436873
12.75100,20.16189603
12.75150,21.68786806
12.75200,21.38267366
12.75250,22.60345129
12.75300,25.04500655
12.75350,27.1813674
12.75400,27.79175622
12.75450,26.57097859
12.75500,21.99306247
12.75550,11.3112582
12.75600,-5.779628628
12.75650,-24.3964875
12.75700,-36.60426381
12.75750,-36.90945821
12.75800,-27.14323717
12.75850,-14.32507204
12.75900,-5.474434221
12.75950,-1.201712513
12.76000,0.6294539333
12.76050,3.071009195
12.76100,5.512564457
12.76150,8.259314126
12.76200,11.61645261
12.76250,15.58397991
12.76300,18.63592399
12.76350,20.46709043
12.76400,21.99306247
12.76450,21.99306247
12.76500,17.41514636
12.76550,9.480091757
12.76600,3.071009195
12.76650,2.46062038
12.76700,4.596981233
12.76750,5.207370049
12.76800,4.902175641
12.76850,6.122953272
12.76900,6.42814768
12.76950,1.850231564
12.77000,-3.643267774
12.77050,-2.117295736
12.77100,7.64892531
12.77150,18.63592399
12.77200,25.65539536
12.77250,31.45408911
12.77300,37.55797727
12.77350,40.60992134
12.77400,36.94758845
12.77450,29.01253385
12.77500,19.85670162
12.77550,10.70086939
12.77600,4.291786826
12.77650,4.596981233
12.77700,2.46062038
12.77750,-18.90298816
12.77800,-65.59773254
12.77850,-115.6496154
12.77900,-139.7599736
12.77950,-129.0781693
12.78000,-97.33795094
12.78050,-61.63020524
12.78100,-30.50037565
12.78150,-6.695211852
12.78200,7.343730903
12.78250,13.14242465
12.78300,16.19436873
12.78350,18.9411184
12.78400,19.85670162
12.78450,17.41514636
12.78500,14.9735911
12.78550,15.58397991
12.78600,19.2463128
12.78650,21.99306247
12.78700,20.46709043
12.78750,15.58397991
12.78800,10.39567498
12.78850,7.343730903
12.78900,6.42814768
12.78950,6.122953272
12.79000,5.207370049
12.79050,2.765814787
12.79100,0.6294539333
12.79150,0.01906511792
12.79200,0.6294539333
12.79250,0.6294539333
12.79300,-1.506906921
12.79350,-5.169239813
12.79400,-6.695211852
12.79450,-5.169239813
12.79500,-2.727684551
12.79550,-2.422490144
12.79600,-0.8965181052
12.79650,4.291786826
12.79700,12.22684143
12.79750,15.88917432
12.79800,10.70086939
12.79850,0.3242595256
12.79900,-6.390017444
12.79950,-7.000406259
12.80000,-4.25365659
12.80050,-2.422490144
12.80100,-0.8965181052
12.80150,3.071009195
12.80200,6.42814768
12.80250,3.986592418
12.80300,-2.727684551
12.80350,-3.643267774
12.80400,5.512564457
12.80450,15.88917432
12.80500,14.36320228
12.80550,3.68139801
12.80600,-2.727684551
12.80650,-0.2861292898
12.80700,3.986592418
12.80750,3.376203603
12.80800,-0.5913236975
12.80850,-2.727684551
12.80900,-2.422490144
12.80950,-1.201712513
12.81000,-1.201712513
12.81050,-4.558850998
12.81100,-11.88351678
12.81150,-18.90298816
12.81200,-17.37701612
12.81250,-8.22118389
12.81300,-0.8965181052
12.81350,-1.506906921
12.81400,-5.474434221
12.81450,-5.474434221
12.81500,-2.727684551
12.81550,-2.727684551
12.81600,-5.474434221
12.81650,-7.000406259
12.81700,-6.695211852
12.81750,-5.779628628
12.81800,-4.25365659
12.81850,-0.8965181052
12.81900,0.6294539333
12.81950,-3.032878959
12.82000,-11.57832237
12.82050,-18.59779375
12.82100,-19.20818257
12.82150,-13.71468323
12.82200,-5.169239813
12.82250,2.155425972
12.82300,8.869702941
12.82350,15.2787855
12.82400,21.38267366
12.82450,24.73981214
12.82500,24.12942333
12.82550,22.60345129
12.82600,23.51903451
12.82650,25.35020096
12.82700,22.9086457
12.82750,15.2787855
12.82800,9.785286164
12.82850,9.174897349
12.82900,4.596981233
12.82950,-17.68221053
12.83000,-55.52631708
12.83050,-88.18211871
12.83100,-95.20159008
12.83150,-77.80550885
12.83200,-51.25359538
12.83250,-28.97440361
12.83300,-10.35754474
12.83350,7.64892531
12.83400,23.51903451
12.83450,32.06447793
12.83500,33.89564437
12.83550,34.20083878
12.83600,35.72681082
12.83650,37.86317167
12.83700,39.0839493
12.83750,40.30472693
12.83800,39.38914371
12.83850,30.53850589
12.83900,7.343730903
12.83950,-29.88998684
12.84000,-71.39642628
12.84050,-99.47431179
12.84100,-102.2210615
12.84150,-81.16264733
12.84200,-50.33801215
12.84250,-23.48090428
12.84300,-5.169239813
12.84350,5.512564457
12.84400,12.22684143
12.84450,16.49956313
12.84500,20.16189603
12.84550,20.46709043
12.84600,14.05800787
12.84650,0.934648341
12.84700,-9.747155929
12.84750,-10.66273915
12.84800,-3.643267774
12.84850,4.902175641
12.84900,13.14242465
12.84950,22.9086457
12.85000,32.67486674
12.85050,35.42161641
12.85100,29.01253385
12.85150,21.07747925
12.85200,18.02553517
12.85250,17.10995195
12.85300,10.39567498
12.85350,-3.032878959
12.85400,-15.24065527
12.85450,-16.4614329
12.85500,-8.526378298
12.85550,-1.506906921
12.85600,0.01906511792
12.85650,1.545037156
12.85700,7.038536495
12.85750,13.14242465
12.85800,14.9735911
12.85850,15.2787855
12.85900,18.9411184
12.85950,23.82422892
12.86000,25.35020096
12.86050,27.1813674
12.86100,33.59044997
12.86150,39.99953253
12.86200,38.16836608
12.86250,31.45408911
12.86300,27.79175622
12.86350,26.26578418
12.86400,22.9086457
12.86450,24.12942333
12.86500,36.64239404
12.86550,44.27225423
12.86600,20.77228484
12.86650,-28.66920921
12.86700,-63.46137168
12.86750,-57.35748353
12.86800,-33.55231973
12.86850,-29.58479243
12.86900,-46.98087367
12.86950,-58.27306675
12.87000,-48.2016513
12.87050,-29.58479243
12.87100,-16.15623849
12.87150,-8.526378298
12.87200,-3.338073367
12.87250,-1.812101328
12.87300,-4.25365659
12.87350,-4.558850998
12.87400,-1.506906921
12.87450,0.6294539333
12.87500,0.3242595256
12.87550,2.155425972
12.87600,9.480091757
12.87650,17.41514636
12.87700,18.63592399
12.87750,14.66839669
12.87800,12.83723024
12.87850,18.33072958
12.87900,27.79175622
12.87950,35.72681082
12.88000,40.91511575
12.88050,42.7462822
12.88100,37.86317167
12.88150,21.38267366
12.88200,-1.506906921
12.88250,-17.37701612
12.88300,-17.07182171
12.88350,-5.474434221
12.88400,7.343730903
12.88450,19.85670162
12.88500,29.92811707
12.88550,26.26578418
12.88600,2.46062038
12.88650,-28.97440361
12.88700,-44.53931841
12.88750,-37.51984703
12.88800,-21.64973783
12.88850,-10.35754474
12.88900,-4.25365659
12.88950,0.3242595256
12.89000,2.765814787
12.89050,3.376203603
12.89100,6.122953272
12.89150,7.954119718
12.89200,0.01906511792
12.89250,-17.68221053
12.89300,-28.97440361
12.89350,-23.48090428
12.89400,-12.18871119
12.89450,-9.441961521
12.89500,-14.63026645
12.89550,-15.24065527
12.89600,-8.831572705
12.89650,-1.506906921
12.89700,4.291786826
12.89750,13.75281346
12.89800,25.04500655
12.89850,28.09695063
12.89900,18.9411184
12.89950,6.42814768
12.90000,0.01906511792
12.90050,0.3242595256
12.90100,3.68139801
12.90150,7.038536495
12.90200,8.564508534
12.90250,7.343730903
12.90300,4.291786826
12.90350,2.46062038
12.90400,2.155425972
12.90450,1.545037156
12.90500,0.3242595256
12.90550,0.934648341
12.90600,3.68139801
12.90650,4.291786826
12.90700,1.239842749
12.90750,-0.5913236975
12.90800,1.239842749
12.90850,5.817758864
12.90900,9.174897349
12.90950,10.39567498
12.91000,10.39567498
12.91050,7.954119718
12.91100,3.68139801
12.91150,1.239842749
12.91200,2.46062038
12.91250,5.817758864
12.91300,8.564508534
12.91350,8.564508534
12.91400,1.239842749
12.91450,-14.32507204
12.91500,-31.41595888
12.91550,-39.65620788
12.91600,-37.82504144
12.91650,-34.77309736
12.91700,-32.3315421
12.91750,-23.17570987
12.91800,-6.390017444
12.91850,4.291786826
12.91900,0.01906511792
12.91950,-12.18871119
12.92000,-17.37701612
12.92050,-14.93546086
12.92100,-14.01987764
12.92150,-15.85104408
12.92200,-14.01987764
12.92250,-7.915989482
12.92300,-3.338073367
12.92350,-4.25365659
12.92400,-8.22118389
12.92450,-15.54584967
12.92500,-26.83804276
12.92550,-35.68868058
12.92600,-32.94193091
12.92650,-18.59779375
12.92700,-1.506906921
12.92750,11.3112582
12.92800,22.29825688
12.92850,31.1488947
12.92900,34.50603319
12.92950,30.23331148
12.93000,22.29825688
12.93050,15.58397991
12.93100,10.70086939
12.93150,6.733342087
12.93200,5.207370049
12.93250,5.512564457
12.93300,5.817758864
12.93350,4.291786826
12.93400,4.291786826
12.93450,8.564508534
12.93500,13.75281346
12.93550,14.05800787
12.93600,8.869702941
12.93650,3.68139801
12.93700,3.376203603
12.93750,6.733342087
12.93800,8.259314126
12.93850,4.596981233
12.93900,-0.8965181052
12.93950,-3.338073367
12.94000,-0.8965181052
12.94050,3.68139801
12.94100,7.954119718
12.94150,10.39567498
12.94200,10.70086939
12.94250,9.785286164
12.94300,8.564508534
12.94350,9.174897349
12.94400,11.0060638
12.94450,12.53203583
12.94500,12.83723024
12.94550,12.22684143
12.94600,11.3112582
12.94650,10.09048057
12.94700,10.70086939
12.94750,14.66839669
12.94800,17.41514636
12.94850,11.3112582
12.94900,-3.948462182
12.94950,-19.51337697
12.95000,-25.92245954
12.95050,-22.56532105
12.95100,-14.63026645
12.95150,-7.000406259
12.95200,-1.812101328
12.95250,0.6294539333
12.95300,2.155425972
12.95350,3.376203603
12.95400,3.376203603
12.95450,0.3242595256
12.95500,-2.422490144
12.95550,0.01906511792
12.95600,7.038536495
12.95650,8.259314126
12.95700,-3.338073367
12.95750,-20.12376579
12.95800,-24.70168191
12.95850,-12.79910001
12.95900,3.376203603
12.95950,11.0060638
12.96000,10.09048057
12.96050,8.564508534
12.96100,11.3112582
12.96150,15.2787855
12.96200,16.80475754
12.96250,14.36320228
12.96300,8.564508534
12.96350,0.01906511792
12.96400,-10.96793356
12.96450,-21.34454342
12.96500,-29.27959802
12.96550,-31.41595888
12.96600,-25.92245954
12.96650,-16.15623849
12.96700,-8.831572705
12.96750,-7.000406259
12.96800,-8.526378298
12.96850,-10.05235034
12.96900,-10.66273915
12.96950,-11.57832237
12.97000,-10.96793356
12.97050,-3.643267774
12.97100,10.39567498
12.97150,27.1813674
12.97200,42.13589338
12.97250,56.17483613
12.97300,70.21377889
12.97350,80.89558316
12.97400,84.55791605
12.97450,82.4215552
12.97500,76.92805586
12.97550,68.38261244
12.97600,52.81769765
12.97650,27.1813674
12.97700,-10.96793356
12.97750,-64.98734372
12.97800,-131.824919
12.97850,-193.7793838
12.97900,-223.6884357
12.97950,-206.5975489
12.98000,-155.3248884
12.98050,-99.7795062
12.98100,-64.37695491
12.98150,-50.94840097
12.98200,-46.06529045
12.98250,-36.2990694
12.98300,-19.81857138
12.98350,-3.338073367
12.98400,8.564508534
12.98450,18.9411184
12.98500,29.01253385
12.98550,35.42161641
12.98600,33.28525556
12.98650,25.65539536
12.98700,18.9411184
12.98750,17.10995195
12.98800,17.72034076
12.98850,18.33072958
12.98900,19.55150721
12.98950,21.07747925
12.99000,20.16189603
12.99050,15.58397991
12.99100,10.70086939
12.99150,8.259314126
12.99200,9.174897349
12.99250,11.92164702
12.99300,16.80475754
12.99350,23.2138401
12.99400,27.48656181
12.99450,25.35020096
12.99500,18.33072958
12.99550,14.05800787
12.99600,17.41514636
12.99650,23.82422892
12.99700,25.04500655
12.99750,18.63592399
12.99800,11.61645261
12.99850,10.70086939
12.99900,12.22684143
12.99950,9.174897349
13.00000,2.46062038
13.00050,0.01906511792
13.00100,3.986592418
13.00150,11.3112582
13.00200,18.63592399
13.00250,27.1813674
13.00300,35.116422
13.00350,39.38914371
13.00400,40.30472693
13.00450,44.27225423
13.00500,51.90211443
13.00550,56.48003054
13.00600,52.20730883
13.00650,44.27225423
13.00700,39.99953253
13.00750,35.72681082
13.00800,22.9086457
13.00850,-1.201712513
13.00900,-30.19518124
13.00950,-55.22112268
13.01000,-68.64967661
13.01050,-65.29253813
13.01100,-47.28606808
13.01150,-25.61726513
13.01200,-11.57832237
13.01250,-7.000406259
13.01300,-3.948462182
13.01350,2.765814787
13.01400,10.70086939
13.01450,14.9735911
13.01500,15.88917432
13.01550,15.2787855
13.01600,14.05800787
13.01650,12.83723024
13.01700,12.83723024
13.01750,13.75281346
13.01800,12.83723024
13.01850,10.09048057
13.01900,7.954119718
13.01950,5.207370049
13.02000,-3.643267774
13.02050,-20.73415461
13.02100,-39.04581907
13.02150,-46.98087367
13.02200,-41.48737433
13.02250,-27.75362598
13.02300,-11.88351678
13.02350,3.376203603
13.02400,17.10995195
13.02450,25.04500655
13.02500,25.04500655
13.02550,18.9411184
13.02600,12.83723024
13.02650,10.70086939
13.02700,10.70086939
13.02750,10.09048057
13.02800,11.61645261
13.02850,19.85670162
13.02900,30.23331148
13.02950,26.876173
13.03000,0.01906511792
13.03050,-39.35101348
13.03100,-64.37695491
13.03150,-61.63020524
13.03200,-41.48737433
13.03250,-24.09129309
13.03300,-16.76662731
13.03350,-15.85104408
13.03400,-19.51337697
13.03450,-27.44843158
13.03500,-34.16270854
13.03550,-32.02634769
13.03600,-21.34454342
13.03650,-11.88351678
13.03700,-8.831572705
13.03750,-7.305600667
13.03800,-3.338073367
13.03850,0.01906511792
13.03900,-1.506906921
13.03950,-6.084823036
13.04000,-8.22118389
13.04050,-7.000406259
13.04100,-4.558850998
13.04150,-2.117295736
13.04200,0.01906511792
13.04250,0.6294539333
13.04300,0.01906511792
13.04350,-0.5913236975
13.04400,-0.5913236975
13.04450,-0.2861292898
13.04500,0.01906511792
13.04550,0.3242595256
13.04600,0.6294539333
13.04650,0.01906511792
13.04700,-0.8965181052
13.04750,0.6294539333
13.04800,4.902175641
13.04850,7.64892531
13.04900,7.64892531
13.04950,7.954119718
13.05000,8.869702941
13.05050,7.954119718
13.05100,3.986592418
13.05150,0.934648341
13.05200,1.239842749
13.05250,2.155425972
13.05300,0.934648341
13.05350,-1.201712513
13.05400,-1.506906921
13.05450,0.934648341
13.05500,3.071009195
13.05550,3.071009195
13.05600,1.239842749
13.05650,0.01906511792
13.05700,0.6294539333
13.05750,1.239842749
13.05800,1.239842749
13.05850,1.239842749
13.05900,3.986592418
13.05950,8.869702941
13.06000,11.3112582
13.06050,9.480091757
13.06100,7.343730903
13.06150,9.785286164
13.06200,14.36320228
13.06250,16.49956313
13.06300,15.58397991
13.06350,13.44761906
13.06400,11.61645261
13.06450,11.61645261
13.06500,14.36320228
13.06550,18.63592399
13.06600,19.85670162
13.06650,19.2463128
13.06700,24.12942333
13.06750,36.33719963
13.06800,41.52550457
13.06850,23.51903451
13.06900,-10.05235034
13.06950,-36.90945821
13.07000,-41.48737433
13.07050,-30.80557006
13.07100,-18.59779375
13.07150,-10.05235034
13.07200,-7.000406259
13.07250,-12.4939056
13.07300,-25.31207072
13.07350,-35.68868058
13.07400,-35.99387499
13.07450,-29.58479243
13.07500,-25.00687631
13.07550,-22.56532105
13.07600,-17.37701612
13.07650,-7.915989482
13.07700,-1.201712513
13.07750,-2.117295736
13.07800,-6.695211852
13.07850,-7.610795075
13.07900,-3.948462182
13.07950,-2.422490144
13.08000,-6.084823036
13.08050,-10.35754474
13.08100,-9.441961521
13.08150,-5.474434221
13.08200,-3.948462182
13.08250,-6.390017444
13.08300,-7.610795075
13.08350,-5.474434221
13.08400,-3.948462182
13.08450,-6.695211852
13.08500,-8.526378298
13.08550,-3.948462182
13.08600,5.512564457
13.08650,13.14242465
13.08700,16.19436873
13.08750,18.02553517
13.08800,20.16189603
13.08850,20.46709043
13.08900,17.10995195
13.08950,14.05800787
13.09000,13.14242465
13.09050,13.75281346
13.09100,14.66839669
13.09150,16.80475754
13.09200,18.9411184
13.09250,17.41514636
13.09300,13.44761906
13.09350,13.75281346
13.09400,21.07747925
13.09450,29.01253385
13.09500,30.8437003
13.09550,26.876173
13.09600,21.07747925
13.09650,13.44761906
13.09700,4.902175641
13.09750,0.6294539333
13.09800,0.934648341
13.09850,-2.117295736
13.09900,-11.88351678
13.09950,-19.20818257
13.10000,-17.37701612
13.10050,-16.76662731
13.10100,-32.02634769
13.10150,-55.52631708
13.10200,-65.29253813
13.10250,-52.1691786
13.10300,-29.27959802
13.10350,-9.136767113
13.10400,10.09048057
13.10450,34.20083878
13.10500,54.6488641
13.10550,55.56444732
13.10600,29.01253385
13.10650,-15.24065527
13.10700,-55.52631708
13.10750,-70.17564865
13.10800,-57.35748353
13.10850,-39.04581907
13.10900,-32.94193091
13.10950,-31.41595888
13.11000,-14.93546086
13.11050,12.22684143
13.11100,25.35020096
13.11150,11.3112582
13.11200,-11.57832237
13.11250,-19.51337697
13.11300,-7.915989482
13.11350,11.3112582
13.11400,29.31772826
13.11450,41.22031016
13.11500,43.35667101
13.11550,36.33719963
13.11600,29.31772826
13.11650,28.40214503
13.11700,30.8437003
13.11750,31.1488947
13.11800,29.31772826
13.11850,25.96058977
13.11900,15.2787855
13.11950,-6.390017444
13.12000,-34.46790295
13.12050,-56.44190031
13.12100,-65.90292695
13.12150,-63.46137168
13.12200,-50.64320656
13.12250,-31.11076447
13.12300,-11.88351678
13.12350,-0.2861292898
13.12400,3.376203603
13.12450,4.902175641
13.12500,6.122953272
13.12550,6.733342087
13.12600,7.954119718
13.12650,10.70086939
13.12700,13.75281346
13.12750,13.44761906
13.12800,10.39567498
13.12850,10.09048057
13.12900,16.19436873
13.12950,26.876173
13.13000,36.94758845
13.13050,43.96705983
13.13100,47.62939272
13.13150,48.54497594
13.13200,47.32419831
13.13250,44.57744864
13.13300,40.60992134
13.13350,34.50603319
13.13400,26.876173
13.13450,19.55150721
13.13500,12.83723024
13.13550,5.512564457
13.13600,-6.695211852
13.13650,-24.70168191
13.13700,-43.01334637
13.13750,-52.1691786
13.13800,-45.76009604
13.13850,-28.97440361
13.13900,-13.40948882
13.13950,-5.779628628
13.14000,-3.032878959
13.14050,1.239842749
13.14100,6.42814768
13.14150,2.765814787
13.14200,-13.10429441
13.14250,-32.02634769
13.14300,-40.2665967
13.14350,-33.85751414
13.14400,-18.59779375
13.14450,-2.727684551
13.14500,9.174897349
13.14550,16.80475754
13.14600,19.55150721
13.14650,17.10995195
13.14700,12.22684143
13.14750,6.42814768
13.14800,2.765814787
13.14850,2.155425972
13.14900,4.596981233
13.14950,7.038536495
13.15000,7.954119718
13.15050,8.869702941
13.15100,12.53203583
13.15150,16.80475754
13.15200,17.41514636
13.15250,14.9735911
13.15300,15.2787855
13.15350,20.77228484
13.15400,26.876173
13.15450,27.79175622
13.15500,23.2138401
13.15550,18.02553517
13.15600,15.58397991
13.15650,14.9735911
13.15700,12.22684143
13.15750,7.038536495
13.15800,1.850231564
13.15850,1.239842749
13.15900,4.596981233
13.15950,5.207370049
13.16000,-4.558850998
13.16050,-23.78609868
13.16100,-41.18217992
13.16150,-46.06529045
13.16200,-39.04581907
13.16250,-26.83804276
13.16300,-15.85104408
13.16350,-8.22118389
13.16400,-2.727684551
13.16450,0.01906511792
13.16500,1.239842749
13.16550,0.934648341
13.16600,-0.5913236975
13.16650,-3.338073367
13.16700,-4.25365659
13.16750,-2.727684551
13.16800,-1.506906921
13.16850,-3.643267774
13.16900,-6.390017444
13.16950,-4.558850998
13.17000,3.071009195
13.17050,9.785286164
13.17100,9.480091757
13.17150,3.986592418
13.17200,0.01906511792
13.17250,-0.5913236975
13.17300,-1.201712513
13.17350,-3.643267774
13.17400,-3.948462182
13.17450,0.01906511792
13.17500,3.68139801
13.17550,1.239842749
13.17600,-4.558850998
13.17650,-7.000406259
13.17700,-2.117295736
13.17750,5.817758864
13.17800,10.70086939
13.17850,11.0060638
13.17900,8.564508534
13.17950,6.42814768
13.18000,7.038536495
13.18050,9.480091757
13.18100,10.70086939
13.18150,9.174897349
13.18200,9.174897349
13.18250,11.0060638
13.18300,7.038536495
13.18350,-12.4939056
13.18400,-43.62373518
13.18450,-67.73409339
13.18500,-70.78603747
13.18550,-58.57826116
13.18600,-46.67567926
13.18650,-41.18217992
13.18700,-37.21465262
13.18750,-29.88998684
13.18800,-21.64973783
13.18850,-15.24065527
13.18900,-11.27312797
13.18950,-8.22118389
13.19000,-6.695211852
13.19050,-6.695211852
13.19100,-7.610795075
13.19150,-6.695211852
13.19200,-3.032878959
13.19250,0.934648341
13.19300,3.986592418
13.19350,5.817758864
13.19400,7.64892531
13.19450,10.39567498
13.19500,12.22684143
13.19550,12.53203583
13.19600,12.53203583
13.19650,13.14242465
13.19700,12.83723024
13.19750,11.61645261
13.19800,11.0060638
13.19850,12.83723024
13.19900,15.58397991
13.19950,18.02553517
13.20000,19.85670162
13.20050,20.77228484
13.20100,16.19436873
13.20150,3.071009195
13.20200,-12.4939056
13.20250,-20.4289602
13.20300,-15.24065527
13.20350,-3.338073367
13.20400,4.596981233
13.20450,5.207370049
13.20500,-0.5913236975
13.20550,-8.526378298
13.20600,-12.4939056
13.20650,-9.441961521
13.20700,-2.117295736
13.20750,5.207370049
13.20800,10.70086939
13.20850,15.2787855
13.20900,18.9411184
13.20950,18.9411184
13.21000,13.44761906
13.21050,4.902175641
13.21100,-0.5913236975
13.21150,-0.8965181052
13.21200,3.071009195
13.21250,6.733342087
13.21300,5.207370049
13.21350,-0.2861292898
13.21400,-5.474434221
13.21450,-7.305600667
13.21500,-8.526378298
13.21550,-12.18871119
13.21600,-14.63026645
13.21650,-12.18871119
13.21700,-7.610795075
13.21750,-8.22118389
13.21800,-13.71468323
13.21850,-18.90298816
13.21900,-20.4289602
13.21950,-19.20818257
13.22000,-16.15623849
13.22050,-8.831572705
13.22100,1.545037156
13.22150,12.53203583
13.22200,20.77228484
13.22250,25.96058977
13.22300,27.48656181
13.22350,25.96058977
13.22400,25.04500655
13.22450,27.79175622
13.22500,32.06447793
13.22550,34.50603319
13.22600,33.89564437
13.22650,30.23331148
13.22700,24.12942333
13.22750,18.02553517
13.22800,19.55150721
13.22850,27.1813674
13.22900,24.73981214
13.22950,-1.812101328
13.23000,-43.31854078
13.23050,-70.48084306
13.23100,-67.12370458
13.23150,-42.09776314
13.23200,-14.93546086
13.23250,4.596981233
13.23300,17.10995195
13.23350,21.38267366
13.23400,18.02553517
13.23450,11.61645261
13.23500,7.954119718
13.23550,6.733342087
13.23600,5.207370049
13.23650,2.46062038
13.23700,1.545037156
13.23750,6.122953272
13.23800,14.36320228
13.23850,17.10995195
13.23900,5.817758864
13.23950,-17.07182171
13.24000,-35.68868058
13.24050,-35.99387499
13.24100,-21.03934901
13.24150,-6.390017444
13.24200,-0.5913236975
13.24250,0.01906511792
13.24300,1.850231564
13.24350,7.038536495
13.24400,13.14242465
13.24450,17.41514636
13.24500,16.19436873
13.24550,10.70086939
13.24600,7.343730903
13.24650,10.39567498
13.24700,14.9735911
13.24750,16.49956313
13.24800,17.72034076
13.24850,22.9086457
13.24900,28.40214503
13.24950,25.65539536
13.25000,14.9735911
13.25050,2.46062038
13.25100,-10.35754474
13.25150,-28.05882039
13.25200,-44.84451281
13.25250,-46.67567926
13.25300,-29.88998684
13.25350,-10.05235034
13.25400,-1.506906921
13.25450,-3.338073367
13.25500,-3.032878959
13.25550,2.46062038
13.25600,7.954119718
13.25650,8.259314126
13.25700,8.564508534
13.25750,14.36320228
13.25800,18.9411184
13.25850,10.09048057
13.25900,-15.85104408
13.25950,-44.84451281
13.26000,-56.74709471
13.26050,-44.234124
13.26100,-20.12376579
13.26150,2.155425972
13.26200,19.55150721
13.26250,33.28525556
13.26300,36.94758845
13.26350,22.29825688
13.26400,-6.695211852
13.26450,-30.80557006
13.26500,-31.11076447
13.26550,-8.831572705
13.26600,13.75281346
13.26650,12.22684143
13.26700,-18.90298816
13.26750,-57.96787235
13.26800,-74.75356477
13.26850,-59.18864998
13.26900,-28.97440361
13.26950,-8.22118389
13.27000,-3.032878959
13.27050,-3.643267774
13.27100,-0.5913236975
13.27150,4.596981233
13.27200,7.343730903
13.27250,6.42814768
13.27300,4.291786826
13.27350,5.512564457
13.27400,10.09048057
13.27450,14.9735911
13.27500,14.66839669
13.27550,9.785286164
13.27600,6.733342087
13.27650,8.564508534
13.27700,11.61645261
13.27750,11.3112582
13.27800,9.480091757
13.27850,10.70086939
13.27900,15.58397991
13.27950,19.55150721
13.28000,21.38267366
13.28050,21.38267366
13.28100,19.85670162
13.28150,16.80475754
13.28200,14.66839669
13.28250,16.19436873
13.28300,19.85670162
13.28350,21.99306247
13.28400,22.9086457
13.28450,26.57097859
13.28500,32.98006115
13.28550,36.33719963
13.28600,32.98006115
13.28650,25.35020096
13.28700,19.2463128
13.28750,19.2463128
13.28800,24.73981214
13.28850,29.01253385
13.28900,23.2138401
13.28950,2.155425972
13.29000,-26.83804276
13.29050,-49.11723452
13.29100,-56.1367059
13.29150,-53.38995623
13.29200,-51.25359538
13.29250,-54.00034505
13.29300,-55.83151149
13.29350,-49.72762334
13.29400,-35.99387499
13.29450,-20.73415461
13.29500,-9.747155929
13.29550,-3.032878959
13.29600,1.850231564
13.29650,7.64892531
13.29700,13.14242465
13.29750,18.33072958
13.29800,24.12942333
13.29850,29.62292266
13.29900,32.36967233
13.29950,29.92811707
13.30000,24.43461773
13.30050,19.55150721
13.30100,16.80475754
13.30150,13.44761906
13.30200,6.42814768
13.30250,-4.558850998
13.30300,-18.59779375
13.30350,-29.88998684
13.30400,-31.72115328
13.30450,-23.48090428
13.30500,-11.57832237
13.30550,-3.643267774
13.30600,-0.8965181052
13.30650,1.239842749
13.30700,7.038536495
13.30750,13.14242465
13.30800,16.49956313
13.30850,16.80475754
13.30900,17.10995195
13.30950,19.2463128
13.31000,21.99306247
13.31050,22.29825688
13.31100,19.2463128
13.31150,17.41514636
13.31200,20.16189603
13.31250,22.29825688
13.31300,12.53203583
13.31350,-10.66273915
13.31400,-35.99387499
13.31450,-47.89645689
13.31500,-44.84451281
13.31550,-35.99387499
13.31600,-27.14323717
13.31650,-15.85104408
13.31700,-2.422490144
13.31750,5.207370049
13.31800,0.6294539333
13.31850,-11.88351678
13.31900,-21.64973783
13.31950,-21.95493224
13.32000,-14.93546086
13.32050,-4.864045405
13.32100,3.376203603
13.32150,7.64892531
13.32200,7.64892531
13.32250,9.174897349
13.32300,18.33072958
13.32350,32.67486674
13.32400,43.35667101
13.32450,46.40861509
13.32500,44.57744864
13.32550,41.22031016
13.32600,34.8112276
13.32650,27.48656181
13.32700,25.96058977
13.32750,26.876173
13.32800,13.75281346
13.32850,-22.56532105
13.32900,-65.59773254
13.32950,-86.65614667
13.33000,-76.58473122
13.33050,-52.1691786
13.33100,-32.02634769
13.33150,-19.81857138
13.33200,-11.88351678
13.33250,-8.526378298
13.33300,-10.35754474
13.33350,-11.88351678
13.33400,-8.22118389
13.33450,-3.032878959
13.33500,-0.8965181052
13.33550,-0.5913236975
13.33600,3.68139801
13.33650,12.83723024
13.33700,22.29825688
13.33750,28.09695063
13.33800,29.01253385
13.33850,25.65539536
13.33900,19.85670162
13.33950,14.36320228
13.34000,10.39567498
13.34050,5.207370049
13.34100,-0.5913236975
13.34150,-0.8965181052
13.34200,5.817758864
13.34250,9.480091757
13.34300,-2.727684551
13.34350,-27.14323717
13.34400,-45.14970722
13.34450,-44.84451281
13.34500,-31.41595888
13.34550,-16.4614329
13.34600,-3.643267774
13.34650,7.64892531
13.34700,14.9735911
13.34750,14.05800787
13.34800,8.259314126
13.34850,1.545037156
13.34900,-7.915989482
13.34950,-24.09129309
13.35000,-38.43543025
13.35050,-40.87698551
13.35100,-31.41595888
13.35150,-18.29259934
13.35200,-4.864045405
13.35250,9.785286164
13.35300,20.16189603
13.35350,17.41514636
13.35400,6.42814768
13.35450,3.68139801
13.35500,15.58397991
13.35550,33.28525556
13.35600,46.7138095
13.35650,53.12289206
13.35700,51.90211443
13.35750,44.27225423
13.35800,37.55797727
13.35850,39.69433812
13.35900,42.7462822
13.35950,34.8112276
13.36000,21.99306247
13.36050,22.9086457
13.36100,30.8437003
13.36150,12.83723024
13.36200,-45.76009604
13.36250,-114.4288378
13.36300,-148.6106114
13.36350,-140.6755568
13.36400,-113.2080601
13.36450,-83.60420259
13.36500,-51.86398419
13.36550,-20.73415461
13.36600,-0.5913236975
13.36650,5.512564457
13.36700,6.733342087
13.36750,9.785286164
13.36800,12.53203583
13.36850,12.22684143
13.36900,10.70086939
13.36950,8.869702941
13.37000,6.42814768
13.37050,5.207370049
13.37100,8.564508534
13.37150,14.9735911
13.37200,19.2463128
13.37250,19.55150721
13.37300,19.85670162
13.37350,22.29825688
13.37400,24.12942333
13.37450,23.2138401
13.37500,21.68786806
13.37550,20.46709043
13.37600,19.55150721
13.37650,17.72034076
13.37700,13.44761906
13.37750,6.42814768
13.37800,-2.117295736
13.37850,-9.136767113
13.37900,-10.35754474
13.37950,-5.779628628
13.38000,0.3242595256
13.38050,6.122953272
13.38100,11.61645261
13.38150,16.19436873
13.38200,16.19436873
13.38250,10.39567498
13.38300,4.291786826
13.38350,6.122953272
13.38400,15.88917432
13.38450,24.73981214
13.38500,26.876173
13.38550,25.35020096
13.38600,25.65539536
13.38650,25.96058977
13.38700,21.99306247
13.38750,15.2787855
13.38800,11.0060638
13.38850,10.70086939
13.38900,10.70086939
13.38950,10.39567498
13.39000,7.64892531
13.39050,-1.812101328
13.39100,-22.26012664
13.39150,-41.79256874
13.39200,-43.92892959
13.39250,-28.05882039
13.39300,-11.57832237
13.39350,-7.915989482
13.39400,-11.27312797
13.39450,-9.136767113
13.39500,-2.727684551
13.39550,-1.201712513
13.39600,-4.558850998
13.39650,-4.864045405
13.39700,-0.2861292898
13.39750,0.934648341
13.39800,-3.948462182
13.39850,-10.05235034
13.39900,-10.66273915
13.39950,-5.169239813
13.40000,3.071009195
13.40050,11.0060638
13.40100,16.49956313
13.40150,18.63592399
13.40200,18.63592399
13.40250,18.9411184
13.40300,23.2138401
13.40350,32.06447793
13.40400,42.13589338
13.40450,43.35667101
13.40500,28.70733944
13.40550,2.155425972
13.40600,-24.70168191
13.40650,-44.53931841
13.40700,-57.66267794
13.40750,-66.20812135
13.40800,-66.20812135
13.40850,-55.83151149
13.40900,-39.96140229
13.40950,-25.92245954
13.41000,-14.93546086
13.41050,-4.25365659
13.41100,4.902175641
13.41150,10.39567498
13.41200,11.3112582
13.41250,10.39567498
13.41300,9.785286164
13.41350,11.0060638
13.41400,12.83723024
13.41450,12.83723024
13.41500,10.70086939
13.41550,12.22684143
13.41600,21.68786806
13.41650,31.45408911
13.41700,29.62292266
13.41750,16.19436873
13.41800,5.817758864
13.41850,7.343730903
13.41900,14.05800787
13.41950,13.75281346
13.42000,7.343730903
13.42050,1.545037156
13.42100,-1.201712513
13.42150,-7.610795075
13.42200,-19.81857138
13.42250,-33.24712532
13.42300,-42.40295755
13.42350,-44.53931841
13.42400,-39.96140229
13.42450,-32.3315421
13.42500,-25.61726513
13.42550,-21.34454342
13.42600,-18.29259934
13.42650,-16.4614329
13.42700,-15.85104408
13.42750,-13.40948882
13.42800,-3.643267774
13.42850,9.174897349
13.42900,14.66839669
13.42950,9.480091757
13.43000,3.986592418
13.43050,8.259314126
13.43100,18.02553517
13.43150,22.9086457
13.43200,21.38267366
13.43250,19.2463128
13.43300,18.02553517
13.43350,15.2787855
13.43400,11.92164702
13.43450,12.53203583
13.43500,13.75281346
13.43550,7.343730903
13.43600,-6.084823036
13.43650,-19.81857138
13.43700,-26.53284835
13.43750,-24.3964875
13.43800,-15.24065527
13.43850,-4.25365659
13.43900,-0.5913236975
13.43950,-7.305600667
13.44000,-13.10429441
13.44050,-5.169239813
13.44100,11.0060638
13.44150,16.49956313
13.44200,2.765814787
13.44250,-14.63026645
13.44300,-18.59779375
13.44350,-10.05235034
13.44400,-2.422490144
13.44450,-1.201712513
13.44500,-0.5913236975
13.44550,5.207370049
13.44600,15.88917432
13.44650,28.70733944
13.44700,40.91511575
13.44750,49.15536476
13.44800,52.20730883
13.44850,51.90211443
13.44900,53.12289206
13.44950,54.6488641
13.45000,50.9865312
13.45050,42.44108779
13.45100,35.116422
13.45150,33.59044997
13.45200,29.01253385
13.45250,9.480091757
13.45300,-23.17570987
13.45350,-56.44190031
13.45400,-81.16264733
13.45450,-98.55872857
13.45500,-110.7665049
13.45550,-109.5457272
13.45600,-88.79250752
13.45650,-56.74709471
13.45700,-28.66920921
13.45750,-12.4939056
13.45800,-5.169239813
13.45850,-0.8965181052
13.45900,2.46062038
13.45950,6.42814768
13.46000,9.480091757
13.46050,9.174897349
13.46100,6.42814768
13.46150,5.512564457
13.46200,8.259314126
13.46250,11.3112582
13.46300,11.0060638
13.46350,8.869702941
13.46400,9.480091757
13.46450,12.83723024
13.46500,17.10995195
13.46550,21.38267366
13.46600,25.35020096
13.46650,26.876173
13.46700,26.26578418
13.46750,26.876173
13.46800,29.01253385
13.46850,28.40214503
13.46900,23.82422892
13.46950,19.2463128
13.47000,13.44761906
13.47050,-3.948462182
13.47100,-36.90945821
13.47150,-67.42889898
13.47200,-70.78603747
13.47250,-46.67567926
13.47300,-17.98740494
13.47350,-3.338073367
13.47400,-0.5913236975
13.47450,1.545037156
13.47500,7.954119718
13.47550,14.05800787
13.47600,16.19436873
13.47650,15.58397991
13.47700,14.9735911
13.47750,16.80475754
13.47800,20.77228484
13.47850,23.82422892
13.47900,23.51903451
13.47950,24.73981214
13.48000,32.36967233
13.48050,42.13589338
13.48100,39.69433812
13.48150,19.55150721
13.48200,-7.305600667
13.48250,-24.70168191
13.48300,-27.14323717
13.48350,-21.03934901
13.48400,-12.79910001
13.48450,-1.812101328
13.48500,8.564508534
13.48550,10.09048057
13.48600,-5.169239813
13.48650,-29.88998684
13.48700,-46.06529045
13.48750,-43.31854078
13.48800,-27.75362598
13.48850,-12.79910001
13.48900,-3.032878959
13.48950,6.122953272
13.49000,16.19436873
13.49050,21.07747925
13.49100,19.2463128
13.49150,17.41514636
13.49200,18.9411184
13.49250,16.49956313
13.49300,3.071009195
13.49350,-15.85104408
13.49400,-26.22765394
13.49450,-22.56532105
13.49500,-11.57832237
13.49550,0.6294539333
13.49600,12.83723024
13.49650,21.99306247
13.49700,23.2138401
13.49750,19.2463128
13.49800,19.2463128
13.49850,26.26578418
13.49900,32.06447793
13.49950,29.62292266
13.50000,23.51903451
13.50050,21.99306247
13.50100,23.82422892
13.50150,21.07747925
13.50200,8.259314126
13.50250,-12.4939056
13.50300,-37.51984703
13.50350,-60.71462201
13.50400,-72.31200951
13.50450,-64.37695491
13.50500,-40.57179111
13.50550,-15.54584967
13.50600,-1.812101328
13.50650,0.01906511792
13.50700,-0.2861292898
13.50750,0.934648341
13.50800,3.376203603
13.50850,3.68139801
13.50900,1.850231564
13.50950,0.01906511792
13.51000,0.01906511792
13.51050,2.155425972
13.51100,4.902175641
13.51150,3.376203603
13.51200,-4.558850998
13.51250,-12.79910001
13.51300,-10.35754474
13.51350,3.986592418
13.51400,19.55150721
13.51450,25.65539536
13.51500,21.68786806
13.51550,16.19436873
13.51600,14.05800787
13.51650,14.05800787
13.51700,14.66839669
13.51750,14.05800787
13.51800,11.92164702
13.51850,8.869702941
13.51900,6.42814768
13.51950,4.596981233
13.52000,2.46062038
13.52050,0.01906511792
13.52100,-0.5913236975
13.52150,0.934648341
13.52200,3.68139801
13.52250,5.207370049
13.52300,5.512564457
13.52350,3.68139801
13.52400,-0.8965181052
13.52450,-6.695211852
13.52500,-9.136767113
13.52550,-6.695211852
13.52600,-2.422490144
13.52650,0.6294539333
13.52700,3.071009195
13.52750,4.596981233
13.52800,4.596981233
13.52850,6.122953272
13.52900,11.61645261
13.52950,14.36320228
13.53000,6.733342087
13.53050,-8.22118389
13.53100,-16.4614329
13.53150,-11.57832237
13.53200,-0.2861292898
13.53250,10.70086939
13.53300,23.51903451
13.53350,36.03200523
13.53400,38.7787549
13.53450,24.73981214
13.53500,5.512564457
13.53550,0.01906511792
13.53600,11.0060638
13.53650,24.43461773
13.53700,21.07747925
13.53750,-4.558850998
13.53800,-39.65620788
13.53850,-62.24059405
13.53900,-61.93539965
13.53950,-44.53931841
13.54000,-22.87051546
13.54050,-3.338073367
13.54100,9.174897349
13.54150,6.733342087
13.54200,-12.4939056
13.54250,-34.77309736
13.54300,-40.57179111
13.54350,-29.58479243
13.54400,-16.4614329
13.54450,-9.441961521
13.54500,-3.643267774
13.54550,2.46062038
13.54600,3.986592418
13.54650,0.6294539333
13.54700,0.3242595256
13.54750,2.46062038
13.54800,-1.812101328
13.54850,-15.54584967
13.54900,-27.14323717
13.54950,-28.3640148
13.55000,-22.26012664
13.55050,-12.4939056
13.55100,0.01906511792
13.55150,5.817758864
13.55200,-10.35754474
13.55250,-48.50684571
13.55300,-80.55225852
13.55350,-81.16264733
13.55400,-54.91592827
13.55450,-25.92245954
13.55500,-8.526378298
13.55550,0.6294539333
13.55600,7.038536495
13.55650,9.174897349
13.55700,8.259314126
13.55750,10.09048057
13.55800,15.88917432
13.55850,20.46709043
13.55900,20.46709043
13.55950,17.41514636
13.56000,14.9735911
13.56050,13.44761906
13.56100,11.3112582
13.56150,9.174897349
13.56200,8.869702941
13.56250,11.61645261
13.56300,16.49956313
13.56350,21.07747925
13.56400,24.73981214
13.56450,27.48656181
13.56500,29.31772826
13.56550,28.70733944
13.56600,25.96058977
13.56650,21.99306247
13.56700,19.2463128
13.56750,17.10995195
13.56800,13.75281346
13.56850,9.174897349
13.56900,5.512564457
13.56950,4.291786826
13.57000,3.376203603
13.57050,1.545037156
13.57100,0.6294539333
13.57150,1.850231564
13.57200,4.902175641
13.57250,7.954119718
13.57300,8.869702941
13.57350,7.954119718
13.57400,6.733342087
13.57450,7.64892531
13.57500,11.61645261
13.57550,14.36320228
13.57600,12.53203583
13.57650,7.64892531
13.57700,4.902175641
13.57750,6.122953272
13.57800,8.869702941
13.57850,12.53203583
13.57900,17.10995195
13.57950,18.02553517
13.58000,11.3112582
13.58050,3.68139801
13.58100,6.733342087
13.58150,20.16189603
13.58200,29.31772826
13.58250,24.12942333
13.58300,13.14242465
13.58350,7.343730903
13.58400,3.376203603
13.58450,-10.35754474
13.58500,-32.02634769
13.58550,-47.28606808
13.58600,-46.67567926
13.58650,-34.16270854
13.58700,-17.07182171
13.58750,0.3242595256
13.58800,14.36320228
13.58850,22.29825688
13.58900,25.04500655
13.58950,26.876173
13.59000,27.48656181
13.59050,24.43461773
13.59100,18.33072958
13.59150,14.66839669
13.59200,15.2787855
13.59250,15.2787855
13.59300,8.564508534
13.59350,-6.390017444
13.59400,-25.61726513
13.59450,-41.18217992
13.59500,-46.37048485
13.59550,-41.48737433
13.59600,-31.11076447
13.59650,-18.90298816
13.59700,-5.779628628
13.59750,2.46062038
13.59800,-3.948462182
13.59850,-28.3640148
13.59900,-56.1367059
13.59950,-64.37695491
13.60000,-47.28606808
13.60050,-19.51337697
13.60100,0.3242595256
13.60150,8.869702941
13.60200,14.66839669
13.60250,20.16189603
13.60300,17.41514636
13.60350,0.3242595256
13.60400,-24.3964875
13.60450,-41.18217992
13.60500,-38.13023584
13.60550,-20.4289602
13.60600,-2.422490144
13.60650,6.733342087
13.60700,8.564508534
13.60750,8.869702941
13.60800,9.480091757
13.60850,8.564508534
13.60900,5.512564457
13.60950,2.765814787
13.61000,1.545037156
13.61050,-0.2861292898
13.61100,-4.864045405
13.61150,-9.747155929
13.61200,-10.35754474
13.61250,-6.695211852
13.61300,-3.032878959
13.61350,-4.25365659
13.61400,-8.831572705
13.61450,-10.35754474
13.61500,-5.474434221
13.61550,1.545037156
13.61600,4.902175641
13.61650,2.765814787
13.61700,0.01906511792
13.61750,0.6294539333
13.61800,2.155425972
13.61850,2.155425972
13.61900,2.155425972
13.61950,7.954119718
13.62000,18.02553517
13.62050,24.73981214
13.62100,25.04500655
13.62150,23.51903451
13.62200,24.43461773
13.62250,25.96058977
13.62300,25.96058977
13.62350,26.876173
13.62400,28.70733944
13.62450,25.96058977
13.62500,14.05800787
13.62550,-1.201712513
13.62600,-10.66273915
13.62650,-10.96793356
13.62700,-5.779628628
13.62750,0.934648341
13.62800,7.343730903
13.62850,10.39567498
13.62900,8.869702941
13.62950,7.954119718
13.63000,11.61645261
13.63050,17.41514636
13.63100,21.68786806
13.63150,26.57097859
13.63200,34.8112276
13.63250,41.22031016
13.63300,38.47356049
13.63350,26.57097859
13.63400,13.14242465
13.63450,0.934648341
13.63500,-11.88351678
13.63550,-24.3964875
13.63600,-31.41595888
13.63650,-33.24712532
13.63700,-37.51984703
13.63750,-47.28606808
13.63800,-56.44190031
13.63850,-58.27306675
13.63900,-54.91592827
13.63950,-51.25359538
13.64000,-46.06529045
13.64050,-35.38348618
13.64100,-22.26012664
13.64150,-11.88351678
13.64200,-5.779628628
13.64250,0.934648341
13.64300,11.0060638
13.64350,21.07747925
13.64400,26.57097859
13.64450,27.79175622
13.64500,27.79175622
13.64550,27.1813674
13.64600,23.82422892
13.64650,18.02553517
13.64700,11.3112582
13.64750,5.817758864
13.64800,4.902175641
13.64850,9.785286164
13.64900,15.2787855
13.64950,11.92164702
13.65000,-4.864045405
13.65050,-25.92245954
13.65100,-36.2990694
13.65150,-32.94193091
13.65200,-24.3964875
13.65250,-18.29259934
13.65300,-13.71468323
13.65350,-7.305600667
13.65400,-2.422490144
13.65450,-2.727684551
13.65500,-5.169239813
13.65550,-4.25365659
13.65600,0.01906511792
13.65650,5.207370049
13.65700,10.09048057
13.65750,15.58397991
13.65800,19.55150721
13.65850,21.38267366
13.65900,27.48656181
13.65950,38.7787549
13.66000,42.13589338
13.66050,22.29825688
13.66100,-14.32507204
13.66150,-39.65620788
13.66200,-36.90945821
13.66250,-19.51337697
13.66300,-10.05235034
13.66350,-10.35754474
13.66400,-7.915989482
13.66450,2.765814787
13.66500,14.66839669
13.66550,21.38267366
13.66600,24.73981214
13.66650,27.1813674
13.66700,25.96058977
13.66750,21.99306247
13.66800,18.63592399
13.66850,16.19436873
13.66900,11.92164702
13.66950,6.733342087
13.67000,3.68139801
13.67050,1.239842749
13.67100,-5.779628628
13.67150,-16.15623849
13.67200,-21.03934901
13.67250,-17.68221053
13.67300,-12.4939056
13.67350,-9.747155929
13.67400,-5.779628628
13.67450,2.46062038
13.67500,11.92164702
13.67550,17.72034076
13.67600,19.55150721
13.67650,18.63592399
13.67700,15.58397991
13.67750,13.44761906
13.67800,12.53203583
13.67850,6.733342087
13.67900,-8.831572705
13.67950,-26.83804276
13.68000,-32.02634769
13.68050,-22.56532105
13.68100,-12.18871119
13.68150,-8.831572705
13.68200,-5.169239813
13.68250,6.42814768
13.68300,21.07747925
13.68350,32.67486674
13.68400,42.7462822
13.68450,47.62939272
13.68500,32.67486674
13.68550,-8.22118389
13.68600,-54.00034505
13.68650,-73.53278714
13.68700,-60.40942761
13.68750,-35.38348618
13.68800,-18.29259934
13.68850,-13.71468323
13.68900,-16.4614329
13.68950,-24.3964875
13.69000,-33.55231973
13.69050,-35.68868058
13.69100,-27.14323717
13.69150,-11.88351678
13.69200,0.6294539333
13.69250,7.343730903
13.69300,9.174897349
13.69350,8.564508534
13.69400,7.64892531
13.69450,7.038536495
13.69500,6.122953272
13.69550,4.902175641
13.69600,3.071009195
13.69650,1.545037156
13.69700,0.01906511792
13.69750,-2.422490144
13.69800,-3.948462182
13.69850,-3.338073367
13.69900,-1.506906921
13.69950,0.01906511792
13.70000,2.765814787
13.70050,7.64892531
13.70100,10.70086939
13.70150,8.259314126
13.70200,1.850231564
13.70250,1.239842749
13.70300,11.61645261
13.70350,26.57097859
13.70400,34.20083878
13.70450,31.1488947
13.70500,24.43461773
13.70550,21.07747925
13.70600,21.99306247
13.70650,23.82422892
13.70700,26.57097859
13.70750,29.92811707
13.70800,26.876173
13.70850,10.09048057
13.70900,-16.4614329
13.70950,-37.82504144
13.71000,-42.40295755
13.71050,-33.24712532
13.71100,-22.26012664
13.71150,-15.54584967
13.71200,-10.96793356
13.71250,-6.695211852
13.71300,-3.338073367
13.71350,-2.727684551
13.71400,-3.338073367
13.71450,-3.032878959
13.71500,-2.117295736
13.71550,-1.506906921
13.71600,-0.5913236975
13.71650,2.46062038
13.71700,7.954119718
13.71750,14.36320228
13.71800,19.55150721
13.71850,22.60345129
13.71900,21.07747925
13.71950,14.36320228
13.72000,5.207370049
13.72050,-2.117295736
13.72100,-4.864045405
13.72150,-3.032878959
13.72200,1.545037156
13.72250,7.64892531
13.72300,11.92164702
13.72350,11.92164702
13.72400,7.954119718
13.72450,4.291786826
13.72500,5.817758864
13.72550,13.44761906
13.72600,23.82422892
13.72650,35.72681082
13.72700,47.62939272
13.72750,50.07094798
13.72800,30.23331148
13.72850,-11.27312797
13.72900,-53.69515064
13.72950,-70.48084306
13.73000,-58.88345557
13.73050,-38.74062466
13.73100,-27.14323717
13.73150,-22.56532105
13.73200,-13.71468323
13.73250,1.545037156
13.73300,15.88917432
13.73350,22.29825688
13.73400,19.85670162
13.73450,11.0060638
13.73500,1.850231564
13.73550,-0.5913236975
13.73600,2.765814787
13.73650,5.207370049
13.73700,3.376203603
13.73750,1.239842749
13.73800,0.934648341
13.73850,-7.305600667
13.73900,-32.63673651
13.73950,-63.76656609
13.74000,-78.11070325
13.74050,-66.51331576
13.74100,-41.48737433
13.74150,-19.51337697
13.74200,-4.25365659
13.74250,7.038536495
13.74300,14.9735911
13.74350,18.33072958
13.74400,18.9411184
13.74450,19.85670162
13.74500,19.55150721
13.74550,15.88917432
13.74600,11.61645261
13.74650,10.09048057
13.74700,9.785286164
13.74750,8.259314126
13.74800,6.42814768
13.74850,7.64892531
13.74900,10.70086939
13.74950,10.09048057
13.75000,3.376203603
13.75050,-3.643267774
13.75100,-6.390017444
13.75150,-3.948462182
13.75200,-2.727684551
13.75250,-7.305600667
13.75300,-16.4614329
13.75350,-23.48090428
13.75400,-22.87051546
13.75450,-14.63026645
13.75500,-3.948462182
13.75550,6.122953272
13.75600,15.2787855
13.75650,21.99306247
13.75700,23.82422892
13.75750,21.38267366
13.75800,19.2463128
13.75850,19.85670162
13.75900,21.07747925
13.75950,22.29825688
13.76000,26.57097859
13.76050,31.45408911
13.76100,25.04500655
13.76150,-0.5913236975
13.76200,-34.46790295
13.76250,-53.38995623
13.76300,-46.67567926
13.76350,-26.53284835
13.76400,-12.18871119
13.76450,-13.40948882
13.76500,-25.92245954
13.76550,-39.35101348
13.76600,-41.48737433
13.76650,-26.83804276
13.76700,-0.5913236975
13.76750,22.60345129
13.76800,34.20083878
13.76850,34.8112276
13.76900,30.23331148
13.76950,24.73981214
13.77000,19.55150721
13.77050,14.66839669
13.77100,7.64892531
13.77150,-0.8965181052
13.77200,-6.390017444
13.77250,-3.643267774
13.77300,1.545037156
13.77350,-0.8965181052
13.77400,-14.32507204
13.77450,-27.44843158
13.77500,-31.11076447
13.77550,-27.44843158
13.77600,-21.34454342
13.77650,-14.63026645
13.77700,-7.000406259
13.77750,-1.812101328
13.77800,-1.201712513
13.77850,-1.506906921
13.77900,0.6294539333
13.77950,4.291786826
13.78000,5.207370049
13.78050,4.902175641
13.78100,6.42814768
13.78150,8.869702941
13.78200,8.564508534
13.78250,7.64892531
13.78300,9.480091757
13.78350,13.75281346
13.78400,14.9735911
13.78450,11.92164702
13.78500,8.564508534
13.78550,7.954119718
13.78600,8.869702941
13.78650,10.09048057
13.78700,10.39567498
13.78750,9.785286164
13.78800,8.564508534
