"type","name","time_units","begin_time","frequency","count","units"
"signal","Ultium EMG-BRACHIORAD. RT","s",439.96000,2000,22000,"uV"

"time","value"
439.96000,1.195611675
439.96050,-0.3303603634
439.96100,0.280028452
439.96150,0.5852228597
439.96200,-0.6355547711
439.96250,-2.16152681
439.96300,-1.856332402
439.96350,-0.9407491788
439.96400,-3.992693256
439.96450,-11.62255345
439.96500,-17.11605279
439.96550,-13.45371989
439.96600,-0.3303603634
439.96650,12.79299917
439.96700,16.15013765
439.96750,8.215083052
439.96800,-4.908276479
439.96850,-15.89527516
439.96900,-21.38877449
439.96950,-22.91474653
439.97000,-23.52513535
439.97050,-23.52513535
439.97100,-22.30435772
439.97150,-17.7264416
439.97200,-9.791387002
439.97250,-3.38230444
439.97300,-2.16152681
439.97350,-5.213470887
439.97400,-6.434248517
439.97450,-3.38230444
439.97500,0.8904172674
439.97550,3.026778121
439.97600,2.721583714
439.97650,2.416389306
439.97700,4.247555752
439.97750,7.909888645
439.97800,11.57222154
439.97850,13.09819358
439.97900,11.87741594
439.97950,10.35144391
439.98000,10.0462495
439.98050,10.35144391
439.98100,7.909888645
439.98150,2.721583714
439.98200,-1.856332402
439.98250,-4.297887663
439.98300,-4.908276479
439.98350,-3.992693256
439.98400,-0.3303603634
439.98450,6.383916606
439.98500,11.26702713
439.98550,9.130666275
439.98600,2.111194898
439.98650,-5.213470887
439.98700,-11.62255345
439.98750,-18.33683042
439.98800,-23.52513535
439.98850,-22.60955213
439.98900,-14.97969193
439.98950,-6.12905411
439.99000,-2.466721217
439.99050,-3.38230444
439.99100,-4.603082071
439.99150,-1.856332402
439.99200,4.857944568
439.99250,12.18261035
439.99300,15.23455443
439.99350,11.87741594
439.99400,6.689111014
439.99450,4.857944568
439.99500,8.52027746
439.99550,13.09819358
439.99600,15.23455443
439.99650,14.31897121
439.99700,11.26702713
439.99750,6.383916606
439.99800,1.195611675
439.99850,-1.245943586
439.99900,-0.02516595566
439.99950,3.331972529
440.00000,6.078722198
440.00050,7.604694237
440.00100,9.741055091
440.00150,10.96183272
440.00200,8.825471868
440.00250,5.163138975
440.00300,6.689111014
440.00350,14.31897121
440.00400,19.20208173
440.00450,14.92936002
440.00500,4.857944568
440.00550,-1.245943586
440.00600,-3.992693256
440.00650,-11.01216463
440.00700,-23.83032976
440.00750,-33.5965508
440.00800,-32.98616199
440.00850,-25.05110739
440.00900,-18.33683042
440.00950,-13.45371989
440.01000,-7.044637333
440.01050,-2.16152681
440.01100,-3.687498848
440.01150,-9.791387002
440.01200,-11.92774786
440.01250,-5.518665294
440.01300,6.994305421
440.01350,22.55922021
440.01400,38.42932941
440.01450,51.24749454
440.01500,55.52021625
440.01550,50.33191132
440.01600,40.87088468
440.01650,32.93583008
440.01700,26.52674751
440.01750,20.11766495
440.01800,13.70858239
440.01850,6.994305421
440.01900,-2.466721217
440.01950,-14.36930312
440.02000,-23.52513535
440.02050,-26.57707943
440.02100,-25.35630179
440.02150,-25.6614962
440.02200,-29.6290235
440.02250,-34.51213403
440.02300,-37.5640781
440.02350,-36.64849488
440.02400,-29.93421791
440.02450,-18.64202483
440.02500,-8.265414964
440.02550,-6.434248517
440.02600,-12.53813667
440.02650,-18.64202483
440.02700,-17.11605279
440.02750,-9.486192594
440.02800,-3.077110033
440.02850,-2.16152681
440.02900,-6.12905411
440.02950,-11.31735904
440.03000,-12.53813667
440.03050,-6.739442925
440.03100,2.111194898
440.03150,6.078722198
440.03200,4.247555752
440.03250,3.637166937
440.03300,9.130666275
440.03350,13.70858239
440.03400,11.26702713
440.03450,7.299499829
440.03500,10.96183272
440.03550,18.28649851
440.03600,19.81247054
440.03650,17.06572088
440.03700,20.11766495
440.03750,29.27349718
440.03800,33.24102448
440.03850,27.44233074
440.03900,19.50727614
440.03950,14.31897121
440.04000,5.773527791
440.04050,-8.570609371
440.04100,-21.08358009
440.04150,-25.6614962
440.04200,-27.79785706
440.04250,-35.12252284
440.04300,-40.92121659
440.04350,-35.12252284
440.04400,-18.64202483
440.04450,-0.9407491788
440.04500,12.18261035
440.04550,24.39038666
440.04600,35.37738534
440.04650,40.87088468
440.04700,38.73452382
440.04750,30.79946922
440.04800,19.20208173
440.04850,6.383916606
440.04900,-3.687498848
440.04950,-8.265414964
440.05000,-8.265414964
440.05050,-6.739442925
440.05100,-3.38230444
440.05150,1.500806083
440.05200,5.773527791
440.05250,6.689111014
440.05300,6.994305421
440.05350,9.741055091
440.05400,10.65663831
440.05450,2.416389306
440.05500,-12.84333108
440.05550,-24.44071857
440.05600,-24.13552416
440.05650,-14.06410871
440.05700,-0.6355547711
440.05750,10.0462495
440.05800,13.09819358
440.05850,6.689111014
440.05900,-3.38230444
440.05950,-7.34983174
440.06000,-0.9407491788
440.06050,6.689111014
440.06100,6.078722198
440.06150,-1.245943586
440.06200,-7.34983174
440.06250,-6.739442925
440.06300,-2.466721217
440.06350,1.500806083
440.06400,5.468333383
440.06450,9.435860683
440.06500,9.741055091
440.06550,5.773527791
440.06600,-0.02516595566
440.06650,-3.38230444
440.06700,-5.823859702
440.06750,-8.875803779
440.06800,-12.23294226
440.06850,-14.67449753
440.06900,-15.28488634
440.06950,-15.59008075
440.07000,-15.28488634
440.07050,-13.14852549
440.07100,-8.265414964
440.07150,-2.466721217
440.07200,1.500806083
440.07250,3.026778121
440.07300,3.026778121
440.07350,2.416389306
440.07400,0.8904172674
440.07450,-0.6355547711
440.07500,-2.16152681
440.07550,-1.245943586
440.07600,2.111194898
440.07650,7.299499829
440.07700,10.65663831
440.07750,9.435860683
440.07800,3.637166937
440.07850,-2.771915625
440.07900,-6.739442925
440.07950,-7.044637333
440.08000,-6.434248517
440.08050,-8.265414964
440.08100,-11.92774786
440.08150,-13.45371989
440.08200,-10.70697023
440.08250,-6.12905411
440.08300,-4.297887663
440.08350,-6.434248517
440.08400,-9.486192594
440.08450,-11.01216463
440.08500,-10.09658141
440.08550,-7.655026148
440.08600,-4.297887663
440.08650,-2.16152681
440.08700,-2.466721217
440.08750,-3.992693256
440.08800,-3.38230444
440.08850,0.280028452
440.08900,4.247555752
440.08950,5.773527791
440.09000,6.383916606
440.09050,8.215083052
440.09100,10.0462495
440.09150,10.0462495
440.09200,9.435860683
440.09250,10.0462495
440.09300,10.0462495
440.09350,7.604694237
440.09400,4.247555752
440.09450,2.721583714
440.09500,1.806000491
440.09550,-0.6355547711
440.09600,-3.077110033
440.09650,-1.245943586
440.09700,2.416389306
440.09750,3.942361344
440.09800,3.942361344
440.09850,8.52027746
440.09900,17.06572088
440.09950,21.33844258
440.10000,17.67610969
440.10050,10.65663831
440.10100,6.078722198
440.10150,4.55275016
440.10200,4.857944568
440.10250,6.994305421
440.10300,9.130666275
440.10350,7.604694237
440.10400,3.637166937
440.10450,2.721583714
440.10500,5.163138975
440.10550,3.331972529
440.10600,-5.823859702
440.10650,-15.28488634
440.10700,-17.42124719
440.10750,-15.28488634
440.10800,-15.28488634
440.10850,-16.20046956
440.10900,-14.97969193
440.10950,-12.84333108
440.11000,-14.36930312
440.11050,-18.64202483
440.11100,-20.16799686
440.11150,-16.81085838
440.11200,-12.23294226
440.11250,-9.180998187
440.11300,-8.265414964
440.11350,-8.570609371
440.11400,-8.570609371
440.11450,-4.603082071
440.11500,1.500806083
440.11550,5.163138975
440.11600,3.331972529
440.11650,0.5852228597
440.11700,0.5852228597
440.11750,2.111194898
440.11800,0.8904172674
440.11850,-2.466721217
440.11900,-5.518665294
440.11950,-5.518665294
440.12000,-2.466721217
440.12050,2.416389306
440.12100,6.078722198
440.12150,4.247555752
440.12200,-0.02516595566
440.12250,-0.3303603634
440.12300,4.857944568
440.12350,8.215083052
440.12400,3.942361344
440.12450,-0.3303603634
440.12500,1.500806083
440.12550,7.299499829
440.12600,7.299499829
440.12650,-0.02516595566
440.12700,-7.960220556
440.12750,-14.06410871
440.12800,-19.25241364
440.12850,-22.60955213
440.12900,-20.77838568
440.12950,-12.84333108
440.13000,-2.466721217
440.13050,6.689111014
440.13100,14.0137768
440.13150,17.67610969
440.13200,15.23455443
440.13250,10.0462495
440.13300,10.0462495
440.13350,17.06572088
440.13400,24.08519225
440.13450,25.61116429
440.13500,23.16960903
440.13550,20.72805377
440.13600,17.67610969
440.13650,11.57222154
440.13700,4.247555752
440.13750,1.500806083
440.13800,3.637166937
440.13850,6.383916606
440.13900,6.994305421
440.13950,8.215083052
440.14000,11.26702713
440.14050,13.70858239
440.14100,13.40338798
440.14150,9.741055091
440.14200,2.111194898
440.14250,-9.791387002
440.14300,-21.38877449
440.14350,-24.44071857
440.14400,-15.59008075
440.14450,-3.077110033
440.14500,3.331972529
440.14550,1.806000491
440.14600,-2.16152681
440.14650,-5.213470887
440.14700,-6.12905411
440.14750,-4.908276479
440.14800,-1.245943586
440.14850,3.026778121
440.14900,3.942361344
440.14950,0.280028452
440.15000,-5.213470887
440.15050,-9.486192594
440.15100,-10.40177582
440.15150,-9.180998187
440.15200,-7.34983174
440.15250,-6.434248517
440.15300,-5.518665294
440.15350,-2.771915625
440.15400,1.806000491
440.15450,5.773527791
440.15500,5.163138975
440.15550,1.806000491
440.15600,0.8904172674
440.15650,5.163138975
440.15700,11.87741594
440.15750,16.76052647
440.15800,18.89688732
440.15850,20.72805377
440.15900,23.16960903
440.15950,24.39038666
440.16000,22.25402581
440.16050,19.50727614
440.16100,19.20208173
440.16150,20.11766495
440.16200,19.50727614
440.16250,16.15013765
440.16300,11.87741594
440.16350,6.383916606
440.16400,-1.856332402
440.16450,-12.53813667
440.16500,-22.30435772
440.16550,-29.6290235
440.16600,-35.12252284
440.16650,-38.17446692
440.16700,-36.95368929
440.16750,-32.07057876
440.16800,-27.18746824
440.16850,-24.13552416
440.16900,-20.77838568
440.16950,-15.89527516
440.17000,-12.53813667
440.17050,-14.06410871
440.17100,-18.33683042
440.17150,-21.08358009
440.17200,-21.6939689
440.17250,-23.21994094
440.17300,-25.35630179
440.17350,-22.30435772
440.17400,-11.01216463
440.17450,5.163138975
440.17500,21.03324818
440.17550,31.40985804
440.17600,36.29296856
440.17650,35.07219093
440.17700,29.57869159
440.17750,22.86441462
440.17800,18.28649851
440.17850,17.06572088
440.17900,17.06572088
440.17950,16.15013765
440.18000,14.0137768
440.18050,10.35144391
440.18100,6.383916606
440.18150,3.942361344
440.18200,3.942361344
440.18250,4.857944568
440.18300,2.416389306
440.18350,-4.603082071
440.18400,-14.06410871
440.18450,-21.6939689
440.18500,-24.74591298
440.18550,-22.91474653
440.18600,-18.94721923
440.18650,-18.33683042
440.18700,-25.35630179
440.18750,-34.51213403
440.18800,-33.5965508
440.18850,-15.59008075
440.18900,11.26702713
440.18950,32.32544126
440.19000,38.42932941
440.19050,33.24102448
440.19100,22.25402581
440.19150,10.35144391
440.19200,0.280028452
440.19250,-4.908276479
440.19300,-4.297887663
440.19350,-0.3303603634
440.19400,3.942361344
440.19450,8.52027746
440.19500,11.26702713
440.19550,12.18261035
440.19600,12.48780476
440.19650,14.31897121
440.19700,17.37091528
440.19750,19.20208173
440.19800,17.9813041
440.19850,14.31897121
440.19900,10.0462495
440.19950,6.383916606
440.20000,4.857944568
440.20050,5.468333383
440.20100,6.994305421
440.20150,6.383916606
440.20200,1.806000491
440.20250,-4.603082071
440.20300,-10.70697023
440.20350,-12.53813667
440.20400,-11.31735904
440.20450,-10.40177582
440.20500,-11.31735904
440.20550,-13.45371989
440.20600,-13.7589143
440.20650,-12.23294226
440.20700,-11.31735904
440.20750,-12.23294226
440.20800,-13.45371989
440.20850,-12.53813667
440.20900,-10.09658141
440.20950,-7.044637333
440.21000,-4.908276479
440.21050,-3.687498848
440.21100,-1.856332402
440.21150,2.721583714
440.21200,9.130666275
440.21250,12.79299917
440.21300,10.35144391
440.21350,4.55275016
440.21400,0.8904172674
440.21450,0.280028452
440.21500,0.5852228597
440.21550,-0.02516595566
440.21600,-2.16152681
440.21650,-3.077110033
440.21700,-2.771915625
440.21750,-2.771915625
440.21800,-3.687498848
440.21850,-5.518665294
440.21900,-6.434248517
440.21950,-6.434248517
440.22000,-6.434248517
440.22050,-5.823859702
440.22100,-1.245943586
440.22150,9.435860683
440.22200,21.9488314
440.22250,26.52674751
440.22300,20.11766495
440.22350,9.130666275
440.22400,1.195611675
440.22450,-1.551137994
440.22500,-2.466721217
440.22550,-4.297887663
440.22600,-8.265414964
440.22650,-13.14852549
440.22700,-17.11605279
440.22750,-19.25241364
440.22800,-20.16799686
440.22850,-21.08358009
440.22900,-21.99916331
440.22950,-20.47319127
440.23000,-17.11605279
440.23050,-12.84333108
440.23100,-8.265414964
440.23150,-4.908276479
440.23200,-3.077110033
440.23250,-1.245943586
440.23300,3.637166937
440.23350,12.48780476
440.23400,19.81247054
440.23450,21.03324818
440.23500,17.67610969
440.23550,15.53974884
440.23600,16.76052647
440.23650,19.81247054
440.23700,21.9488314
440.23750,21.03324818
440.23800,14.31897121
440.23850,3.026778121
440.23900,-7.044637333
440.23950,-12.23294226
440.24000,-15.28488634
440.24050,-19.55760805
440.24100,-22.91474653
440.24150,-20.47319127
440.24200,-12.84333108
440.24250,-4.297887663
440.24300,2.721583714
440.24350,9.741055091
440.24400,14.92936002
440.24450,14.31897121
440.24500,7.909888645
440.24550,1.500806083
440.24600,-2.466721217
440.24650,-8.265414964
440.24700,-18.94721923
440.24750,-29.6290235
440.24800,-32.68096758
440.24850,-26.88227383
440.24900,-17.11605279
440.24950,-10.09658141
440.25000,-6.434248517
440.25050,-5.213470887
440.25100,-5.518665294
440.25150,-6.434248517
440.25200,-4.908276479
440.25250,2.721583714
440.25300,13.40338798
440.25350,18.59169291
440.25400,15.53974884
440.25450,10.96183272
440.25500,10.35144391
440.25550,10.96183272
440.25600,7.299499829
440.25650,1.500806083
440.25700,-0.9407491788
440.25750,-0.3303603634
440.25800,-0.3303603634
440.25850,-2.771915625
440.25900,-3.077110033
440.25950,-0.02516595566
440.26000,4.247555752
440.26050,8.215083052
440.26100,10.65663831
440.26150,8.825471868
440.26200,0.8904172674
440.26250,-7.34983174
440.26300,-9.180998187
440.26350,-3.687498848
440.26400,1.806000491
440.26450,4.55275016
440.26500,5.163138975
440.26550,2.721583714
440.26600,-4.908276479
440.26650,-14.06410871
440.26700,-14.06410871
440.26750,-3.687498848
440.26800,6.689111014
440.26850,8.825471868
440.26900,4.857944568
440.26950,0.8904172674
440.27000,-0.6355547711
440.27050,-0.3303603634
440.27100,4.247555752
440.27150,13.70858239
440.27200,21.33844258
440.27250,24.39038666
440.27300,25.9163587
440.27350,30.49427481
440.27400,35.37738534
440.27450,37.20855178
440.27500,36.29296856
440.27550,35.37738534
440.27600,32.93583008
440.27650,27.13713633
440.27700,17.9813041
440.27750,7.604694237
440.27800,-4.908276479
440.27850,-17.11605279
440.27900,-22.60955213
440.27950,-17.7264416
440.28000,-8.875803779
440.28050,-5.213470887
440.28100,-7.960220556
440.28150,-11.62255345
440.28200,-13.45371989
440.28250,-14.36930312
440.28300,-14.67449753
440.28350,-13.7589143
440.28400,-12.53813667
440.28450,-11.31735904
440.28500,-9.180998187
440.28550,-5.213470887
440.28600,-2.466721217
440.28650,-4.603082071
440.28700,-11.62255345
440.28750,-20.16799686
440.28800,-27.18746824
440.28850,-30.23941232
440.28900,-27.49266265
440.28950,-19.55760805
440.29000,-11.01216463
440.29050,-6.739442925
440.29100,-5.823859702
440.29150,-5.823859702
440.29200,-6.12905411
440.29250,-8.875803779
440.29300,-11.62255345
440.29350,-9.486192594
440.29400,-2.16152681
440.29450,5.773527791
440.29500,9.435860683
440.29550,8.52027746
440.29600,5.773527791
440.29650,4.857944568
440.29700,6.383916606
440.29750,9.741055091
440.29800,14.31897121
440.29850,18.28649851
440.29900,19.81247054
440.29950,18.28649851
440.30000,15.84494324
440.30050,14.31897121
440.30100,13.40338798
440.30150,10.65663831
440.30200,5.163138975
440.30250,-0.02516595566
440.30300,-1.245943586
440.30350,-1.245943586
440.30400,-4.908276479
440.30450,-11.62255345
440.30500,-14.67449753
440.30550,-13.14852549
440.30600,-13.7589143
440.30650,-19.55760805
440.30700,-23.21994094
440.30750,-15.89527516
440.30800,-1.551137994
440.30850,7.909888645
440.30900,8.825471868
440.30950,7.604694237
440.31000,10.0462495
440.31050,11.57222154
440.31100,7.909888645
440.31150,2.416389306
440.31200,3.026778121
440.31250,10.0462495
440.31300,16.15013765
440.31350,16.45533206
440.31400,13.09819358
440.31450,9.741055091
440.31500,7.909888645
440.31550,5.468333383
440.31600,1.195611675
440.31650,-3.38230444
440.31700,-6.434248517
440.31750,-4.908276479
440.31800,3.331972529
440.31850,18.59169291
440.31900,37.20855178
440.31950,52.77346658
440.32000,59.79293795
440.32050,54.60463302
440.32100,41.17607908
440.32150,25.9163587
440.32200,15.23455443
440.32250,8.52027746
440.32300,1.500806083
440.32350,-7.960220556
440.32400,-17.11605279
440.32450,-21.38877449
440.32500,-21.38877449
440.32550,-21.6939689
440.32600,-23.83032976
440.32650,-25.05110739
440.32700,-21.38877449
440.32750,-13.7589143
440.32800,-6.12905411
440.32850,-2.771915625
440.32900,-5.518665294
440.32950,-12.53813667
440.33000,-20.16799686
440.33050,-25.96669061
440.33100,-29.01863469
440.33150,-28.40824587
440.33200,-23.52513535
440.33250,-15.28488634
440.33300,-7.655026148
440.33350,-3.992693256
440.33400,-4.603082071
440.33450,-6.434248517
440.33500,-5.213470887
440.33550,-0.6355547711
440.33600,5.163138975
440.33650,9.130666275
440.33700,8.215083052
440.33750,2.416389306
440.33800,-5.518665294
440.33850,-11.62255345
440.33900,-14.06410871
440.33950,-12.23294226
440.34000,-7.044637333
440.34050,-1.551137994
440.34100,1.806000491
440.34150,1.195611675
440.34200,-1.551137994
440.34250,-4.908276479
440.34300,-5.518665294
440.34350,-2.771915625
440.34400,0.280028452
440.34450,1.806000491
440.34500,1.195611675
440.34550,0.5852228597
440.34600,1.500806083
440.34650,1.195611675
440.34700,-2.466721217
440.34750,-9.791387002
440.34800,-18.33683042
440.34850,-26.88227383
440.34900,-35.73291166
440.34950,-42.44718863
440.35000,-44.27835507
440.35050,-40.31082777
440.35100,-31.46018995
440.35150,-17.7264416
440.35200,0.5852228597
440.35250,16.45533206
440.35300,19.50727614
440.35350,10.0462495
440.35400,0.8904172674
440.35450,2.111194898
440.35500,11.87741594
440.35550,20.42285936
440.35600,23.47480344
440.35650,22.25402581
440.35700,17.9813041
440.35750,10.96183272
440.35800,4.857944568
440.35850,4.247555752
440.35900,9.130666275
440.35950,13.70858239
440.36000,13.40338798
440.36050,10.35144391
440.36100,6.994305421
440.36150,4.247555752
440.36200,2.721583714
440.36250,2.416389306
440.36300,2.721583714
440.36350,1.500806083
440.36400,-0.6355547711
440.36450,-1.856332402
440.36500,-0.02516595566
440.36550,3.637166937
440.36600,5.163138975
440.36650,4.857944568
440.36700,4.247555752
440.36750,3.942361344
440.36800,2.111194898
440.36850,-1.551137994
440.36900,-5.213470887
440.36950,-5.518665294
440.37000,-2.16152681
440.37050,0.8904172674
440.37100,2.416389306
440.37150,3.637166937
440.37200,6.383916606
440.37250,11.57222154
440.37300,15.23455443
440.37350,13.70858239
440.37400,6.994305421
440.37450,-0.02516595566
440.37500,-3.077110033
440.37550,-1.245943586
440.37600,1.195611675
440.37650,1.195611675
440.37700,-0.3303603634
440.37750,-1.551137994
440.37800,-2.771915625
440.37850,-4.908276479
440.37900,-6.739442925
440.37950,-5.823859702
440.38000,-2.16152681
440.38050,0.280028452
440.38100,-0.02516595566
440.38150,-2.16152681
440.38200,-3.992693256
440.38250,-4.908276479
440.38300,-6.12905411
440.38350,-7.34983174
440.38400,-6.434248517
440.38450,-2.466721217
440.38500,2.416389306
440.38550,4.857944568
440.38600,1.500806083
440.38650,-4.603082071
440.38700,-9.486192594
440.38750,-9.180998187
440.38800,-5.213470887
440.38850,-0.6355547711
440.38900,1.500806083
440.38950,1.195611675
440.39000,-2.16152681
440.39050,-7.960220556
440.39100,-13.14852549
440.39150,-13.45371989
440.39200,-7.960220556
440.39250,-0.3303603634
440.39300,1.806000491
440.39350,-2.771915625
440.39400,-9.180998187
440.39450,-8.265414964
440.39500,0.280028452
440.39550,7.299499829
440.39600,3.637166937
440.39650,-7.34983174
440.39700,-15.28488634
440.39750,-13.45371989
440.39800,-3.687498848
440.39850,8.215083052
440.39900,17.67610969
440.39950,21.9488314
440.40000,20.42285936
440.40050,16.45533206
440.40100,14.31897121
440.40150,14.62416561
440.40200,15.23455443
440.40250,14.31897121
440.40300,13.09819358
440.40350,11.87741594
440.40400,9.741055091
440.40450,5.163138975
440.40500,-0.02516595566
440.40550,0.280028452
440.40600,10.0462495
440.40650,25.30596988
440.40700,33.8514133
440.40750,26.83194192
440.40800,9.435860683
440.40850,-3.992693256
440.40900,-7.655026148
440.40950,-7.960220556
440.41000,-11.01216463
440.41050,-14.36930312
440.41100,-13.14852549
440.41150,-10.40177582
440.41200,-11.92774786
440.41250,-15.28488634
440.41300,-14.97969193
440.41350,-11.01216463
440.41400,-7.044637333
440.41450,-4.603082071
440.41500,-0.02516595566
440.41550,6.994305421
440.41600,12.18261035
440.41650,12.79299917
440.41700,10.35144391
440.41750,6.689111014
440.41800,0.8904172674
440.41850,-4.297887663
440.41900,-6.434248517
440.41950,-4.908276479
440.42000,-2.16152681
440.42050,-0.02516595566
440.42100,3.331972529
440.42150,8.215083052
440.42200,11.87741594
440.42250,12.18261035
440.42300,10.65663831
440.42350,9.130666275
440.42400,9.130666275
440.42450,11.26702713
440.42500,16.45533206
440.42550,22.55922021
440.42600,25.61116429
440.42650,22.25402581
440.42700,14.31897121
440.42750,6.994305421
440.42800,3.026778121
440.42850,-0.02516595566
440.42900,-7.34983174
440.42950,-17.42124719
440.43000,-23.52513535
440.43050,-21.38877449
440.43100,-14.36930312
440.43150,-9.486192594
440.43200,-9.180998187
440.43250,-11.31735904
440.43300,-12.23294226
440.43350,-10.70697023
440.43400,-7.044637333
440.43450,-1.551137994
440.43500,3.331972529
440.43550,5.163138975
440.43600,2.416389306
440.43650,-1.551137994
440.43700,-4.908276479
440.43750,-5.518665294
440.43800,-3.687498848
440.43850,-0.02516595566
440.43900,3.331972529
440.43950,3.026778121
440.44000,-1.856332402
440.44050,-4.603082071
440.44100,3.026778121
440.44150,19.81247054
440.44200,33.54621889
440.44250,33.24102448
440.44300,19.81247054
440.44350,2.721583714
440.44400,-11.62255345
440.44450,-21.6939689
440.44500,-23.83032976
440.44550,-15.89527516
440.44600,-2.466721217
440.44650,4.247555752
440.44700,-1.245943586
440.44750,-13.7589143
440.44800,-21.08358009
440.44850,-19.25241364
440.44900,-12.84333108
440.44950,-8.265414964
440.45000,-8.570609371
440.45050,-11.62255345
440.45100,-13.14852549
440.45150,-10.09658141
440.45200,-4.297887663
440.45250,1.195611675
440.45300,5.773527791
440.45350,9.435860683
440.45400,12.18261035
440.45450,13.70858239
440.45500,16.45533206
440.45550,21.64363699
440.45600,25.9163587
440.45650,25.30596988
440.45700,20.42285936
440.45750,16.15013765
440.45800,13.70858239
440.45850,8.825471868
440.45900,1.500806083
440.45950,-3.992693256
440.46000,-5.823859702
440.46050,-6.12905411
440.46100,-8.265414964
440.46150,-11.92774786
440.46200,-15.59008075
440.46250,-17.7264416
440.46300,-17.42124719
440.46350,-14.06410871
440.46400,-11.31735904
440.46450,-12.84333108
440.46500,-17.7264416
440.46550,-21.38877449
440.46600,-21.08358009
440.46650,-18.33683042
440.46700,-14.97969193
440.46750,-12.53813667
440.46800,-12.53813667
440.46850,-14.67449753
440.46900,-12.53813667
440.46950,-0.6355547711
440.47000,15.84494324
440.47050,27.44233074
440.47100,28.35791396
440.47150,22.55922021
440.47200,15.84494324
440.47250,9.130666275
440.47300,0.8904172674
440.47350,-7.34983174
440.47400,-13.45371989
440.47450,-14.06410871
440.47500,-9.180998187
440.47550,-0.02516595566
440.47600,7.299499829
440.47650,10.35144391
440.47700,10.0462495
440.47750,8.52027746
440.47800,5.163138975
440.47850,-0.3303603634
440.47900,-5.213470887
440.47950,-5.823859702
440.48000,-4.297887663
440.48050,-4.908276479
440.48100,-7.34983174
440.48150,-8.570609371
440.48200,-8.265414964
440.48250,-8.875803779
440.48300,-12.84333108
440.48350,-17.7264416
440.48400,-21.08358009
440.48450,-22.91474653
440.48500,-21.99916331
440.48550,-18.03163601
440.48600,-13.14852549
440.48650,-11.92774786
440.48700,-14.67449753
440.48750,-15.89527516
440.48800,-11.01216463
440.48850,-1.245943586
440.48900,7.604694237
440.48950,10.65663831
440.49000,7.909888645
440.49050,2.416389306
440.49100,-2.466721217
440.49150,-6.12905411
440.49200,-7.655026148
440.49250,-6.739442925
440.49300,-2.771915625
440.49350,1.195611675
440.49400,2.721583714
440.49450,0.5852228597
440.49500,-2.771915625
440.49550,-3.38230444
440.49600,-0.02516595566
440.49650,6.994305421
440.49700,13.70858239
440.49750,18.59169291
440.49800,21.33844258
440.49850,21.03324818
440.49900,17.9813041
440.49950,14.62416561
440.50000,13.70858239
440.50050,15.53974884
440.50100,16.45533206
440.50150,14.62416561
440.50200,12.48780476
440.50250,13.09819358
440.50300,13.70858239
440.50350,9.741055091
440.50400,1.806000491
440.50450,-4.603082071
440.50500,-5.518665294
440.50550,-2.771915625
440.50600,-1.245943586
440.50650,-3.38230444
440.50700,-9.180998187
440.50750,-16.81085838
440.50800,-22.60955213
440.50850,-24.74591298
440.50900,-23.52513535
440.50950,-21.08358009
440.51000,-18.64202483
440.51050,-16.50566397
440.51100,-16.81085838
440.51150,-19.55760805
440.51200,-20.16799686
440.51250,-13.14852549
440.51300,-1.551137994
440.51350,5.773527791
440.51400,6.078722198
440.51450,4.55275016
440.51500,7.299499829
440.51550,13.40338798
440.51600,18.28649851
440.51650,20.11766495
440.51700,21.33844258
440.51750,23.16960903
440.51800,28.05271955
440.51850,37.51374619
440.51900,50.33191132
440.51950,59.79293795
440.52000,58.57216032
440.52050,48.50074487
440.52100,37.51374619
440.52150,29.883886
440.52200,21.9488314
440.52250,9.130666275
440.52300,-4.603082071
440.52350,-11.31735904
440.52400,-10.09658141
440.52450,-8.570609371
440.52500,-14.06410871
440.52550,-21.38877449
440.52600,-19.86280246
440.52650,-9.180998187
440.52700,-1.245943586
440.52750,-4.603082071
440.52800,-11.31735904
440.52850,-9.486192594
440.52900,-0.6355547711
440.52950,3.637166937
440.53000,-0.6355547711
440.53050,-6.739442925
440.53100,-6.739442925
440.53150,-2.771915625
440.53200,-0.6355547711
440.53250,-2.16152681
440.53300,-6.12905411
440.53350,-11.92774786
440.53400,-16.20046956
440.53450,-15.28488634
440.53500,-9.791387002
440.53550,-6.12905411
440.53600,-7.960220556
440.53650,-10.70697023
440.53700,-8.570609371
440.53750,-1.856332402
440.53800,5.468333383
440.53850,12.18261035
440.53900,16.76052647
440.53950,15.84494324
440.54000,7.604694237
440.54050,-2.466721217
440.54100,-5.823859702
440.54150,-0.3303603634
440.54200,4.55275016
440.54250,-0.02516595566
440.54300,-14.36930312
440.54350,-26.57707943
440.54400,-26.57707943
440.54450,-15.28488634
440.54500,-0.9407491788
440.54550,8.825471868
440.54600,13.09819358
440.54650,11.57222154
440.54700,4.55275016
440.54750,-5.518665294
440.54800,-11.62255345
440.54850,-8.570609371
440.54900,1.195611675
440.54950,10.96183272
440.55000,16.15013765
440.55050,17.9813041
440.55100,17.37091528
440.55150,13.40338798
440.55200,6.689111014
440.55250,-0.02516595566
440.55300,-4.603082071
440.55350,-7.34983174
440.55400,-8.570609371
440.55450,-6.739442925
440.55500,-1.856332402
440.55550,3.026778121
440.55600,6.383916606
440.55650,9.130666275
440.55700,12.79299917
440.55750,15.84494324
440.55800,16.76052647
440.55850,14.92936002
440.55900,9.130666275
440.55950,0.280028452
440.56000,-8.570609371
440.56050,-13.14852549
440.56100,-11.92774786
440.56150,-7.655026148
440.56200,-5.518665294
440.56250,-5.213470887
440.56300,-4.603082071
440.56350,-4.603082071
440.56400,-6.739442925
440.56450,-9.791387002
440.56500,-10.09658141
440.56550,-6.739442925
440.56600,-3.077110033
440.56650,-2.16152681
440.56700,-3.38230444
440.56750,-3.992693256
440.56800,-4.297887663
440.56850,-4.603082071
440.56900,-4.908276479
440.56950,-5.823859702
440.57000,-8.570609371
440.57050,-13.14852549
440.57100,-15.89527516
440.57150,-13.7589143
440.57200,-8.875803779
440.57250,-5.823859702
440.57300,-6.739442925
440.57350,-8.875803779
440.57400,-9.486192594
440.57450,-7.34983174
440.57500,-3.687498848
440.57550,0.5852228597
440.57600,4.247555752
440.57650,6.994305421
440.57700,9.741055091
440.57750,13.40338798
440.57800,14.62416561
440.57850,10.0462495
440.57900,2.111194898
440.57950,-2.16152681
440.58000,-0.02516595566
440.58050,3.942361344
440.58100,4.857944568
440.58150,1.500806083
440.58200,-3.992693256
440.58250,-10.09658141
440.58300,-14.67449753
440.58350,-18.03163601
440.58400,-20.77838568
440.58450,-22.30435772
440.58500,-20.16799686
440.58550,-11.62255345
440.58600,-0.6355547711
440.58650,5.468333383
440.58700,3.942361344
440.58750,-0.02516595566
440.58800,0.280028452
440.58850,6.383916606
440.58900,13.70858239
440.58950,17.06572088
440.59000,13.40338798
440.59050,4.247555752
440.59100,-5.823859702
440.59150,-12.23294226
440.59200,-13.45371989
440.59250,-10.40177582
440.59300,-6.12905411
440.59350,-4.297887663
440.59400,-7.044637333
440.59450,-12.23294226
440.59500,-13.7589143
440.59550,-9.791387002
440.59600,-4.297887663
440.59650,-0.3303603634
440.59700,4.247555752
440.59750,12.48780476
440.59800,20.11766495
440.59850,20.11766495
440.59900,14.0137768
440.59950,9.130666275
440.60000,7.299499829
440.60050,4.247555752
440.60100,-1.551137994
440.60150,-7.044637333
440.60200,-8.265414964
440.60250,-6.12905411
440.60300,-2.771915625
440.60350,0.5852228597
440.60400,3.331972529
440.60450,4.55275016
440.60500,4.857944568
440.60550,5.163138975
440.60600,3.942361344
440.60650,-0.02516595566
440.60700,-3.992693256
440.60750,-4.908276479
440.60800,-2.466721217
440.60850,-0.6355547711
440.60900,1.195611675
440.60950,7.299499829
440.61000,17.67610969
440.61050,26.52674751
440.61100,29.57869159
440.61150,27.74752515
440.61200,23.47480344
440.61250,19.20208173
440.61300,15.23455443
440.61350,12.18261035
440.61400,10.0462495
440.61450,8.825471868
440.61500,10.65663831
440.61550,14.62416561
440.61600,14.92936002
440.61650,8.215083052
440.61700,-2.16152681
440.61750,-10.09658141
440.61800,-11.31735904
440.61850,-8.570609371
440.61900,-4.908276479
440.61950,-2.16152681
440.62000,-0.02516595566
440.62050,3.331972529
440.62100,9.741055091
440.62150,17.06572088
440.62200,18.59169291
440.62250,10.96183272
440.62300,0.280028452
440.62350,-4.908276479
440.62400,-3.38230444
440.62450,-0.9407491788
440.62500,-0.9407491788
440.62550,-1.551137994
440.62600,-0.3303603634
440.62650,-0.02516595566
440.62700,-1.245943586
440.62750,-3.38230444
440.62800,-2.466721217
440.62850,0.5852228597
440.62900,1.806000491
440.62950,-1.551137994
440.63000,-8.570609371
440.63050,-15.28488634
440.63100,-19.55760805
440.63150,-21.08358009
440.63200,-20.77838568
440.63250,-18.64202483
440.63300,-16.50566397
440.63350,-14.97969193
440.63400,-11.92774786
440.63450,-6.12905411
440.63500,-0.02516595566
440.63550,2.111194898
440.63600,-0.3303603634
440.63650,-3.38230444
440.63700,-2.771915625
440.63750,-0.3303603634
440.63800,-0.02516595566
440.63850,-1.551137994
440.63900,-1.245943586
440.63950,0.8904172674
440.64000,3.942361344
440.64050,6.383916606
440.64100,6.994305421
440.64150,3.637166937
440.64200,-3.077110033
440.64250,-8.570609371
440.64300,-8.875803779
440.64350,-6.434248517
440.64400,-5.518665294
440.64450,-4.297887663
440.64500,-0.02516595566
440.64550,5.163138975
440.64600,6.689111014
440.64650,3.026778121
440.64700,-0.3303603634
440.64750,-1.245943586
440.64800,-3.687498848
440.64850,-9.486192594
440.64900,-15.28488634
440.64950,-17.11605279
440.65000,-15.89527516
440.65050,-15.28488634
440.65100,-15.28488634
440.65150,-14.06410871
440.65200,-12.23294226
440.65250,-11.01216463
440.65300,-11.01216463
440.65350,-10.40177582
440.65400,-9.791387002
440.65450,-9.486192594
440.65500,-9.486192594
440.65550,-7.960220556
440.65600,-4.908276479
440.65650,-2.466721217
440.65700,-1.551137994
440.65750,-0.3303603634
440.65800,2.111194898
440.65850,7.299499829
440.65900,13.40338798
440.65950,18.89688732
440.66000,21.64363699
440.66050,21.9488314
440.66100,21.33844258
440.66150,22.25402581
440.66200,23.77999785
440.66250,24.69558107
440.66300,23.77999785
440.66350,21.64363699
440.66400,18.59169291
440.66450,13.70858239
440.66500,6.689111014
440.66550,-2.466721217
440.66600,-13.45371989
440.66650,-21.38877449
440.66700,-22.60955213
440.66750,-18.33683042
440.66800,-14.67449753
440.66850,-14.06410871
440.66900,-12.84333108
440.66950,-8.570609371
440.67000,-3.687498848
440.67050,-2.16152681
440.67100,-2.466721217
440.67150,-0.02516595566
440.67200,4.857944568
440.67250,7.604694237
440.67300,6.383916606
440.67350,5.163138975
440.67400,4.857944568
440.67450,3.026778121
440.67500,-3.077110033
440.67550,-11.62255345
440.67600,-17.11605279
440.67650,-15.89527516
440.67700,-8.875803779
440.67750,-0.9407491788
440.67800,3.637166937
440.67850,4.55275016
440.67900,3.942361344
440.67950,6.078722198
440.68000,13.09819358
440.68050,22.86441462
440.68100,28.66310837
440.68150,27.13713633
440.68200,20.11766495
440.68250,14.31897121
440.68300,14.0137768
440.68350,16.45533206
440.68400,16.45533206
440.68450,11.87741594
440.68500,6.078722198
440.68550,1.500806083
440.68600,-2.466721217
440.68650,-8.875803779
440.68700,-16.81085838
440.68750,-23.21994094
440.68800,-25.35630179
440.68850,-22.91474653
440.68900,-20.77838568
440.68950,-23.21994094
440.69000,-30.84980113
440.69050,-37.86927251
440.69100,-38.47966133
440.69150,-31.15499554
440.69200,-19.55760805
440.69250,-9.486192594
440.69300,-3.38230444
440.69350,-1.245943586
440.69400,-0.02516595566
440.69450,5.163138975
440.69500,14.92936002
440.69550,21.9488314
440.69600,18.89688732
440.69650,10.35144391
440.69700,6.994305421
440.69750,11.57222154
440.69800,14.92936002
440.69850,9.741055091
440.69900,1.500806083
440.69950,-0.02516595566
440.70000,4.55275016
440.70050,7.604694237
440.70100,8.215083052
440.70150,13.40338798
440.70200,26.22155311
440.70250,40.87088468
440.70300,50.63710572
440.70350,55.21502184
440.70400,56.43579947
440.70450,52.16307776
440.70500,41.17607908
440.70550,27.74752515
440.70600,15.53974884
440.70650,4.247555752
440.70700,-6.434248517
440.70750,-15.28488634
440.70800,-21.38877449
440.70850,-27.79785706
440.70900,-37.5640781
440.70950,-47.02510474
440.71000,-51.90821526
440.71050,-50.99263204
440.71100,-47.63549356
440.71150,-42.14199422
440.71200,-34.20693962
440.71250,-25.6614962
440.71300,-20.16799686
440.71350,-19.25241364
440.71400,-19.55760805
440.71450,-17.7264416
440.71500,-14.06410871
440.71550,-11.31735904
440.71600,-10.09658141
440.71650,-8.265414964
440.71700,-3.38230444
440.71750,4.55275016
440.71800,12.48780476
440.71850,17.67610969
440.71900,19.81247054
440.71950,21.03324818
440.72000,22.86441462
440.72050,25.30596988
440.72100,26.22155311
440.72150,24.39038666
440.72200,18.89688732
440.72250,12.79299917
440.72300,10.0462495
440.72350,11.26702713
440.72400,10.65663831
440.72450,6.078722198
440.72500,0.5852228597
440.72550,-1.245943586
440.72600,-3.077110033
440.72650,-8.875803779
440.72700,-15.89527516
440.72750,-15.89527516
440.72800,-6.434248517
440.72850,3.942361344
440.72900,7.299499829
440.72950,3.331972529
440.73000,-1.856332402
440.73050,-6.12905411
440.73100,-10.09658141
440.73150,-13.14852549
440.73200,-13.14852549
440.73250,-10.70697023
440.73300,-9.180998187
440.73350,-9.180998187
440.73400,-7.34983174
440.73450,-1.245943586
440.73500,6.078722198
440.73550,11.26702713
440.73600,12.18261035
440.73650,11.57222154
440.73700,10.96183272
440.73750,9.130666275
440.73800,7.299499829
440.73850,7.604694237
440.73900,11.57222154
440.73950,18.28649851
440.74000,25.61116429
440.74050,32.02024685
440.74100,34.76699652
440.74150,30.79946922
440.74200,20.42285936
440.74250,8.215083052
440.74300,-1.245943586
440.74350,-7.044637333
440.74400,-8.265414964
440.74450,-5.518665294
440.74500,-3.38230444
440.74550,-7.34983174
440.74600,-14.36930312
440.74650,-14.06410871
440.74700,-1.856332402
440.74750,11.87741594
440.74800,14.62416561
440.74850,5.163138975
440.74900,-5.823859702
440.74950,-11.62255345
440.75000,-13.7589143
440.75050,-15.89527516
440.75100,-19.55760805
440.75150,-22.91474653
440.75200,-24.13552416
440.75250,-21.6939689
440.75300,-15.59008075
440.75350,-9.180998187
440.75400,-3.992693256
440.75450,2.721583714
440.75500,13.70858239
440.75550,25.9163587
440.75600,33.8514133
440.75650,34.76699652
440.75700,30.49427481
440.75750,24.08519225
440.75800,17.9813041
440.75850,14.31897121
440.75900,12.48780476
440.75950,8.825471868
440.76000,2.416389306
440.76050,-3.38230444
440.76100,-5.213470887
440.76150,-5.213470887
440.76200,-5.213470887
440.76250,-4.603082071
440.76300,-0.02516595566
440.76350,6.383916606
440.76400,8.215083052
440.76450,3.026778121
440.76500,-4.297887663
440.76550,-9.791387002
440.76600,-11.31735904
440.76650,-10.40177582
440.76700,-8.265414964
440.76750,-5.518665294
440.76800,-2.466721217
440.76850,0.8904172674
440.76900,3.637166937
440.76950,4.857944568
440.77000,4.55275016
440.77050,5.163138975
440.77100,5.163138975
440.77150,-0.02516595566
440.77200,-11.92774786
440.77250,-24.44071857
440.77300,-26.88227383
440.77350,-18.03163601
440.77400,-4.603082071
440.77450,4.55275016
440.77500,7.299499829
440.77550,3.942361344
440.77600,-3.077110033
440.77650,-9.791387002
440.77700,-11.92774786
440.77750,-10.40177582
440.77800,-9.486192594
440.77850,-10.70697023
440.77900,-11.01216463
440.77950,-8.570609371
440.78000,-5.213470887
440.78050,-3.38230444
440.78100,-3.992693256
440.78150,-6.739442925
440.78200,-9.180998187
440.78250,-5.518665294
440.78300,6.383916606
440.78350,19.81247054
440.78400,23.16960903
440.78450,16.15013765
440.78500,7.604694237
440.78550,3.637166937
440.78600,0.280028452
440.78650,-6.434248517
440.78700,-12.53813667
440.78750,-13.14852549
440.78800,-10.70697023
440.78850,-10.40177582
440.78900,-12.53813667
440.78950,-13.14852549
440.79000,-12.23294226
440.79050,-11.62255345
440.79100,-10.40177582
440.79150,-6.12905411
440.79200,-0.6355547711
440.79250,1.500806083
440.79300,-0.02516595566
440.79350,-2.466721217
440.79400,-2.771915625
440.79450,-2.466721217
440.79500,-2.771915625
440.79550,-3.687498848
440.79600,-3.38230444
440.79650,-2.466721217
440.79700,-0.6355547711
440.79750,2.416389306
440.79800,7.604694237
440.79850,11.57222154
440.79900,13.40338798
440.79950,13.09819358
440.80000,11.87741594
440.80050,10.35144391
440.80100,6.689111014
440.80150,0.8904172674
440.80200,-5.518665294
440.80250,-10.09658141
440.80300,-11.01216463
440.80350,-8.265414964
440.80400,-2.16152681
440.80450,3.942361344
440.80500,6.078722198
440.80550,1.500806083
440.80600,-6.434248517
440.80650,-13.7589143
440.80700,-18.33683042
440.80750,-22.91474653
440.80800,-27.18746824
440.80850,-28.40824587
440.80900,-24.74591298
440.80950,-18.94721923
440.81000,-14.67449753
440.81050,-11.62255345
440.81100,-7.044637333
440.81150,-1.551137994
440.81200,-0.02516595566
440.81250,-2.771915625
440.81300,-4.603082071
440.81350,-2.466721217
440.81400,0.280028452
440.81450,-0.3303603634
440.81500,-4.603082071
440.81550,-6.12905411
440.81600,-2.16152681
440.81650,3.637166937
440.81700,6.994305421
440.81750,8.825471868
440.81800,14.92936002
440.81850,25.61116429
440.81900,34.76699652
440.81950,35.37738534
440.82000,28.96830278
440.82050,21.64363699
440.82100,17.06572088
440.82150,14.0137768
440.82200,12.18261035
440.82250,11.57222154
440.82300,11.57222154
440.82350,10.35144391
440.82400,6.994305421
440.82450,4.247555752
440.82500,2.416389306
440.82550,0.5852228597
440.82600,-3.077110033
440.82650,-7.655026148
440.82700,-11.01216463
440.82750,-11.92774786
440.82800,-10.70697023
440.82850,-9.486192594
440.82900,-10.40177582
440.82950,-13.7589143
440.83000,-16.20046956
440.83050,-15.28488634
440.83100,-12.23294226
440.83150,-11.62255345
440.83200,-16.20046956
440.83250,-21.08358009
440.83300,-21.6939689
440.83350,-17.11605279
440.83400,-10.40177582
440.83450,-2.771915625
440.83500,3.942361344
440.83550,9.741055091
440.83600,12.18261035
440.83650,11.57222154
440.83700,9.741055091
440.83750,7.909888645
440.83800,6.383916606
440.83850,6.383916606
440.83900,9.130666275
440.83950,14.31897121
440.84000,18.89688732
440.84050,19.20208173
440.84100,14.92936002
440.84150,10.0462495
440.84200,6.383916606
440.84250,3.331972529
440.84300,-0.3303603634
440.84350,-4.908276479
440.84400,-7.044637333
440.84450,-5.823859702
440.84500,-4.908276479
440.84550,-8.570609371
440.84600,-15.28488634
440.84650,-21.08358009
440.84700,-24.44071857
440.84750,-27.18746824
440.84800,-31.15499554
440.84850,-33.90174521
440.84900,-32.98616199
440.84950,-29.93421791
440.85000,-24.44071857
440.85050,-15.28488634
440.85100,-2.16152681
440.85150,9.741055091
440.85200,16.15013765
440.85250,18.28649851
440.85300,20.42285936
440.85350,24.39038666
440.85400,27.74752515
440.85450,28.66310837
440.85500,27.74752515
440.85550,26.52674751
440.85600,26.83194192
440.85650,30.79946922
440.85700,37.51374619
440.85750,43.00724553
440.85800,43.31243994
440.85850,40.87088468
440.85900,39.65010705
440.85950,39.65010705
440.86000,37.8189406
440.86050,32.02024685
440.86100,21.9488314
440.86150,7.604694237
440.86200,-7.960220556
440.86250,-19.25241364
440.86300,-23.21994094
440.86350,-25.05110739
440.86400,-30.54460673
440.86450,-35.12252284
440.86500,-29.6290235
440.86550,-17.42124719
440.86600,-11.62255345
440.86650,-19.25241364
440.86700,-31.46018995
440.86750,-36.34330047
440.86800,-32.37577317
440.86850,-26.57707943
440.86900,-22.60955213
440.86950,-18.03163601
440.87000,-10.40177582
440.87050,-0.6355547711
440.87100,6.994305421
440.87150,11.26702713
440.87200,13.40338798
440.87250,14.31897121
440.87300,15.84494324
440.87350,16.76052647
440.87400,16.15013765
440.87450,14.92936002
440.87500,14.92936002
440.87550,16.76052647
440.87600,16.45533206
440.87650,11.26702713
440.87700,4.55275016
440.87750,2.111194898
440.87800,7.604694237
440.87850,17.06572088
440.87900,23.47480344
440.87950,22.25402581
440.88000,14.31897121
440.88050,5.468333383
440.88100,0.5852228597
440.88150,2.111194898
440.88200,5.468333383
440.88250,6.078722198
440.88300,4.247555752
440.88350,4.247555752
440.88400,7.299499829
440.88450,8.52027746
440.88500,4.55275016
440.88550,-0.02516595566
440.88600,-0.9407491788
440.88650,-0.3303603634
440.88700,-1.856332402
440.88750,-3.077110033
440.88800,0.280028452
440.88850,5.773527791
440.88900,3.942361344
440.88950,-4.908276479
440.89000,-11.62255345
440.89050,-10.09658141
440.89100,-7.34983174
440.89150,-10.70697023
440.89200,-17.7264416
440.89250,-21.6939689
440.89300,-21.99916331
440.89350,-19.25241364
440.89400,-11.31735904
440.89450,0.8904172674
440.89500,11.26702713
440.89550,13.70858239
440.89600,10.35144391
440.89650,7.299499829
440.89700,6.689111014
440.89750,6.994305421
440.89800,8.52027746
440.89850,12.18261035
440.89900,13.40338798
440.89950,9.741055091
440.90000,5.468333383
440.90050,5.773527791
440.90100,9.741055091
440.90150,12.18261035
440.90200,12.18261035
440.90250,11.87741594
440.90300,11.26702713
440.90350,8.825471868
440.90400,6.994305421
440.90450,8.52027746
440.90500,10.65663831
440.90550,8.215083052
440.90600,0.280028452
440.90650,-8.875803779
440.90700,-17.7264416
440.90750,-25.6614962
440.90800,-30.23941232
440.90850,-29.93421791
440.90900,-26.57707943
440.90950,-23.83032976
440.91000,-21.38877449
440.91050,-16.50566397
440.91100,-10.70697023
440.91150,-7.960220556
440.91200,-7.044637333
440.91250,-2.771915625
440.91300,5.163138975
440.91350,12.48780476
440.91400,15.53974884
440.91450,13.09819358
440.91500,5.468333383
440.91550,-5.518665294
440.91600,-14.06410871
440.91650,-14.67449753
440.91700,-9.180998187
440.91750,-4.908276479
440.91800,-5.518665294
440.91850,-8.875803779
440.91900,-13.14852549
440.91950,-18.33683042
440.92000,-23.52513535
440.92050,-25.05110739
440.92100,-21.38877449
440.92150,-15.59008075
440.92200,-10.09658141
440.92250,-7.34983174
440.92300,-9.180998187
440.92350,-11.01216463
440.92400,-4.297887663
440.92450,13.70858239
440.92500,31.71505245
440.92550,33.54621889
440.92600,20.11766495
440.92650,6.383916606
440.92700,1.806000491
440.92750,1.500806083
440.92800,-1.551137994
440.92850,-6.739442925
440.92900,-8.265414964
440.92950,-7.34983174
440.93000,-7.044637333
440.93050,-7.960220556
440.93100,-8.875803779
440.93150,-10.09658141
440.93200,-11.92774786
440.93250,-13.45371989
440.93300,-12.84333108
440.93350,-11.62255345
440.93400,-10.70697023
440.93450,-8.265414964
440.93500,-2.771915625
440.93550,2.416389306
440.93600,4.857944568
440.93650,3.331972529
440.93700,0.280028452
440.93750,-0.9407491788
440.93800,-1.245943586
440.93850,-0.3303603634
440.93900,0.280028452
440.93950,1.500806083
440.94000,2.416389306
440.94050,2.111194898
440.94100,-0.02516595566
440.94150,-0.02516595566
440.94200,5.163138975
440.94250,14.62416561
440.94300,21.33844258
440.94350,19.81247054
440.94400,12.18261035
440.94450,4.247555752
440.94500,-0.02516595566
440.94550,-1.856332402
440.94600,-1.856332402
440.94650,-1.245943586
440.94700,-2.771915625
440.94750,-7.655026148
440.94800,-13.14852549
440.94850,-15.59008075
440.94900,-15.59008075
440.94950,-15.59008075
440.95000,-15.59008075
440.95050,-11.92774786
440.95100,-4.603082071
440.95150,1.500806083
440.95200,3.637166937
440.95250,3.026778121
440.95300,2.721583714
440.95350,4.55275016
440.95400,7.604694237
440.95450,11.26702713
440.95500,15.84494324
440.95550,20.72805377
440.95600,23.77999785
440.95650,22.25402581
440.95700,16.76052647
440.95750,10.65663831
440.95800,6.994305421
440.95850,3.637166937
440.95900,-2.466721217
440.95950,-12.53813667
440.96000,-22.60955213
440.96050,-28.71344028
440.96100,-28.10305146
440.96150,-20.77838568
440.96200,-10.40177582
440.96250,-3.687498848
440.96300,-7.655026148
440.96350,-20.16799686
440.96400,-29.6290235
440.96450,-26.57707943
440.96500,-16.50566397
440.96550,-11.01216463
440.96600,-12.84333108
440.96650,-13.45371989
440.96700,-6.434248517
440.96750,1.806000491
440.96800,2.416389306
440.96850,-4.603082071
440.96900,-12.53813667
440.96950,-13.7589143
440.97000,-8.265414964
440.97050,-0.02516595566
440.97100,8.52027746
440.97150,14.92936002
440.97200,19.20208173
440.97250,20.72805377
440.97300,20.42285936
440.97350,19.81247054
440.97400,20.72805377
440.97450,23.16960903
440.97500,25.30596988
440.97550,24.39038666
440.97600,21.03324818
440.97650,16.76052647
440.97700,11.26702713
440.97750,4.857944568
440.97800,-0.6355547711
440.97850,-4.603082071
440.97900,-8.265414964
440.97950,-13.7589143
440.98000,-18.33683042
440.98050,-15.89527516
440.98100,-4.297887663
440.98150,9.130666275
440.98200,16.76052647
440.98250,16.76052647
440.98300,14.62416561
440.98350,14.62416561
440.98400,14.92936002
440.98450,12.79299917
440.98500,9.130666275
440.98550,7.909888645
440.98600,8.215083052
440.98650,6.383916606
440.98700,1.806000491
440.98750,-0.02516595566
440.98800,3.942361344
440.98850,8.825471868
440.98900,7.299499829
440.98950,0.8904172674
440.99000,-2.16152681
440.99050,-0.3303603634
440.99100,0.8904172674
440.99150,-2.466721217
440.99200,-6.434248517
440.99250,-4.603082071
440.99300,-0.3303603634
440.99350,-1.856332402
440.99400,-11.62255345
440.99450,-20.47319127
440.99500,-18.03163601
440.99550,-1.551137994
440.99600,21.03324818
440.99650,39.03971823
440.99700,44.22802316
440.99750,38.73452382
440.99800,31.40985804
440.99850,29.27349718
440.99900,31.40985804
440.99950,32.02024685
441.00000,28.35791396
441.00050,22.55922021
441.00100,17.06572088
441.00150,13.40338798
441.00200,11.26702713
441.00250,9.130666275
441.00300,5.163138975
441.00350,0.5852228597
441.00400,-0.9407491788
441.00450,1.806000491
441.00500,3.637166937
441.00550,-0.6355547711
441.00600,-9.180998187
441.00650,-14.67449753
441.00700,-15.59008075
441.00750,-15.89527516
441.00800,-17.11605279
441.00850,-16.20046956
441.00900,-13.7589143
441.00950,-14.06410871
441.01000,-18.64202483
441.01050,-21.38877449
441.01100,-18.94721923
441.01150,-14.36930312
441.01200,-11.92774786
441.01250,-10.40177582
441.01300,-7.655026148
441.01350,-4.297887663
441.01400,-3.38230444
441.01450,-3.38230444
441.01500,-2.16152681
441.01550,-0.3303603634
441.01600,2.111194898
441.01650,5.773527791
441.01700,10.65663831
441.01750,12.79299917
441.01800,9.741055091
441.01850,5.468333383
441.01900,6.078722198
441.01950,10.0462495
441.02000,10.96183272
441.02050,6.383916606
441.02100,0.5852228597
441.02150,-0.6355547711
441.02200,1.500806083
441.02250,2.721583714
441.02300,-0.3303603634
441.02350,-8.265414964
441.02400,-15.89527516
441.02450,-18.03163601
441.02500,-13.7589143
441.02550,-7.044637333
441.02600,-2.466721217
441.02650,-1.856332402
441.02700,-3.992693256
441.02750,-8.570609371
441.02800,-13.14852549
441.02850,-14.97969193
441.02900,-13.14852549
441.02950,-10.70697023
441.03000,-11.01216463
441.03050,-13.7589143
441.03100,-15.59008075
441.03150,-15.89527516
441.03200,-16.81085838
441.03250,-21.08358009
441.03300,-26.88227383
441.03350,-30.23941232
441.03400,-30.23941232
441.03450,-26.88227383
441.03500,-19.55760805
441.03550,-7.655026148
441.03600,5.163138975
441.03650,14.31897121
441.03700,17.37091528
441.03750,19.20208173
441.03800,23.47480344
441.03850,28.35791396
441.03900,28.05271955
441.03950,23.16960903
441.04000,18.89688732
441.04050,17.67610969
441.04100,16.15013765
441.04150,12.48780476
441.04200,7.909888645
441.04250,4.857944568
441.04300,3.331972529
441.04350,1.500806083
441.04400,-0.6355547711
441.04450,-4.603082071
441.04500,-11.31735904
441.04550,-20.77838568
441.04600,-26.57707943
441.04650,-25.96669061
441.04700,-21.99916331
441.04750,-21.08358009
441.04800,-22.91474653
441.04850,-21.38877449
441.04900,-14.67449753
441.04950,-9.486192594
441.05000,-9.791387002
441.05050,-11.92774786
441.05100,-8.875803779
441.05150,-1.551137994
441.05200,2.721583714
441.05250,0.8904172674
441.05300,-4.603082071
441.05350,-9.486192594
441.05400,-10.40177582
441.05450,-7.044637333
441.05500,-0.6355547711
441.05550,5.163138975
441.05600,9.741055091
441.05650,12.79299917
441.05700,13.70858239
441.05750,12.48780476
441.05800,10.65663831
441.05850,10.65663831
441.05900,11.87741594
441.05950,10.96183272
441.06000,6.689111014
441.06050,1.806000491
441.06100,1.195611675
441.06150,3.637166937
441.06200,5.163138975
441.06250,5.163138975
441.06300,4.55275016
441.06350,3.026778121
441.06400,0.280028452
441.06450,-0.9407491788
441.06500,0.280028452
441.06550,2.111194898
441.06600,0.5852228597
441.06650,-3.687498848
441.06700,-7.044637333
441.06750,-6.739442925
441.06800,-4.297887663
441.06850,-2.771915625
441.06900,-3.992693256
441.06950,-7.960220556
441.07000,-13.7589143
441.07050,-18.94721923
441.07100,-20.77838568
441.07150,-18.33683042
441.07200,-14.97969193
441.07250,-12.84333108
441.07300,-12.53813667
441.07350,-13.14852549
441.07400,-12.23294226
441.07450,-9.486192594
441.07500,-4.908276479
441.07550,-0.6355547711
441.07600,2.111194898
441.07650,4.55275016
441.07700,8.215083052
441.07750,11.57222154
441.07800,12.48780476
441.07850,11.26702713
441.07900,11.26702713
441.07950,14.92936002
441.08000,21.33844258
441.08050,27.13713633
441.08100,30.49427481
441.08150,29.883886
441.08200,24.69558107
441.08250,16.76052647
441.08300,10.35144391
441.08350,8.215083052
441.08400,7.604694237
441.08450,4.857944568
441.08500,-0.9407491788
441.08550,-7.34983174
441.08600,-9.486192594
441.08650,-6.739442925
441.08700,-3.687498848
441.08750,-3.687498848
441.08800,-5.823859702
441.08850,-6.434248517
441.08900,-3.992693256
441.08950,-1.551137994
441.09000,-3.077110033
441.09050,-6.739442925
441.09100,-7.960220556
441.09150,-5.823859702
441.09200,-4.297887663
441.09250,-5.823859702
441.09300,-8.265414964
441.09350,-9.791387002
441.09400,-11.31735904
441.09450,-13.7589143
441.09500,-14.36930312
441.09550,-10.40177582
441.09600,-3.687498848
441.09650,2.721583714
441.09700,8.215083052
441.09750,12.18261035
441.09800,11.87741594
441.09850,6.994305421
441.09900,1.806000491
441.09950,1.806000491
441.10000,7.909888645
441.10050,16.15013765
441.10100,21.33844258
441.10150,21.64363699
441.10200,17.9813041
441.10250,15.23455443
441.10300,17.06572088
441.10350,21.9488314
441.10400,23.47480344
441.10450,16.76052647
441.10500,6.994305421
441.10550,2.721583714
441.10600,6.383916606
441.10650,12.48780476
441.10700,15.23455443
441.10750,14.0137768
441.10800,12.48780476
441.10850,12.48780476
441.10900,12.48780476
441.10950,10.65663831
441.11000,5.773527791
441.11050,-1.245943586
441.11100,-9.791387002
441.11150,-16.20046956
441.11200,-18.03163601
441.11250,-16.81085838
441.11300,-16.81085838
441.11350,-20.16799686
441.11400,-21.6939689
441.11450,-14.36930312
441.11500,0.280028452
441.11550,13.70858239
441.11600,17.06572088
441.11650,11.57222154
441.11700,4.247555752
441.11750,0.8904172674
441.11800,2.111194898
441.11850,6.994305421
441.11900,13.09819358
441.11950,17.67610969
441.12000,18.59169291
441.12050,15.23455443
441.12100,7.909888645
441.12150,0.5852228597
441.12200,-3.077110033
441.12250,-1.551137994
441.12300,1.500806083
441.12350,0.8904172674
441.12400,-3.992693256
441.12450,-9.486192594
441.12500,-10.40177582
441.12550,-7.34983174
441.12600,-4.908276479
441.12650,-5.518665294
441.12700,-7.34983174
441.12750,-7.960220556
441.12800,-6.12905411
441.12850,-2.16152681
441.12900,2.111194898
441.12950,6.078722198
441.13000,6.689111014
441.13050,4.55275016
441.13100,2.721583714
441.13150,3.026778121
441.13200,4.247555752
441.13250,2.721583714
441.13300,-0.6355547711
441.13350,-2.771915625
441.13400,-1.856332402
441.13450,-0.6355547711
441.13500,-2.771915625
441.13550,-5.518665294
441.13600,-4.603082071
441.13650,0.5852228597
441.13700,6.689111014
441.13750,10.0462495
441.13800,10.35144391
441.13850,8.825471868
441.13900,6.078722198
441.13950,3.942361344
441.14000,3.026778121
441.14050,3.331972529
441.14100,3.942361344
441.14150,6.994305421
441.14200,12.48780476
441.14250,17.67610969
441.14300,17.37091528
441.14350,11.57222154
441.14400,4.55275016
441.14450,0.280028452
441.14500,-1.551137994
441.14550,-3.38230444
441.14600,-6.12905411
441.14650,-9.180998187
441.14700,-11.92774786
441.14750,-14.06410871
441.14800,-16.50566397
441.14850,-20.16799686
441.14900,-23.83032976
441.14950,-24.44071857
441.15000,-21.08358009
441.15050,-18.03163601
441.15100,-19.86280246
441.15150,-24.13552416
441.15200,-24.74591298
441.15250,-20.77838568
441.15300,-17.11605279
441.15350,-15.89527516
441.15400,-14.36930312
441.15450,-10.70697023
441.15500,-7.960220556
441.15550,-8.265414964
441.15600,-9.791387002
441.15650,-7.655026148
441.15700,-2.771915625
441.15750,1.195611675
441.15800,2.416389306
441.15850,1.806000491
441.15900,1.195611675
441.15950,0.8904172674
441.16000,0.8904172674
441.16050,1.806000491
441.16100,3.026778121
441.16150,2.721583714
441.16200,1.806000491
441.16250,2.416389306
441.16300,4.857944568
441.16350,4.857944568
441.16400,0.8904172674
441.16450,-4.908276479
441.16500,-9.791387002
441.16550,-13.45371989
441.16600,-16.20046956
441.16650,-16.50566397
441.16700,-12.84333108
441.16750,-7.34983174
441.16800,-4.908276479
441.16850,-7.044637333
441.16900,-10.40177582
441.16950,-10.40177582
441.17000,-7.960220556
441.17050,-5.518665294
441.17100,-3.38230444
441.17150,-0.02516595566
441.17200,5.773527791
441.17250,10.35144391
441.17300,9.435860683
441.17350,-0.02516595566
441.17400,-13.7589143
441.17450,-23.52513535
441.17500,-23.52513535
441.17550,-14.67449753
441.17600,-3.077110033
441.17650,5.773527791
441.17700,11.57222154
441.17750,14.31897121
441.17800,16.15013765
441.17850,17.67610969
441.17900,19.81247054
441.17950,21.03324818
441.18000,20.42285936
441.18050,18.89688732
441.18100,18.59169291
441.18150,19.20208173
441.18200,18.89688732
441.18250,14.92936002
441.18300,5.773527791
441.18350,-7.34983174
441.18400,-18.94721923
441.18450,-22.91474653
441.18500,-16.81085838
441.18550,-6.739442925
441.18600,1.195611675
441.18650,6.994305421
441.18700,11.87741594
441.18750,14.92936002
441.18800,13.40338798
441.18850,9.130666275
441.18900,6.689111014
441.18950,6.383916606
441.19000,5.773527791
441.19050,4.247555752
441.19100,3.026778121
441.19150,2.111194898
441.19200,-2.16152681
441.19250,-11.01216463
441.19300,-19.25241364
441.19350,-22.30435772
441.19400,-20.77838568
441.19450,-17.11605279
441.19500,-13.14852549
441.19550,-7.960220556
441.19600,-3.992693256
441.19650,-5.518665294
441.19700,-13.45371989
441.19750,-24.13552416
441.19800,-31.46018995
441.19850,-33.5965508
441.19900,-31.15499554
441.19950,-24.44071857
441.20000,-14.97969193
441.20050,-4.908276479
441.20100,3.637166937
441.20150,12.18261035
441.20200,20.72805377
441.20250,25.30596988
441.20300,22.86441462
441.20350,16.15013765
441.20400,12.79299917
441.20450,14.31897121
441.20500,13.70858239
441.20550,6.078722198
441.20600,-3.687498848
441.20650,-9.486192594
441.20700,-10.70697023
441.20750,-10.09658141
441.20800,-6.739442925
441.20850,2.416389306
441.20900,14.0137768
441.20950,19.20208173
441.21000,14.62416561
441.21050,6.689111014
441.21100,3.331972529
441.21150,6.383916606
441.21200,12.48780476
441.21250,19.50727614
441.21300,25.9163587
441.21350,29.57869159
441.21400,28.35791396
441.21450,25.61116429
441.21500,27.13713633
441.21550,34.15660771
441.21600,41.17607908
441.21650,40.26049586
441.21700,28.66310837
441.21750,10.35144391
441.21800,-6.434248517
441.21850,-16.50566397
441.21900,-16.20046956
441.21950,-7.044637333
441.22000,4.247555752
441.22050,10.0462495
441.22100,8.52027746
441.22150,5.163138975
441.22200,6.994305421
441.22250,12.48780476
441.22300,15.84494324
441.22350,14.31897121
441.22400,10.96183272
441.22450,6.383916606
441.22500,-0.9407491788
441.22550,-10.70697023
441.22600,-14.36930312
441.22650,-7.34983174
441.22700,2.721583714
441.22750,3.637166937
441.22800,-6.739442925
441.22850,-19.55760805
441.22900,-25.6614962
441.22950,-25.35630179
441.23000,-23.21994094
441.23050,-20.77838568
441.23100,-16.50566397
441.23150,-11.62255345
441.23200,-8.570609371
441.23250,-8.265414964
441.23300,-8.265414964
441.23350,-5.213470887
441.23400,-0.02516595566
441.23450,3.331972529
441.23500,1.500806083
441.23550,-2.771915625
441.23600,-5.823859702
441.23650,-6.12905411
441.23700,-6.12905411
441.23750,-6.12905411
441.23800,-1.856332402
441.23850,6.994305421
441.23900,15.23455443
441.23950,15.23455443
441.24000,9.435860683
441.24050,5.773527791
441.24100,7.909888645
441.24150,11.26702713
441.24200,11.87741594
441.24250,10.96183272
441.24300,11.87741594
441.24350,14.92936002
441.24400,17.67610969
441.24450,17.37091528
441.24500,12.18261035
441.24550,1.500806083
441.24600,-12.53813667
441.24650,-25.05110739
441.24700,-32.07057876
441.24750,-34.81732843
441.24800,-35.73291166
441.24850,-33.90174521
441.24900,-29.6290235
441.24950,-28.71344028
441.25000,-35.12252284
441.25050,-39.09005014
441.25100,-20.77838568
441.25150,22.86441462
441.25200,67.42279815
441.25250,81.4617409
441.25300,61.01371558
441.25350,32.63063567
441.25400,18.59169291
441.25450,17.37091528
441.25500,15.23455443
441.25550,9.741055091
441.25600,6.689111014
441.25650,9.130666275
441.25700,11.26702713
441.25750,10.0462495
441.25800,7.909888645
441.25850,6.383916606
441.25900,5.468333383
441.25950,5.773527791
441.26000,7.909888645
441.26050,8.825471868
441.26100,3.942361344
441.26150,-4.603082071
441.26200,-11.62255345
441.26250,-14.06410871
441.26300,-14.97969193
441.26350,-17.7264416
441.26400,-21.08358009
441.26450,-22.30435772
441.26500,-21.99916331
441.26550,-21.08358009
441.26600,-18.94721923
441.26650,-14.36930312
441.26700,-10.70697023
441.26750,-10.40177582
441.26800,-11.92774786
441.26850,-13.14852549
441.26900,-15.28488634
441.26950,-21.08358009
441.27000,-27.18746824
441.27050,-28.10305146
441.27100,-21.38877449
441.27150,-12.23294226
441.27200,-7.655026148
441.27250,-8.265414964
441.27300,-9.486192594
441.27350,-7.044637333
441.27400,-0.6355547711
441.27450,5.163138975
441.27500,8.825471868
441.27550,10.35144391
441.27600,10.96183272
441.27650,10.65663831
441.27700,8.825471868
441.27750,7.299499829
441.27800,9.130666275
441.27850,14.62416561
441.27900,20.11766495
441.27950,22.25402581
441.28000,21.03324818
441.28050,19.81247054
441.28100,20.72805377
441.28150,22.25402581
441.28200,19.81247054
441.28250,11.57222154
441.28300,-0.6355547711
441.28350,-13.7589143
441.28400,-24.74591298
441.28450,-33.5965508
441.28500,-39.70043896
441.28550,-42.75238303
441.28600,-43.36277185
441.28650,-42.44718863
441.28700,-40.00563336
441.28750,-35.12252284
441.28800,-28.10305146
441.28850,-20.77838568
441.28900,-15.28488634
441.28950,-11.31735904
441.29000,-8.570609371
441.29050,-6.739442925
441.29100,-6.12905411
441.29150,-6.739442925
441.29200,-7.960220556
441.29250,-8.875803779
441.29300,-6.12905411
441.29350,-0.02516595566
441.29400,7.604694237
441.29450,12.18261035
441.29500,12.79299917
441.29550,13.40338798
441.29600,17.06572088
441.29650,24.08519225
441.29700,30.79946922
441.29750,34.15660771
441.29800,32.93583008
441.29850,30.49427481
441.29900,29.57869159
441.29950,31.10466363
441.30000,33.24102448
441.30050,35.37738534
441.30100,38.73452382
441.30150,43.00724553
441.30200,42.70205112
441.30250,33.24102448
441.30300,14.92936002
441.30350,-7.655026148
441.30400,-28.10305146
441.30450,-41.5316054
441.30500,-44.88874389
441.30550,-39.70043896
441.30600,-31.76538436
441.30650,-23.52513535
441.30700,-13.14852549
441.30750,-1.551137994
441.30800,3.331972529
441.30850,-1.856332402
441.30900,-13.7589143
441.30950,-22.30435772
441.31000,-24.13552416
441.31050,-24.13552416
441.31100,-25.05110739
441.31150,-25.96669061
441.31200,-26.88227383
441.31250,-28.71344028
441.31300,-29.6290235
441.31350,-24.74591298
441.31400,-14.67449753
441.31450,-5.823859702
441.31500,-1.856332402
441.31550,0.8904172674
441.31600,8.215083052
441.31650,17.9813041
441.31700,24.08519225
441.31750,22.55922021
441.31800,17.06572088
441.31850,13.09819358
441.31900,13.09819358
441.31950,15.53974884
441.32000,16.15013765
441.32050,12.79299917
441.32100,8.52027746
441.32150,7.909888645
441.32200,11.87741594
441.32250,16.76052647
441.32300,18.28649851
441.32350,15.23455443
441.32400,9.741055091
441.32450,4.247555752
441.32500,1.806000491
441.32550,2.721583714
441.32600,5.773527791
441.32650,7.909888645
441.32700,8.52027746
441.32750,8.215083052
441.32800,6.994305421
441.32850,5.468333383
441.32900,2.721583714
441.32950,-0.02516595566
441.33000,-1.551137994
441.33050,-0.3303603634
441.33100,4.857944568
441.33150,12.48780476
441.33200,16.76052647
441.33250,14.62416561
441.33300,9.435860683
441.33350,5.773527791
441.33400,3.637166937
441.33450,1.195611675
441.33500,-0.3303603634
441.33550,2.416389306
441.33600,8.825471868
441.33650,14.62416561
441.33700,17.67610969
441.33750,21.64363699
441.33800,26.22155311
441.33850,27.74752515
441.33900,23.77999785
441.33950,19.81247054
441.34000,18.28649851
441.34050,15.23455443
441.34100,7.604694237
441.34150,0.280028452
441.34200,-0.6355547711
441.34250,0.5852228597
441.34300,-1.551137994
441.34350,-8.875803779
441.34400,-14.06410871
441.34450,-14.97969193
441.34500,-14.97969193
441.34550,-16.20046956
441.34600,-16.20046956
441.34650,-15.28488634
441.34700,-16.50566397
441.34750,-18.64202483
441.34800,-16.81085838
441.34850,-9.791387002
441.34900,-2.466721217
441.34950,-0.9407491788
441.35000,-4.908276479
441.35050,-10.09658141
441.35100,-13.45371989
441.35150,-13.14852549
441.35200,-9.180998187
441.35250,-5.213470887
441.35300,-6.12905411
441.35350,-11.92774786
441.35400,-16.81085838
441.35450,-15.89527516
441.35500,-11.01216463
441.35550,-7.34983174
441.35600,-6.12905411
441.35650,-5.518665294
441.35700,-4.603082071
441.35750,-4.908276479
441.35800,-5.823859702
441.35850,-3.38230444
441.35900,5.163138975
441.35950,18.89688732
441.36000,31.10466363
441.36050,35.07219093
441.36100,28.66310837
441.36150,17.67610969
441.36200,9.435860683
441.36250,4.857944568
441.36300,0.280028452
441.36350,-6.739442925
441.36400,-13.45371989
441.36450,-14.06410871
441.36500,-8.265414964
441.36550,-2.771915625
441.36600,-2.466721217
441.36650,-6.739442925
441.36700,-12.84333108
441.36750,-17.42124719
441.36800,-18.94721923
441.36850,-19.55760805
441.36900,-21.99916331
441.36950,-26.57707943
441.37000,-29.93421791
441.37050,-26.57707943
441.37100,-15.89527516
441.37150,-3.687498848
441.37200,3.637166937
441.37250,5.163138975
441.37300,3.331972529
441.37350,0.8904172674
441.37400,-0.02516595566
441.37450,0.280028452
441.37500,3.026778121
441.37550,7.909888645
441.37600,14.62416561
441.37650,19.20208173
441.37700,18.89688732
441.37750,15.23455443
441.37800,13.09819358
441.37850,14.0137768
441.37900,13.40338798
441.37950,8.825471868
441.38000,4.247555752
441.38050,5.468333383
441.38100,10.65663831
441.38150,13.40338798
441.38200,11.87741594
441.38250,10.35144391
441.38300,10.96183272
441.38350,12.79299917
441.38400,14.0137768
441.38450,13.70858239
441.38500,10.96183272
441.38550,7.299499829
441.38600,5.773527791
441.38650,6.994305421
441.38700,2.721583714
441.38750,-11.62255345
441.38800,-30.84980113
441.38850,-40.92121659
441.38900,-37.86927251
441.38950,-28.71344028
441.39000,-21.6939689
441.39050,-16.50566397
441.39100,-10.40177582
441.39150,-6.12905411
441.39200,-6.434248517
441.39250,-9.180998187
441.39300,-11.01216463
441.39350,-11.01216463
441.39400,-10.09658141
441.39450,-7.960220556
441.39500,-6.12905411
441.39550,-5.823859702
441.39600,-5.823859702
441.39650,-5.518665294
441.39700,-7.960220556
441.39750,-17.11605279
441.39800,-27.49266265
441.39850,-28.10305146
441.39900,-15.59008075
441.39950,1.500806083
441.40000,12.48780476
441.40050,16.15013765
441.40100,17.37091528
441.40150,18.28649851
441.40200,18.59169291
441.40250,19.20208173
441.40300,18.89688732
441.40350,14.31897121
441.40400,5.163138975
441.40450,-3.38230444
441.40500,-7.655026148
441.40550,-11.31735904
441.40600,-17.11605279
441.40650,-21.08358009
441.40700,-17.42124719
441.40750,-11.31735904
441.40800,-11.01216463
441.40850,-11.62255345
441.40900,1.195611675
441.40950,30.79946922
441.41000,58.57216032
441.41050,64.67604848
441.41100,48.80593928
441.41150,28.96830278
441.41200,18.28649851
441.41250,15.53974884
441.41300,12.79299917
441.41350,5.468333383
441.41400,-3.687498848
441.41450,-11.31735904
441.41500,-14.97969193
441.41550,-14.36930312
441.41600,-11.01216463
441.41650,-8.265414964
441.41700,-8.265414964
441.41750,-11.92774786
441.41800,-17.7264416
441.41850,-23.21994094
441.41900,-24.74591298
441.41950,-22.30435772
441.42000,-18.03163601
441.42050,-13.7589143
441.42100,-6.739442925
441.42150,4.857944568
441.42200,18.28649851
441.42250,25.00077548
441.42300,21.9488314
441.42350,14.92936002
441.42400,13.70858239
441.42450,19.20208173
441.42500,25.9163587
441.42550,29.57869159
441.42600,30.79946922
441.42650,30.79946922
441.42700,28.35791396
441.42750,23.47480344
441.42800,17.06572088
441.42850,9.435860683
441.42900,1.806000491
441.42950,-2.771915625
441.43000,-0.9407491788
441.43050,4.857944568
441.43100,8.52027746
441.43150,6.383916606
441.43200,1.500806083
441.43250,-2.771915625
441.43300,-9.486192594
441.43350,-17.7264416
441.43400,-21.6939689
441.43450,-18.33683042
441.43500,-10.70697023
441.43550,-4.603082071
441.43600,-1.245943586
441.43650,-1.856332402
441.43700,-8.570609371
441.43750,-20.16799686
441.43800,-28.10305146
441.43850,-25.96669061
441.43900,-18.33683042
441.43950,-14.06410871
441.44000,-14.67449753
441.44050,-13.7589143
441.44100,-8.875803779
441.44150,-5.518665294
441.44200,-6.12905411
441.44250,-7.655026148
441.44300,-7.34983174
441.44350,-6.434248517
441.44400,-7.34983174
441.44450,-7.655026148
441.44500,-5.823859702
441.44550,-3.687498848
441.44600,-4.297887663
441.44650,-7.044637333
441.44700,-9.486192594
441.44750,-9.791387002
441.44800,-9.486192594
441.44850,-9.791387002
441.44900,-9.180998187
441.44950,-2.771915625
441.45000,9.435860683
441.45050,23.47480344
441.45100,33.24102448
441.45150,38.42932941
441.45200,39.95530145
441.45250,32.63063567
441.45300,12.79299917
441.45350,-10.09658141
441.45400,-21.99916331
441.45450,-17.7264416
441.45500,-7.34983174
441.45550,0.280028452
441.45600,7.299499829
441.45650,17.67610969
441.45700,26.22155311
441.45750,26.83194192
441.45800,20.42285936
441.45850,12.79299917
441.45900,4.857944568
441.45950,-3.687498848
441.46000,-10.09658141
441.46050,-9.180998187
441.46100,-2.771915625
441.46150,1.500806083
441.46200,1.195611675
441.46250,-0.9407491788
441.46300,-0.9407491788
441.46350,3.026778121
441.46400,8.825471868
441.46450,12.18261035
441.46500,11.57222154
441.46550,9.435860683
441.46600,10.65663831
441.46650,14.62416561
441.46700,16.15013765
441.46750,12.79299917
441.46800,7.909888645
441.46850,5.468333383
441.46900,5.468333383
441.46950,6.078722198
441.47000,5.773527791
441.47050,3.637166937
441.47100,-1.856332402
441.47150,-10.70697023
441.47200,-15.89527516
441.47250,-12.53813667
441.47300,-3.992693256
441.47350,1.195611675
441.47400,-0.02516595566
441.47450,-5.823859702
441.47500,-10.09658141
441.47550,-9.486192594
441.47600,-3.077110033
441.47650,5.163138975
441.47700,10.65663831
441.47750,11.87741594
441.47800,11.26702713
441.47850,10.35144391
441.47900,8.52027746
441.47950,5.163138975
441.48000,2.416389306
441.48050,1.195611675
441.48100,-0.3303603634
441.48150,-6.12905411
441.48200,-13.7589143
441.48250,-18.94721923
441.48300,-19.25241364
441.48350,-15.59008075
441.48400,-8.875803779
441.48450,-1.856332402
441.48500,1.195611675
441.48550,-0.3303603634
441.48600,-6.12905411
441.48650,-12.53813667
441.48700,-17.7264416
441.48750,-21.99916331
441.48800,-23.52513535
441.48850,-18.94721923
441.48900,-10.09658141
441.48950,-3.077110033
441.49000,-2.16152681
441.49050,-6.12905411
441.49100,-10.70697023
441.49150,-13.45371989
441.49200,-15.59008075
441.49250,-16.81085838
441.49300,-16.50566397
441.49350,-14.36930312
441.49400,-13.14852549
441.49450,-12.23294226
441.49500,-8.875803779
441.49550,-1.551137994
441.49600,5.773527791
441.49650,9.435860683
441.49700,8.52027746
441.49750,7.604694237
441.49800,7.909888645
441.49850,7.299499829
441.49900,4.55275016
441.49950,2.721583714
441.50000,3.637166937
441.50050,4.857944568
441.50100,3.026778121
441.50150,-0.3303603634
441.50200,-2.466721217
441.50250,-2.771915625
441.50300,-3.077110033
441.50350,-3.992693256
441.50400,-5.518665294
441.50450,-6.739442925
441.50500,-6.434248517
441.50550,-3.992693256
441.50600,-0.6355547711
441.50650,0.8904172674
441.50700,-0.3303603634
441.50750,-2.466721217
441.50800,-3.077110033
441.50850,-2.466721217
441.50900,-0.9407491788
441.50950,-0.02516595566
441.51000,-0.3303603634
441.51050,-2.16152681
441.51100,-3.992693256
441.51150,-3.687498848
441.51200,-1.856332402
441.51250,-0.9407491788
441.51300,-0.3303603634
441.51350,2.416389306
441.51400,9.130666275
441.51450,14.92936002
441.51500,16.15013765
441.51550,14.31897121
441.51600,12.18261035
441.51650,11.57222154
441.51700,10.35144391
441.51750,8.215083052
441.51800,6.078722198
441.51850,6.994305421
441.51900,10.0462495
441.51950,11.26702713
441.52000,7.909888645
441.52050,1.806000491
441.52100,-1.245943586
441.52150,-0.6355547711
441.52200,-0.6355547711
441.52250,-1.856332402
441.52300,-1.551137994
441.52350,0.8904172674
441.52400,0.8904172674
441.52450,-3.992693256
441.52500,-11.01216463
441.52550,-16.50566397
441.52600,-21.6939689
441.52650,-27.18746824
441.52700,-27.79785706
441.52750,-19.86280246
441.52800,-9.486192594
441.52850,-6.12905411
441.52900,-7.655026148
441.52950,-7.044637333
441.53000,-3.077110033
441.53050,-2.771915625
441.53100,-7.960220556
441.53150,-12.53813667
441.53200,-10.09658141
441.53250,-3.38230444
441.53300,1.806000491
441.53350,5.773527791
441.53400,12.18261035
441.53450,21.9488314
441.53500,30.18908041
441.53550,30.79946922
441.53600,22.55922021
441.53650,10.0462495
441.53700,-0.3303603634
441.53750,-6.12905411
441.53800,-6.434248517
441.53850,-2.16152681
441.53900,4.247555752
441.53950,8.215083052
441.54000,7.299499829
441.54050,3.637166937
441.54100,3.637166937
441.54150,6.383916606
441.54200,6.994305421
441.54250,3.942361344
441.54300,2.721583714
441.54350,5.773527791
441.54400,10.0462495
441.54450,10.35144391
441.54500,7.299499829
441.54550,5.468333383
441.54600,6.689111014
441.54650,10.35144391
441.54700,12.79299917
441.54750,10.96183272
441.54800,2.111194898
441.54850,-11.01216463
441.54900,-23.21994094
441.54950,-29.01863469
441.55000,-27.79785706
441.55050,-21.99916331
441.55100,-14.36930312
441.55150,-10.09658141
441.55200,-10.70697023
441.55250,-13.7589143
441.55300,-13.7589143
441.55350,-9.486192594
441.55400,-3.992693256
441.55450,1.195611675
441.55500,7.909888645
441.55550,15.23455443
441.55600,18.89688732
441.55650,15.84494324
441.55700,8.52027746
441.55750,1.195611675
441.55800,-3.38230444
441.55850,-5.213470887
441.55900,-4.297887663
441.55950,-2.466721217
441.56000,-1.856332402
441.56050,-3.687498848
441.56100,-6.12905411
441.56150,-6.739442925
441.56200,-5.823859702
441.56250,-1.856332402
441.56300,5.163138975
441.56350,15.23455443
441.56400,22.86441462
441.56450,24.69558107
441.56500,21.64363699
441.56550,19.20208173
441.56600,20.42285936
441.56650,24.08519225
441.56700,26.22155311
441.56750,23.47480344
441.56800,14.62416561
441.56850,1.806000491
441.56900,-10.09658141
441.56950,-19.25241364
441.57000,-24.44071857
441.57050,-24.44071857
441.57100,-18.33683042
441.57150,-7.655026148
441.57200,1.500806083
441.57250,6.994305421
441.57300,10.35144391
441.57350,16.15013765
441.57400,23.77999785
441.57450,27.74752515
441.57500,25.00077548
441.57550,20.42285936
441.57600,20.72805377
441.57650,25.61116429
441.57700,29.27349718
441.57750,25.9163587
441.57800,16.45533206
441.57850,4.55275016
441.57900,-5.213470887
441.57950,-11.01216463
441.58000,-11.92774786
441.58050,-9.486192594
441.58100,-5.213470887
441.58150,-2.771915625
441.58200,-4.603082071
441.58250,-10.09658141
441.58300,-14.36930312
441.58350,-13.14852549
441.58400,-9.180998187
441.58450,-8.875803779
441.58500,-13.14852549
441.58550,-14.36930312
441.58600,-7.655026148
441.58650,1.806000491
441.58700,6.383916606
441.58750,4.857944568
441.58800,2.416389306
441.58850,0.280028452
441.58900,-2.466721217
441.58950,-4.908276479
441.59000,-3.077110033
441.59050,-0.3303603634
441.59100,-3.992693256
441.59150,-14.36930312
441.59200,-21.99916331
441.59250,-20.16799686
441.59300,-14.06410871
441.59350,-12.84333108
441.59400,-16.50566397
441.59450,-17.11605279
441.59500,-12.53813667
441.59550,-6.739442925
441.59600,-3.992693256
441.59650,-3.077110033
441.59700,-2.16152681
441.59750,-1.245943586
441.59800,-0.02516595566
441.59850,1.500806083
441.59900,3.942361344
441.59950,4.55275016
441.60000,3.026778121
441.60050,1.806000491
441.60100,2.721583714
441.60150,4.857944568
441.60200,7.604694237
441.60250,11.26702713
441.60300,14.31897121
441.60350,13.09819358
441.60400,8.215083052
441.60450,4.247555752
441.60500,3.637166937
441.60550,2.416389306
441.60600,-3.077110033
441.60650,-9.791387002
441.60700,-10.70697023
441.60750,-7.34983174
441.60800,-6.739442925
441.60850,-11.01216463
441.60900,-14.97969193
441.60950,-15.89527516
441.61000,-17.42124719
441.61050,-20.47319127
441.61100,-18.94721923
441.61150,-8.875803779
441.61200,1.806000491
441.61250,3.331972529
441.61300,-3.38230444
441.61350,-8.875803779
441.61400,-7.960220556
441.61450,-5.823859702
441.61500,-6.434248517
441.61550,-6.12905411
441.61600,-1.245943586
441.61650,4.247555752
441.61700,7.299499829
441.61750,7.299499829
441.61800,6.078722198
441.61850,3.942361344
441.61900,0.280028452
441.61950,-1.245943586
441.62000,-0.02516595566
441.62050,1.500806083
441.62100,2.721583714
441.62150,5.163138975
441.62200,9.435860683
441.62250,11.26702713
441.62300,6.994305421
441.62350,-0.02516595566
441.62400,-3.38230444
441.62450,-4.297887663
441.62500,-4.908276479
441.62550,-3.992693256
441.62600,-0.6355547711
441.62650,0.5852228597
441.62700,-3.077110033
441.62750,-8.875803779
441.62800,-8.265414964
441.62850,-3.38230444
441.62900,-3.077110033
441.62950,-6.12905411
441.63000,-3.687498848
441.63050,3.942361344
441.63100,5.773527791
441.63150,-3.38230444
441.63200,-12.84333108
441.63250,-12.23294226
441.63300,-5.823859702
441.63350,-5.213470887
441.63400,-10.70697023
441.63450,-15.59008075
441.63500,-15.89527516
441.63550,-13.14852549
441.63600,-7.960220556
441.63650,-0.9407491788
441.63700,4.247555752
441.63750,6.689111014
441.63800,8.825471868
441.63850,15.84494324
441.63900,25.30596988
441.63950,32.63063567
441.64000,36.90335738
441.64050,38.12413501
441.64100,32.32544126
441.64150,16.76052647
441.64200,-1.856332402
441.64250,-13.7589143
441.64300,-17.7264416
441.64350,-18.94721923
441.64400,-19.25241364
441.64450,-13.14852549
441.64500,-0.02516595566
441.64550,11.57222154
441.64600,11.57222154
441.64650,0.8904172674
441.64700,-12.53813667
441.64750,-21.99916331
441.64800,-24.13552416
441.64850,-20.16799686
441.64900,-13.7589143
441.64950,-9.791387002
441.65000,-8.265414964
441.65050,-7.044637333
441.65100,-5.213470887
441.65150,-5.823859702
441.65200,-10.70697023
441.65250,-16.50566397
441.65300,-18.94721923
441.65350,-17.11605279
441.65400,-14.36930312
441.65450,-12.53813667
441.65500,-8.570609371
441.65550,-0.6355547711
441.65600,7.909888645
441.65650,14.0137768
441.65700,19.20208173
441.65750,27.13713633
441.65800,37.20855178
441.65850,44.22802316
441.65900,44.22802316
441.65950,41.48127349
441.66000,41.7864679
441.66050,44.83841198
441.66100,44.22802316
441.66150,36.59816297
441.66200,25.30596988
441.66250,15.23455443
441.66300,7.604694237
441.66350,-0.6355547711
441.66400,-11.92774786
441.66450,-25.05110739
441.66500,-35.73291166
441.66550,-40.92121659
441.66600,-40.00563336
441.66650,-33.90174521
441.66700,-24.74591298
441.66750,-13.7589143
441.66800,-3.992693256
441.66850,1.195611675
441.66900,0.8904172674
441.66950,-1.856332402
441.67000,-2.466721217
441.67050,1.195611675
441.67100,6.994305421
441.67150,8.825471868
441.67200,5.163138975
441.67250,0.280028452
441.67300,-1.245943586
441.67350,0.280028452
441.67400,3.942361344
441.67450,7.604694237
441.67500,13.09819358
441.67550,19.20208173
441.67600,22.25402581
441.67650,19.20208173
441.67700,12.48780476
441.67750,6.994305421
441.67800,6.078722198
441.67850,8.52027746
441.67900,11.26702713
441.67950,11.87741594
441.68000,10.65663831
441.68050,9.435860683
441.68100,8.215083052
441.68150,6.078722198
441.68200,2.111194898
441.68250,-0.6355547711
441.68300,-0.02516595566
441.68350,3.026778121
441.68400,4.55275016
441.68450,4.55275016
441.68500,6.078722198
441.68550,8.52027746
441.68600,7.604694237
441.68650,4.247555752
441.68700,3.331972529
441.68750,6.689111014
441.68800,9.130666275
441.68850,6.994305421
441.68900,3.331972529
441.68950,2.111194898
441.69000,0.280028452
441.69050,-4.908276479
441.69100,-11.92774786
441.69150,-14.67449753
441.69200,-14.36930312
441.69250,-14.36930312
441.69300,-15.89527516
441.69350,-16.50566397
441.69400,-15.59008075
441.69450,-14.97969193
441.69500,-14.06410871
441.69550,-11.92774786
441.69600,-9.791387002
441.69650,-7.34983174
441.69700,-3.077110033
441.69750,3.637166937
441.69800,8.215083052
441.69850,6.994305421
441.69900,3.942361344
441.69950,3.637166937
441.70000,5.468333383
441.70050,3.942361344
441.70100,-0.9407491788
441.70150,-4.603082071
441.70200,-2.771915625
441.70250,2.416389306
441.70300,7.909888645
441.70350,11.26702713
441.70400,10.65663831
441.70450,6.078722198
441.70500,0.280028452
441.70550,-3.992693256
441.70600,-7.34983174
441.70650,-11.62255345
441.70700,-14.97969193
441.70750,-14.97969193
441.70800,-11.01216463
441.70850,-5.823859702
441.70900,-2.16152681
441.70950,-2.771915625
441.71000,-10.09658141
441.71050,-21.08358009
441.71100,-29.3238291
441.71150,-29.01863469
441.71200,-23.21994094
441.71250,-17.7264416
441.71300,-14.97969193
441.71350,-11.31735904
441.71400,-4.908276479
441.71450,1.806000491
441.71500,6.994305421
441.71550,10.0462495
441.71600,12.48780476
441.71650,14.62416561
441.71700,16.45533206
441.71750,18.59169291
441.71800,21.33844258
441.71850,23.77999785
441.71900,24.69558107
441.71950,22.86441462
441.72000,18.59169291
441.72050,14.62416561
441.72100,13.09819358
441.72150,13.09819358
441.72200,12.79299917
441.72250,9.741055091
441.72300,4.857944568
441.72350,-0.02516595566
441.72400,-2.771915625
441.72450,-3.38230444
441.72500,-1.856332402
441.72550,-0.02516595566
441.72600,0.8904172674
441.72650,0.280028452
441.72700,-1.245943586
441.72750,-3.992693256
441.72800,-6.739442925
441.72850,-7.655026148
441.72900,-6.739442925
441.72950,-5.213470887
441.73000,-4.603082071
441.73050,-3.38230444
441.73100,-2.16152681
441.73150,-5.518665294
441.73200,-18.03163601
441.73250,-36.64849488
441.73300,-54.04457612
441.73350,-62.89521394
441.73400,-62.28482513
441.73450,-54.65496493
441.73500,-43.05757744
441.73550,-32.68096758
441.73600,-25.35630179
441.73650,-20.77838568
441.73700,-17.11605279
441.73750,-12.53813667
441.73800,-4.297887663
441.73850,9.741055091
441.73900,28.35791396
441.73950,43.31243994
441.74000,47.27996724
441.74050,42.39685671
441.74100,34.15660771
441.74150,25.00077548
441.74200,13.40338798
441.74250,0.8904172674
441.74300,-9.791387002
441.74350,-19.25241364
441.74400,-26.57707943
441.74450,-27.79785706
441.74500,-18.94721923
441.74550,-5.518665294
441.74600,2.721583714
441.74650,3.331972529
441.74700,1.806000491
441.74750,2.416389306
441.74800,3.026778121
441.74850,2.416389306
441.74900,2.111194898
441.74950,1.500806083
441.75000,-3.077110033
441.75050,-11.01216463
441.75100,-15.28488634
441.75150,-12.84333108
441.75200,-7.960220556
441.75250,-6.739442925
441.75300,-6.434248517
441.75350,-3.38230444
441.75400,-0.02516595566
441.75450,1.195611675
441.75500,3.942361344
441.75550,13.40338798
441.75600,27.13713633
441.75650,36.59816297
441.75700,38.73452382
441.75750,38.42932941
441.75800,39.65010705
441.75850,40.56569027
441.75900,37.51374619
441.75950,32.93583008
441.76000,30.18908041
441.76050,27.13713633
441.76100,18.28649851
441.76150,5.468333383
441.76200,-4.603082071
441.76250,-7.655026148
441.76300,-8.265414964
441.76350,-12.23294226
441.76400,-18.33683042
441.76450,-20.16799686
441.76500,-14.06410871
441.76550,-5.518665294
441.76600,-0.3303603634
441.76650,0.8904172674
441.76700,1.195611675
441.76750,-0.02516595566
441.76800,-3.687498848
441.76850,-8.875803779
441.76900,-11.01216463
441.76950,-8.570609371
441.77000,-4.908276479
441.77050,-1.551137994
441.77100,3.331972529
441.77150,9.741055091
441.77200,13.70858239
441.77250,12.79299917
441.77300,10.35144391
441.77350,9.435860683
441.77400,8.215083052
441.77450,3.331972529
441.77500,-4.297887663
441.77550,-10.70697023
441.77600,-12.23294226
441.77650,-9.791387002
441.77700,-5.213470887
441.77750,-2.466721217
441.77800,-6.12905411
441.77850,-15.89527516
441.77900,-25.05110739
441.77950,-26.57707943
441.78000,-21.08358009
441.78050,-14.67449753
441.78100,-11.92774786
441.78150,-12.23294226
441.78200,-12.84333108
441.78250,-13.45371989
441.78300,-13.14852549
441.78350,-9.486192594
441.78400,-3.077110033
441.78450,1.195611675
441.78500,0.280028452
441.78550,-3.077110033
441.78600,-4.297887663
441.78650,-2.16152681
441.78700,0.8904172674
441.78750,3.026778121
441.78800,4.55275016
441.78850,5.773527791
441.78900,6.689111014
441.78950,8.215083052
441.79000,12.18261035
441.79050,15.84494324
441.79100,15.23455443
441.79150,10.35144391
441.79200,4.247555752
441.79250,0.5852228597
441.79300,-0.02516595566
441.79350,0.280028452
441.79400,1.500806083
441.79450,3.637166937
441.79500,6.383916606
441.79550,9.130666275
441.79600,11.87741594
441.79650,14.31897121
441.79700,15.53974884
441.79750,15.84494324
441.79800,16.15013765
441.79850,17.37091528
441.79900,18.28649851
441.79950,18.28649851
441.80000,17.37091528
441.80050,16.76052647
441.80100,15.23455443
441.80150,11.87741594
441.80200,7.604694237
441.80250,4.857944568
441.80300,4.247555752
441.80350,3.942361344
441.80400,1.195611675
441.80450,-3.687498848
441.80500,-8.265414964
441.80550,-10.70697023
441.80600,-11.62255345
441.80650,-14.06410871
441.80700,-16.50566397
441.80750,-16.50566397
441.80800,-13.14852549
441.80850,-9.180998187
441.80900,-7.960220556
441.80950,-9.180998187
441.81000,-10.09658141
441.81050,-8.875803779
441.81100,-7.044637333
441.81150,-5.213470887
441.81200,-3.38230444
441.81250,-2.16152681
441.81300,-1.551137994
441.81350,-0.6355547711
441.81400,1.806000491
441.81450,5.468333383
441.81500,5.773527791
441.81550,2.721583714
441.81600,-0.02516595566
441.81650,0.5852228597
441.81700,4.857944568
441.81750,10.0462495
441.81800,14.62416561
441.81850,18.28649851
441.81900,18.28649851
441.81950,12.79299917
441.82000,4.857944568
441.82050,-0.6355547711
441.82100,-5.213470887
441.82150,-13.45371989
441.82200,-23.52513535
441.82250,-27.49266265
441.82300,-20.77838568
441.82350,-11.62255345
441.82400,-9.486192594
441.82450,-11.92774786
441.82500,-7.655026148
441.82550,6.383916606
441.82600,21.03324818
441.82650,25.30596988
441.82700,17.9813041
441.82750,6.078722198
441.82800,-2.466721217
441.82850,-5.213470887
441.82900,-1.551137994
441.82950,3.942361344
441.83000,7.909888645
441.83050,8.52027746
441.83100,5.773527791
441.83150,-0.9407491788
441.83200,-13.7589143
441.83250,-26.88227383
441.83300,-30.84980113
441.83350,-22.30435772
441.83400,-8.570609371
441.83450,1.500806083
441.83500,6.994305421
441.83550,10.35144391
441.83600,12.79299917
441.83650,13.70858239
441.83700,15.23455443
441.83750,18.89688732
441.83800,21.33844258
441.83850,19.50727614
441.83900,14.0137768
441.83950,11.57222154
441.84000,13.40338798
441.84050,14.62416561
441.84100,8.825471868
441.84150,-3.38230444
441.84200,-17.7264416
441.84250,-26.57707943
441.84300,-28.10305146
441.84350,-23.83032976
441.84400,-17.7264416
441.84450,-13.14852549
441.84500,-10.40177582
441.84550,-9.180998187
441.84600,-10.70697023
441.84650,-14.36930312
441.84700,-17.42124719
441.84750,-14.67449753
441.84800,-5.213470887
441.84850,5.773527791
441.84900,11.26702713
441.84950,8.825471868
441.85000,2.416389306
441.85050,-3.38230444
441.85100,-7.34983174
441.85150,-11.01216463
441.85200,-13.7589143
441.85250,-13.7589143
441.85300,-12.23294226
441.85350,-11.92774786
441.85400,-13.14852549
441.85450,-14.97969193
441.85500,-15.28488634
441.85550,-13.7589143
441.85600,-11.01216463
441.85650,-7.044637333
441.85700,-1.856332402
441.85750,3.331972529
441.85800,8.52027746
441.85850,13.40338798
441.85900,16.15013765
441.85950,15.53974884
441.86000,14.31897121
441.86050,16.15013765
441.86100,21.03324818
441.86150,24.69558107
441.86200,23.77999785
441.86250,20.72805377
441.86300,18.59169291
441.86350,17.37091528
441.86400,14.62416561
441.86450,10.35144391
441.86500,6.383916606
441.86550,3.637166937
441.86600,2.111194898
441.86650,2.416389306
441.86700,3.331972529
441.86750,3.026778121
441.86800,0.8904172674
441.86850,-1.856332402
441.86900,-4.603082071
441.86950,-7.34983174
441.87000,-10.09658141
441.87050,-11.01216463
441.87100,-9.791387002
441.87150,-8.875803779
441.87200,-11.62255345
441.87250,-16.81085838
441.87300,-18.94721923
441.87350,-16.20046956
441.87400,-11.31735904
441.87450,-7.34983174
441.87500,-3.992693256
441.87550,-1.551137994
441.87600,-0.3303603634
441.87650,0.5852228597
441.87700,3.026778121
441.87750,6.383916606
441.87800,8.825471868
441.87850,10.0462495
441.87900,12.79299917
441.87950,16.15013765
441.88000,17.9813041
441.88050,17.67610969
441.88100,17.06572088
441.88150,17.37091528
441.88200,16.15013765
441.88250,12.48780476
441.88300,9.741055091
441.88350,10.65663831
441.88400,12.79299917
441.88450,11.57222154
441.88500,6.689111014
441.88550,0.8904172674
441.88600,-3.077110033
441.88650,-4.603082071
441.88700,-3.687498848
441.88750,-3.687498848
441.88800,-7.960220556
441.88850,-16.20046956
441.88900,-23.52513535
441.88950,-25.96669061
441.89000,-25.96669061
441.89050,-26.88227383
441.89100,-26.88227383
441.89150,-21.99916331
441.89200,-14.06410871
441.89250,-7.044637333
441.89300,-3.687498848
441.89350,-2.771915625
441.89400,-4.297887663
441.89450,-7.044637333
441.89500,-7.960220556
441.89550,-3.687498848
441.89600,3.637166937
441.89650,10.96183272
441.89700,17.67610969
441.89750,21.9488314
441.89800,18.89688732
441.89850,8.215083052
441.89900,-1.856332402
441.89950,-2.771915625
441.90000,3.331972529
441.90050,8.215083052
441.90100,10.35144391
441.90150,15.23455443
441.90200,23.16960903
441.90250,23.77999785
441.90300,9.130666275
441.90350,-14.06410871
441.90400,-32.98616199
441.90450,-39.09005014
441.90500,-33.5965508
441.90550,-21.38877449
441.90600,-5.518665294
441.90650,9.741055091
441.90700,20.72805377
441.90750,21.9488314
441.90800,13.40338798
441.90850,0.280028452
441.90900,-9.791387002
441.90950,-17.7264416
441.91000,-26.57707943
441.91050,-34.81732843
441.91100,-34.51213403
441.91150,-24.13552416
441.91200,-11.92774786
441.91250,-7.34983174
441.91300,-7.044637333
441.91350,-3.077110033
441.91400,6.383916606
441.91450,15.23455443
441.91500,20.11766495
441.91550,24.08519225
441.91600,30.18908041
441.91650,36.59816297
441.91700,39.95530145
441.91750,38.42932941
441.91800,32.63063567
441.91850,25.00077548
441.91900,19.50727614
441.91950,15.53974884
441.92000,8.52027746
441.92050,-2.466721217
441.92100,-11.92774786
441.92150,-11.92774786
441.92200,-3.077110033
441.92250,7.299499829
441.92300,16.45533206
441.92350,24.69558107
441.92400,30.49427481
441.92450,28.96830278
441.92500,19.50727614
441.92550,7.604694237
441.92600,-1.551137994
441.92650,-7.960220556
441.92700,-12.23294226
441.92750,-13.7589143
441.92800,-12.23294226
441.92850,-9.180998187
441.92900,-8.875803779
441.92950,-11.62255345
441.93000,-15.59008075
441.93050,-18.33683042
441.93100,-19.55760805
441.93150,-20.47319127
441.93200,-22.60955213
441.93250,-25.6614962
441.93300,-26.57707943
441.93350,-24.13552416
441.93400,-17.7264416
441.93450,-9.486192594
441.93500,-1.551137994
441.93550,4.247555752
441.93600,9.130666275
441.93650,14.31897121
441.93700,19.50727614
441.93750,20.72805377
441.93800,15.84494324
441.93850,7.909888645
441.93900,3.026778121
441.93950,2.111194898
441.94000,0.8904172674
441.94050,-0.9407491788
441.94100,0.280028452
441.94150,6.689111014
441.94200,11.87741594
441.94250,11.57222154
441.94300,8.215083052
441.94350,6.689111014
441.94400,6.994305421
441.94450,6.994305421
441.94500,6.689111014
441.94550,5.773527791
441.94600,0.280028452
441.94650,-10.70697023
441.94700,-22.60955213
441.94750,-27.79785706
441.94800,-25.35630179
441.94850,-20.77838568
441.94900,-18.64202483
441.94950,-18.03163601
441.95000,-17.42124719
441.95050,-14.97969193
441.95100,-10.09658141
441.95150,-3.077110033
441.95200,2.416389306
441.95250,3.942361344
441.95300,1.806000491
441.95350,-0.02516595566
441.95400,-0.3303603634
441.95450,0.280028452
441.95500,1.195611675
441.95550,3.942361344
441.95600,8.52027746
441.95650,13.09819358
441.95700,15.84494324
441.95750,17.06572088
441.95800,16.15013765
441.95850,13.40338798
441.95900,8.825471868
441.95950,4.55275016
441.96000,-0.3303603634
441.96050,-7.655026148
441.96100,-14.67449753
441.96150,-17.11605279
441.96200,-14.67449753
441.96250,-12.53813667
441.96300,-12.53813667
441.96350,-11.01216463
441.96400,-4.603082071
441.96450,3.331972529
441.96500,7.604694237
441.96550,6.689111014
441.96600,3.331972529
441.96650,-0.3303603634
441.96700,-3.687498848
441.96750,-5.518665294
441.96800,-5.518665294
441.96850,-4.908276479
441.96900,-4.603082071
441.96950,-3.992693256
441.97000,-2.771915625
441.97050,-2.466721217
441.97100,-4.908276479
441.97150,-8.570609371
441.97200,-11.31735904
441.97250,-12.53813667
441.97300,-12.23294226
441.97350,-9.791387002
441.97400,-4.297887663
441.97450,1.195611675
441.97500,4.247555752
441.97550,4.55275016
441.97600,3.637166937
441.97650,2.416389306
441.97700,-0.02516595566
441.97750,-4.908276479
441.97800,-11.92774786
441.97850,-18.03163601
441.97900,-20.47319127
441.97950,-16.81085838
441.98000,-9.791387002
441.98050,-3.992693256
441.98100,-1.551137994
441.98150,-1.551137994
441.98200,-3.077110033
441.98250,-7.34983174
441.98300,-13.14852549
441.98350,-16.20046956
441.98400,-12.84333108
441.98450,-2.771915625
441.98500,10.96183272
441.98550,25.9163587
441.98600,37.51374619
441.98650,39.95530145
441.98700,32.63063567
441.98750,20.72805377
441.98800,11.26702713
441.98850,6.078722198
441.98900,2.111194898
441.98950,-1.245943586
441.99000,-3.992693256
441.99050,-3.992693256
441.99100,-1.856332402
441.99150,-0.3303603634
441.99200,-1.245943586
441.99250,-3.077110033
441.99300,-2.16152681
441.99350,2.721583714
441.99400,7.909888645
441.99450,7.299499829
441.99500,0.280028452
441.99550,-6.739442925
441.99600,-10.70697023
441.99650,-10.40177582
441.99700,-8.265414964
441.99750,-5.518665294
441.99800,-3.992693256
441.99850,-4.603082071
441.99900,-6.739442925
441.99950,-6.434248517
442.00000,-2.16152681
442.00050,3.942361344
442.00100,10.35144391
442.00150,18.89688732
442.00200,30.79946922
442.00250,41.7864679
442.00300,44.53321757
442.00350,35.07219093
442.00400,19.50727614
442.00450,7.299499829
442.00500,4.247555752
442.00550,8.52027746
442.00600,14.62416561
442.00650,18.28649851
442.00700,17.37091528
442.00750,11.57222154
442.00800,2.721583714
442.00850,-5.823859702
442.00900,-12.53813667
442.00950,-14.06410871
442.01000,-9.791387002
442.01050,-1.551137994
442.01100,5.773527791
442.01150,9.130666275
442.01200,8.52027746
442.01250,6.994305421
442.01300,6.994305421
442.01350,5.773527791
442.01400,0.8904172674
442.01450,-5.823859702
442.01500,-11.01216463
442.01550,-12.53813667
442.01600,-12.84333108
442.01650,-12.23294226
442.01700,-7.34983174
442.01750,1.500806083
442.01800,8.52027746
442.01850,7.604694237
442.01900,1.195611675
442.01950,-1.245943586
442.02000,3.026778121
442.02050,9.741055091
442.02100,12.48780476
442.02150,13.40338798
442.02200,16.45533206
442.02250,20.72805377
442.02300,21.9488314
442.02350,16.45533206
442.02400,5.163138975
442.02450,-7.960220556
442.02500,-19.25241364
442.02550,-25.05110739
442.02600,-24.74591298
442.02650,-19.86280246
442.02700,-14.67449753
442.02750,-11.62255345
442.02800,-12.23294226
442.02850,-15.59008075
442.02900,-19.25241364
442.02950,-19.25241364
442.03000,-14.36930312
442.03050,-9.791387002
442.03100,-11.01216463
442.03150,-17.11605279
442.03200,-22.30435772
442.03250,-23.52513535
442.03300,-20.16799686
442.03350,-13.7589143
442.03400,-4.908276479
442.03450,3.331972529
442.03500,8.825471868
442.03550,10.35144391
442.03600,10.35144391
442.03650,10.35144391
442.03700,8.825471868
442.03750,4.857944568
442.03800,-0.3303603634
442.03850,-3.38230444
442.03900,-2.771915625
442.03950,0.280028452
442.04000,3.026778121
442.04050,3.942361344
442.04100,2.721583714
442.04150,1.195611675
442.04200,-0.02516595566
442.04250,-0.9407491788
442.04300,-0.02516595566
442.04350,3.637166937
442.04400,6.689111014
442.04450,4.857944568
442.04500,-0.6355547711
442.04550,-4.297887663
442.04600,-2.771915625
442.04650,0.280028452
442.04700,0.5852228597
442.04750,-2.771915625
442.04800,-7.960220556
442.04850,-13.14852549
442.04900,-16.81085838
442.04950,-16.50566397
442.05000,-10.40177582
442.05050,-1.245943586
442.05100,5.468333383
442.05150,7.909888645
442.05200,6.689111014
442.05250,4.55275016
442.05300,3.026778121
442.05350,3.331972529
442.05400,6.383916606
442.05450,9.741055091
442.05500,10.0462495
442.05550,6.383916606
442.05600,2.721583714
442.05650,2.721583714
442.05700,6.689111014
442.05750,10.0462495
442.05800,10.0462495
442.05850,8.215083052
442.05900,7.909888645
442.05950,9.435860683
442.06000,10.35144391
442.06050,9.435860683
442.06100,6.689111014
442.06150,3.942361344
442.06200,1.195611675
442.06250,-0.3303603634
442.06300,-2.466721217
442.06350,-4.908276479
442.06400,-7.34983174
442.06450,-9.180998187
442.06500,-10.40177582
442.06550,-11.01216463
442.06600,-10.70697023
442.06650,-7.655026148
442.06700,-3.38230444
442.06750,-0.3303603634
442.06800,0.280028452
442.06850,-0.02516595566
442.06900,-0.9407491788
442.06950,-3.687498848
442.07000,-7.34983174
442.07050,-9.486192594
442.07100,-9.486192594
442.07150,-10.40177582
442.07200,-13.7589143
442.07250,-16.81085838
442.07300,-14.97969193
442.07350,-9.791387002
442.07400,-6.434248517
442.07450,-6.434248517
442.07500,-6.739442925
442.07550,-4.908276479
442.07600,-1.245943586
442.07650,0.280028452
442.07700,-0.02516595566
442.07750,-0.6355547711
442.07800,-0.02516595566
442.07850,2.111194898
442.07900,7.604694237
442.07950,13.40338798
442.08000,17.67610969
442.08050,18.89688732
442.08100,17.67610969
442.08150,15.84494324
442.08200,14.31897121
442.08250,13.70858239
442.08300,14.92936002
442.08350,17.9813041
442.08400,21.64363699
442.08450,22.55922021
442.08500,17.37091528
442.08550,7.604694237
442.08600,-2.466721217
442.08650,-11.62255345
442.08700,-19.55760805
442.08750,-26.88227383
442.08800,-29.3238291
442.08850,-22.60955213
442.08900,-10.40177582
442.08950,-0.6355547711
442.09000,2.416389306
442.09050,2.111194898
442.09100,2.721583714
442.09150,2.416389306
442.09200,-1.856332402
442.09250,-7.34983174
442.09300,-7.655026148
442.09350,-1.856332402
442.09400,2.721583714
442.09450,-0.02516595566
442.09500,-8.875803779
442.09550,-17.42124719
442.09600,-19.86280246
442.09650,-17.7264416
442.09700,-15.28488634
442.09750,-15.59008075
442.09800,-17.42124719
442.09850,-19.25241364
442.09900,-21.6939689
442.09950,-24.74591298
442.10000,-25.6614962
442.10050,-19.55760805
442.10100,-8.265414964
442.10150,-0.6355547711
442.10200,-0.6355547711
442.10250,-2.771915625
442.10300,1.500806083
442.10350,13.40338798
442.10400,26.52674751
442.10450,36.59816297
442.10500,43.61763435
442.10550,46.05918961
442.10600,39.95530145
442.10650,25.00077548
442.10700,9.741055091
442.10750,0.5852228597
442.10800,-4.603082071
442.10850,-13.14852549
442.10900,-25.05110739
442.10950,-30.54460673
442.11000,-21.6939689
442.11050,-1.551137994
442.11100,16.15013765
442.11150,21.33844258
442.11200,17.37091528
442.11250,13.09819358
442.11300,12.48780476
442.11350,14.92936002
442.11400,23.47480344
442.11450,40.87088468
442.11500,58.87735473
442.11550,60.40332677
442.11600,39.65010705
442.11650,12.79299917
442.11700,-0.6355547711
442.11750,-0.6355547711
442.11800,-0.02516595566
442.11850,-3.38230444
442.11900,-4.603082071
442.11950,-0.02516595566
442.12000,4.55275016
442.12050,2.721583714
442.12100,-0.6355547711
442.12150,0.280028452
442.12200,6.994305421
442.12250,12.79299917
442.12300,13.70858239
442.12350,9.435860683
442.12400,1.195611675
442.12450,-8.875803779
442.12500,-17.11605279
442.12550,-19.86280246
442.12600,-18.03163601
442.12650,-16.50566397
442.12700,-17.11605279
442.12750,-15.28488634
442.12800,-5.823859702
442.12850,8.215083052
442.12900,17.9813041
442.12950,16.45533206
442.13000,6.689111014
442.13050,-3.077110033
442.13100,-8.570609371
442.13150,-8.875803779
442.13200,-6.739442925
442.13250,-5.213470887
442.13300,-6.12905411
442.13350,-8.265414964
442.13400,-9.180998187
442.13450,-7.960220556
442.13500,-4.908276479
442.13550,-1.551137994
442.13600,1.500806083
442.13650,3.942361344
442.13700,4.247555752
442.13750,3.637166937
442.13800,4.247555752
442.13850,5.468333383
442.13900,4.55275016
442.13950,2.111194898
442.14000,0.280028452
442.14050,-0.02516595566
442.14100,-0.9407491788
442.14150,-3.687498848
442.14200,-6.12905411
442.14250,-6.12905411
442.14300,-4.908276479
442.14350,-3.992693256
442.14400,-4.297887663
442.14450,-5.213470887
442.14500,-6.739442925
442.14550,-6.739442925
442.14600,-4.603082071
442.14650,-3.077110033
442.14700,-5.213470887
442.14750,-8.875803779
442.14800,-9.180998187
442.14850,-6.739442925
442.14900,-7.960220556
442.14950,-13.7589143
442.15000,-18.33683042
442.15050,-16.81085838
442.15100,-14.06410871
442.15150,-17.11605279
442.15200,-25.35630179
442.15250,-30.84980113
442.15300,-30.23941232
442.15350,-27.79785706
442.15400,-26.27188502
442.15450,-24.74591298
442.15500,-20.16799686
442.15550,-15.59008075
442.15600,-14.36930312
442.15650,-15.59008075
442.15700,-14.36930312
442.15750,-8.875803779
442.15800,-1.856332402
442.15850,3.331972529
442.15900,6.689111014
442.15950,8.52027746
442.16000,7.604694237
442.16050,4.55275016
442.16100,1.806000491
442.16150,1.500806083
442.16200,1.500806083
442.16250,-0.3303603634
442.16300,-3.687498848
442.16350,-5.518665294
442.16400,-4.603082071
442.16450,-1.245943586
442.16500,3.331972529
442.16550,6.994305421
442.16600,8.215083052
442.16650,7.604694237
442.16700,10.0462495
442.16750,19.50727614
442.16800,32.63063567
442.16850,42.39685671
442.16900,43.31243994
442.16950,35.07219093
442.17000,21.03324818
442.17050,6.994305421
442.17100,-0.02516595566
442.17150,1.500806083
442.17200,6.689111014
442.17250,9.130666275
442.17300,7.604694237
442.17350,7.299499829
442.17400,10.0462495
442.17450,14.62416561
442.17500,19.20208173
442.17550,22.86441462
442.17600,24.08519225
442.17650,20.72805377
442.17700,15.53974884
442.17750,13.09819358
442.17800,14.62416561
442.17850,16.15013765
442.17900,16.45533206
442.17950,16.76052647
442.18000,15.84494324
442.18050,10.96183272
442.18100,2.416389306
442.18150,-6.12905411
442.18200,-15.28488634
442.18250,-27.18746824
442.18300,-37.86927251
442.18350,-36.03810606
442.18400,-20.77838568
442.18450,-5.213470887
442.18500,-2.771915625
442.18550,-10.40177582
442.18600,-16.20046956
442.18650,-17.11605279
442.18700,-19.86280246
442.18750,-27.18746824
442.18800,-31.76538436
442.18850,-29.01863469
442.18900,-23.21994094
442.18950,-21.6939689
442.19000,-25.05110739
442.19050,-29.3238291
442.19100,-31.76538436
442.19150,-30.54460673
442.19200,-24.74591298
442.19250,-16.20046956
442.19300,-9.486192594
442.19350,-7.34983174
442.19400,-5.823859702
442.19450,-2.16152681
442.19500,2.416389306
442.19550,5.163138975
442.19600,6.383916606
442.19650,9.741055091
442.19700,15.23455443
442.19750,18.89688732
442.19800,18.89688732
442.19850,17.37091528
442.19900,17.06572088
442.19950,17.67610969
442.20000,18.28649851
442.20050,17.67610969
442.20100,15.53974884
442.20150,13.09819358
442.20200,12.79299917
442.20250,14.92936002
442.20300,17.67610969
442.20350,17.37091528
442.20400,14.62416561
442.20450,12.48780476
442.20500,12.18261035
442.20550,12.18261035
442.20600,10.96183272
442.20650,8.825471868
442.20700,6.383916606
442.20750,4.247555752
442.20800,2.721583714
442.20850,1.500806083
442.20900,-1.245943586
442.20950,-7.34983174
442.21000,-13.7589143
442.21050,-16.20046956
442.21100,-14.67449753
442.21150,-12.23294226
442.21200,-11.01216463
442.21250,-9.180998187
442.21300,-4.603082071
442.21350,1.806000491
442.21400,5.773527791
442.21450,3.026778121
442.21500,-4.297887663
442.21550,-9.791387002
442.21600,-5.823859702
442.21650,3.942361344
442.21700,9.741055091
442.21750,4.857944568
442.21800,-4.908276479
442.21850,-11.92774786
442.21900,-14.06410871
442.21950,-14.97969193
442.22000,-13.14852549
442.22050,-4.603082071
442.22100,6.994305421
442.22150,15.53974884
442.22200,20.11766495
442.22250,26.83194192
442.22300,39.03971823
442.22350,50.33191132
442.22400,53.07866098
442.22450,46.66957842
442.22500,36.59816297
442.22550,28.05271955
442.22600,21.33844258
442.22650,14.0137768
442.22700,5.468333383
442.22750,-3.38230444
442.22800,-9.486192594
442.22850,-10.40177582
442.22900,-7.34983174
442.22950,-3.992693256
442.23000,-1.856332402
442.23050,-1.245943586
442.23100,-3.38230444
442.23150,-8.875803779
442.23200,-15.28488634
442.23250,-18.64202483
442.23300,-19.86280246
442.23350,-21.6939689
442.23400,-25.35630179
442.23450,-24.74591298
442.23500,-15.28488634
442.23550,-0.3303603634
442.23600,10.96183272
442.23650,14.92936002
442.23700,14.92936002
442.23750,16.15013765
442.23800,19.20208173
442.23850,20.72805377
442.23900,19.50727614
442.23950,17.06572088
442.24000,14.0137768
442.24050,9.130666275
442.24100,3.026778121
442.24150,-1.856332402
442.24200,-3.687498848
442.24250,-3.992693256
442.24300,-5.213470887
442.24350,-7.044637333
442.24400,-7.044637333
442.24450,-5.213470887
442.24500,-4.908276479
442.24550,-7.655026148
442.24600,-11.01216463
442.24650,-9.791387002
442.24700,-2.771915625
442.24750,6.078722198
442.24800,12.18261035
442.24850,10.65663831
442.24900,1.500806083
442.24950,-10.09658141
442.25000,-19.25241364
442.25050,-23.52513535
442.25100,-24.13552416
442.25150,-22.30435772
442.25200,-19.55760805
442.25250,-17.7264416
442.25300,-17.7264416
442.25350,-18.33683042
442.25400,-16.20046956
442.25450,-11.62255345
442.25500,-7.960220556
442.25550,-7.044637333
442.25600,-6.739442925
442.25650,-6.12905411
442.25700,-6.12905411
442.25750,-7.34983174
442.25800,-7.34983174
442.25850,-4.297887663
442.25900,-0.6355547711
442.25950,1.195611675
442.26000,3.637166937
442.26050,5.773527791
442.26100,5.163138975
442.26150,2.416389306
442.26200,2.721583714
442.26250,10.0462495
442.26300,17.67610969
442.26350,17.06572088
442.26400,8.825471868
442.26450,1.195611675
442.26500,-0.9407491788
442.26550,-1.856332402
442.26600,-4.908276479
442.26650,-7.960220556
442.26700,-7.34983174
442.26750,-5.823859702
442.26800,-6.739442925
442.26850,-9.180998187
442.26900,-9.486192594
442.26950,-7.34983174
442.27000,-4.908276479
442.27050,-0.6355547711
442.27100,6.994305421
442.27150,16.15013765
442.27200,18.59169291
442.27250,11.57222154
442.27300,0.5852228597
442.27350,-7.655026148
442.27400,-16.20046956
442.27450,-29.6290235
442.27500,-46.71991033
442.27550,-56.79132579
442.27600,-51.29782645
442.27650,-31.76538436
442.27700,-10.09658141
442.27750,3.942361344
442.27800,9.435860683
442.27850,11.26702713
442.27900,13.40338798
442.27950,15.53974884
442.28000,16.76052647
442.28050,18.89688732
442.28100,24.39038666
442.28150,31.10466363
442.28200,33.54621889
442.28250,26.83194192
442.28300,12.18261035
442.28350,-4.603082071
442.28400,-18.94721923
442.28450,-29.01863469
442.28500,-36.64849488
442.28550,-44.27835507
442.28600,-48.85627119
442.28650,-45.80432711
442.28700,-39.09005014
442.28750,-35.42771725
442.28800,-32.98616199
442.28850,-16.81085838
442.28900,20.11766495
442.28950,60.70852118
442.29000,77.4942136
442.29050,64.06565966
442.29100,41.17607908
442.29150,28.96830278
442.29200,25.00077548
442.29250,19.50727614
442.29300,12.18261035
442.29350,10.96183272
442.29400,14.31897121
442.29450,11.57222154
442.29500,-0.02516595566
442.29550,-10.70697023
442.29600,-12.23294226
442.29650,-7.044637333
442.29700,-3.992693256
442.29750,-4.908276479
442.29800,-6.12905411
442.29850,-3.38230444
442.29900,0.5852228597
442.29950,2.721583714
442.30000,2.721583714
442.30050,4.55275016
442.30100,9.741055091
442.30150,15.53974884
442.30200,17.9813041
442.30250,15.23455443
442.30300,10.35144391
442.30350,6.689111014
442.30400,5.163138975
442.30450,2.721583714
442.30500,-2.771915625
442.30550,-8.875803779
442.30600,-10.70697023
442.30650,-9.486192594
442.30700,-11.31735904
442.30750,-17.11605279
442.30800,-21.08358009
442.30850,-18.33683042
442.30900,-12.53813667
442.30950,-8.570609371
442.31000,-5.823859702
442.31050,-1.245943586
442.31100,3.331972529
442.31150,4.55275016
442.31200,5.163138975
442.31250,10.35144391
442.31300,19.50727614
442.31350,25.00077548
442.31400,24.69558107
442.31450,23.47480344
442.31500,25.00077548
442.31550,27.13713633
442.31600,26.22155311
442.31650,20.42285936
442.31700,9.130666275
442.31750,-4.908276479
442.31800,-13.7589143
442.31850,-11.62255345
442.31900,-6.739442925
442.31950,-14.36930312
442.32000,-36.34330047
442.32050,-54.34977053
442.32100,-51.90821526
442.32150,-35.12252284
442.32200,-22.91474653
442.32250,-21.99916331
442.32300,-24.74591298
442.32350,-23.21994094
442.32400,-18.94721923
442.32450,-15.59008075
442.32500,-13.14852549
442.32550,-9.791387002
442.32600,-5.213470887
442.32650,-2.16152681
442.32700,-1.245943586
442.32750,-2.771915625
442.32800,-5.213470887
442.32850,-7.044637333
442.32900,-6.434248517
442.32950,-3.992693256
442.33000,-2.771915625
442.33050,-3.687498848
442.33100,-4.603082071
442.33150,-3.992693256
442.33200,-2.771915625
442.33250,-2.16152681
442.33300,-1.551137994
442.33350,-0.02516595566
442.33400,2.721583714
442.33450,5.163138975
442.33500,6.689111014
442.33550,8.52027746
442.33600,10.96183272
442.33650,13.70858239
442.33700,15.84494324
442.33750,16.45533206
442.33800,14.62416561
442.33850,12.79299917
442.33900,14.92936002
442.33950,20.72805377
442.34000,24.08519225
442.34050,20.72805377
442.34100,14.31897121
442.34150,12.18261035
442.34200,15.53974884
442.34250,18.59169291
442.34300,17.67610969
442.34350,14.31897121
442.34400,11.26702713
442.34450,8.215083052
442.34500,4.857944568
442.34550,3.026778121
442.34600,3.637166937
442.34650,3.331972529
442.34700,-0.6355547711
442.34750,-5.213470887
442.34800,-4.908276479
442.34850,1.806000491
442.34900,10.35144391
442.34950,14.31897121
442.35000,12.48780476
442.35050,8.52027746
442.35100,5.468333383
442.35150,3.942361344
442.35200,1.806000491
442.35250,-1.551137994
442.35300,-3.992693256
442.35350,-2.466721217
442.35400,-0.02516595566
442.35450,-1.856332402
442.35500,-9.791387002
442.35550,-15.89527516
442.35600,-14.67449753
442.35650,-9.486192594
442.35700,-5.213470887
442.35750,-0.02516595566
442.35800,9.435860683
442.35850,19.50727614
442.35900,21.33844258
442.35950,14.31897121
442.36000,8.825471868
442.36050,11.87741594
442.36100,21.03324818
442.36150,28.96830278
442.36200,33.54621889
442.36250,35.07219093
442.36300,31.71505245
442.36350,22.25402581
442.36400,11.26702713
442.36450,5.163138975
442.36500,4.857944568
442.36550,4.55275016
442.36600,-0.02516595566
442.36650,-5.213470887
442.36700,-5.823859702
442.36750,-0.9407491788
442.36800,2.721583714
442.36850,0.5852228597
442.36900,-6.434248517
442.36950,-13.14852549
442.37000,-13.45371989
442.37050,-7.044637333
442.37100,0.280028452
442.37150,3.331972529
442.37200,0.8904172674
442.37250,-2.771915625
442.37300,-4.603082071
442.37350,-4.908276479
442.37400,-6.12905411
442.37450,-8.570609371
442.37500,-11.62255345
442.37550,-15.28488634
442.37600,-19.55760805
442.37650,-22.30435772
442.37700,-20.47319127
442.37750,-13.7589143
442.37800,-7.34983174
442.37850,-5.213470887
442.37900,-6.12905411
442.37950,-4.908276479
442.38000,-0.02516595566
442.38050,5.468333383
442.38100,8.215083052
442.38150,8.215083052
442.38200,7.299499829
442.38250,6.383916606
442.38300,5.163138975
442.38350,3.026778121
442.38400,0.8904172674
442.38450,-0.3303603634
442.38500,-1.856332402
442.38550,-3.38230444
442.38600,-4.603082071
442.38650,-4.603082071
442.38700,-5.213470887
442.38750,-7.960220556
442.38800,-13.45371989
442.38850,-18.94721923
442.38900,-21.99916331
442.38950,-21.6939689
442.39000,-21.6939689
442.39050,-24.74591298
442.39100,-29.93421791
442.39150,-33.2913564
442.39200,-32.37577317
442.39250,-27.79785706
442.39300,-21.6939689
442.39350,-15.28488634
442.39400,-8.875803779
442.39450,-3.38230444
442.39500,1.806000491
442.39550,7.604694237
442.39600,11.57222154
442.39650,11.26702713
442.39700,6.383916606
442.39750,2.721583714
442.39800,3.942361344
442.39850,8.215083052
442.39900,10.96183272
442.39950,11.57222154
442.40000,10.96183272
442.40050,9.741055091
442.40100,7.299499829
442.40150,5.163138975
442.40200,4.55275016
442.40250,5.163138975
442.40300,3.026778121
442.40350,-0.6355547711
442.40400,-1.856332402
442.40450,2.111194898
442.40500,8.52027746
442.40550,13.40338798
442.40600,16.15013765
442.40650,19.50727614
442.40700,22.86441462
442.40750,22.25402581
442.40800,17.9813041
442.40850,12.79299917
442.40900,9.130666275
442.40950,5.468333383
442.41000,0.280028452
442.41050,-5.213470887
442.41100,-7.960220556
442.41150,-7.34983174
442.41200,-6.434248517
442.41250,-7.655026148
442.41300,-11.92774786
442.41350,-17.42124719
442.41400,-22.30435772
442.41450,-26.57707943
442.41500,-28.71344028
442.41550,-28.40824587
442.41600,-26.27188502
442.41650,-24.44071857
442.41700,-22.60955213
442.41750,-19.86280246
442.41800,-14.67449753
442.41850,-7.34983174
442.41900,-0.3303603634
442.41950,3.637166937
442.42000,2.721583714
442.42050,-1.856332402
442.42100,-6.739442925
442.42150,-6.434248517
442.42200,-0.3303603634
442.42250,7.299499829
442.42300,12.79299917
442.42350,13.40338798
442.42400,9.741055091
442.42450,2.416389306
442.42500,-4.603082071
442.42550,-7.655026148
442.42600,-5.213470887
442.42650,-1.856332402
442.42700,-2.771915625
442.42750,-7.044637333
442.42800,-9.791387002
442.42850,-9.486192594
442.42900,-8.875803779
442.42950,-9.180998187
442.43000,-8.875803779
442.43050,-4.908276479
442.43100,2.721583714
442.43150,11.87741594
442.43200,18.59169291
442.43250,19.50727614
442.43300,15.53974884
442.43350,10.65663831
442.43400,9.130666275
442.43450,10.65663831
442.43500,11.57222154
442.43550,9.435860683
442.43600,3.942361344
442.43650,-4.297887663
442.43700,-14.06410871
442.43750,-19.86280246
442.43800,-17.11605279
442.43850,-7.34983174
442.43900,4.55275016
442.43950,17.37091528
442.44000,31.71505245
442.44050,43.61763435
442.44100,45.14360638
442.44150,36.90335738
442.44200,28.05271955
442.44250,25.00077548
442.44300,24.69558107
442.44350,21.03324818
442.44400,14.92936002
442.44450,11.57222154
442.44500,10.0462495
442.44550,5.163138975
442.44600,-3.38230444
442.44650,-11.01216463
442.44700,-13.14852549
442.44750,-10.70697023
442.44800,-4.908276479
442.44850,2.111194898
442.44900,7.299499829
442.44950,6.383916606
442.45000,-0.02516595566
442.45050,-6.434248517
442.45100,-9.486192594
442.45150,-11.01216463
442.45200,-12.23294226
442.45250,-12.23294226
442.45300,-8.570609371
442.45350,-2.466721217
442.45400,1.500806083
442.45450,1.195611675
442.45500,-2.16152681
442.45550,-6.434248517
442.45600,-8.570609371
442.45650,-8.570609371
442.45700,-8.265414964
442.45750,-8.875803779
442.45800,-9.486192594
442.45850,-7.655026148
442.45900,-2.771915625
442.45950,2.111194898
442.46000,3.637166937
442.46050,-0.3303603634
442.46100,-7.655026148
442.46150,-14.06410871
442.46200,-16.50566397
442.46250,-13.14852549
442.46300,-5.823859702
442.46350,2.416389306
442.46400,7.604694237
442.46450,7.604694237
442.46500,4.857944568
442.46550,3.331972529
442.46600,3.331972529
442.46650,2.416389306
442.46700,1.195611675
442.46750,1.195611675
442.46800,3.942361344
442.46850,6.078722198
442.46900,4.247555752
442.46950,-1.245943586
442.47000,-8.570609371
442.47050,-13.45371989
442.47100,-12.53813667
442.47150,-5.518665294
442.47200,3.026778121
442.47250,7.909888645
442.47300,6.383916606
442.47350,3.026778121
442.47400,1.806000491
442.47450,0.280028452
442.47500,-3.077110033
442.47550,-5.823859702
442.47600,-3.687498848
442.47650,1.500806083
442.47700,4.55275016
442.47750,4.247555752
442.47800,4.247555752
442.47850,6.383916606
442.47900,6.994305421
442.47950,4.857944568
442.48000,2.721583714
442.48050,3.026778121
442.48100,4.55275016
442.48150,3.331972529
442.48200,0.280028452
442.48250,-2.16152681
442.48300,-3.992693256
442.48350,-5.213470887
442.48400,-5.518665294
442.48450,-2.466721217
442.48500,4.247555752
442.48550,14.31897121
442.48600,22.25402581
442.48650,23.16960903
442.48700,16.15013765
442.48750,6.689111014
442.48800,0.280028452
442.48850,-2.771915625
442.48900,-4.908276479
442.48950,-7.044637333
442.49000,-7.34983174
442.49050,-6.434248517
442.49100,-6.739442925
442.49150,-6.739442925
442.49200,-3.38230444
442.49250,3.026778121
442.49300,7.299499829
442.49350,5.773527791
442.49400,1.806000491
442.49450,-0.6355547711
442.49500,-1.856332402
442.49550,-1.856332402
442.49600,-0.6355547711
442.49650,1.195611675
442.49700,1.500806083
442.49750,-0.3303603634
442.49800,-2.16152681
442.49850,-1.856332402
442.49900,-2.466721217
442.49950,-4.603082071
442.50000,-5.823859702
442.50050,-3.992693256
442.50100,-1.856332402
442.50150,-1.551137994
442.50200,-0.3303603634
442.50250,4.55275016
442.50300,11.26702713
442.50350,15.23455443
442.50400,14.92936002
442.50450,11.26702713
442.50500,4.857944568
442.50550,-3.077110033
442.50600,-9.180998187
442.50650,-10.40177582
442.50700,-7.960220556
442.50750,-6.12905411
442.50800,-8.570609371
442.50850,-14.06410871
442.50900,-18.94721923
442.50950,-20.16799686
442.51000,-17.7264416
442.51050,-14.97969193
442.51100,-13.45371989
442.51150,-11.01216463
442.51200,-6.434248517
442.51250,-2.466721217
442.51300,-2.771915625
442.51350,-6.12905411
442.51400,-8.875803779
442.51450,-12.23294226
442.51500,-19.25241364
442.51550,-25.05110739
442.51600,-21.38877449
442.51650,-7.34983174
442.51700,6.383916606
442.51750,12.79299917
442.51800,12.48780476
442.51850,11.26702713
442.51900,10.35144391
442.51950,8.825471868
442.52000,7.299499829
442.52050,6.994305421
442.52100,7.604694237
442.52150,9.130666275
442.52200,15.84494324
442.52250,26.22155311
442.52300,32.63063567
442.52350,27.74752515
442.52400,15.53974884
442.52450,4.857944568
442.52500,-1.245943586
442.52550,-6.12905411
442.52600,-9.486192594
442.52650,-6.739442925
442.52700,-0.02516595566
442.52750,2.721583714
442.52800,-1.551137994
442.52850,-8.570609371
442.52900,-11.01216463
442.52950,-10.09658141
442.53000,-10.09658141
442.53050,-11.92774786
442.53100,-11.62255345
442.53150,-7.960220556
442.53200,-3.077110033
442.53250,0.280028452
442.53300,2.416389306
442.53350,3.637166937
442.53400,2.721583714
442.53450,-0.6355547711
442.53500,-4.908276479
442.53550,-7.044637333
442.53600,-6.12905411
442.53650,-4.297887663
442.53700,-2.16152681
442.53750,0.5852228597
442.53800,5.773527791
442.53850,11.87741594
442.53900,16.45533206
442.53950,17.67610969
442.54000,16.45533206
442.54050,13.70858239
442.54100,9.741055091
442.54150,5.163138975
442.54200,-0.3303603634
442.54250,-6.12905411
442.54300,-10.09658141
442.54350,-10.40177582
442.54400,-7.044637333
442.54450,-1.245943586
442.54500,4.857944568
442.54550,12.48780476
442.54600,21.9488314
442.54650,30.79946922
442.54700,32.93583008
442.54750,26.22155311
442.54800,14.0137768
442.54850,2.416389306
442.54900,-6.12905411
442.54950,-14.06410871
442.55000,-18.33683042
442.55050,-15.89527516
442.55100,-8.265414964
442.55150,-2.771915625
442.55200,-4.297887663
442.55250,-7.34983174
442.55300,-4.908276479
442.55350,1.500806083
442.55400,7.909888645
442.55450,12.79299917
442.55500,19.81247054
442.55550,28.05271955
442.55600,29.883886
442.55650,22.86441462
442.55700,13.09819358
442.55750,8.52027746
442.55800,9.741055091
442.55850,11.26702713
442.55900,8.52027746
442.55950,1.500806083
442.56000,-7.960220556
442.56050,-16.81085838
442.56100,-20.77838568
442.56150,-19.55760805
442.56200,-19.25241364
442.56250,-22.91474653
442.56300,-27.79785706
442.56350,-28.40824587
442.56400,-24.44071857
442.56450,-19.55760805
442.56500,-14.06410871
442.56550,-6.739442925
442.56600,-0.02516595566
442.56650,1.195611675
442.56700,-1.856332402
442.56750,-4.603082071
442.56800,-2.466721217
442.56850,2.721583714
442.56900,8.52027746
442.56950,11.87741594
442.57000,11.26702713
442.57050,6.078722198
442.57100,-0.6355547711
442.57150,-6.12905411
442.57200,-8.570609371
442.57250,-9.180998187
442.57300,-9.180998187
442.57350,-8.265414964
442.57400,-6.739442925
442.57450,-5.213470887
442.57500,-3.992693256
442.57550,-2.466721217
442.57600,-1.245943586
442.57650,-0.3303603634
442.57700,0.5852228597
442.57750,3.026778121
442.57800,5.468333383
442.57850,5.468333383
442.57900,1.195611675
442.57950,-3.38230444
442.58000,-4.908276479
442.58050,-2.771915625
442.58100,0.8904172674
442.58150,3.637166937
442.58200,3.637166937
442.58250,1.500806083
442.58300,-1.245943586
442.58350,-3.687498848
442.58400,-3.38230444
442.58450,-1.245943586
442.58500,-0.6355547711
442.58550,-3.687498848
442.58600,-8.265414964
442.58650,-10.70697023
442.58700,-9.791387002
442.58750,-7.655026148
442.58800,-5.823859702
442.58850,-3.992693256
442.58900,-2.16152681
442.58950,-1.551137994
442.59000,-3.077110033
442.59050,-3.687498848
442.59100,-0.3303603634
442.59150,3.331972529
442.59200,2.416389306
442.59250,-3.992693256
442.59300,-8.875803779
442.59350,-5.518665294
442.59400,1.195611675
442.59450,2.416389306
442.59500,-3.687498848
442.59550,-10.40177582
442.59600,-9.486192594
442.59650,-0.6355547711
442.59700,9.130666275
442.59750,14.31897121
442.59800,14.62416561
442.59850,13.40338798
442.59900,16.76052647
442.59950,24.08519225
442.60000,28.35791396
442.60050,21.9488314
442.60100,7.299499829
442.60150,-4.908276479
442.60200,-10.09658141
442.60250,-11.62255345
442.60300,-14.36930312
442.60350,-15.59008075
442.60400,-12.23294226
442.60450,-6.739442925
442.60500,-3.992693256
442.60550,-3.687498848
442.60600,-0.02516595566
442.60650,6.383916606
442.60700,10.0462495
442.60750,5.468333383
442.60800,-1.856332402
442.60850,-5.518665294
442.60900,-3.38230444
442.60950,-2.466721217
442.61000,-8.570609371
442.61050,-19.55760805
442.61100,-29.3238291
442.61150,-33.90174521
442.61200,-34.81732843
442.61250,-35.42771725
442.61300,-36.03810606
442.61350,-35.73291166
442.61400,-32.98616199
442.61450,-29.01863469
442.61500,-25.05110739
442.61550,-19.55760805
442.61600,-11.92774786
442.61650,-3.38230444
442.61700,1.806000491
442.61750,2.416389306
442.61800,1.806000491
442.61850,5.468333383
442.61900,13.09819358
442.61950,20.72805377
442.62000,23.16960903
442.62050,21.64363699
442.62100,19.81247054
442.62150,19.50727614
442.62200,18.89688732
