"type","name","time_units","begin_time","frequency","count","units"
"signal","Ultium EMG-EXT.CARP.ULN. RT","s",439.96000,2000,22000,"uV"

"time","value"
439.96000,-54.8622409
439.96050,-50.58951919
439.96100,-24.03760572
439.96150,5.261057421
439.96200,24.1831107
439.96250,37.00127582
439.96300,52.26099621
439.96350,68.74149422
439.96400,75.45577119
439.96450,64.16357811
439.96500,43.41035838
439.96550,35.17010938
439.96600,51.04021858
439.96650,76.67654882
439.96700,87.6635475
439.96750,77.59213205
439.96800,57.44930114
439.96850,35.17010938
439.96900,11.36494557
439.96950,-6.031135664
439.97000,-10.30385737
439.97050,-17.01813434
439.97100,-52.72588004
439.97150,-111.3232063
439.97200,-144.8945912
439.97250,-120.4790386
439.97300,-62.49210109
439.97350,-19.76488401
439.97400,-8.777885333
439.97450,-9.083079741
439.97500,-5.725941256
439.97550,-3.589580402
439.97600,-7.251913295
439.97650,-8.472690926
439.97700,-3.89477481
439.97750,-0.2324419177
439.97800,-0.8428307331
439.97850,-2.368802772
439.97900,0.3779468977
439.97950,4.650668606
439.98000,4.955863013
439.98050,2.209113344
439.98100,-0.8428307331
439.98150,-3.89477481
439.98200,-6.031135664
439.98250,-6.031135664
439.98300,-3.589580402
439.98350,-0.2324419177
439.98400,1.903918936
439.98450,3.124696567
439.98500,3.124696567
439.98550,3.124696567
439.98600,4.04027979
439.98650,4.345474198
439.98700,3.429890975
439.98750,3.124696567
439.98800,5.566251829
439.98850,7.397418275
439.98900,5.261057421
439.98950,1.598724528
439.99000,3.429890975
439.99050,11.36494557
439.99100,18.07922254
439.99150,18.07922254
439.99200,15.33247288
439.99250,14.11169524
439.99300,13.80650084
439.99350,11.67013998
439.99400,8.923390313
439.99450,8.313001498
439.99500,8.923390313
439.99550,8.313001498
439.99600,6.176640644
439.99650,4.650668606
439.99700,4.345474198
439.99750,4.955863013
439.99800,5.566251829
439.99850,7.092223867
439.99900,9.838973536
439.99950,12.2805288
440.00000,11.97533439
440.00050,8.313001498
440.00100,4.955863013
440.00150,3.735085382
440.00200,-0.2324419177
440.00250,-13.96619026
440.00300,-30.14149387
440.00350,-33.80382676
440.00400,-20.68046723
440.00450,-3.89477481
440.00500,2.514307752
440.00550,0.3779468977
440.00600,0.6831413054
440.00650,4.955863013
440.00700,7.702612683
440.00750,5.566251829
440.00800,3.429890975
440.00850,3.124696567
440.00900,2.819502159
440.00950,2.819502159
440.01000,4.955863013
440.01050,6.481835052
440.01100,4.345474198
440.01150,0.6831413054
440.01200,0.6831413054
440.01250,3.735085382
440.01300,4.650668606
440.01350,4.04027979
440.01400,5.871446236
440.01450,8.618195906
440.01500,4.345474198
440.01550,-7.557107703
440.01600,-17.32332875
440.01650,-16.71293993
440.01700,-11.21944059
440.01750,-10.30385737
440.01800,-15.4921623
440.01850,-18.84930079
440.01900,-15.1869679
440.01950,-5.115552441
440.02000,6.176640644
440.02050,13.80650084
440.02100,14.72208406
440.02150,9.838973536
440.02200,4.650668606
440.02250,2.819502159
440.02300,3.429890975
440.02350,3.429890975
440.02400,1.293530121
440.02450,-2.063608364
440.02500,-5.115552441
440.02550,-5.420746849
440.02600,-2.673997179
440.02650,0.6831413054
440.02700,2.209113344
440.02750,0.6831413054
440.02800,-0.8428307331
440.02850,-1.758413956
440.02900,-2.063608364
440.02950,-2.368802772
440.03000,-2.063608364
440.03050,-1.453219549
440.03100,-2.673997179
440.03150,-4.810358033
440.03200,-5.725941256
440.03250,-4.199969218
440.03300,-2.673997179
440.03350,-5.115552441
440.03400,-9.998662964
440.03450,-12.74541263
440.03500,-10.91424619
440.03550,-7.557107703
440.03600,-6.336330072
440.03650,-7.557107703
440.03700,-8.167496518
440.03750,-6.946718887
440.03800,-5.420746849
440.03850,-4.199969218
440.03900,-3.284385995
440.03950,-2.673997179
440.04000,-2.979191587
440.04050,-1.758413956
440.04100,3.735085382
440.04150,12.89091761
440.04200,20.52077781
440.04250,24.48830511
440.04300,27.54024918
440.04350,32.1181653
440.04400,37.30647023
440.04450,40.0532199
440.04500,38.83244227
440.04550,28.45583241
440.04600,3.735085382
440.04650,-29.53110506
440.04700,-53.64146327
440.04750,-54.8622409
440.04800,-39.60252051
440.04850,-22.81682809
440.04900,-9.388274149
440.04950,4.650668606
440.05000,19.91038899
440.05050,28.76102681
440.05100,28.45583241
440.05150,24.79349951
440.05200,20.52077781
440.05250,15.02727847
440.05300,8.313001498
440.05350,2.819502159
440.05400,-5.420746849
440.05450,-24.34280013
440.05500,-49.97913037
440.05550,-65.54404517
440.05600,-58.8297682
440.05650,-37.46615966
440.05700,-17.62852316
440.05750,-7.557107703
440.05800,-4.199969218
440.05850,-2.979191587
440.05900,-2.673997179
440.05950,-2.979191587
440.06000,-3.589580402
440.06050,-5.115552441
440.06100,-7.557107703
440.06150,-9.388274149
440.06200,-9.388274149
440.06250,-9.083079741
440.06300,-9.083079741
440.06350,-7.86230211
440.06400,-2.979191587
440.06450,2.819502159
440.06500,5.261057421
440.06550,2.514307752
440.06600,-0.2324419177
440.06650,-0.2324419177
440.06700,0.3779468977
440.06750,-0.5376363254
440.06800,-2.979191587
440.06850,-3.589580402
440.06900,-2.673997179
440.06950,-2.063608364
440.07000,-1.453219549
440.07050,1.293530121
440.07100,5.261057421
440.07150,4.955863013
440.07200,1.293530121
440.07250,0.6831413054
440.07300,5.871446236
440.07350,10.14416794
440.07400,8.313001498
440.07450,4.650668606
440.07500,5.871446236
440.07550,10.75455676
440.07600,12.58572321
440.07650,8.923390313
440.07700,4.955863013
440.07750,4.04027979
440.07800,5.566251829
440.07850,8.313001498
440.07900,12.58572321
440.07950,16.85844491
440.08000,18.38441695
440.08050,17.16363932
440.08100,16.2480561
440.08150,15.94286169
440.08200,15.33247288
440.08250,12.89091761
440.08300,8.923390313
440.08350,0.3779468977
440.08400,-14.27138467
440.08450,-29.22591065
440.08500,-34.71940999
440.08550,-28.00513302
440.08600,-16.10255112
440.08650,-7.557107703
440.08700,-3.589580402
440.08750,-2.063608364
440.08800,-0.2324419177
440.08850,4.04027979
440.08900,11.67013998
440.08950,18.99480577
440.09000,23.26752748
440.09050,24.48830511
440.09100,26.01427714
440.09150,28.76102681
440.09200,29.37141563
440.09250,23.87791629
440.09300,14.11169524
440.09350,7.702612683
440.09400,11.36494557
440.09450,19.60519458
440.09500,15.02727847
440.09550,-14.88177349
440.09600,-59.44015701
440.09650,-90.26479219
440.09700,-92.70634745
440.09750,-77.14143266
440.09800,-61.27132346
440.09850,-49.67393597
440.09900,-42.34927018
440.09950,-46.01160307
440.10000,-60.05054583
440.10050,-64.62846194
440.10100,-40.82329814
440.10150,1.293530121
440.10200,36.0856926
440.10250,56.83891232
440.10300,76.98174323
440.10350,94.37782447
440.10400,83.39082579
440.10450,37.00127582
440.10500,-9.388274149
440.10550,-16.40774553
440.10600,8.923390313
440.10650,23.57272188
440.10700,5.566251829
440.10750,-20.07007842
440.10800,-19.76488401
440.10850,8.923390313
440.10900,38.52724786
440.10950,47.07269128
440.11000,37.91685904
440.11050,26.92986037
440.11100,21.13116662
440.11150,18.38441695
440.11200,15.02727847
440.11250,11.05975117
440.11300,8.00780709
440.11350,6.176640644
440.11400,4.955863013
440.11450,4.955863013
440.11500,6.787029459
440.11550,8.618195906
440.11600,7.702612683
440.11650,2.819502159
440.11700,-3.89477481
440.11750,-9.998662964
440.11800,-13.96619026
440.11850,-16.40774553
440.11900,-17.93371756
440.11950,-17.32332875
440.12000,-14.88177349
440.12050,-11.21944059
440.12100,-6.336330072
440.12150,2.209113344
440.12200,16.2480561
440.12250,30.59219326
440.12300,37.00127582
440.12350,31.81297089
440.12400,20.2155834
440.12450,10.14416794
440.12500,5.261057421
440.12550,4.345474198
440.12600,5.566251829
440.12650,6.787029459
440.12700,5.871446236
440.12750,3.124696567
440.12800,0.07275248999
440.12850,-2.368802772
440.12900,-6.336330072
440.12950,-12.74541263
440.13000,-17.62852316
440.13050,-16.71293993
440.13100,-9.693468556
440.13150,-2.673997179
440.13200,-0.2324419177
440.13250,-0.2324419177
440.13300,-0.5376363254
440.13350,-1.148025141
440.13400,-2.368802772
440.13450,-3.284385995
440.13500,-3.89477481
440.13550,-6.031135664
440.13600,-9.083079741
440.13650,-9.388274149
440.13700,-4.505163626
440.13750,2.819502159
440.13800,6.481835052
440.13850,4.650668606
440.13900,0.07275248999
440.13950,-2.063608364
440.14000,-1.758413956
440.14050,-0.5376363254
440.14100,-0.2324419177
440.14150,-0.8428307331
440.14200,-3.284385995
440.14250,-5.420746849
440.14300,-6.336330072
440.14350,-6.336330072
440.14400,-6.946718887
440.14450,-8.167496518
440.14500,-8.777885333
440.14550,-7.86230211
440.14600,-7.251913295
440.14650,-7.251913295
440.14700,-7.251913295
440.14750,-6.336330072
440.14800,-5.725941256
440.14850,-6.946718887
440.14900,-8.167496518
440.14950,-7.86230211
440.15000,-5.725941256
440.15050,-4.199969218
440.15100,-3.89477481
440.15150,-4.505163626
440.15200,-4.505163626
440.15250,-4.199969218
440.15300,-3.89477481
440.15350,-3.589580402
440.15400,-2.979191587
440.15450,-3.284385995
440.15500,-3.589580402
440.15550,-3.284385995
440.15600,-1.453219549
440.15650,-0.8428307331
440.15700,-2.673997179
440.15750,-5.420746849
440.15800,-6.031135664
440.15850,-4.199969218
440.15900,-2.673997179
440.15950,-2.368802772
440.16000,-2.063608364
440.16050,-0.5376363254
440.16100,0.6831413054
440.16150,1.598724528
440.16200,2.819502159
440.16250,4.04027979
440.16300,4.345474198
440.16350,3.735085382
440.16400,4.650668606
440.16450,5.566251829
440.16500,2.514307752
440.16550,-3.589580402
440.16600,-7.86230211
440.16650,-7.557107703
440.16700,-5.420746849
440.16750,-4.810358033
440.16800,-3.89477481
440.16850,-0.2324419177
440.16900,3.124696567
440.16950,3.124696567
440.17000,0.9883357131
440.17050,0.9883357131
440.17100,2.819502159
440.17150,4.04027979
440.17200,3.429890975
440.17250,2.514307752
440.17300,2.209113344
440.17350,1.598724528
440.17400,1.598724528
440.17450,4.650668606
440.17500,11.97533439
440.17550,18.99480577
440.17600,21.74155544
440.17650,19.30000018
440.17700,16.2480561
440.17750,17.46883373
440.17800,21.13116662
440.17850,16.55325051
440.17900,-3.89477481
440.17950,-33.19343795
440.18000,-53.64146327
440.18050,-53.33626886
440.18100,-37.77135406
440.18150,-21.59605046
440.18200,-12.74541263
440.18250,-9.388274149
440.18300,-7.251913295
440.18350,-5.420746849
440.18400,-4.199969218
440.18450,-3.284385995
440.18500,-3.589580402
440.18550,-4.505163626
440.18600,-4.505163626
440.18650,-1.758413956
440.18700,1.903918936
440.18750,4.650668606
440.18800,5.566251829
440.18850,5.261057421
440.18900,4.345474198
440.18950,1.598724528
440.19000,-0.8428307331
440.19050,-0.8428307331
440.19100,1.903918936
440.19150,4.345474198
440.19200,4.345474198
440.19250,4.955863013
440.19300,8.923390313
440.19350,14.72208406
440.19400,17.77402814
440.19450,16.85844491
440.19500,15.33247288
440.19550,15.33247288
440.19600,16.2480561
440.19650,15.63766728
440.19700,12.2805288
440.19750,6.481835052
440.19800,0.07275248999
440.19850,-4.810358033
440.19900,-6.031135664
440.19950,-2.979191587
440.20000,0.6831413054
440.20050,2.819502159
440.20100,1.903918936
440.20150,-0.8428307331
440.20200,-3.589580402
440.20250,-4.199969218
440.20300,-2.368802772
440.20350,-2.368802772
440.20400,-5.115552441
440.20450,-4.505163626
440.20500,3.429890975
440.20550,14.72208406
440.20600,21.13116662
440.20650,21.74155544
440.20700,23.26752748
440.20750,28.150638
440.20800,33.03374852
440.20850,35.78049819
440.20900,36.69608141
440.20950,33.03374852
440.21000,19.30000018
440.21050,-1.758413956
440.21100,-20.37527283
440.21150,-31.66746591
440.21200,-41.43368696
440.21250,-53.33626886
440.21300,-58.8297682
440.21350,-49.97913037
440.21400,-32.27785473
440.21450,-18.84930079
440.21500,-14.88177349
440.21550,-13.05060704
440.21600,-7.251913295
440.21650,0.9883357131
440.21700,5.261057421
440.21750,1.903918936
440.21800,-4.505163626
440.21850,-7.557107703
440.21900,-2.979191587
440.21950,5.261057421
440.22000,13.19611202
440.22050,18.07922254
440.22100,19.30000018
440.22150,15.63766728
440.22200,9.228584721
440.22250,6.481835052
440.22300,10.14416794
440.22350,15.63766728
440.22400,16.55325051
440.22450,13.80650084
440.22500,11.36494557
440.22550,6.481835052
440.22600,-4.810358033
440.22650,-19.1544952
440.22700,-25.25838335
440.22750,-20.07007842
440.22800,-11.21944059
440.22850,-5.725941256
440.22900,-2.368802772
440.22950,3.124696567
440.23000,12.2805288
440.23050,20.2155834
440.23100,23.57272188
440.23150,22.96233307
440.23200,21.74155544
440.23250,20.52077781
440.23300,12.89091761
440.23350,-9.998662964
440.23400,-43.2648534
440.23450,-68.29079484
440.23500,-71.64793332
440.23550,-59.44015701
440.23600,-45.40121426
440.23650,-31.0570771
440.23700,-10.60905178
440.23750,12.89091761
440.23800,29.67661004
440.23850,33.64413734
440.23900,28.150638
440.23950,19.60519458
440.24000,12.2805288
440.24050,9.533779129
440.24100,11.36494557
440.24150,12.89091761
440.24200,10.44936235
440.24250,5.566251829
440.24300,2.514307752
440.24350,3.735085382
440.24400,9.228584721
440.24450,18.07922254
440.24500,23.87791629
440.24550,17.16363932
440.24600,-3.89477481
440.24650,-27.69993861
440.24700,-37.46615966
440.24750,-24.95318894
440.24800,4.04027979
440.24850,34.86491497
440.24900,48.59866331
440.24950,39.74802549
440.25000,22.35194425
440.25050,13.19611202
440.25100,12.58572321
440.25150,9.228584721
440.25200,2.209113344
440.25250,-0.5376363254
440.25300,-4.199969218
440.25350,-22.81682809
440.25400,-53.03107445
440.25450,-70.7323501
440.25500,-58.8297682
440.25550,-28.61552183
440.25600,-1.148025141
440.25650,11.97533439
440.25700,6.787029459
440.25750,-14.88177349
440.25800,-37.16096525
440.25850,-38.68693729
440.25900,-21.29085605
440.25950,-14.27138467
440.26000,-30.75188269
440.26050,-46.62199189
440.26100,-35.63499321
440.26150,-6.336330072
440.26200,14.41688965
440.26250,20.82597221
440.26300,24.48830511
440.26350,29.06622122
440.26400,27.84544359
440.26450,21.74155544
440.26500,18.99480577
440.26550,20.82597221
440.26600,19.91038899
440.26650,14.11169524
440.26700,5.871446236
440.26750,-6.031135664
440.26800,-23.1220225
440.26850,-36.24538203
440.26900,-33.19343795
440.26950,-18.23891197
440.27000,-6.031135664
440.27050,-3.589580402
440.27100,-3.589580402
440.27150,-0.8428307331
440.27200,0.07275248999
440.27250,-3.284385995
440.27300,-6.946718887
440.27350,-6.946718887
440.27400,-5.725941256
440.27450,-5.725941256
440.27500,-5.420746849
440.27550,-1.453219549
440.27600,3.735085382
440.27650,6.176640644
440.27700,5.871446236
440.27750,5.261057421
440.27800,5.566251829
440.27850,7.397418275
440.27900,12.2805288
440.27950,20.2155834
440.28000,26.92986037
440.28050,28.150638
440.28100,24.1831107
440.28150,18.68961136
440.28200,12.58572321
440.28250,3.429890975
440.28300,-7.251913295
440.28350,-13.96619026
440.28400,-14.57657908
440.28450,-13.35580145
440.28500,-13.05060704
440.28550,-11.21944059
440.28600,-4.199969218
440.28650,5.566251829
440.28700,17.16363932
440.28750,33.03374852
440.28800,53.48177384
440.28850,65.99474455
440.28900,58.05968995
440.28950,32.72855411
440.29000,8.618195906
440.29050,-3.284385995
440.29100,-10.30385737
440.29150,-24.95318894
440.29200,-46.31679748
440.29250,-59.74535142
440.29300,-51.81029682
440.29350,-23.73241131
440.29400,9.533779129
440.29450,33.03374852
440.29500,41.27399753
440.29550,40.96880312
440.29600,38.52724786
440.29650,34.25452615
440.29700,26.31947155
440.29750,17.77402814
440.29800,12.2805288
440.29850,8.313001498
440.29900,-0.8428307331
440.29950,-16.71293993
440.30000,-32.88824354
440.30050,-42.959659
440.30100,-45.09601985
440.30150,-41.43368696
440.30200,-36.55057643
440.30250,-30.14149387
440.30300,-17.62852316
440.30350,5.871446236
440.30400,33.94933174
440.30450,51.04021858
440.30500,49.81944095
440.30550,38.22205345
440.30600,27.54024918
440.30650,19.30000018
440.30700,10.14416794
440.30750,1.903918936
440.30800,-0.5376363254
440.30850,-0.2324419177
440.30900,-0.5376363254
440.30950,-2.368802772
440.31000,-3.89477481
440.31050,-5.420746849
440.31100,-7.86230211
440.31150,-9.693468556
440.31200,-10.60905178
440.31250,-13.05060704
440.31300,-17.32332875
440.31350,-19.1544952
440.31400,-17.01813434
440.31450,-16.71293993
440.31500,-18.84930079
440.31550,-16.40774553
440.31600,-6.946718887
440.31650,0.9883357131
440.31700,0.3779468977
440.31750,-5.115552441
440.31800,-8.472690926
440.31850,-9.693468556
440.31900,-11.21944059
440.31950,-7.557107703
440.32000,4.955863013
440.32050,18.38441695
440.32100,20.52077781
440.32150,10.44936235
440.32200,1.903918936
440.32250,3.429890975
440.32300,11.05975117
440.32350,16.55325051
440.32400,17.46883373
440.32450,17.16363932
440.32500,16.55325051
440.32550,14.11169524
440.32600,9.228584721
440.32650,7.702612683
440.32700,12.89091761
440.32750,16.85844491
440.32800,5.871446236
440.32850,-19.1544952
440.32900,-39.2973261
440.32950,-37.46615966
440.33000,-20.68046723
440.33050,-8.167496518
440.33100,-5.725941256
440.33150,-5.725941256
440.33200,-5.115552441
440.33250,-11.21944059
440.33300,-23.73241131
440.33350,-31.3622715
440.33400,-24.64799453
440.33450,-10.30385737
440.33500,0.6831413054
440.33550,5.261057421
440.33600,5.871446236
440.33650,7.397418275
440.33700,11.05975117
440.33750,14.41688965
440.33800,10.14416794
440.33850,-1.453219549
440.33900,-11.524635
440.33950,-9.693468556
440.34000,-1.148025141
440.34050,3.429890975
440.34100,2.819502159
440.34150,2.209113344
440.34200,1.598724528
440.34250,-5.420746849
440.34300,-17.93371756
440.34350,-25.56357776
440.34400,-22.51163368
440.34450,-13.66099586
440.34500,-5.115552441
440.34550,2.209113344
440.34600,8.618195906
440.34650,9.533779129
440.34700,5.261057421
440.34750,0.3779468977
440.34800,-1.758413956
440.34850,-3.284385995
440.34900,-6.031135664
440.34950,-6.641524479
440.35000,-4.199969218
440.35050,-1.758413956
440.35100,-1.453219549
440.35150,-0.8428307331
440.35200,1.598724528
440.35250,3.735085382
440.35300,3.124696567
440.35350,1.598724528
440.35400,2.209113344
440.35450,4.345474198
440.35500,6.176640644
440.35550,6.176640644
440.35600,6.176640644
440.35650,5.261057421
440.35700,3.735085382
440.35750,3.429890975
440.35800,4.650668606
440.35850,5.566251829
440.35900,4.345474198
440.35950,2.819502159
440.36000,2.209113344
440.36050,2.209113344
440.36100,1.598724528
440.36150,1.598724528
440.36200,2.819502159
440.36250,4.04027979
440.36300,3.735085382
440.36350,2.514307752
440.36400,2.514307752
440.36450,1.903918936
440.36500,0.07275248999
440.36550,-0.2324419177
440.36600,3.124696567
440.36650,8.923390313
440.36700,13.80650084
440.36750,17.16363932
440.36800,18.68961136
440.36850,16.2480561
440.36900,11.67013998
440.36950,10.14416794
440.37000,8.313001498
440.37050,-6.641524479
440.37100,-42.34927018
440.37150,-80.49857114
440.37200,-94.84270831
440.37250,-80.49857114
440.37300,-56.08301853
440.37350,-37.16096525
440.37400,-20.07007842
440.37450,3.429890975
440.37500,29.37141563
440.37550,44.63113601
440.37600,45.24152483
440.37650,39.74802549
440.37700,35.47530378
440.37750,32.42335971
440.37800,26.31947155
440.37850,14.72208406
440.37900,-0.8428307331
440.37950,-14.57657908
440.38000,-19.76488401
440.38050,-14.57657908
440.38100,-5.725941256
440.38150,-0.5376363254
440.38200,-0.2324419177
440.38250,0.6831413054
440.38300,6.787029459
440.38350,16.2480561
440.38400,24.79349951
440.38450,30.28699885
440.38500,33.03374852
440.38550,33.33894293
440.38600,30.59219326
440.38650,25.09869392
440.38700,18.38441695
440.38750,9.533779129
440.38800,-1.758413956
440.38850,-13.35580145
440.38900,-18.84930079
440.38950,-18.54410638
440.39000,-20.37527283
440.39050,-28.61552183
440.39100,-33.19343795
440.39150,-20.98566164
440.39200,1.903918936
440.39250,17.77402814
440.39300,15.63766728
440.39350,4.955863013
440.39400,-2.673997179
440.39450,-8.472690926
440.39500,-13.96619026
440.39550,-11.82982941
440.39600,2.209113344
440.39650,18.99480577
440.39700,22.96233307
440.39750,16.85844491
440.39800,14.11169524
440.39850,15.63766728
440.39900,8.313001498
440.39950,-7.86230211
440.40000,-17.01813434
440.40050,-9.388274149
440.40100,-0.8428307331
440.40150,-8.777885333
440.40200,-23.1220225
440.40250,-20.68046723
440.40300,-0.8428307331
440.40350,14.41688965
440.40400,12.2805288
440.40450,4.04027979
440.40500,0.3779468977
440.40550,-4.505163626
440.40600,-17.93371756
440.40650,-31.3622715
440.40700,-34.10902117
440.40750,-30.44668828
440.40800,-26.17396657
440.40850,-18.23891197
440.40900,-3.284385995
440.40950,8.313001498
440.41000,10.44936235
440.41050,16.2480561
440.41100,37.00127582
440.41150,56.83891232
440.41200,52.87138502
440.41250,29.67661004
440.41300,13.50130643
440.41350,9.228584721
440.41400,-2.063608364
440.41450,-27.0895498
440.41500,-49.36874156
440.41550,-61.57651787
440.41600,-75.92065503
440.41650,-93.01154186
440.41700,-87.82323693
440.41750,-48.14796393
440.41800,-0.5376363254
440.41850,21.43636103
440.41900,16.55325051
440.41950,7.702612683
440.42000,5.871446236
440.42050,4.955863013
440.42100,2.819502159
440.42150,4.650668606
440.42200,10.44936235
440.42250,12.89091761
440.42300,10.75455676
440.42350,9.533779129
440.42400,10.75455676
440.42450,10.75455676
440.42500,8.00780709
440.42550,4.04027979
440.42600,1.293530121
440.42650,1.293530121
440.42700,4.650668606
440.42750,7.702612683
440.42800,3.429890975
440.42850,-6.641524479
440.42900,-12.74541263
440.42950,-7.557107703
440.43000,3.124696567
440.43050,9.533779129
440.43100,8.618195906
440.43150,5.871446236
440.43200,4.345474198
440.43250,3.735085382
440.43300,4.04027979
440.43350,6.176640644
440.43400,8.618195906
440.43450,8.618195906
440.43500,7.702612683
440.43550,8.618195906
440.43600,11.05975117
440.43650,11.67013998
440.43700,10.44936235
440.43750,9.533779129
440.43800,9.838973536
440.43850,10.75455676
440.43900,11.97533439
440.43950,13.80650084
440.44000,15.63766728
440.44050,15.33247288
440.44100,12.2805288
440.44150,8.618195906
440.44200,5.261057421
440.44250,2.514307752
440.44300,1.293530121
440.44350,3.735085382
440.44400,9.228584721
440.44450,13.50130643
440.44500,13.50130643
440.44550,11.67013998
440.44600,12.58572321
440.44650,17.16363932
440.44700,18.99480577
440.44750,14.41688965
440.44800,5.871446236
440.44850,-1.758413956
440.44900,-7.86230211
440.44950,-13.66099586
440.45000,-17.62852316
440.45050,-16.40774553
440.45100,-10.60905178
440.45150,-6.641524479
440.45200,-6.336330072
440.45250,-6.946718887
440.45300,-5.725941256
440.45350,-3.89477481
440.45400,-2.673997179
440.45450,-0.5376363254
440.45500,2.209113344
440.45550,3.735085382
440.45600,0.6831413054
440.45650,-3.284385995
440.45700,-3.589580402
440.45750,-0.5376363254
440.45800,1.293530121
440.45850,0.6831413054
440.45900,-0.2324419177
440.45950,0.07275248999
440.46000,-0.8428307331
440.46050,-2.673997179
440.46100,-2.979191587
440.46150,-0.8428307331
440.46200,-0.2324419177
440.46250,-2.368802772
440.46300,-3.89477481
440.46350,-2.673997179
440.46400,-1.148025141
440.46450,-1.148025141
440.46500,-1.758413956
440.46550,-0.8428307331
440.46600,-0.2324419177
440.46650,-0.5376363254
440.46700,-1.148025141
440.46750,0.07275248999
440.46800,1.598724528
440.46850,1.293530121
440.46900,-0.2324419177
440.46950,0.07275248999
440.47000,1.598724528
440.47050,2.209113344
440.47100,1.598724528
440.47150,1.598724528
440.47200,1.598724528
440.47250,-0.2324419177
440.47300,-3.589580402
440.47350,-7.86230211
440.47400,-10.60905178
440.47450,-10.60905178
440.47500,-9.083079741
440.47550,-7.557107703
440.47600,-7.557107703
440.47650,-7.251913295
440.47700,-4.505163626
440.47750,-1.758413956
440.47800,-2.368802772
440.47850,-3.89477481
440.47900,1.598724528
440.47950,16.2480561
440.48000,30.28699885
440.48050,35.47530378
440.48100,33.33894293
440.48150,30.28699885
440.48200,26.31947155
440.48250,19.30000018
440.48300,11.67013998
440.48350,4.345474198
440.48400,-9.083079741
440.48450,-32.58304913
440.48500,-55.77782412
440.48550,-62.49210109
440.48600,-50.58951919
440.48650,-32.88824354
440.48700,-20.37527283
440.48750,-12.74541263
440.48800,-6.336330072
440.48850,-2.063608364
440.48900,-2.063608364
440.48950,-3.284385995
440.49000,-2.673997179
440.49050,-1.453219549
440.49100,-2.063608364
440.49150,-3.284385995
440.49200,-2.979191587
440.49250,-1.148025141
440.49300,0.07275248999
440.49350,0.07275248999
440.49400,-0.8428307331
440.49450,-2.063608364
440.49500,-1.758413956
440.49550,0.6831413054
440.49600,3.124696567
440.49650,2.819502159
440.49700,0.07275248999
440.49750,-0.8428307331
440.49800,0.3779468977
440.49850,1.903918936
440.49900,0.3779468977
440.49950,-1.148025141
440.50000,-1.148025141
440.50050,0.3779468977
440.50100,0.9883357131
440.50150,0.3779468977
440.50200,0.9883357131
440.50250,2.819502159
440.50300,4.345474198
440.50350,4.04027979
440.50400,2.819502159
440.50450,1.293530121
440.50500,-0.2324419177
440.50550,-0.5376363254
440.50600,2.819502159
440.50650,10.14416794
440.50700,15.94286169
440.50750,16.55325051
440.50800,15.63766728
440.50850,16.85844491
440.50900,18.38441695
440.50950,16.2480561
440.51000,11.67013998
440.51050,8.923390313
440.51100,5.261057421
440.51150,-7.251913295
440.51200,-28.31032743
440.51250,-43.2648534
440.51300,-39.90771492
440.51350,-23.1220225
440.51400,-9.083079741
440.51450,-6.641524479
440.51500,-9.693468556
440.51550,-8.777885333
440.51600,-3.589580402
440.51650,0.3779468977
440.51700,0.9883357131
440.51750,2.514307752
440.51800,8.313001498
440.51850,16.55325051
440.51900,23.26752748
440.51950,27.84544359
440.52000,29.67661004
440.52050,27.23505478
440.52100,23.57272188
440.52150,24.1831107
440.52200,27.23505478
440.52250,18.68961136
440.52300,-11.524635
440.52350,-50.58951919
440.52400,-70.7323501
440.52450,-58.52457379
440.52500,-28.61552183
440.52550,-4.505163626
440.52600,3.124696567
440.52650,0.6831413054
440.52700,-3.284385995
440.52750,-5.725941256
440.52800,-6.946718887
440.52850,-9.388274149
440.52900,-13.05060704
440.52950,-13.66099586
440.53000,-9.388274149
440.53050,-6.031135664
440.53100,-7.557107703
440.53150,-7.251913295
440.53200,5.871446236
440.53250,28.76102681
440.53300,43.41035838
440.53350,40.0532199
440.53400,29.06622122
440.53450,23.57272188
440.53500,24.79349951
440.53550,26.01427714
440.53600,26.31947155
440.53650,27.23505478
440.53700,28.76102681
440.53750,29.67661004
440.53800,32.72855411
440.53850,36.69608141
440.53900,31.50777648
440.53950,8.923390313
440.54000,-24.95318894
440.54050,-53.94665767
440.54100,-67.37521161
440.54150,-65.23885076
440.54200,-52.42068563
440.54250,-34.41421558
440.54300,-18.84930079
440.54350,-12.13502382
440.54400,-11.21944059
440.54450,-5.115552441
440.54500,11.97533439
440.54550,33.03374852
440.54600,44.93633042
440.54650,41.57919194
440.54700,28.45583241
440.54750,14.11169524
440.54800,3.124696567
440.54850,-2.368802772
440.54900,-4.505163626
440.54950,-4.505163626
440.55000,-4.505163626
440.55050,-5.725941256
440.55100,-7.251913295
440.55150,-6.641524479
440.55200,-5.725941256
440.55250,-8.167496518
440.55300,-17.32332875
440.55350,-30.44668828
440.55400,-41.12849255
440.55450,-44.79082544
440.55500,-40.82329814
440.55550,-31.3622715
440.55600,-19.4596896
440.55650,-7.557107703
440.55700,2.819502159
440.55750,11.67013998
440.55800,18.38441695
440.55850,22.35194425
440.55900,24.79349951
440.55950,28.76102681
440.56000,33.94933174
440.56050,34.25452615
440.56100,26.01427714
440.56150,17.46883373
440.56200,23.57272188
440.56250,45.24152483
440.56300,64.16357811
440.56350,59.28046758
440.56400,31.20258208
440.56450,0.07275248999
440.56500,-16.10255112
440.56550,-15.79735671
440.56600,-7.251913295
440.56650,0.3779468977
440.56700,0.3779468977
440.56750,-8.167496518
440.56800,-20.07007842
440.56850,-26.78435539
440.56900,-26.47916098
440.56950,-22.81682809
440.57000,-16.10255112
440.57050,-3.589580402
440.57100,9.228584721
440.57150,8.618195906
440.57200,-7.557107703
440.57250,-23.1220225
440.57300,-23.1220225
440.57350,-14.88177349
440.57400,-17.01813434
440.57450,-29.22591065
440.57500,-35.63499321
440.57550,-29.83629946
440.57600,-23.4272169
440.57650,-22.81682809
440.57700,-19.1544952
440.57750,-9.693468556
440.57800,-10.30385737
440.57850,-29.22591065
440.57900,-46.01160307
440.57950,-35.0246044
440.58000,-3.89477481
440.58050,11.97533439
440.58100,-1.148025141
440.58150,-19.1544952
440.58200,-13.05060704
440.58250,9.838973536
440.58300,22.65713866
440.58350,15.33247288
440.58400,1.293530121
440.58450,-8.472690926
440.58500,-21.29085605
440.58550,-39.60252051
440.58600,-50.8947136
440.58650,-42.65446459
440.58700,-22.20643927
440.58750,-6.946718887
440.58800,-3.589580402
440.58850,-3.589580402
440.58900,0.3779468977
440.58950,7.092223867
440.59000,11.36494557
440.59050,13.19611202
440.59100,15.02727847
440.59150,20.2155834
440.59200,29.98180444
440.59250,42.49477516
440.59300,50.42982976
440.59350,46.46230246
440.59400,31.81297089
440.59450,18.38441695
440.59500,13.19611202
440.59550,9.838973536
440.59600,-0.2324419177
440.59650,-16.10255112
440.59700,-25.86877216
440.59750,-21.90124486
440.59800,-9.083079741
440.59850,3.124696567
440.59900,9.838973536
440.59950,9.533779129
440.60000,6.481835052
440.60050,7.397418275
440.60100,16.2480561
440.60150,27.54024918
440.60200,33.33894293
440.60250,32.1181653
440.60300,29.67661004
440.60350,29.06622122
440.60400,26.62466596
440.60450,21.74155544
440.60500,16.85844491
440.60550,10.44936235
440.60600,-6.031135664
440.60650,-33.19343795
440.60700,-55.1674353
440.60750,-55.77782412
440.60800,-37.16096525
440.60850,-16.71293993
440.60900,-6.336330072
440.60950,-3.89477481
440.61000,-2.979191587
440.61050,-2.368802772
440.61100,-3.589580402
440.61150,-4.505163626
440.61200,-1.758413956
440.61250,3.124696567
440.61300,7.092223867
440.61350,7.702612683
440.61400,6.481835052
440.61450,6.176640644
440.61500,7.702612683
440.61550,9.838973536
440.61600,10.75455676
440.61650,10.14416794
440.61700,7.397418275
440.61750,5.261057421
440.61800,4.955863013
440.61850,7.397418275
440.61900,10.75455676
440.61950,12.2805288
440.62000,10.44936235
440.62050,6.481835052
440.62100,2.819502159
440.62150,1.293530121
440.62200,1.293530121
440.62250,1.598724528
440.62300,2.819502159
440.62350,4.345474198
440.62400,5.566251829
440.62450,4.345474198
440.62500,1.903918936
440.62550,0.6831413054
440.62600,1.293530121
440.62650,3.124696567
440.62700,5.261057421
440.62750,6.481835052
440.62800,6.481835052
440.62850,5.871446236
440.62900,7.092223867
440.62950,10.44936235
440.63000,13.19611202
440.63050,12.58572321
440.63100,10.14416794
440.63150,7.702612683
440.63200,5.871446236
440.63250,5.566251829
440.63300,10.44936235
440.63350,20.82597221
440.63400,30.89738767
440.63450,32.42335971
440.63500,22.35194425
440.63550,6.176640644
440.63600,-9.083079741
440.63650,-17.93371756
440.63700,-19.76488401
440.63750,-19.4596896
440.63800,-25.86877216
440.63850,-40.82329814
440.63900,-55.1674353
440.63950,-57.30379616
440.64000,-46.31679748
440.64050,-29.22591065
440.64100,-11.82982941
440.64150,3.735085382
440.64200,15.94286169
440.64250,20.82597221
440.64300,20.82597221
440.64350,21.74155544
440.64400,26.62466596
440.64450,32.42335971
440.64500,34.86491497
440.64550,33.03374852
440.64600,29.06622122
440.64650,26.92986037
440.64700,26.31947155
440.64750,18.38441695
440.64800,-6.336330072
440.64850,-42.65446459
440.64900,-66.45962839
440.64950,-60.05054583
440.65000,-30.75188269
440.65050,-1.453219549
440.65100,12.58572321
440.65150,10.14416794
440.65200,-6.946718887
440.65250,-34.41421558
440.65300,-56.99860175
440.65350,-60.35574023
440.65400,-44.79082544
440.65450,-25.86877216
440.65500,-16.10255112
440.65550,-13.35580145
440.65600,-12.74541263
440.65650,-13.66099586
440.65700,-14.57657908
440.65750,-13.05060704
440.65800,-8.777885333
440.65850,-4.810358033
440.65900,-0.5376363254
440.65950,5.871446236
440.66000,12.89091761
440.66050,13.80650084
440.66100,9.533779129
440.66150,6.787029459
440.66200,8.313001498
440.66250,9.838973536
440.66300,6.787029459
440.66350,2.209113344
440.66400,-0.2324419177
440.66450,-1.148025141
440.66500,0.6831413054
440.66550,7.092223867
440.66600,14.41688965
440.66650,16.55325051
440.66700,13.50130643
440.66750,13.50130643
440.66800,18.68961136
440.66850,23.57272188
440.66900,23.57272188
440.66950,20.2155834
440.67000,12.89091761
440.67050,-1.453219549
440.67100,-19.1544952
440.67150,-26.17396657
440.67200,-19.76488401
440.67250,-14.88177349
440.67300,-22.81682809
440.67350,-30.75188269
440.67400,-21.90124486
440.67450,-0.2324419177
440.67500,13.50130643
440.67550,12.89091761
440.67600,7.702612683
440.67650,8.00780709
440.67700,11.36494557
440.67750,12.2805288
440.67800,10.44936235
440.67850,6.787029459
440.67900,0.9883357131
440.67950,-3.89477481
440.68000,-5.115552441
440.68050,-3.284385995
440.68100,-4.199969218
440.68150,-8.472690926
440.68200,-11.82982941
440.68250,-10.91424619
440.68300,-6.641524479
440.68350,-0.5376363254
440.68400,3.429890975
440.68450,1.598724528
440.68500,-4.505163626
440.68550,-5.725941256
440.68600,2.819502159
440.68650,9.838973536
440.68700,1.293530121
440.68750,-15.4921623
440.68800,-19.1544952
440.68850,-2.979191587
440.68900,15.94286169
440.68950,23.87791629
440.69000,22.96233307
440.69050,21.74155544
440.69100,17.46883373
440.69150,5.566251829
440.69200,-6.336330072
440.69250,-6.641524479
440.69300,5.261057421
440.69350,19.60519458
440.69400,27.23505478
440.69450,28.150638
440.69500,26.92986037
440.69550,28.150638
440.69600,29.98180444
440.69650,25.09869392
440.69700,9.533779129
440.69750,-9.083079741
440.69800,-17.93371756
440.69850,-16.71293993
440.69900,-17.32332875
440.69950,-25.56357776
440.70000,-32.58304913
440.70050,-29.22591065
440.70100,-20.98566164
440.70150,-16.40774553
440.70200,-14.57657908
440.70250,-11.21944059
440.70300,-7.86230211
440.70350,-8.777885333
440.70400,-9.693468556
440.70450,-5.725941256
440.70500,-0.8428307331
440.70550,-3.89477481
440.70600,-13.05060704
440.70650,-20.37527283
440.70700,-22.81682809
440.70750,-24.03760572
440.70800,-24.03760572
440.70850,-19.4596896
440.70900,-13.05060704
440.70950,-9.998662964
440.71000,-6.641524479
440.71050,5.871446236
440.71100,26.92986037
440.71150,42.18958075
440.71200,42.18958075
440.71250,31.20258208
440.71300,19.60519458
440.71350,11.97533439
440.71400,8.00780709
440.71450,8.618195906
440.71500,13.50130643
440.71550,17.16363932
440.71600,15.33247288
440.71650,9.533779129
440.71700,5.566251829
440.71750,4.955863013
440.71800,5.566251829
440.71850,4.650668606
440.71900,2.514307752
440.71950,0.6831413054
440.72000,-0.2324419177
440.72050,-0.2324419177
440.72100,-0.2324419177
440.72150,-0.5376363254
440.72200,-1.453219549
440.72250,-2.063608364
440.72300,-1.758413956
440.72350,-1.758413956
440.72400,-2.673997179
440.72450,-3.89477481
440.72500,-3.89477481
440.72550,-2.673997179
440.72600,-1.148025141
440.72650,-0.5376363254
440.72700,-1.148025141
440.72750,-1.758413956
440.72800,-1.453219549
440.72850,-0.2324419177
440.72900,2.514307752
440.72950,6.787029459
440.73000,10.75455676
440.73050,11.05975117
440.73100,8.00780709
440.73150,6.481835052
440.73200,8.00780709
440.73250,5.261057421
440.73300,-7.86230211
440.73350,-24.95318894
440.73400,-29.53110506
440.73450,-16.10255112
440.73500,1.903918936
440.73550,9.228584721
440.73600,4.345474198
440.73650,-2.063608364
440.73700,-3.589580402
440.73750,-1.758413956
440.73800,-0.8428307331
440.73850,-0.8428307331
440.73900,-2.673997179
440.73950,-6.031135664
440.74000,-8.167496518
440.74050,-5.420746849
440.74100,0.07275248999
440.74150,2.819502159
440.74200,3.429890975
440.74250,9.838973536
440.74300,20.52077781
440.74350,22.04674984
440.74400,7.092223867
440.74450,-10.30385737
440.74500,-14.57657908
440.74550,-11.524635
440.74600,-15.79735671
440.74650,-22.81682809
440.74700,-13.35580145
440.74750,6.787029459
440.74800,5.566251829
440.74850,-28.31032743
440.74900,-58.21937938
440.74950,-44.48563103
440.75000,0.3779468977
440.75050,31.50777648
440.75100,29.67661004
440.75150,15.94286169
440.75200,10.75455676
440.75250,9.533779129
440.75300,5.566251829
440.75350,7.397418275
440.75400,20.52077781
440.75450,32.72855411
440.75500,32.1181653
440.75550,23.26752748
440.75600,16.55325051
440.75650,9.228584721
440.75700,-1.453219549
440.75750,-7.557107703
440.75800,-4.505163626
440.75850,-7.86230211
440.75900,-35.0246044
440.75950,-71.34273891
440.76000,-79.27779351
440.76050,-44.79082544
440.76100,3.429890975
440.76150,28.45583241
440.76200,24.79349951
440.76250,17.16363932
440.76300,24.1831107
440.76350,39.44283108
440.76400,44.93633042
440.76450,34.86491497
440.76500,17.77402814
440.76550,6.481835052
440.76600,7.702612683
440.76650,20.2155834
440.76700,34.55972056
440.76750,30.89738767
440.76800,-6.336330072
440.76850,-66.15443398
440.76900,-111.6284007
440.76950,-113.7647616
440.77000,-78.6674047
440.77050,-38.38174288
440.77100,-16.40774553
440.77150,-9.388274149
440.77200,-4.810358033
440.77250,0.07275248999
440.77300,1.293530121
440.77350,-4.199969218
440.77400,-10.60905178
440.77450,-6.336330072
440.77500,12.89091761
440.77550,36.69608141
440.77600,45.54671924
440.77650,33.64413734
440.77700,14.72208406
440.77750,3.124696567
440.77800,-4.199969218
440.77850,-19.1544952
440.77900,-37.46615966
440.77950,-42.65446459
440.78000,-29.53110506
440.78050,-9.693468556
440.78100,5.566251829
440.78150,15.63766728
440.78200,22.35194425
440.78250,25.40388833
440.78300,27.54024918
440.78350,30.59219326
440.78400,30.28699885
440.78450,19.30000018
440.78500,2.514307752
440.78550,-5.115552441
440.78600,0.3779468977
440.78650,8.923390313
440.78700,9.838973536
440.78750,6.176640644
440.78800,4.955863013
440.78850,7.092223867
440.78900,8.618195906
440.78950,8.923390313
440.79000,9.533779129
440.79050,8.313001498
440.79100,5.871446236
440.79150,5.261057421
440.79200,7.092223867
440.79250,7.702612683
440.79300,6.481835052
440.79350,7.702612683
440.79400,11.97533439
440.79450,13.19611202
440.79500,7.397418275
440.79550,0.07275248999
440.79600,-2.368802772
440.79650,-1.758413956
440.79700,-2.368802772
440.79750,-2.979191587
440.79800,-0.2324419177
440.79850,4.345474198
440.79900,6.481835052
440.79950,6.481835052
440.80000,7.092223867
440.80050,8.313001498
440.80100,6.787029459
440.80150,3.124696567
440.80200,0.6831413054
440.80250,0.07275248999
440.80300,-0.5376363254
440.80350,-3.284385995
440.80400,-4.505163626
440.80450,-2.673997179
440.80500,-0.5376363254
440.80550,-0.8428307331
440.80600,-2.368802772
440.80650,-2.979191587
440.80700,-2.673997179
440.80750,-3.589580402
440.80800,-4.810358033
440.80850,-4.505163626
440.80900,-2.673997179
440.80950,-0.8428307331
440.81000,-0.8428307331
440.81050,-0.8428307331
440.81100,-0.2324419177
440.81150,1.598724528
440.81200,2.514307752
440.81250,1.598724528
440.81300,0.07275248999
440.81350,-0.5376363254
440.81400,-2.063608364
440.81450,-4.810358033
440.81500,-6.946718887
440.81550,-6.641524479
440.81600,-3.589580402
440.81650,-1.758413956
440.81700,-2.673997179
440.81750,-5.420746849
440.81800,-6.336330072
440.81850,-5.115552441
440.81900,-3.284385995
440.81950,-3.284385995
440.82000,-4.199969218
440.82050,-4.810358033
440.82100,-5.115552441
440.82150,-5.420746849
440.82200,-5.420746849
440.82250,-4.505163626
440.82300,-2.368802772
440.82350,-0.5376363254
440.82400,-0.2324419177
440.82450,-0.2324419177
440.82500,0.3779468977
440.82550,2.209113344
440.82600,3.735085382
440.82650,4.955863013
440.82700,5.261057421
440.82750,5.261057421
440.82800,6.176640644
440.82850,6.176640644
440.82900,4.04027979
440.82950,-0.2324419177
440.83000,-3.589580402
440.83050,-2.063608364
440.83100,3.735085382
440.83150,9.838973536
440.83200,12.2805288
440.83250,11.36494557
440.83300,9.533779129
440.83350,7.702612683
440.83400,6.176640644
440.83450,4.650668606
440.83500,1.598724528
440.83550,-3.89477481
440.83600,-12.13502382
440.83650,-18.23891197
440.83700,-18.84930079
440.83750,-13.66099586
440.83800,-7.557107703
440.83850,-3.284385995
440.83900,-1.758413956
440.83950,-2.979191587
440.84000,-5.115552441
440.84050,-5.420746849
440.84100,-2.979191587
440.84150,-0.5376363254
440.84200,-0.2324419177
440.84250,-1.453219549
440.84300,-1.453219549
440.84350,-0.8428307331
440.84400,-0.8428307331
440.84450,-1.453219549
440.84500,0.07275248999
440.84550,4.04027979
440.84600,6.481835052
440.84650,5.261057421
440.84700,2.819502159
440.84750,0.6831413054
440.84800,-0.5376363254
440.84850,-2.063608364
440.84900,-1.758413956
440.84950,-0.2324419177
440.85000,0.6831413054
440.85050,0.07275248999
440.85100,-0.2324419177
440.85150,0.6831413054
440.85200,1.598724528
440.85250,0.6831413054
440.85300,-1.453219549
440.85350,-2.979191587
440.85400,-3.89477481
440.85450,-6.031135664
440.85500,-9.693468556
440.85550,-11.21944059
440.85600,-9.693468556
440.85650,-6.946718887
440.85700,-4.810358033
440.85750,-2.673997179
440.85800,-0.5376363254
440.85850,-0.2324419177
440.85900,-1.758413956
440.85950,-2.979191587
440.86000,-2.063608364
440.86050,-1.758413956
440.86100,-4.810358033
440.86150,-9.083079741
440.86200,-9.388274149
440.86250,-5.420746849
440.86300,-1.453219549
440.86350,-0.2324419177
440.86400,1.293530121
440.86450,4.650668606
440.86500,5.566251829
440.86550,0.6831413054
440.86600,-6.336330072
440.86650,-9.083079741
440.86700,-6.336330072
440.86750,-3.284385995
440.86800,-2.979191587
440.86850,-4.505163626
440.86900,-5.420746849
440.86950,-6.031135664
440.87000,-7.86230211
440.87050,-9.083079741
440.87100,-8.472690926
440.87150,-7.251913295
440.87200,-8.167496518
440.87250,-10.91424619
440.87300,-12.13502382
440.87350,-8.167496518
440.87400,0.07275248999
440.87450,7.092223867
440.87500,8.313001498
440.87550,4.345474198
440.87600,1.293530121
440.87650,2.209113344
440.87700,4.04027979
440.87750,3.124696567
440.87800,0.07275248999
440.87850,-0.5376363254
440.87900,1.293530121
440.87950,4.650668606
440.88000,9.838973536
440.88050,18.07922254
440.88100,30.28699885
440.88150,45.54671924
440.88200,61.72202285
440.88250,73.92979915
440.88300,73.62460475
440.88350,58.97527318
440.88400,42.79996957
440.88450,40.35841431
440.88500,47.07269128
440.88550,36.0856926
440.88600,-13.05060704
440.88650,-86.9076537
440.88700,-144.5893968
440.88750,-156.4919787
440.88800,-128.7192876
440.88850,-90.26479219
440.88900,-63.1024899
440.88950,-51.50510241
440.89000,-50.28432478
440.89050,-54.55704649
440.89100,-54.8622409
440.89150,-39.90771492
440.89200,-10.30385737
440.89250,14.72208406
440.89300,16.55325051
440.89350,1.598724528
440.89400,0.07275248999
440.89450,26.62466596
440.89500,63.55318929
440.89550,81.55965935
440.89600,73.62460475
440.89650,56.83891232
440.89700,41.88438635
440.89750,23.87791629
440.89800,-1.758413956
440.89850,-25.56357776
440.89900,-29.83629946
440.89950,-12.74541263
440.90000,8.618195906
440.90050,14.72208406
440.90100,-1.453219549
440.90150,-31.3622715
440.90200,-54.55704649
440.90250,-50.8947136
440.90300,-16.40774553
440.90350,30.89738767
440.90400,63.24799488
440.90450,68.13110541
440.90500,60.50124521
440.90550,55.9233291
440.90600,47.9882745
440.90650,21.74155544
440.90700,-12.74541263
440.90750,-25.86877216
440.90800,-9.083079741
440.90850,4.345474198
440.90900,-15.79735671
440.90950,-53.33626886
440.91000,-64.62846194
440.91050,-35.63499321
440.91100,2.209113344
440.91150,18.38441695
440.91200,14.11169524
440.91250,9.533779129
440.91300,11.97533439
440.91350,15.02727847
440.91400,13.50130643
440.91450,8.618195906
440.91500,3.124696567
440.91550,-0.2324419177
440.91600,-0.5376363254
440.91650,0.9883357131
440.91700,2.819502159
440.91750,3.429890975
440.91800,2.819502159
440.91850,-0.8428307331
440.91900,-12.13502382
440.91950,-26.78435539
440.92000,-34.71940999
440.92050,-30.14149387
440.92100,-17.62852316
440.92150,-5.725941256
440.92200,1.598724528
440.92250,10.44936235
440.92300,25.09869392
440.92350,44.32594161
440.92400,59.28046758
440.92450,63.24799488
440.92500,56.22852351
440.92550,46.46230246
440.92600,38.83244227
440.92650,30.89738767
440.92700,20.52077781
440.92750,10.14416794
440.92800,4.650668606
440.92850,3.735085382
440.92900,3.735085382
440.92950,2.514307752
440.93000,1.903918936
440.93050,2.209113344
440.93100,1.293530121
440.93150,-1.148025141
440.93200,-3.89477481
440.93250,-4.199969218
440.93300,-2.979191587
440.93350,-1.148025141
440.93400,0.07275248999
440.93450,0.6831413054
440.93500,0.3779468977
440.93550,0.07275248999
440.93600,-0.5376363254
440.93650,-2.063608364
440.93700,-3.89477481
440.93750,-4.505163626
440.93800,-3.284385995
440.93850,-2.368802772
440.93900,-2.673997179
440.93950,-1.148025141
440.94000,2.819502159
440.94050,8.00780709
440.94100,10.44936235
440.94150,10.44936235
440.94200,9.228584721
440.94250,6.481835052
440.94300,1.293530121
440.94350,-2.979191587
440.94400,-4.199969218
440.94450,-5.725941256
440.94500,-15.79735671
440.94550,-32.58304913
440.94600,-44.18043663
440.94650,-40.82329814
440.94700,-27.0895498
440.94750,-14.88177349
440.94800,-10.91424619
440.94850,-12.13502382
440.94900,-13.05060704
440.94950,-13.05060704
440.95000,-12.44021823
440.95050,-12.13502382
440.95100,-10.91424619
440.95150,-9.998662964
440.95200,-9.388274149
440.95250,-8.777885333
440.95300,-6.946718887
440.95350,-4.199969218
440.95400,-1.758413956
440.95450,-0.8428307331
440.95500,-0.8428307331
440.95550,-0.2324419177
440.95600,0.9883357131
440.95650,2.209113344
440.95700,1.903918936
440.95750,1.293530121
440.95800,2.209113344
440.95850,4.04027979
440.95900,4.345474198
440.95950,2.209113344
440.96000,0.3779468977
440.96050,1.293530121
440.96100,5.871446236
440.96150,12.89091761
440.96200,17.77402814
440.96250,16.55325051
440.96300,8.313001498
440.96350,-1.758413956
440.96400,-7.86230211
440.96450,-8.167496518
440.96500,-5.725941256
440.96550,-4.199969218
440.96600,-4.810358033
440.96650,-5.115552441
440.96700,-4.505163626
440.96750,-3.589580402
440.96800,-3.89477481
440.96850,-5.725941256
440.96900,-8.167496518
440.96950,-8.167496518
440.97000,-5.725941256
440.97050,-2.673997179
440.97100,-1.758413956
440.97150,-2.979191587
440.97200,-3.89477481
440.97250,-2.979191587
440.97300,-1.148025141
440.97350,-0.8428307331
440.97400,-1.758413956
440.97450,-1.758413956
440.97500,0.07275248999
440.97550,1.598724528
440.97600,1.903918936
440.97650,2.514307752
440.97700,6.176640644
440.97750,11.05975117
440.97800,12.58572321
440.97850,8.923390313
440.97900,3.429890975
440.97950,-0.2324419177
440.98000,-0.5376363254
440.98050,-0.2324419177
440.98100,0.6831413054
440.98150,1.903918936
440.98200,1.903918936
440.98250,-1.148025141
440.98300,-5.115552441
440.98350,-6.336330072
440.98400,-5.420746849
440.98450,-5.725941256
440.98500,-6.031135664
440.98550,-3.284385995
440.98600,0.9883357131
440.98650,0.9883357131
440.98700,-4.810358033
440.98750,-9.388274149
440.98800,-6.641524479
440.98850,0.3779468977
440.98900,5.261057421
440.98950,5.261057421
440.99000,4.04027979
440.99050,4.04027979
440.99100,4.955863013
440.99150,7.092223867
440.99200,9.533779129
440.99250,10.14416794
440.99300,5.871446236
440.99350,-1.453219549
440.99400,-6.641524479
440.99450,-6.641524479
440.99500,-4.505163626
440.99550,-4.199969218
440.99600,-6.031135664
440.99650,-7.86230211
440.99700,-8.472690926
440.99750,-7.557107703
440.99800,-5.420746849
440.99850,-2.979191587
440.99900,-1.758413956
440.99950,-1.453219549
441.00000,-1.758413956
441.00050,-1.453219549
441.00100,-1.148025141
441.00150,-0.8428307331
441.00200,0.3779468977
441.00250,1.598724528
441.00300,3.735085382
441.00350,7.397418275
441.00400,13.80650084
441.00450,20.82597221
441.00500,24.79349951
441.00550,26.31947155
441.00600,28.45583241
441.00650,32.1181653
441.00700,34.86491497
441.00750,35.47530378
441.00800,33.03374852
441.00850,21.13116662
441.00900,-3.89477481
441.00950,-36.85577084
441.01000,-58.8297682
441.01050,-58.52457379
441.01100,-42.959659
441.01150,-28.00513302
441.01200,-20.07007842
441.01250,-10.91424619
441.01300,4.04027979
441.01350,19.60519458
441.01400,26.62466596
441.01450,24.1831107
441.01500,18.07922254
441.01550,10.75455676
441.01600,-1.453219549
441.01650,-21.59605046
441.01700,-46.01160307
441.01750,-65.23885076
441.01800,-72.25832214
441.01850,-66.15443398
441.01900,-49.97913037
441.01950,-29.53110506
441.02000,-10.60905178
441.02050,2.209113344
441.02100,8.923390313
441.02150,10.75455676
441.02200,7.702612683
441.02250,0.9883357131
441.02300,-6.641524479
441.02350,-11.82982941
441.02400,-12.13502382
441.02450,-7.557107703
441.02500,0.9883357131
441.02550,11.67013998
441.02600,18.99480577
441.02650,22.04674984
441.02700,27.23505478
441.02750,43.10516398
441.02800,64.46877252
441.02850,72.70902152
441.02900,55.61813469
441.02950,21.13116662
441.03000,-9.998662964
441.03050,-23.4272169
441.03100,-17.62852316
441.03150,-0.2324419177
441.03200,15.02727847
441.03250,15.63766728
441.03300,1.293530121
441.03350,-14.27138467
441.03400,-19.1544952
441.03450,-13.66099586
441.03500,-3.284385995
441.03550,10.14416794
441.03600,26.01427714
441.03650,36.39088701
441.03700,36.39088701
441.03750,31.50777648
441.03800,31.20258208
441.03850,32.1181653
441.03900,26.62466596
441.03950,17.77402814
441.04000,10.14416794
441.04050,-2.673997179
441.04100,-31.3622715
441.04150,-64.32326754
441.04200,-74.39468299
441.04250,-55.47262971
441.04300,-31.3622715
441.04350,-22.51163368
441.04400,-21.29085605
441.04450,-12.13502382
441.04500,0.9883357131
441.04550,4.345474198
441.04600,-0.2324419177
441.04650,1.903918936
441.04700,13.19611202
441.04750,20.52077781
441.04800,17.46883373
441.04850,11.05975117
441.04900,8.313001498
441.04950,5.566251829
441.05000,0.9883357131
441.05050,0.07275248999
441.05100,4.650668606
441.05150,4.955863013
441.05200,-5.115552441
441.05250,-18.23891197
441.05300,-23.4272169
441.05350,-18.84930079
441.05400,-9.998662964
441.05450,1.293530121
441.05500,13.80650084
441.05550,22.04674984
441.05600,23.26752748
441.05650,23.87791629
441.05700,27.23505478
441.05750,26.31947155
441.05800,17.16363932
441.05850,10.14416794
441.05900,14.41688965
441.05950,17.46883373
441.06000,1.598724528
441.06050,-26.78435539
441.06100,-41.73888137
441.06150,-33.49863236
441.06200,-21.29085605
441.06250,-21.29085605
441.06300,-26.47916098
441.06350,-22.20643927
441.06400,-12.44021823
441.06450,-8.167496518
441.06500,-9.693468556
441.06550,-9.388274149
441.06600,-6.946718887
441.06650,-8.777885333
441.06700,-14.88177349
441.06750,-18.23891197
441.06800,-12.74541263
441.06850,0.3779468977
441.06900,18.68961136
441.06950,35.78049819
441.07000,43.41035838
441.07050,38.22205345
441.07100,26.62466596
441.07150,18.07922254
441.07200,15.02727847
441.07250,12.89091761
441.07300,8.923390313
441.07350,4.955863013
441.07400,2.819502159
441.07450,0.9883357131
441.07500,-1.453219549
441.07550,-3.284385995
441.07600,-3.589580402
441.07650,-2.979191587
441.07700,-2.368802772
441.07750,-2.063608364
441.07800,-2.673997179
441.07850,-4.505163626
441.07900,-6.641524479
441.07950,-7.251913295
441.08000,-6.336330072
441.08050,-3.89477481
441.08100,-1.148025141
441.08150,-0.2324419177
441.08200,-0.8428307331
441.08250,-2.673997179
441.08300,-2.979191587
441.08350,-1.758413956
441.08400,-0.5376363254
441.08450,-0.8428307331
441.08500,-1.453219549
441.08550,-1.758413956
441.08600,-0.5376363254
441.08650,0.3779468977
441.08700,0.9883357131
441.08750,0.07275248999
441.08800,-1.148025141
441.08850,-1.148025141
441.08900,1.293530121
441.08950,4.955863013
441.09000,4.650668606
441.09050,0.6831413054
441.09100,-3.589580402
441.09150,-5.115552441
441.09200,-3.89477481
441.09250,-2.368802772
441.09300,-2.368802772
441.09350,-3.589580402
441.09400,-6.336330072
441.09450,-9.998662964
441.09500,-12.44021823
441.09550,-11.524635
441.09600,-7.86230211
441.09650,-3.284385995
441.09700,0.9883357131
441.09750,4.650668606
441.09800,7.092223867
441.09850,6.481835052
441.09900,3.735085382
441.09950,-0.5376363254
441.10000,-4.810358033
441.10050,-6.641524479
441.10100,-5.725941256
441.10150,-3.89477481
441.10200,-3.284385995
441.10250,-3.89477481
441.10300,-4.199969218
441.10350,-3.89477481
441.10400,-3.589580402
441.10450,-2.979191587
441.10500,-1.453219549
441.10550,0.3779468977
441.10600,0.07275248999
441.10650,-1.453219549
441.10700,-0.8428307331
441.10750,2.209113344
441.10800,2.819502159
441.10850,-3.589580402
441.10900,-11.82982941
441.10950,-11.82982941
441.11000,-2.368802772
441.11050,6.787029459
441.11100,8.923390313
441.11150,7.092223867
441.11200,7.702612683
441.11250,11.36494557
441.11300,11.97533439
441.11350,7.702612683
441.11400,0.9883357131
441.11450,-3.89477481
441.11500,-7.251913295
441.11550,-10.60905178
441.11600,-13.35580145
441.11650,-13.05060704
441.11700,-9.388274149
441.11750,-4.505163626
441.11800,-0.8428307331
441.11850,0.6831413054
441.11900,0.6831413054
441.11950,-0.2324419177
441.12000,-2.979191587
441.12050,-5.725941256
441.12100,-5.420746849
441.12150,-1.453219549
441.12200,3.735085382
441.12250,8.618195906
441.12300,12.89091761
441.12350,16.85844491
441.12400,19.30000018
441.12450,19.60519458
441.12500,18.38441695
441.12550,15.94286169
441.12600,11.05975117
441.12650,3.429890975
441.12700,-5.115552441
441.12750,-13.05060704
441.12800,-18.54410638
441.12850,-21.29085605
441.12900,-22.51163368
441.12950,-21.59605046
441.13000,-19.1544952
441.13050,-15.4921623
441.13100,-13.05060704
441.13150,-12.74541263
441.13200,-13.35580145
441.13250,-12.13502382
441.13300,-9.388274149
441.13350,-8.167496518
441.13400,-9.998662964
441.13450,-10.30385737
441.13500,-4.505163626
441.13550,4.650668606
441.13600,12.89091761
441.13650,18.07922254
441.13700,20.82597221
441.13750,21.13116662
441.13800,20.82597221
441.13850,21.43636103
441.13900,22.35194425
441.13950,14.11169524
441.14000,-7.86230211
441.14050,-36.24538203
441.14100,-53.33626886
441.14150,-50.8947136
441.14200,-36.55057643
441.14250,-23.73241131
441.14300,-16.71293993
441.14350,-13.05060704
441.14400,-11.524635
441.14450,-16.10255112
441.14500,-27.69993861
441.14550,-39.60252051
441.14600,-40.21290933
441.14650,-26.47916098
441.14700,-8.167496518
441.14750,2.819502159
441.14800,8.00780709
441.14850,16.2480561
441.14900,33.03374852
441.14950,53.78696825
441.15000,68.43629982
441.15050,72.09863271
441.15100,64.46877252
441.15150,52.56619061
441.15200,43.41035838
441.15250,37.61166464
441.15300,26.92986037
441.15350,7.702612683
441.15400,-8.167496518
441.15450,-8.777885333
441.15500,4.345474198
441.15550,18.99480577
441.15600,26.92986037
441.15650,31.20258208
441.15700,32.1181653
441.15750,23.87791629
441.15800,6.176640644
441.15850,-9.388274149
441.15900,-13.66099586
441.15950,-7.251913295
441.16000,1.903918936
441.16050,8.618195906
441.16100,11.05975117
441.16150,8.923390313
441.16200,3.735085382
441.16250,0.6831413054
441.16300,4.650668606
441.16350,15.63766728
441.16400,24.1831107
441.16450,15.94286169
441.16500,-11.524635
441.16550,-42.65446459
441.16600,-56.69340734
441.16650,-52.11549123
441.16700,-43.87524222
441.16750,-38.68693729
441.16800,-28.92071624
441.16850,-10.91424619
441.16900,-0.2324419177
441.16950,-9.998662964
441.17000,-29.53110506
441.17050,-37.16096525
441.17100,-27.3947442
441.17150,-13.05060704
441.17200,-4.810358033
441.17250,-1.453219549
441.17300,0.6831413054
441.17350,1.598724528
441.17400,0.07275248999
441.17450,-1.148025141
441.17500,-0.5376363254
441.17550,0.07275248999
441.17600,0.07275248999
441.17650,0.6831413054
441.17700,2.514307752
441.17750,4.04027979
441.17800,4.345474198
441.17850,3.124696567
441.17900,0.6831413054
441.17950,-1.453219549
441.18000,-1.453219549
441.18050,2.209113344
441.18100,8.618195906
441.18150,14.11169524
441.18200,17.46883373
441.18250,18.68961136
441.18300,18.68961136
441.18350,17.16363932
441.18400,14.11169524
441.18450,11.36494557
441.18500,10.14416794
441.18550,9.228584721
441.18600,2.514307752
441.18650,-10.91424619
441.18700,-24.64799453
441.18750,-26.47916098
441.18800,-16.71293993
441.18850,-4.505163626
441.18900,1.293530121
441.18950,2.209113344
441.19000,0.6831413054
441.19050,-2.063608364
441.19100,-2.063608364
441.19150,6.176640644
441.19200,20.2155834
441.19250,28.150638
441.19300,24.48830511
441.19350,16.55325051
441.19400,12.2805288
441.19450,9.838973536
441.19500,8.00780709
441.19550,12.2805288
441.19600,20.52077781
441.19650,16.85844491
441.19700,-8.472690926
441.19750,-38.9921317
441.19800,-46.62199189
441.19850,-27.3947442
441.19900,-2.673997179
441.19950,7.702612683
441.20000,3.429890975
441.20050,-7.557107703
441.20100,-20.07007842
441.20150,-30.75188269
441.20200,-35.0246044
441.20250,-33.19343795
441.20300,-30.14149387
441.20350,-27.3947442
441.20400,-22.51163368
441.20450,-14.27138467
441.20500,-0.8428307331
441.20550,19.91038899
441.20600,49.51424654
441.20650,77.28693764
441.20700,89.49471395
441.20750,82.17004816
441.20800,64.16357811
441.20850,46.15710805
441.20900,31.81297089
441.20950,21.13116662
441.21000,13.50130643
441.21050,8.313001498
441.21100,3.429890975
441.21150,-2.673997179
441.21200,-13.05060704
441.21250,-27.69993861
441.21300,-40.51810373
441.21350,-42.34927018
441.21400,-33.49863236
441.21450,-22.20643927
441.21500,-13.96619026
441.21550,-8.777885333
441.21600,-5.115552441
441.21650,-6.031135664
441.21700,-9.693468556
441.21750,-6.336330072
441.21800,9.228584721
441.21850,27.84544359
441.21900,33.94933174
441.21950,25.40388833
441.22000,12.58572321
441.22050,7.092223867
441.22100,11.05975117
441.22150,17.16363932
441.22200,13.80650084
441.22250,-5.420746849
441.22300,-34.10902117
441.22350,-52.11549123
441.22400,-45.70640867
441.22450,-21.59605046
441.22500,-0.2324419177
441.22550,1.903918936
441.22600,-9.693468556
441.22650,-16.71293993
441.22700,-2.979191587
441.22750,27.23505478
441.22800,53.17657943
441.22850,53.48177384
441.22900,28.76102681
441.22950,-2.673997179
441.23000,-22.51163368
441.23050,-25.86877216
441.23100,-18.23891197
441.23150,-8.777885333
441.23200,-3.89477481
441.23250,-3.284385995
441.23300,-4.505163626
441.23350,-7.557107703
441.23400,-18.84930079
441.23450,-41.12849255
441.23500,-62.7972955
441.23550,-68.29079484
441.23600,-54.55704649
441.23650,-33.49863236
441.23700,-18.54410638
441.23750,-11.82982941
441.23800,-9.388274149
441.23850,-7.86230211
441.23900,-6.641524479
441.23950,-4.505163626
441.24000,-0.8428307331
441.24050,2.209113344
441.24100,3.429890975
441.24150,4.04027979
441.24200,5.566251829
441.24250,6.176640644
441.24300,4.650668606
441.24350,2.514307752
441.24400,2.209113344
441.24450,4.04027979
441.24500,4.955863013
441.24550,4.345474198
441.24600,3.429890975
441.24650,3.429890975
441.24700,4.345474198
441.24750,4.345474198
441.24800,3.429890975
441.24850,2.209113344
441.24900,0.6831413054
441.24950,-0.5376363254
441.25000,-0.5376363254
441.25050,0.9883357131
441.25100,3.429890975
441.25150,4.955863013
441.25200,4.650668606
441.25250,4.345474198
441.25300,5.261057421
441.25350,7.397418275
441.25400,8.923390313
441.25450,8.923390313
441.25500,8.923390313
441.25550,10.75455676
441.25600,11.97533439
441.25650,9.228584721
441.25700,3.124696567
441.25750,-1.148025141
441.25800,-1.453219549
441.25850,-0.2324419177
441.25900,-0.5376363254
441.25950,-3.89477481
441.26000,-8.777885333
441.26050,-14.88177349
441.26100,-17.62852316
441.26150,-10.91424619
441.26200,4.345474198
441.26250,16.85844491
441.26300,17.46883373
441.26350,12.58572321
441.26400,16.85844491
441.26450,34.55972056
441.26500,54.39735706
441.26550,62.94280048
441.26600,55.00774588
441.26650,38.22205345
441.26700,25.70908274
441.26750,24.1831107
441.26800,24.79349951
441.26850,9.228584721
441.26900,-26.47916098
441.26950,-60.05054583
441.27000,-65.84923957
441.27050,-44.48563103
441.27100,-20.68046723
441.27150,-10.91424619
441.27200,-10.30385737
441.27250,-7.557107703
441.27300,-2.979191587
441.27350,0.07275248999
441.27400,5.566251829
441.27450,17.77402814
441.27500,30.59219326
441.27550,35.17010938
441.27600,32.42335971
441.27650,29.37141563
441.27700,26.92986037
441.27750,19.60519458
441.27800,7.397418275
441.27850,-4.810358033
441.27900,-18.23891197
441.27950,-38.38174288
441.28000,-64.93365635
441.28050,-84.46609844
441.28100,-82.32973759
441.28150,-60.05054583
441.28200,-32.88824354
441.28250,-14.27138467
441.28300,-4.810358033
441.28350,-0.8428307331
441.28400,-0.5376363254
441.28450,-3.284385995
441.28500,-3.589580402
441.28550,3.124696567
441.28600,14.72208406
441.28650,22.96233307
441.28700,23.57272188
441.28750,19.30000018
441.28800,12.89091761
441.28850,7.092223867
441.28900,3.124696567
441.28950,0.6831413054
441.29000,-1.758413956
441.29050,-5.420746849
441.29100,-8.472690926
441.29150,-7.86230211
441.29200,-4.505163626
441.29250,-0.5376363254
441.29300,2.209113344
441.29350,5.261057421
441.29400,7.397418275
441.29450,7.702612683
441.29500,6.481835052
441.29550,6.481835052
441.29600,7.092223867
441.29650,7.092223867
441.29700,8.313001498
441.29750,10.44936235
441.29800,9.838973536
441.29850,3.124696567
441.29900,-6.031135664
441.29950,-11.524635
441.30000,-12.44021823
441.30050,-12.13502382
441.30100,-9.998662964
441.30150,-4.505163626
441.30200,-1.148025141
441.30250,-7.251913295
441.30300,-20.68046723
441.30350,-27.69993861
441.30400,-22.51163368
441.30450,-12.74541263
441.30500,-7.86230211
441.30550,-6.336330072
441.30600,-3.89477481
441.30650,-0.8428307331
441.30700,-0.2324419177
441.30750,-0.5376363254
441.30800,0.9883357131
441.30850,4.955863013
441.30900,6.787029459
441.30950,5.261057421
441.31000,2.819502159
441.31050,2.819502159
441.31100,5.871446236
441.31150,9.228584721
441.31200,9.838973536
441.31250,6.481835052
441.31300,2.819502159
441.31350,1.903918936
441.31400,2.514307752
441.31450,2.819502159
441.31500,2.819502159
441.31550,4.04027979
441.31600,5.871446236
441.31650,6.176640644
441.31700,5.566251829
441.31750,5.871446236
441.31800,6.176640644
441.31850,4.345474198
441.31900,3.124696567
441.31950,5.261057421
441.32000,8.00780709
441.32050,6.176640644
441.32100,0.9883357131
441.32150,-0.8428307331
441.32200,2.209113344
441.32250,6.787029459
441.32300,7.702612683
441.32350,6.481835052
441.32400,5.566251829
441.32450,5.871446236
441.32500,7.092223867
441.32550,9.533779129
441.32600,11.36494557
441.32650,9.533779129
441.32700,0.9883357131
441.32750,-11.524635
441.32800,-20.98566164
441.32850,-19.4596896
441.32900,-8.777885333
441.32950,-1.758413956
441.33000,-6.946718887
441.33050,-15.79735671
441.33100,-12.44021823
441.33150,2.514307752
441.33200,15.02727847
441.33250,19.91038899
441.33300,25.40388833
441.33350,29.67661004
441.33400,17.16363932
441.33450,-11.524635
441.33500,-29.83629946
441.33550,-18.84930079
441.33600,4.650668606
441.33650,14.11169524
441.33700,8.618195906
441.33750,7.092223867
441.33800,12.2805288
441.33850,13.80650084
441.33900,11.05975117
441.33950,12.2805288
441.34000,16.85844491
441.34050,17.46883373
441.34100,19.60519458
441.34150,29.67661004
441.34200,36.0856926
441.34250,21.13116662
441.34300,-7.251913295
441.34350,-24.03760572
441.34400,-24.64799453
441.34450,-29.53110506
441.34500,-48.45315833
441.34550,-65.23885076
441.34600,-65.84923957
441.34650,-57.30379616
441.34700,-50.8947136
441.34750,-45.40121426
441.34800,-35.0246044
441.34850,-20.98566164
441.34900,-4.199969218
441.34950,16.2480561
441.35000,30.89738767
441.35050,22.04674984
441.35100,-10.30385737
441.35150,-41.43368696
441.35200,-49.06354715
441.35250,-40.51810373
441.35300,-34.10902117
441.35350,-26.78435539
441.35400,-1.148025141
441.35450,39.74802549
441.35500,70.26746626
441.35550,69.65707745
441.35600,47.07269128
441.35650,26.01427714
441.35700,16.55325051
441.35750,10.75455676
441.35800,-2.063608364
441.35850,-20.07007842
441.35900,-29.22591065
441.35950,-19.4596896
441.36000,2.514307752
441.36050,19.60519458
441.36100,22.04674984
441.36150,17.16363932
441.36200,14.11169524
441.36250,8.923390313
441.36300,-2.673997179
441.36350,-10.60905178
441.36400,-2.368802772
441.36450,15.63766728
441.36500,24.48830511
441.36550,23.57272188
441.36600,29.98180444
441.36650,43.71555279
441.36700,38.52724786
441.36750,1.903918936
441.36800,-39.2973261
441.36850,-53.64146327
441.36900,-44.18043663
441.36950,-36.85577084
441.37000,-37.16096525
441.37050,-30.44668828
441.37100,-13.35580145
441.37150,1.598724528
441.37200,10.75455676
441.37250,20.82597221
441.37300,29.67661004
441.37350,27.23505478
441.37400,16.2480561
441.37450,10.14416794
441.37500,13.80650084
441.37550,18.07922254
441.37600,18.68961136
441.37650,21.43636103
441.37700,25.40388833
441.37750,24.79349951
441.37800,21.74155544
441.37850,22.96233307
441.37900,21.43636103
441.37950,3.429890975
441.38000,-24.34280013
441.38050,-38.68693729
441.38100,-29.83629946
441.38150,-13.35580145
441.38200,-3.589580402
441.38250,2.514307752
441.38300,7.702612683
441.38350,4.650668606
441.38400,-7.557107703
441.38450,-14.88177349
441.38500,-8.777885333
441.38550,0.6831413054
441.38600,2.209113344
441.38650,-0.2324419177
441.38700,-0.2324419177
441.38750,-6.031135664
441.38800,-21.90124486
441.38850,-35.3297988
441.38900,-32.27785473
441.38950,-17.93371756
441.39000,-7.86230211
441.39050,-7.557107703
441.39100,-9.693468556
441.39150,-10.30385737
441.39200,-9.388274149
441.39250,-2.368802772
441.39300,12.89091761
441.39350,29.06622122
441.39400,36.39088701
441.39450,37.91685904
441.39500,42.18958075
441.39550,47.07269128
441.39600,43.71555279
441.39650,30.28699885
441.39700,15.33247288
441.39750,1.598724528
441.39800,-16.40774553
441.39850,-37.16096525
441.39900,-47.53757511
441.39950,-39.2973261
441.40000,-20.68046723
441.40050,-5.420746849
441.40100,0.07275248999
441.40150,0.6831413054
441.40200,0.3779468977
441.40250,0.9883357131
441.40300,2.819502159
441.40350,5.261057421
441.40400,6.481835052
441.40450,6.176640644
441.40500,6.176640644
441.40550,7.702612683
441.40600,8.313001498
441.40650,6.481835052
441.40700,4.04027979
441.40750,3.429890975
441.40800,3.429890975
441.40850,1.598724528
441.40900,-2.063608364
441.40950,-4.505163626
441.41000,-4.505163626
441.41050,-3.589580402
441.41100,-3.284385995
441.41150,-3.89477481
441.41200,-3.589580402
441.41250,-1.148025141
441.41300,2.514307752
441.41350,7.092223867
441.41400,10.75455676
441.41450,11.36494557
441.41500,9.228584721
441.41550,7.397418275
441.41600,8.00780709
441.41650,9.838973536
441.41700,9.533779129
441.41750,6.176640644
441.41800,1.293530121
441.41850,-2.368802772
441.41900,-5.115552441
441.41950,-6.946718887
441.42000,-7.86230211
441.42050,-7.251913295
441.42100,-6.031135664
441.42150,-6.031135664
441.42200,-7.251913295
441.42250,-7.251913295
441.42300,-6.336330072
441.42350,-6.336330072
441.42400,-8.167496518
441.42450,-9.998662964
441.42500,-9.388274149
441.42550,-7.251913295
441.42600,-6.336330072
441.42650,-7.86230211
441.42700,-10.60905178
441.42750,-12.13502382
441.42800,-11.524635
441.42850,-10.60905178
441.42900,-9.693468556
441.42950,-8.472690926
441.43000,-5.115552441
441.43050,0.3779468977
441.43100,5.566251829
441.43150,7.702612683
441.43200,7.092223867
441.43250,8.00780709
441.43300,11.67013998
441.43350,16.2480561
441.43400,18.99480577
441.43450,20.2155834
441.43500,20.52077781
441.43550,20.52077781
441.43600,19.60519458
441.43650,15.33247288
441.43700,6.787029459
441.43750,-3.589580402
441.43800,-10.91424619
441.43850,-11.82982941
441.43900,-10.91424619
441.43950,-13.96619026
441.44000,-18.84930079
441.44050,-17.01813434
441.44100,-6.946718887
441.44150,2.209113344
441.44200,6.176640644
441.44250,6.787029459
441.44300,5.261057421
441.44350,-1.758413956
441.44400,-13.35580145
441.44450,-19.1544952
441.44500,-16.10255112
441.44550,-16.71293993
441.44600,-26.17396657
441.44650,-30.44668828
441.44700,-12.74541263
441.44750,14.11169524
441.44800,19.91038899
441.44850,-6.031135664
441.44900,-41.43368696
441.44950,-58.21937938
441.45000,-52.72588004
441.45050,-38.07654847
441.45100,-24.95318894
441.45150,-16.71293993
441.45200,-12.44021823
441.45250,-9.083079741
441.45300,-2.368802772
441.45350,7.702612683
441.45400,15.63766728
441.45450,16.55325051
441.45500,13.19611202
441.45550,9.228584721
441.45600,4.345474198
441.45650,-3.589580402
441.45700,-12.44021823
441.45750,-19.1544952
441.45800,-21.90124486
441.45850,-21.29085605
441.45900,-17.62852316
441.45950,-13.35580145
441.46000,-9.693468556
441.46050,-6.336330072
441.46100,-0.8428307331
441.46150,8.00780709
441.46200,21.43636103
441.46250,37.00127582
441.46300,48.59866331
441.46350,47.37788568
441.46400,34.86491497
441.46450,22.04674984
441.46500,15.63766728
441.46550,10.75455676
441.46600,3.735085382
441.46650,1.903918936
441.46700,9.838973536
441.46750,14.11169524
441.46800,0.9883357131
441.46850,-20.68046723
441.46900,-32.88824354
441.46950,-33.49863236
441.47000,-32.58304913
441.47050,-27.69993861
441.47100,-7.557107703
441.47150,19.60519458
441.47200,33.03374852
441.47250,30.89738767
441.47300,41.27399753
441.47350,77.28693764
441.47400,112.6894889
441.47450,110.8583225
441.47500,69.04668863
441.47550,14.72208406
441.47600,-26.47916098
441.47650,-47.53757511
441.47700,-50.8947136
441.47750,-42.65446459
441.47800,-27.69993861
441.47850,-9.693468556
441.47900,7.397418275
441.47950,14.41688965
441.48000,2.209113344
441.48050,-20.68046723
441.48100,-33.19343795
441.48150,-22.81682809
441.48200,-3.89477481
441.48250,3.124696567
441.48300,-1.758413956
441.48350,-6.031135664
441.48400,-2.063608364
441.48450,3.124696567
441.48500,3.735085382
441.48550,0.6831413054
441.48600,-2.368802772
441.48650,-4.810358033
441.48700,-6.336330072
441.48750,-5.420746849
441.48800,-1.453219549
441.48850,6.176640644
441.48900,18.38441695
441.48950,30.28699885
441.49000,33.94933174
441.49050,29.06622122
441.49100,28.76102681
441.49150,40.35841431
441.49200,47.37788568
441.49250,26.92986037
441.49300,-17.32332875
441.49350,-55.1674353
441.49400,-65.54404517
441.49450,-58.8297682
441.49500,-51.81029682
441.49550,-43.57004781
441.49600,-25.86877216
441.49650,-5.725941256
441.49700,2.819502159
441.49750,1.903918936
441.49800,7.092223867
441.49850,21.43636103
441.49900,31.81297089
441.49950,30.89738767
441.50000,26.92986037
441.50050,26.31947155
441.50100,23.26752748
441.50150,14.11169524
441.50200,7.092223867
441.50250,6.481835052
441.50300,1.293530121
441.50350,-19.76488401
441.50400,-47.84276952
441.50450,-60.35574023
441.50500,-49.97913037
441.50550,-30.44668828
441.50600,-17.32332875
441.50650,-11.524635
441.50700,-8.472690926
441.50750,-6.031135664
441.50800,-5.420746849
441.50850,-5.420746849
441.50900,-5.115552441
441.50950,-5.725941256
441.51000,-7.557107703
441.51050,-7.557107703
441.51100,-5.115552441
441.51150,-3.589580402
441.51200,-4.199969218
441.51250,-2.673997179
441.51300,4.04027979
441.51350,13.19611202
441.51400,18.68961136
441.51450,20.52077781
441.51500,21.13116662
441.51550,20.52077781
441.51600,19.30000018
441.51650,19.60519458
441.51700,20.2155834
441.51750,11.36494557
441.51800,-9.693468556
441.51850,-29.83629946
441.51900,-32.27785473
441.51950,-17.93371756
441.52000,-3.89477481
441.52050,-1.148025141
441.52100,-4.505163626
441.52150,-5.115552441
441.52200,-3.284385995
441.52250,-2.673997179
441.52300,-2.063608364
441.52350,0.3779468977
441.52400,2.819502159
441.52450,1.598724528
441.52500,-1.758413956
441.52550,-2.979191587
441.52600,-0.2324419177
441.52650,3.735085382
441.52700,6.787029459
441.52750,7.092223867
441.52800,4.345474198
441.52850,1.598724528
441.52900,4.04027979
441.52950,10.14416794
441.53000,14.41688965
441.53050,11.97533439
441.53100,5.566251829
441.53150,1.293530121
441.53200,1.293530121
441.53250,2.514307752
441.53300,1.293530121
441.53350,-2.979191587
441.53400,-8.472690926
441.53450,-11.524635
441.53500,-10.60905178
441.53550,-6.946718887
441.53600,-3.284385995
441.53650,-2.368802772
441.53700,-4.505163626
441.53750,-5.420746849
441.53800,-2.673997179
441.53850,2.819502159
441.53900,7.397418275
441.53950,8.313001498
441.54000,6.787029459
441.54050,4.04027979
441.54100,-0.2324419177
441.54150,-6.336330072
441.54200,-10.30385737
441.54250,-9.083079741
441.54300,-2.368802772
441.54350,6.176640644
441.54400,13.80650084
441.54450,18.68961136
441.54500,21.13116662
441.54550,22.96233307
441.54600,27.23505478
441.54650,33.64413734
441.54700,33.33894293
441.54750,17.46883373
441.54800,-11.524635
441.54850,-39.90771492
441.54900,-52.42068563
441.54950,-47.2323807
441.55000,-32.88824354
441.55050,-19.4596896
441.55100,-9.693468556
441.55150,-3.589580402
441.55200,-0.8428307331
441.55250,-0.5376363254
441.55300,0.3779468977
441.55350,4.650668606
441.55400,9.838973536
441.55450,11.97533439
441.55500,9.228584721
441.55550,5.871446236
441.55600,4.345474198
441.55650,3.124696567
441.55700,-2.673997179
441.55750,-13.35580145
441.55800,-21.29085605
441.55850,-19.76488401
441.55900,-10.60905178
441.55950,-1.453219549
441.56000,1.598724528
441.56050,1.598724528
441.56100,2.514307752
441.56150,4.04027979
441.56200,3.124696567
441.56250,-0.2324419177
441.56300,-1.453219549
441.56350,0.9883357131
441.56400,4.04027979
441.56450,4.04027979
441.56500,2.819502159
441.56550,4.650668606
441.56600,8.313001498
441.56650,9.228584721
441.56700,8.00780709
441.56750,8.923390313
441.56800,11.05975117
441.56850,8.00780709
441.56900,-1.453219549
441.56950,-12.44021823
441.57000,-17.62852316
441.57050,-17.62852316
441.57100,-15.1869679
441.57150,-11.82982941
441.57200,-7.251913295
441.57250,-2.673997179
441.57300,0.3779468977
441.57350,3.124696567
441.57400,4.345474198
441.57450,3.735085382
441.57500,5.261057421
441.57550,11.67013998
441.57600,18.38441695
441.57650,18.07922254
441.57700,12.89091761
441.57750,9.838973536
441.57800,7.702612683
441.57850,-0.2324419177
441.57900,-8.167496518
441.57950,-3.589580402
441.58000,7.397418275
441.58050,3.735085382
441.58100,-19.76488401
441.58150,-37.16096525
441.58200,-26.47916098
441.58250,-0.2324419177
441.58300,15.63766728
441.58350,16.2480561
441.58400,15.94286169
441.58450,18.07922254
441.58500,14.72208406
441.58550,4.955863013
441.58600,0.3779468977
441.58650,4.955863013
441.58700,11.97533439
441.58750,16.55325051
441.58800,19.91038899
441.58850,22.96233307
441.58900,24.79349951
441.58950,25.70908274
441.59000,22.04674984
441.59050,3.735085382
441.59100,-30.75188269
441.59150,-62.7972955
441.59200,-67.37521161
441.59250,-45.40121426
441.59300,-21.29085605
441.59350,-13.66099586
441.59400,-17.93371756
441.59450,-19.76488401
441.59500,-16.10255112
441.59550,-10.60905178
441.59600,-4.199969218
441.59650,4.345474198
441.59700,15.02727847
441.59750,24.1831107
441.59800,30.59219326
441.59850,39.44283108
441.59900,51.9558018
441.59950,62.33241166
441.60000,60.80643962
441.60050,47.07269128
441.60100,32.72855411
441.60150,24.48830511
441.60200,15.63766728
441.60250,-2.063608364
441.60300,-21.90124486
441.60350,-29.22591065
441.60400,-24.64799453
441.60450,-21.59605046
441.60500,-25.25838335
441.60550,-26.47916098
441.60600,-20.68046723
441.60650,-17.93371756
441.60700,-24.34280013
441.60750,-31.3622715
441.60800,-27.0895498
441.60850,-12.74541263
441.60900,0.3779468977
441.60950,7.397418275
441.61000,10.44936235
441.61050,12.89091761
441.61100,16.2480561
441.61150,17.77402814
441.61200,15.33247288
441.61250,10.75455676
441.61300,8.313001498
441.61350,5.566251829
441.61400,-5.725941256
441.61450,-25.56357776
441.61500,-36.85577084
441.61550,-26.78435539
441.61600,-8.472690926
441.61650,-6.336330072
441.61700,-24.03760572
441.61750,-40.51810373
441.61800,-38.9921317
441.61850,-24.64799453
441.61900,-13.35580145
441.61950,-9.693468556
441.62000,-8.777885333
441.62050,-3.89477481
441.62100,6.481835052
441.62150,21.13116662
441.62200,33.03374852
441.62250,37.61166464
441.62300,35.47530378
441.62350,26.31947155
441.62400,7.092223867
441.62450,-19.1544952
441.62500,-37.77135406
441.62550,-33.49863236
441.62600,-11.524635
441.62650,8.00780709
441.62700,12.2805288
441.62750,6.176640644
441.62800,-0.5376363254
441.62850,-6.641524479
441.62900,-14.27138467
441.62950,-22.51163368
441.63000,-24.95318894
441.63050,-17.32332875
441.63100,-3.589580402
441.63150,4.955863013
441.63200,1.903918936
441.63250,-7.251913295
441.63300,-10.91424619
441.63350,-6.336330072
441.63400,-1.148025141
441.63450,-1.453219549
441.63500,-1.758413956
441.63550,0.9883357131
441.63600,3.735085382
441.63650,3.429890975
441.63700,6.481835052
441.63750,15.63766728
441.63800,24.79349951
441.63850,28.45583241
441.63900,32.1181653
441.63950,38.83244227
441.64000,40.66360871
441.64050,31.81297089
441.64100,20.82597221
441.64150,16.85844491
441.64200,10.14416794
441.64250,-11.82982941
441.64300,-39.60252051
441.64350,-50.8947136
441.64400,-44.48563103
441.64450,-36.85577084
441.64500,-32.88824354
441.64550,-20.37527283
441.64600,0.3779468977
441.64650,9.533779129
441.64700,-4.199969218
441.64750,-24.03760572
441.64800,-27.0895498
441.64850,-14.88177349
441.64900,-4.199969218
441.64950,-1.758413956
441.65000,-1.758413956
441.65050,-0.2324419177
441.65100,0.3779468977
441.65150,-0.2324419177
441.65200,0.9883357131
441.65250,3.735085382
441.65300,7.092223867
441.65350,11.05975117
441.65400,15.94286169
441.65450,18.99480577
441.65500,17.77402814
441.65550,14.11169524
441.65600,11.67013998
441.65650,10.44936235
441.65700,8.00780709
441.65750,5.871446236
441.65800,5.261057421
441.65850,4.955863013
441.65900,3.429890975
441.65950,2.209113344
441.66000,3.735085382
441.66050,7.397418275
441.66100,10.44936235
441.66150,11.67013998
441.66200,13.19611202
441.66250,15.94286169
441.66300,17.46883373
441.66350,15.63766728
441.66400,10.44936235
441.66450,5.566251829
441.66500,2.514307752
441.66550,1.598724528
441.66600,2.514307752
441.66650,5.871446236
441.66700,10.75455676
441.66750,16.2480561
441.66800,19.91038899
441.66850,22.35194425
441.66900,25.70908274
441.66950,29.37141563
441.67000,29.06622122
441.67050,21.13116662
441.67100,1.598724528
441.67150,-29.22591065
441.67200,-64.62846194
441.67250,-89.34920897
441.67300,-91.18037541
441.67350,-74.6998774
441.67400,-54.8622409
441.67450,-36.85577084
441.67500,-14.88177349
441.67550,12.89091761
441.67600,36.0856926
441.67650,44.0207472
441.67700,41.27399753
441.67750,37.91685904
441.67800,34.55972056
441.67850,26.31947155
441.67900,14.72208406
441.67950,6.481835052
441.68000,3.735085382
441.68050,1.598724528
441.68100,-1.453219549
441.68150,-4.199969218
441.68200,-4.810358033
441.68250,-1.758413956
441.68300,5.871446236
441.68350,15.63766728
441.68400,22.96233307
441.68450,27.23505478
441.68500,31.50777648
441.68550,32.72855411
441.68600,21.43636103
441.68650,-0.2324419177
441.68700,-14.27138467
441.68750,-11.524635
441.68800,-7.86230211
441.68850,-21.29085605
441.68900,-42.959659
441.68950,-49.67393597
441.69000,-36.24538203
441.69050,-20.07007842
441.69100,-13.66099586
441.69150,-12.13502382
441.69200,-10.30385737
441.69250,-9.388274149
441.69300,-11.524635
441.69350,-12.74541263
441.69400,-10.60905178
441.69450,-8.777885333
441.69500,-8.777885333
441.69550,-7.86230211
441.69600,-6.336330072
441.69650,-6.336330072
441.69700,-6.641524479
441.69750,-2.063608364
441.69800,3.735085382
441.69850,2.514307752
441.69900,-6.641524479
441.69950,-13.96619026
441.70000,-12.13502382
441.70050,-4.199969218
441.70100,5.261057421
441.70150,15.33247288
441.70200,22.35194425
441.70250,23.87791629
441.70300,27.84544359
441.70350,45.24152483
441.70400,65.38435574
441.70450,58.05968995
441.70500,12.89091761
441.70550,-37.16096525
441.70600,-53.64146327
441.70650,-35.3297988
441.70700,-14.57657908
441.70750,-8.472690926
441.70800,-5.115552441
441.70850,3.429890975
441.70900,4.04027979
441.70950,-15.79735671
441.71000,-39.2973261
441.71050,-39.60252051
441.71100,-15.4921623
441.71150,7.397418275
441.71200,11.97533439
441.71250,4.04027979
441.71300,-0.8428307331
441.71350,0.07275248999
441.71400,2.514307752
441.71450,3.124696567
441.71500,2.209113344
441.71550,0.6831413054
441.71600,-1.148025141
441.71650,-1.758413956
441.71700,-1.148025141
441.71750,-3.589580402
441.71800,-13.66099586
441.71850,-26.17396657
441.71900,-31.3622715
441.71950,-25.25838335
441.72000,-13.66099586
441.72050,-3.589580402
441.72100,4.345474198
441.72150,14.41688965
441.72200,28.150638
441.72250,43.41035838
441.72300,57.44930114
441.72350,69.04668863
441.72400,78.20252086
441.72450,84.30640902
441.72500,85.52718665
441.72550,79.11810408
441.72600,61.11163403
441.72650,32.1181653
441.72700,1.598724528
441.72750,-15.79735671
441.72800,-14.88177349
441.72850,-7.251913295
441.72900,-13.66099586
441.72950,-43.87524222
441.73000,-83.85570963
441.73050,-106.1349014
441.73100,-95.75829153
441.73150,-60.96612905
441.73200,-23.4272169
441.73250,-0.2324419177
441.73300,5.566251829
441.73350,0.3779468977
441.73400,-8.777885333
441.73450,-15.4921623
441.73500,-14.27138467
441.73550,-6.336330072
441.73600,3.124696567
441.73650,7.702612683
441.73700,4.345474198
441.73750,-3.89477481
441.73800,-8.777885333
441.73850,-3.89477481
441.73900,4.955863013
441.73950,7.397418275
441.74000,-0.2324419177
441.74050,-8.167496518
441.74100,-8.777885333
441.74150,-6.031135664
441.74200,-6.946718887
441.74250,-6.641524479
441.74300,5.566251829
441.74350,25.09869392
441.74400,34.86491497
441.74450,28.150638
441.74500,16.55325051
441.74550,11.05975117
441.74600,7.397418275
441.74650,-0.5376363254
441.74700,-7.557107703
441.74750,-6.336330072
441.74800,-4.199969218
441.74850,-14.57657908
441.74900,-32.27785473
441.74950,-37.46615966
441.75000,-21.90124486
441.75050,0.3779468977
441.75100,12.2805288
441.75150,11.97533439
441.75200,8.00780709
441.75250,4.04027979
441.75300,0.9883357131
441.75350,2.514307752
441.75400,10.75455676
441.75450,19.60519458
441.75500,22.65713866
441.75550,20.82597221
441.75600,18.99480577
441.75650,17.77402814
441.75700,15.94286169
441.75750,16.2480561
441.75800,18.68961136
441.75850,14.11169524
441.75900,-5.420746849
441.75950,-32.27785473
441.76000,-46.62199189
441.76050,-40.51810373
441.76100,-24.03760572
441.76150,-11.82982941
441.76200,-9.693468556
441.76250,-17.01813434
441.76300,-30.75188269
441.76350,-43.87524222
441.76400,-47.2323807
441.76450,-40.51810373
441.76500,-31.0570771
441.76550,-27.0895498
441.76600,-25.86877216
441.76650,-19.4596896
441.76700,-2.979191587
441.76750,21.74155544
441.76800,47.07269128
441.76850,59.58566199
441.76900,52.87138502
441.76950,34.86491497
441.77000,21.43636103
441.77050,18.68961136
441.77100,19.91038899
441.77150,18.38441695
441.77200,16.2480561
441.77250,16.55325051
441.77300,18.07922254
441.77350,19.30000018
441.77400,20.52077781
441.77450,16.55325051
441.77500,-1.148025141
441.77550,-29.83629946
441.77600,-49.97913037
441.77650,-46.9271863
441.77700,-27.0895498
441.77750,-10.30385737
441.77800,-3.89477481
441.77850,-1.453219549
441.77900,3.124696567
441.77950,7.397418275
441.78000,8.00780709
441.78050,6.481835052
441.78100,5.871446236
441.78150,5.261057421
441.78200,3.429890975
441.78250,1.903918936
441.78300,2.514307752
441.78350,3.429890975
441.78400,2.819502159
441.78450,1.293530121
441.78500,0.9883357131
441.78550,3.429890975
441.78600,6.176640644
441.78650,7.092223867
441.78700,6.481835052
441.78750,6.176640644
441.78800,6.787029459
441.78850,7.397418275
441.78900,7.397418275
441.78950,6.787029459
441.79000,4.650668606
441.79050,1.293530121
441.79100,-3.284385995
441.79150,-7.557107703
441.79200,-9.083079741
441.79250,-7.86230211
441.79300,-5.115552441
441.79350,-1.453219549
441.79400,0.6831413054
441.79450,1.293530121
441.79500,-0.2324419177
441.79550,-2.063608364
441.79600,-3.589580402
441.79650,-4.810358033
441.79700,-5.420746849
441.79750,-3.89477481
441.79800,-0.8428307331
441.79850,2.209113344
441.79900,4.345474198
441.79950,5.871446236
441.80000,6.481835052
441.80050,5.871446236
441.80100,4.345474198
441.80150,2.209113344
441.80200,-1.148025141
441.80250,-7.251913295
441.80300,-11.524635
441.80350,-8.167496518
441.80400,-0.8428307331
441.80450,0.3779468977
441.80500,-3.89477481
441.80550,-4.505163626
441.80600,4.345474198
441.80650,14.41688965
441.80700,15.63766728
441.80750,9.533779129
441.80800,4.955863013
441.80850,3.124696567
441.80900,-0.8428307331
441.80950,-4.810358033
441.81000,1.293530121
441.81050,22.04674984
441.81100,44.63113601
441.81150,51.9558018
441.81200,38.83244227
441.81250,19.60519458
441.81300,11.97533439
441.81350,17.16363932
441.81400,14.41688965
441.81450,-17.62852316
441.81500,-71.64793332
441.81550,-111.3232063
441.81600,-104.6089294
441.81650,-55.1674353
441.81700,2.514307752
441.81750,37.61166464
441.81800,45.24152483
441.81850,37.61166464
441.81900,27.23505478
441.81950,18.07922254
441.82000,10.75455676
441.82050,5.871446236
441.82100,4.345474198
441.82150,2.514307752
441.82200,-4.810358033
441.82250,-19.1544952
441.82300,-36.24538203
441.82350,-47.84276952
441.82400,-49.36874156
441.82450,-39.90771492
441.82500,-24.34280013
441.82550,-10.30385737
441.82600,-5.420746849
441.82650,-9.693468556
441.82700,-17.01813434
441.82750,-19.76488401
441.82800,-15.79735671
441.82850,-7.557107703
441.82900,0.3779468977
441.82950,4.955863013
441.83000,4.650668606
441.83050,2.819502159
441.83100,4.04027979
441.83150,6.787029459
441.83200,5.566251829
441.83250,0.07275248999
441.83300,-0.2324419177
441.83350,11.36494557
441.83400,28.45583241
441.83450,36.39088701
441.83500,31.81297089
441.83550,22.65713866
441.83600,15.63766728
441.83650,8.00780709
441.83700,-3.589580402
441.83750,-16.40774553
441.83800,-23.73241131
441.83850,-23.73241131
441.83900,-18.23891197
441.83950,-11.21944059
441.84000,-6.641524479
441.84050,-7.251913295
441.84100,-9.998662964
441.84150,-11.82982941
441.84200,-11.524635
441.84250,-9.388274149
441.84300,-0.5376363254
441.84350,17.46883373
441.84400,34.86491497
441.84450,36.69608141
441.84500,21.74155544
441.84550,5.261057421
441.84600,-4.810358033
441.84650,-16.40774553
441.84700,-34.71940999
441.84750,-45.09601985
441.84800,-31.0570771
441.84850,1.598724528
441.84900,30.28699885
441.84950,41.88438635
441.85000,43.10516398
441.85050,42.18958075
441.85100,35.78049819
441.85150,18.99480577
441.85200,-3.589580402
441.85250,-20.68046723
441.85300,-25.56357776
441.85350,-20.07007842
441.85400,-9.998662964
441.85450,-0.2324419177
441.85500,5.871446236
441.85550,8.923390313
441.85600,8.618195906
441.85650,5.566251829
441.85700,1.598724528
441.85750,-0.2324419177
441.85800,0.9883357131
441.85850,2.819502159
441.85900,2.514307752
441.85950,2.209113344
441.86000,3.735085382
441.86050,5.566251829
441.86100,5.261057421
441.86150,3.429890975
441.86200,2.514307752
441.86250,3.124696567
441.86300,3.124696567
441.86350,1.903918936
441.86400,0.9883357131
441.86450,1.293530121
441.86500,3.429890975
441.86550,7.397418275
441.86600,11.05975117
441.86650,12.58572321
441.86700,11.36494557
441.86750,8.313001498
441.86800,5.261057421
441.86850,1.903918936
441.86900,-2.063608364
441.86950,-7.86230211
441.87000,-14.57657908
441.87050,-20.37527283
441.87100,-23.4272169
441.87150,-23.4272169
441.87200,-21.59605046
441.87250,-19.1544952
441.87300,-16.10255112
441.87350,-9.998662964
441.87400,-0.2324419177
441.87450,12.2805288
441.87500,22.35194425
441.87550,26.31947155
441.87600,24.48830511
441.87650,22.04674984
441.87700,21.74155544
441.87750,20.82597221
441.87800,16.85844491
441.87850,11.36494557
441.87900,8.618195906
441.87950,5.261057421
441.88000,-5.725941256
441.88050,-24.64799453
441.88100,-38.68693729
441.88150,-37.16096525
441.88200,-23.73241131
441.88250,-11.21944059
441.88300,-5.420746849
441.88350,-3.284385995
441.88400,-0.5376363254
441.88450,1.598724528
441.88500,2.819502159
441.88550,1.903918936
441.88600,-0.2324419177
441.88650,-2.368802772
441.88700,-0.8428307331
441.88750,5.566251829
441.88800,11.36494557
441.88850,10.44936235
441.88900,4.650668606
441.88950,2.514307752
441.89000,9.228584721
441.89050,21.13116662
441.89100,32.1181653
441.89150,37.91685904
441.89200,34.86491497
441.89250,21.43636103
441.89300,1.293530121
441.89350,-13.05060704
441.89400,-13.96619026
441.89450,-9.998662964
441.89500,-21.90124486
441.89550,-57.60899057
441.89600,-94.84270831
441.89650,-101.2517909
441.89700,-68.90118365
441.89750,-21.90124486
441.89800,11.67013998
441.89850,27.54024918
441.89900,33.03374852
441.89950,32.42335971
441.90000,26.92986037
441.90050,25.09869392
441.90100,32.72855411
441.90150,40.66360871
441.90200,37.30647023
441.90250,29.67661004
441.90300,29.37141563
441.90350,26.31947155
441.90400,-0.2324419177
441.90450,-41.73888137
441.90500,-61.27132346
441.90550,-48.45315833
441.90600,-35.94018762
441.90650,-49.67393597
441.90700,-66.45962839
441.90750,-51.50510241
441.90800,-15.1869679
441.90850,3.124696567
441.90900,-5.115552441
441.90950,-12.13502382
441.91000,0.3779468977
441.91050,18.07922254
441.91100,23.87791629
441.91150,22.96233307
441.91200,25.40388833
441.91250,29.06622122
441.91300,28.150638
441.91350,24.79349951
441.91400,20.82597221
441.91450,11.67013998
441.91500,-6.641524479
441.91550,-28.92071624
441.91600,-49.67393597
441.91650,-64.93365635
441.91700,-69.20637806
441.91750,-58.52457379
441.91800,-40.51810373
441.91850,-30.75188269
441.91900,-27.69993861
441.91950,-13.66099586
441.92000,19.91038899
441.92050,56.22852351
441.92100,72.70902152
441.92150,66.60513337
441.92200,52.87138502
441.92250,41.57919194
441.92300,30.59219326
441.92350,18.07922254
441.92400,7.702612683
441.92450,3.429890975
441.92500,4.345474198
441.92550,4.955863013
441.92600,2.514307752
441.92650,-0.5376363254
441.92700,-1.148025141
441.92750,3.124696567
441.92800,12.2805288
441.92850,20.52077781
441.92900,23.26752748
441.92950,20.82597221
441.93000,19.30000018
441.93050,23.57272188
441.93100,28.76102681
441.93150,23.57272188
441.93200,5.566251829
441.93250,-13.35580145
441.93300,-18.84930079
441.93350,-11.524635
441.93400,-2.368802772
441.93450,2.819502159
441.93500,7.702612683
441.93550,12.2805288
441.93600,10.14416794
441.93650,-0.2324419177
441.93700,-9.083079741
441.93750,-8.472690926
441.93800,-1.758413956
441.93850,2.209113344
441.93900,0.6831413054
441.93950,-2.673997179
441.94000,-5.725941256
441.94050,-7.86230211
441.94100,-7.86230211
441.94150,-5.115552441
441.94200,-0.2324419177
441.94250,4.955863013
441.94300,8.618195906
441.94350,9.533779129
441.94400,5.566251829
441.94450,-1.148025141
441.94500,-4.199969218
441.94550,0.6831413054
441.94600,9.228584721
441.94650,9.533779129
441.94700,-3.89477481
441.94750,-24.03760572
441.94800,-37.16096525
441.94850,-35.0246044
441.94900,-21.29085605
441.94950,-3.589580402
441.95000,12.58572321
441.95050,21.13116662
441.95100,13.19611202
441.95150,-11.21944059
441.95200,-35.0246044
441.95250,-37.46615966
441.95300,-20.07007842
441.95350,-5.420746849
441.95400,-7.251913295
441.95450,-14.57657908
441.95500,-12.13502382
441.95550,-1.453219549
441.95600,4.345474198
441.95650,3.429890975
441.95700,4.345474198
441.95750,10.75455676
441.95800,15.63766728
441.95850,14.11169524
441.95900,10.44936235
441.95950,11.67013998
441.96000,17.16363932
441.96050,22.65713866
441.96100,24.1831107
441.96150,22.04674984
441.96200,19.91038899
441.96250,19.91038899
441.96300,19.91038899
441.96350,16.2480561
441.96400,9.838973536
441.96450,3.735085382
441.96500,-2.673997179
441.96550,-16.71293993
441.96600,-38.68693729
441.96650,-56.69340734
441.96700,-57.91418497
441.96750,-45.70640867
441.96800,-37.16096525
441.96850,-41.73888137
441.96900,-50.8947136
441.96950,-47.84276952
441.97000,-26.17396657
441.97050,4.04027979
441.97100,28.150638
441.97150,36.39088701
441.97200,29.67661004
441.97250,16.2480561
441.97300,6.176640644
441.97350,4.04027979
441.97400,6.481835052
441.97450,9.228584721
441.97500,11.67013998
441.97550,15.94286169
441.97600,20.2155834
441.97650,20.2155834
441.97700,16.85844491
441.97750,15.33247288
441.97800,18.38441695
441.97850,21.13116662
441.97900,18.99480577
441.97950,12.89091761
441.98000,7.092223867
441.98050,3.429890975
441.98100,0.6831413054
441.98150,-1.453219549
441.98200,-2.979191587
441.98250,-6.031135664
441.98300,-11.82982941
441.98350,-17.93371756
441.98400,-20.68046723
441.98450,-18.84930079
441.98500,-14.27138467
441.98550,-10.60905178
441.98600,-8.472690926
441.98650,-7.86230211
441.98700,-7.86230211
441.98750,-8.167496518
441.98800,-9.693468556
441.98850,-11.82982941
441.98900,-11.82982941
441.98950,-8.472690926
441.99000,-3.284385995
441.99050,1.598724528
441.99100,4.650668606
441.99150,4.955863013
441.99200,3.124696567
441.99250,0.6831413054
441.99300,0.6831413054
441.99350,3.124696567
441.99400,5.566251829
441.99450,5.566251829
441.99500,4.650668606
441.99550,5.261057421
441.99600,7.092223867
441.99650,7.702612683
441.99700,6.787029459
441.99750,4.650668606
441.99800,2.209113344
441.99850,0.3779468977
441.99900,-0.5376363254
441.99950,-1.148025141
442.00000,-2.979191587
442.00050,-4.505163626
442.00100,-3.284385995
442.00150,-0.2324419177
442.00200,0.07275248999
442.00250,-3.284385995
442.00300,-6.641524479
442.00350,-6.946718887
442.00400,-6.336330072
442.00450,-6.946718887
442.00500,-4.505163626
442.00550,3.735085382
442.00600,13.50130643
442.00650,18.99480577
442.00700,19.60519458
442.00750,18.99480577
442.00800,18.07922254
442.00850,17.16363932
442.00900,18.38441695
442.00950,18.07922254
442.01000,5.261057421
442.01050,-22.51163368
442.01100,-50.28432478
442.01150,-56.69340734
442.01200,-40.82329814
442.01250,-21.90124486
442.01300,-12.74541263
442.01350,-9.998662964
442.01400,-6.336330072
442.01450,-3.89477481
442.01500,-5.725941256
442.01550,-8.167496518
442.01600,-6.946718887
442.01650,-4.505163626
442.01700,-4.199969218
442.01750,-3.589580402
442.01800,1.293530121
442.01850,8.00780709
442.01900,12.89091761
442.01950,19.91038899
442.02000,33.94933174
442.02050,47.68308009
442.02100,47.9882745
442.02150,32.42335971
442.02200,12.89091761
442.02250,1.903918936
442.02300,1.293530121
442.02350,1.598724528
442.02400,-6.946718887
442.02450,-26.17396657
442.02500,-45.09601985
442.02550,-47.53757511
442.02600,-30.44668828
442.02650,-9.083079741
442.02700,1.598724528
442.02750,1.598724528
442.02800,-2.063608364
442.02850,-15.79735671
442.02900,-46.01160307
442.02950,-73.47909977
442.03000,-63.40768431
442.03050,-12.74541263
442.03100,36.0856926
442.03150,43.41035838
442.03200,22.35194425
442.03250,19.91038899
442.03300,53.48177384
442.03350,92.85185243
442.03400,103.5336567
442.03450,85.22199224
442.03500,56.83891232
442.03550,28.76102681
442.03600,3.124696567
442.03650,-8.777885333
442.03700,0.9883357131
442.03750,18.68961136
442.03800,12.89091761
442.03850,-24.95318894
442.03900,-68.29079484
442.03950,-83.85570963
442.04000,-70.7323501
442.04050,-52.72588004
442.04100,-45.40121426
442.04150,-41.73888137
442.04200,-34.10902117
442.04250,-27.0895498
442.04300,-29.53110506
442.04350,-38.9921317
442.04400,-44.18043663
442.04450,-40.82329814
442.04500,-34.71940999
442.04550,-30.75188269
442.04600,-24.95318894
442.04650,-9.998662964
442.04700,14.41688965
442.04750,41.88438635
442.04800,62.02721725
442.04850,69.04668863
442.04900,63.55318929
442.04950,50.12463535
442.05000,36.39088701
442.05050,27.23505478
442.05100,22.35194425
442.05150,17.77402814
442.05200,13.19611202
442.05250,10.14416794
442.05300,8.923390313
442.05350,7.092223867
442.05400,4.04027979
442.05450,0.9883357131
442.05500,-1.453219549
442.05550,-5.420746849
442.05600,-7.86230211
442.05650,-5.420746849
442.05700,-0.2324419177
442.05750,2.514307752
442.05800,4.04027979
442.05850,9.228584721
442.05900,18.38441695
442.05950,24.1831107
442.06000,24.79349951
442.06050,25.09869392
442.06100,26.62466596
442.06150,23.26752748
442.06200,16.55325051
442.06250,17.16363932
442.06300,22.65713866
442.06350,12.2805288
442.06400,-24.03760572
442.06450,-62.18690668
442.06500,-70.42715569
442.06550,-50.58951919
442.06600,-29.22591065
442.06650,-17.93371756
442.06700,-6.336330072
442.06750,6.787029459
442.06800,5.261057421
442.06850,-13.05060704
442.06900,-25.86877216
442.06950,-12.74541263
442.07000,12.58572321
442.07050,25.70908274
442.07100,20.52077781
442.07150,11.67013998
442.07200,11.67013998
442.07250,17.77402814
442.07300,22.04674984
442.07350,19.91038899
442.07400,12.58572321
442.07450,3.429890975
442.07500,-2.673997179
442.07550,-4.505163626
442.07600,-4.505163626
442.07650,-4.810358033
442.07700,-5.115552441
442.07750,-3.589580402
442.07800,-2.063608364
442.07850,-2.063608364
442.07900,-2.368802772
442.07950,-2.368802772
442.08000,-2.979191587
442.08050,-3.284385995
442.08100,-2.063608364
442.08150,0.3779468977
442.08200,1.903918936
442.08250,1.598724528
442.08300,0.3779468977
442.08350,-0.2324419177
442.08400,-0.5376363254
442.08450,1.598724528
442.08500,11.05975117
442.08550,23.57272188
442.08600,30.28699885
442.08650,26.62466596
442.08700,18.68961136
442.08750,13.80650084
442.08800,10.75455676
442.08850,4.650668606
442.08900,-2.063608364
442.08950,-4.505163626
442.09000,-5.420746849
442.09050,-13.96619026
442.09100,-30.75188269
442.09150,-40.82329814
442.09200,-29.22591065
442.09250,-2.979191587
442.09300,16.55325051
442.09350,16.55325051
442.09400,6.787029459
442.09450,1.598724528
442.09500,0.9883357131
442.09550,-6.641524479
442.09600,-24.64799453
442.09650,-37.16096525
442.09700,-30.75188269
442.09750,-11.524635
442.09800,3.124696567
442.09850,5.261057421
442.09900,1.903918936
442.09950,1.903918936
442.10000,4.650668606
442.10050,5.566251829
442.10100,5.261057421
442.10150,5.871446236
442.10200,6.787029459
442.10250,6.481835052
442.10300,4.04027979
442.10350,1.293530121
442.10400,-2.063608364
442.10450,-5.725941256
442.10500,-7.557107703
442.10550,-6.031135664
442.10600,-4.505163626
442.10650,-7.251913295
442.10700,-12.44021823
442.10750,-16.10255112
442.10800,-17.01813434
442.10850,-16.40774553
442.10900,-15.1869679
442.10950,-14.27138467
442.11000,-14.88177349
442.11050,-15.1869679
442.11100,-10.60905178
442.11150,-1.758413956
442.11200,1.293530121
442.11250,-6.946718887
442.11300,-18.54410638
442.11350,-18.23891197
442.11400,-4.810358033
442.11450,7.702612683
442.11500,13.19611202
442.11550,20.82597221
442.11600,39.13763668
442.11650,62.63760607
442.11700,77.89732645
442.11750,78.50771527
442.11800,62.63760607
442.11850,28.45583241
442.11900,-16.10255112
442.11950,-50.58951919
442.12000,-57.60899057
442.12050,-41.43368696
442.12100,-20.37527283
442.12150,-6.641524479
442.12200,-0.2324419177
442.12250,1.903918936
442.12300,1.598724528
442.12350,1.903918936
442.12400,1.903918936
442.12450,-5.420746849
442.12500,-22.20643927
442.12550,-35.63499321
442.12600,-32.27785473
442.12650,-18.54410638
442.12700,-11.21944059
442.12750,-11.524635
442.12800,-4.810358033
442.12850,14.72208406
442.12900,36.39088701
442.12950,51.04021858
442.13000,61.41682844
442.13050,70.87785508
442.13100,76.06616001
442.13150,74.54018797
442.13200,64.46877252
442.13250,34.25452615
442.13300,-26.17396657
442.13350,-99.11543001
442.13400,-141.8426471
442.13450,-131.4660372
442.13500,-89.34920897
442.13550,-53.03107445
442.13600,-34.10902117
442.13650,-20.07007842
442.13700,-5.115552441
442.13750,4.650668606
442.13800,7.397418275
442.13850,8.618195906
442.13900,11.05975117
442.13950,11.67013998
442.14000,9.533779129
442.14050,6.787029459
442.14100,4.650668606
442.14150,4.04027979
442.14200,6.787029459
442.14250,11.67013998
442.14300,12.2805288
442.14350,7.092223867
442.14400,6.481835052
442.14450,18.07922254
442.14500,34.55972056
442.14550,43.10516398
442.14600,41.27399753
442.14650,34.86491497
442.14700,23.87791629
442.14750,6.787029459
442.14800,-9.998662964
442.14850,-17.01813434
442.14900,-17.93371756
442.14950,-26.17396657
442.15000,-41.12849255
442.15050,-42.65446459
442.15100,-17.93371756
442.15150,17.46883373
442.15200,36.69608141
442.15250,32.72855411
442.15300,25.40388833
442.15350,31.20258208
442.15400,33.94933174
442.15450,3.429890975
442.15500,-60.35574023
442.15550,-114.6803448
442.15600,-115.9011224
442.15650,-68.90118365
442.15700,-17.62852316
442.15750,7.092223867
442.15800,12.2805288
442.15850,13.80650084
442.15900,14.41688965
442.15950,12.2805288
442.16000,14.41688965
442.16050,20.82597221
442.16100,14.11169524
442.16150,-17.32332875
442.16200,-53.33626886
442.16250,-60.96612905
442.16300,-34.41421558
442.16350,-1.758413956
442.16400,11.36494557
442.16450,9.228584721
442.16500,6.176640644
442.16550,7.092223867
442.16600,7.092223867
442.16650,4.955863013
442.16700,4.04027979
442.16750,6.176640644
442.16800,8.00780709
442.16850,8.618195906
442.16900,8.313001498
442.16950,7.397418275
442.17000,5.871446236
442.17050,5.566251829
442.17100,7.702612683
442.17150,10.75455676
442.17200,12.89091761
442.17250,12.89091761
442.17300,12.58572321
442.17350,11.36494557
442.17400,8.923390313
442.17450,4.955863013
442.17500,1.293530121
442.17550,-1.453219549
442.17600,-5.115552441
442.17650,-7.86230211
442.17700,-8.777885333
442.17750,-9.693468556
442.17800,-13.96619026
442.17850,-20.98566164
442.17900,-23.73241131
442.17950,-15.4921623
442.18000,-0.8428307331
442.18050,8.313001498
442.18100,6.176640644
442.18150,0.6831413054
442.18200,4.955863013
442.18250,22.96233307
442.18300,45.54671924
442.18350,58.36488436
442.18400,54.39735706
442.18450,38.22205345
442.18500,21.43636103
442.18550,12.58572321
442.18600,12.2805288
442.18650,14.72208406
442.18700,15.33247288
442.18750,14.11169524
442.18800,12.2805288
442.18850,10.14416794
442.18900,7.397418275
442.18950,4.650668606
442.19000,3.429890975
442.19050,2.819502159
442.19100,2.514307752
442.19150,1.903918936
442.19200,0.9883357131
442.19250,-0.2324419177
442.19300,-1.758413956
442.19350,-4.199969218
442.19400,-5.725941256
442.19450,-6.031135664
442.19500,-5.420746849
442.19550,-3.89477481
442.19600,-2.368802772
442.19650,-0.8428307331
442.19700,-0.2324419177
442.19750,-0.5376363254
442.19800,-2.368802772
442.19850,-4.810358033
442.19900,-5.725941256
442.19950,-4.810358033
442.20000,-3.284385995
442.20050,-2.979191587
442.20100,-4.199969218
442.20150,-5.420746849
442.20200,-6.031135664
442.20250,-7.251913295
442.20300,-9.083079741
442.20350,-10.30385737
442.20400,-9.693468556
442.20450,-8.167496518
442.20500,-5.725941256
442.20550,-1.758413956
442.20600,2.514307752
442.20650,5.566251829
442.20700,6.481835052
442.20750,7.092223867
442.20800,9.533779129
442.20850,11.67013998
442.20900,9.533779129
442.20950,4.04027979
442.21000,0.07275248999
442.21050,-2.979191587
442.21100,-13.35580145
442.21150,-31.3622715
442.21200,-45.40121426
442.21250,-41.12849255
442.21300,-21.59605046
442.21350,-2.979191587
442.21400,2.514307752
442.21450,-0.8428307331
442.21500,-3.589580402
442.21550,-5.115552441
442.21600,-9.998662964
442.21650,-19.76488401
442.21700,-28.61552183
442.21750,-30.14149387
442.21800,-25.56357776
442.21850,-17.62852316
442.21900,-8.777885333
442.21950,0.07275248999
442.22000,9.228584721
442.22050,18.07922254
442.22100,26.62466596
442.22150,34.55972056
442.22200,38.22205345
442.22250,34.25452615
442.22300,26.01427714
442.22350,18.99480577
442.22400,14.72208406
442.22450,5.566251829
442.22500,-15.1869679
442.22550,-42.959659
442.22600,-60.96612905
442.22650,-58.8297682
442.22700,-42.959659
442.22750,-26.17396657
442.22800,-15.79735671
442.22850,-8.472690926
442.22900,-0.5376363254
442.22950,5.261057421
442.23000,7.397418275
442.23050,6.176640644
442.23100,4.345474198
442.23150,2.819502159
442.23200,0.9883357131
442.23250,-0.2324419177
442.23300,-1.148025141
442.23350,-3.284385995
442.23400,-3.89477481
442.23450,-1.148025141
442.23500,2.209113344
442.23550,2.514307752
442.23600,2.209113344
442.23650,7.397418275
442.23700,14.11169524
442.23750,10.75455676
442.23800,-3.89477481
442.23850,-13.66099586
442.23900,-7.86230211
442.23950,1.598724528
442.24000,-2.673997179
442.24050,-18.84930079
442.24100,-29.22591065
442.24150,-23.73241131
442.24200,-6.946718887
442.24250,14.41688965
442.24300,35.78049819
442.24350,47.9882745
442.24400,49.81944095
442.24450,52.26099621
442.24500,64.77396692
442.24550,75.7609656
442.24600,69.04668863
442.24650,51.04021858
442.24700,42.49477516
442.24750,42.79996957
442.24800,26.01427714
442.24850,-21.90124486
442.24900,-78.9725991
442.24950,-110.7128175
442.25000,-107.0504846
442.25050,-84.77129285
442.25100,-60.66093464
442.25150,-39.60252051
442.25200,-19.76488401
442.25250,-1.758413956
442.25300,10.14416794
442.25350,14.72208406
442.25400,13.50130643
442.25450,13.19611202
442.25500,19.60519458
442.25550,30.59219326
442.25600,37.30647023
442.25650,35.47530378
442.25700,29.67661004
442.25750,26.01427714
442.25800,22.65713866
442.25850,16.55325051
442.25900,9.228584721
442.25950,8.313001498
442.26000,13.80650084
442.26050,15.94286169
442.26100,9.838973536
442.26150,3.735085382
442.26200,8.618195906
442.26250,18.07922254
442.26300,18.38441695
442.26350,10.75455676
442.26400,9.228584721
442.26450,11.67013998
442.26500,-2.673997179
442.26550,-39.2973261
442.26600,-66.45962839
442.26650,-51.50510241
442.26700,-5.115552441
442.26750,35.47530378
442.26800,52.26099621
442.26850,53.78696825
442.26900,48.90385772
442.26950,39.13763668
442.27000,31.20258208
442.27050,29.06622122
442.27100,15.63766728
442.27150,-30.14149387
442.27200,-91.48556982
442.27250,-118.9530665
442.27300,-94.5375139
442.27350,-57.30379616
442.27400,-47.53757511
442.27450,-54.8622409
442.27500,-45.09601985
442.27550,-17.32332875
442.27600,-2.063608364
442.27650,-12.44021823
442.27700,-28.61552183
442.27750,-29.83629946
442.27800,-18.84930079
442.27850,-8.167496518
442.27900,0.3779468977
442.27950,10.44936235
442.28000,20.2155834
442.28050,28.45583241
442.28100,37.91685904
442.28150,49.20905213
442.28200,57.44930114
442.28250,57.75449555
442.28300,50.12463535
442.28350,34.86491497
442.28400,13.50130643
442.28450,-4.810358033
442.28500,-11.21944059
442.28550,-5.725941256
442.28600,-1.148025141
442.28650,-5.420746849
442.28700,-10.91424619
442.28750,-8.167496518
442.28800,-0.2324419177
442.28850,5.566251829
442.28900,6.481835052
442.28950,5.261057421
442.29000,2.819502159
442.29050,-1.453219549
442.29100,-5.725941256
442.29150,-6.336330072
442.29200,-4.810358033
442.29250,-4.810358033
442.29300,-4.810358033
442.29350,-0.8428307331
442.29400,6.481835052
442.29450,12.89091761
442.29500,16.55325051
442.29550,17.46883373
442.29600,15.33247288
442.29650,9.533779129
442.29700,3.124696567
442.29750,0.3779468977
442.29800,1.293530121
442.29850,1.598724528
442.29900,0.3779468977
442.29950,-0.2324419177
442.30000,-0.2324419177
442.30050,-0.8428307331
442.30100,-1.758413956
442.30150,-0.8428307331
442.30200,0.3779468977
442.30250,-0.2324419177
442.30300,-2.368802772
442.30350,-2.063608364
442.30400,0.6831413054
442.30450,2.514307752
442.30500,1.598724528
442.30550,0.07275248999
442.30600,0.07275248999
442.30650,-0.2324419177
442.30700,-2.063608364
442.30750,-3.589580402
442.30800,-2.979191587
442.30850,-2.368802772
442.30900,-3.589580402
442.30950,-5.115552441
442.31000,-4.505163626
442.31050,-2.673997179
442.31100,-3.589580402
442.31150,-7.251913295
442.31200,-9.693468556
442.31250,-9.693468556
442.31300,-8.472690926
442.31350,-8.777885333
442.31400,-9.388274149
442.31450,-7.251913295
442.31500,-1.758413956
442.31550,2.819502159
442.31600,1.293530121
442.31650,-6.031135664
442.31700,-13.05060704
442.31750,-12.13502382
442.31800,-1.453219549
442.31850,10.75455676
442.31900,16.85844491
442.31950,14.11169524
442.32000,8.923390313
442.32050,8.00780709
442.32100,11.36494557
442.32150,13.80650084
442.32200,11.67013998
442.32250,8.313001498
442.32300,7.397418275
442.32350,8.618195906
442.32400,9.533779129
442.32450,10.44936235
442.32500,10.75455676
442.32550,7.397418275
442.32600,-1.453219549
442.32650,-11.82982941
442.32700,-17.32332875
442.32750,-16.71293993
442.32800,-13.05060704
442.32850,-6.946718887
442.32900,2.209113344
442.32950,10.75455676
442.33000,13.50130643
442.33050,11.97533439
442.33100,11.97533439
442.33150,12.89091761
442.33200,10.75455676
442.33250,6.176640644
442.33300,3.124696567
442.33350,-0.2324419177
442.33400,-13.05060704
442.33450,-32.88824354
442.33500,-45.40121426
442.33550,-41.43368696
442.33600,-28.31032743
442.33650,-16.71293993
442.33700,-7.251913295
442.33750,4.04027979
442.33800,14.72208406
442.33850,18.07922254
442.33900,15.33247288
442.33950,14.11169524
442.34000,18.07922254
442.34050,21.13116662
442.34100,13.19611202
442.34150,-8.167496518
442.34200,-36.24538203
442.34250,-54.25185208
442.34300,-52.11549123
442.34350,-34.10902117
442.34400,-16.71293993
442.34450,-9.693468556
442.34500,-8.777885333
442.34550,-6.946718887
442.34600,-3.89477481
442.34650,-2.673997179
442.34700,-2.368802772
442.34750,-0.5376363254
442.34800,1.293530121
442.34850,0.9883357131
442.34900,0.07275248999
442.34950,0.07275248999
442.35000,-0.2324419177
442.35050,-2.673997179
442.35100,-5.420746849
442.35150,-5.115552441
442.35200,-2.979191587
442.35250,-2.979191587
442.35300,-3.89477481
442.35350,-3.589580402
442.35400,-1.758413956
442.35450,-0.2324419177
442.35500,1.903918936
442.35550,7.092223867
442.35600,12.89091761
442.35650,15.63766728
442.35700,15.02727847
442.35750,13.50130643
442.35800,10.75455676
442.35850,5.871446236
442.35900,0.07275248999
442.35950,-4.199969218
442.36000,-7.251913295
442.36050,-9.083079741
442.36100,-9.083079741
442.36150,-6.336330072
442.36200,-2.979191587
442.36250,-1.453219549
442.36300,-0.8428307331
442.36350,0.6831413054
442.36400,2.819502159
442.36450,3.429890975
442.36500,3.124696567
442.36550,4.345474198
442.36600,6.787029459
442.36650,8.618195906
442.36700,10.44936235
442.36750,13.19611202
442.36800,13.50130643
442.36850,6.176640644
442.36900,-9.388274149
442.36950,-29.22591065
442.37000,-44.48563103
442.37050,-49.36874156
442.37100,-43.57004781
442.37150,-31.97266032
442.37200,-18.84930079
442.37250,-3.89477481
442.37300,17.46883373
442.37350,48.59866331
442.37400,83.39082579
442.37450,106.2804064
442.37500,103.5336567
442.37550,69.96227185
442.37600,17.46883373
442.37650,-30.14149387
442.37700,-49.97913037
442.37750,-38.07654847
442.37800,-9.693468556
442.37850,13.50130643
442.37900,23.57272188
442.37950,25.70908274
442.38000,26.92986037
442.38050,27.23505478
442.38100,23.87791629
442.38150,18.07922254
442.38200,12.2805288
442.38250,3.124696567
442.38300,-15.79735671
442.38350,-43.57004781
442.38400,-65.54404517
442.38450,-66.7648228
442.38500,-49.06354715
442.38550,-28.31032743
442.38600,-15.4921623
442.38650,-9.693468556
442.38700,-4.810358033
442.38750,-1.148025141
442.38800,-0.8428307331
442.38850,-1.758413956
442.38900,0.07275248999
442.38950,6.481835052
442.39000,14.11169524
442.39050,20.2155834
442.39100,25.40388833
442.39150,29.06622122
442.39200,28.76102681
442.39250,21.74155544
442.39300,11.05975117
442.39350,3.429890975
442.39400,1.598724528
442.39450,-1.758413956
442.39500,-16.40774553
442.39550,-38.9921317
442.39600,-54.8622409
442.39650,-53.64146327
442.39700,-39.60252051
442.39750,-22.51163368
442.39800,-7.251913295
442.39850,4.345474198
442.39900,12.89091761
442.39950,18.68961136
442.40000,28.45583241
442.40050,43.10516398
442.40100,52.26099621
442.40150,45.54671924
442.40200,26.92986037
442.40250,8.923390313
442.40300,-4.505163626
442.40350,-20.37527283
442.40400,-35.94018762
442.40450,-38.38174288
442.40500,-23.73241131
442.40550,-6.031135664
442.40600,-0.5376363254
442.40650,-3.89477481
442.40700,-6.336330072
442.40750,-7.251913295
442.40800,-12.74541263
442.40850,-18.84930079
442.40900,-13.05060704
442.40950,3.124696567
442.41000,11.97533439
442.41050,1.903918936
442.41100,-11.82982941
442.41150,-6.946718887
442.41200,16.2480561
442.41250,33.33894293
442.41300,28.76102681
442.41350,15.33247288
442.41400,13.19611202
442.41450,20.52077781
442.41500,20.2155834
442.41550,6.481835052
442.41600,-8.167496518
442.41650,-14.57657908
442.41700,-15.79735671
442.41750,-14.88177349
442.41800,-8.777885333
442.41850,0.3779468977
442.41900,0.07275248999
442.41950,-15.1869679
442.42000,-28.61552183
442.42050,-20.07007842
442.42100,6.787029459
442.42150,31.81297089
442.42200,40.96880312
442.42250,36.69608141
442.42300,22.96233307
442.42350,0.3779468977
442.42400,-25.86877216
442.42450,-45.09601985
442.42500,-50.28432478
442.42550,-43.87524222
442.42600,-31.3622715
442.42650,-15.1869679
442.42700,-0.2324419177
442.42750,8.00780709
442.42800,4.345474198
442.42850,-5.420746849
442.42900,-13.66099586
442.42950,-13.66099586
442.43000,-6.946718887
442.43050,-0.2324419177
442.43100,1.903918936
442.43150,0.6831413054
442.43200,0.9883357131
442.43250,5.261057421
442.43300,10.75455676
442.43350,15.94286169
442.43400,19.30000018
442.43450,18.99480577
442.43500,12.89091761
442.43550,3.124696567
442.43600,-3.589580402
442.43650,-5.115552441
442.43700,-2.368802772
442.43750,1.293530121
442.43800,6.481835052
442.43850,11.67013998
442.43900,13.50130643
442.43950,11.36494557
442.44000,8.923390313
442.44050,9.228584721
442.44100,11.97533439
442.44150,14.41688965
442.44200,15.33247288
442.44250,13.50130643
442.44300,7.702612683
442.44350,-0.2324419177
442.44400,-5.725941256
442.44450,-5.420746849
442.44500,-0.5376363254
442.44550,4.650668606
442.44600,7.092223867
442.44650,4.955863013
442.44700,3.429890975
442.44750,7.397418275
442.44800,15.02727847
442.44850,16.55325051
442.44900,8.923390313
442.44950,0.07275248999
442.45000,-0.5376363254
442.45050,4.345474198
442.45100,7.702612683
442.45150,9.838973536
442.45200,16.55325051
442.45250,28.150638
442.45300,34.25452615
442.45350,29.98180444
442.45400,22.65713866
442.45450,22.04674984
442.45500,26.92986037
442.45550,26.01427714
442.45600,11.36494557
442.45650,-14.27138467
442.45700,-42.65446459
442.45750,-62.7972955
442.45800,-66.45962839
442.45850,-53.94665767
442.45900,-34.41421558
442.45950,-18.23891197
442.46000,-9.998662964
442.46050,-8.472690926
442.46100,-9.388274149
442.46150,-9.083079741
442.46200,-4.199969218
442.46250,4.955863013
442.46300,13.19611202
442.46350,12.89091761
442.46400,1.598724528
442.46450,-14.88177349
442.46500,-27.0895498
442.46550,-26.47916098
442.46600,-17.93371756
442.46650,-15.79735671
442.46700,-29.22591065
442.46750,-45.70640867
442.46800,-43.2648534
442.46850,-15.4921623
442.46900,19.30000018
442.46950,40.96880312
442.47000,44.0207472
442.47050,31.81297089
442.47100,5.871446236
442.47150,-28.31032743
442.47200,-53.33626886
442.47250,-51.50510241
442.47300,-24.34280013
442.47350,8.313001498
442.47400,32.72855411
442.47450,46.15710805
442.47500,51.9558018
442.47550,53.48177384
442.47600,51.65060739
442.47650,42.79996957
442.47700,17.77402814
442.47750,-22.20643927
442.47800,-58.21937938
442.47850,-68.29079484
442.47900,-51.81029682
442.47950,-28.92071624
442.48000,-14.88177349
442.48050,-7.86230211
442.48100,-0.8428307331
442.48150,4.955863013
442.48200,6.481835052
442.48250,4.650668606
442.48300,3.124696567
442.48350,2.819502159
442.48400,2.209113344
442.48450,0.9883357131
442.48500,0.9883357131
442.48550,2.514307752
442.48600,4.04027979
442.48650,4.345474198
442.48700,2.514307752
442.48750,0.3779468977
442.48800,-0.2324419177
442.48850,0.3779468977
442.48900,2.209113344
442.48950,7.397418275
442.49000,15.33247288
442.49050,22.96233307
442.49100,26.92986037
442.49150,29.37141563
442.49200,31.20258208
442.49250,27.23505478
442.49300,12.58572321
442.49350,-6.336330072
442.49400,-19.1544952
442.49450,-27.3947442
442.49500,-43.57004781
442.49550,-67.98560043
442.49600,-82.9401264
442.49650,-69.81676687
442.49700,-31.66746591
442.49750,11.97533439
442.49800,43.71555279
442.49850,55.61813469
442.49900,49.20905213
442.49950,33.03374852
442.50000,19.60519458
442.50050,15.63766728
442.50100,15.63766728
442.50150,10.75455676
442.50200,-0.5376363254
442.50250,-12.44021823
442.50300,-18.23891197
442.50350,-17.01813434
442.50400,-12.74541263
442.50450,-9.388274149
442.50500,-7.86230211
442.50550,-7.557107703
442.50600,-7.251913295
442.50650,-2.368802772
442.50700,14.41688965
442.50750,43.41035838
442.50800,68.13110541
442.50850,65.38435574
442.50900,35.17010938
442.50950,6.176640644
442.51000,4.650668606
442.51050,22.35194425
442.51100,29.37141563
442.51150,14.72208406
442.51200,-4.199969218
442.51250,-12.74541263
442.51300,-15.79735671
442.51350,-23.1220225
442.51400,-30.75188269
442.51450,-30.14149387
442.51500,-22.20643927
442.51550,-13.05060704
442.51600,-6.031135664
442.51650,-1.148025141
442.51700,-0.2324419177
442.51750,-4.199969218
442.51800,-11.21944059
442.51850,-19.1544952
442.51900,-29.53110506
442.51950,-38.68693729
442.52000,-37.16096525
442.52050,-22.20643927
442.52100,-4.199969218
442.52150,5.566251829
442.52200,9.533779129
442.52250,12.58572321
442.52300,12.89091761
442.52350,6.176640644
442.52400,-0.8428307331
442.52450,2.819502159
442.52500,15.63766728
442.52550,19.30000018
442.52600,3.429890975
442.52650,-20.37527283
442.52700,-34.10902117
442.52750,-30.44668828
442.52800,-18.23891197
442.52850,-7.86230211
442.52900,-2.979191587
442.52950,-1.453219549
442.53000,-0.8428307331
442.53050,0.3779468977
442.53100,2.514307752
442.53150,4.04027979
442.53200,4.04027979
442.53250,2.819502159
442.53300,2.819502159
442.53350,4.04027979
442.53400,5.261057421
442.53450,4.650668606
442.53500,4.345474198
442.53550,4.955863013
442.53600,5.566251829
442.53650,5.566251829
442.53700,4.955863013
442.53750,5.261057421
442.53800,5.566251829
442.53850,4.650668606
442.53900,3.429890975
442.53950,4.04027979
442.54000,3.735085382
442.54050,1.903918936
442.54100,2.209113344
442.54150,9.228584721
442.54200,18.38441695
442.54250,21.13116662
442.54300,16.85844491
442.54350,12.58572321
442.54400,11.67013998
442.54450,8.618195906
442.54500,2.209113344
442.54550,0.3779468977
442.54600,3.429890975
442.54650,-1.148025141
442.54700,-21.90124486
442.54750,-42.65446459
442.54800,-41.43368696
442.54850,-18.54410638
442.54900,1.598724528
442.54950,4.955863013
442.55000,-0.2324419177
442.55050,-0.5376363254
442.55100,4.04027979
442.55150,5.871446236
442.55200,3.429890975
442.55250,1.598724528
442.55300,2.209113344
442.55350,2.514307752
442.55400,1.598724528
442.55450,1.293530121
442.55500,1.903918936
442.55550,1.598724528
442.55600,-0.2324419177
442.55650,-2.368802772
442.55700,-3.284385995
442.55750,-2.063608364
442.55800,-0.2324419177
442.55850,0.3779468977
442.55900,-0.5376363254
442.55950,-1.758413956
442.56000,-1.148025141
442.56050,1.903918936
442.56100,4.345474198
442.56150,3.124696567
442.56200,-0.8428307331
442.56250,-5.420746849
442.56300,-6.641524479
442.56350,-4.199969218
442.56400,-1.758413956
442.56450,-2.063608364
442.56500,-3.589580402
442.56550,-2.979191587
442.56600,-0.5376363254
442.56650,0.6831413054
442.56700,0.07275248999
442.56750,-0.2324419177
442.56800,-0.5376363254
442.56850,-1.148025141
442.56900,-2.673997179
442.56950,-3.89477481
442.57000,-4.505163626
442.57050,-5.115552441
442.57100,-5.725941256
442.57150,-5.115552441
442.57200,-3.284385995
442.57250,-2.368802772
442.57300,-1.453219549
442.57350,1.598724528
442.57400,7.702612683
442.57450,15.02727847
442.57500,23.57272188
442.57550,31.81297089
442.57600,35.78049819
442.57650,34.86491497
442.57700,33.64413734
442.57750,33.94933174
442.57800,28.150638
442.57850,7.702612683
442.57900,-23.1220225
442.57950,-53.03107445
442.58000,-75.31026621
442.58050,-88.43362574
442.58100,-84.77129285
442.58150,-56.99860175
442.58200,-16.40774553
442.58250,9.228584721
442.58300,9.228584721
442.58350,-0.8428307331
442.58400,-0.8428307331
442.58450,8.313001498
442.58500,12.58572321
442.58550,8.00780709
442.58600,2.209113344
442.58650,-0.2324419177
442.58700,-2.368802772
442.58750,-4.810358033
442.58800,-2.368802772
442.58850,5.871446236
442.58900,15.02727847
442.58950,21.43636103
442.59000,26.62466596
442.59050,29.98180444
442.59100,25.70908274
442.59150,10.75455676
442.59200,-2.979191587
442.59250,0.6831413054
442.59300,25.70908274
442.59350,51.34541298
442.59400,51.34541298
442.59450,20.52077781
442.59500,-16.71293993
442.59550,-33.80382676
442.59600,-25.86877216
442.59650,-12.74541263
442.59700,-14.27138467
442.59750,-31.3622715
442.59800,-52.72588004
442.59850,-68.59598924
442.59900,-72.56351654
442.59950,-60.05054583
442.60000,-30.75188269
442.60050,4.650668606
442.60100,29.98180444
442.60150,37.91685904
442.60200,34.25452615
442.60250,27.54024918
442.60300,21.43636103
442.60350,16.85844491
442.60400,15.94286169
442.60450,18.07922254
442.60500,16.2480561
442.60550,8.923390313
442.60600,5.261057421
442.60650,14.11169524
442.60700,27.84544359
442.60750,32.72855411
442.60800,27.54024918
442.60850,23.57272188
442.60900,25.09869392
442.60950,19.60519458
442.61000,-1.453219549
442.61050,-25.86877216
442.61100,-33.19343795
442.61150,-21.59605046
442.61200,-10.30385737
442.61250,-13.66099586
442.61300,-24.64799453
442.61350,-28.00513302
442.61400,-22.51163368
442.61450,-20.07007842
442.61500,-24.34280013
442.61550,-23.73241131
442.61600,-7.86230211
442.61650,17.77402814
442.61700,37.00127582
442.61750,41.27399753
442.61800,37.00127582
442.61850,31.50777648
442.61900,24.79349951
442.61950,16.85844491
442.62000,10.75455676
442.62050,8.618195906
442.62100,8.313001498
442.62150,6.176640644
442.62200,3.735085382
442.62250,3.735085382
442.62300,5.566251829
442.62350,6.481835052
442.62400,5.261057421
442.62450,4.04027979
442.62500,3.124696567
442.62550,2.514307752
442.62600,2.209113344
