"type","name","time_units","begin_time","frequency","count","units"
"signal","Ultium EMG-BRACHIORAD. RT","s",340.98000,2000,22000,"uV"

"time","value"
340.98000,0.01906511792
340.98050,0.6294539333
340.98100,2.155425972
340.98150,2.765814787
340.98200,1.850231564
340.98250,1.239842749
340.98300,2.765814787
340.98350,4.596981233
340.98400,4.596981233
340.98450,3.376203603
340.98500,3.68139801
340.98550,5.512564457
340.98600,6.42814768
340.98650,4.596981233
340.98700,2.46062038
340.98750,1.545037156
340.98800,0.6294539333
340.98850,-0.2861292898
340.98900,-1.201712513
340.98950,-1.812101328
340.99000,-2.422490144
340.99050,-3.338073367
340.99100,-3.338073367
340.99150,-3.338073367
340.99200,-4.558850998
340.99250,-6.695211852
340.99300,-8.22118389
340.99350,-7.915989482
340.99400,-6.695211852
340.99450,-6.084823036
340.99500,-6.390017444
340.99550,-6.695211852
340.99600,-6.390017444
340.99650,-5.169239813
340.99700,-3.643267774
340.99750,-2.727684551
340.99800,-3.948462182
340.99850,-5.779628628
340.99900,-5.474434221
340.99950,-3.338073367
341.00000,-1.506906921
341.00050,-0.8965181052
341.00100,-0.5913236975
341.00150,0.01906511792
341.00200,0.01906511792
341.00250,0.01906511792
341.00300,-0.5913236975
341.00350,0.3242595256
341.00400,2.765814787
341.00450,4.596981233
341.00500,3.986592418
341.00550,2.155425972
341.00600,1.545037156
341.00650,3.071009195
341.00700,3.68139801
341.00750,1.239842749
341.00800,-2.117295736
341.00850,-2.117295736
341.00900,0.01906511792
341.00950,0.6294539333
341.01000,-2.117295736
341.01050,-5.779628628
341.01100,-5.779628628
341.01150,-3.338073367
341.01200,-2.117295736
341.01250,-5.169239813
341.01300,-10.05235034
341.01350,-12.4939056
341.01400,-11.27312797
341.01450,-8.526378298
341.01500,-8.22118389
341.01550,-10.96793356
341.01600,-11.88351678
341.01650,-7.305600667
341.01700,-0.8965181052
341.01750,1.545037156
341.01800,-1.201712513
341.01850,-6.084823036
341.01900,-7.305600667
341.01950,-4.25365659
341.02000,-0.5913236975
341.02050,1.239842749
341.02100,3.071009195
341.02150,6.733342087
341.02200,10.39567498
341.02250,10.09048057
341.02300,6.122953272
341.02350,3.986592418
341.02400,6.733342087
341.02450,9.785286164
341.02500,7.343730903
341.02550,0.01906511792
341.02600,-4.558850998
341.02650,-5.169239813
341.02700,-4.25365659
341.02750,-5.169239813
341.02800,-7.000406259
341.02850,-8.22118389
341.02900,-8.526378298
341.02950,-7.305600667
341.03000,-3.948462182
341.03050,-0.8965181052
341.03100,-0.5913236975
341.03150,0.01906511792
341.03200,6.733342087
341.03250,16.80475754
341.03300,21.38267366
341.03350,17.41514636
341.03400,12.53203583
341.03450,12.22684143
341.03500,13.14242465
341.03550,10.70086939
341.03600,6.733342087
341.03650,5.512564457
341.03700,6.122953272
341.03750,4.596981233
341.03800,0.934648341
341.03850,-0.2861292898
341.03900,0.3242595256
341.03950,0.6294539333
341.04000,-0.5913236975
341.04050,-0.8965181052
341.04100,0.934648341
341.04150,3.071009195
341.04200,3.071009195
341.04250,3.68139801
341.04300,6.122953272
341.04350,8.259314126
341.04400,6.42814768
341.04450,1.545037156
341.04500,-0.8965181052
341.04550,0.6294539333
341.04600,4.291786826
341.04650,4.902175641
341.04700,2.765814787
341.04750,1.850231564
341.04800,2.46062038
341.04850,3.376203603
341.04900,3.68139801
341.04950,3.68139801
341.05000,3.68139801
341.05050,3.071009195
341.05100,1.545037156
341.05150,0.01906511792
341.05200,-1.506906921
341.05250,-4.558850998
341.05300,-7.305600667
341.05350,-7.610795075
341.05400,-5.779628628
341.05450,-4.864045405
341.05500,-5.474434221
341.05550,-3.948462182
341.05600,-0.8965181052
341.05650,0.3242595256
341.05700,-1.201712513
341.05750,-3.032878959
341.05800,-1.506906921
341.05850,0.3242595256
341.05900,0.01906511792
341.05950,-0.8965181052
341.06000,1.545037156
341.06050,6.122953272
341.06100,6.42814768
341.06150,1.850231564
341.06200,-2.117295736
341.06250,-2.727684551
341.06300,0.01906511792
341.06350,3.071009195
341.06400,5.817758864
341.06450,5.512564457
341.06500,0.3242595256
341.06550,-6.390017444
341.06600,-9.441961521
341.06650,-5.779628628
341.06700,-0.5913236975
341.06750,0.01906511792
341.06800,-3.643267774
341.06850,-5.779628628
341.06900,-3.032878959
341.06950,0.6294539333
341.07000,2.155425972
341.07050,1.239842749
341.07100,1.239842749
341.07150,3.68139801
341.07200,5.512564457
341.07250,4.596981233
341.07300,2.155425972
341.07350,0.3242595256
341.07400,0.6294539333
341.07450,1.545037156
341.07500,1.545037156
341.07550,1.545037156
341.07600,1.239842749
341.07650,0.6294539333
341.07700,0.01906511792
341.07750,-0.2861292898
341.07800,-1.201712513
341.07850,-2.727684551
341.07900,-4.558850998
341.07950,-4.864045405
341.08000,-3.032878959
341.08050,-1.201712513
341.08100,-1.506906921
341.08150,-2.727684551
341.08200,-2.117295736
341.08250,-0.2861292898
341.08300,0.01906511792
341.08350,-0.2861292898
341.08400,-0.2861292898
341.08450,1.239842749
341.08500,2.765814787
341.08550,3.071009195
341.08600,2.765814787
341.08650,3.376203603
341.08700,4.596981233
341.08750,4.596981233
341.08800,3.376203603
341.08850,2.765814787
341.08900,3.68139801
341.08950,4.596981233
341.09000,3.68139801
341.09050,1.545037156
341.09100,-0.2861292898
341.09150,-2.117295736
341.09200,-3.948462182
341.09250,-5.779628628
341.09300,-7.000406259
341.09350,-6.695211852
341.09400,-6.084823036
341.09450,-5.474434221
341.09500,-4.558850998
341.09550,-3.338073367
341.09600,-2.727684551
341.09650,-2.727684551
341.09700,-2.727684551
341.09750,-2.422490144
341.09800,-2.117295736
341.09850,-2.727684551
341.09900,-3.643267774
341.09950,-4.25365659
341.10000,-3.948462182
341.10050,-3.338073367
341.10100,-2.422490144
341.10150,-1.506906921
341.10200,-1.201712513
341.10250,-1.201712513
341.10300,-1.201712513
341.10350,-1.812101328
341.10400,-3.032878959
341.10450,-3.338073367
341.10500,-2.422490144
341.10550,-0.8965181052
341.10600,0.3242595256
341.10650,1.850231564
341.10700,4.291786826
341.10750,6.122953272
341.10800,6.122953272
341.10850,5.207370049
341.10900,6.122953272
341.10950,9.785286164
341.11000,12.53203583
341.11050,12.53203583
341.11100,10.39567498
341.11150,8.564508534
341.11200,7.038536495
341.11250,4.291786826
341.11300,1.850231564
341.11350,0.3242595256
341.11400,0.01906511792
341.11450,-0.8965181052
341.11500,-2.727684551
341.11550,-3.643267774
341.11600,-4.25365659
341.11650,-5.474434221
341.11700,-7.610795075
341.11750,-8.526378298
341.11800,-6.695211852
341.11850,-3.338073367
341.11900,-0.5913236975
341.11950,0.01906511792
341.12000,-0.5913236975
341.12050,-2.422490144
341.12100,-3.643267774
341.12150,-3.643267774
341.12200,-3.338073367
341.12250,-4.25365659
341.12300,-6.695211852
341.12350,-6.390017444
341.12400,-2.117295736
341.12450,3.986592418
341.12500,7.954119718
341.12550,7.038536495
341.12600,2.765814787
341.12650,-2.422490144
341.12700,-7.305600667
341.12750,-10.35754474
341.12800,-10.96793356
341.12850,-8.526378298
341.12900,-3.948462182
341.12950,2.46062038
341.13000,7.954119718
341.13050,10.09048057
341.13100,8.869702941
341.13150,7.343730903
341.13200,6.42814768
341.13250,4.596981233
341.13300,1.850231564
341.13350,0.3242595256
341.13400,2.765814787
341.13450,8.259314126
341.13500,12.53203583
341.13550,12.22684143
341.13600,7.954119718
341.13650,3.071009195
341.13700,0.3242595256
341.13750,0.3242595256
341.13800,0.3242595256
341.13850,-1.506906921
341.13900,-3.643267774
341.13950,-3.643267774
341.14000,-1.201712513
341.14050,0.01906511792
341.14100,-0.2861292898
341.14150,0.3242595256
341.14200,1.545037156
341.14250,1.545037156
341.14300,0.01906511792
341.14350,0.01906511792
341.14400,1.545037156
341.14450,1.545037156
341.14500,-0.8965181052
341.14550,-3.338073367
341.14600,-1.812101328
341.14650,1.545037156
341.14700,2.46062038
341.14750,0.01906511792
341.14800,-2.117295736
341.14850,-2.727684551
341.14900,-2.727684551
341.14950,-3.338073367
341.15000,-3.643267774
341.15050,-3.948462182
341.15100,-3.643267774
341.15150,-3.643267774
341.15200,-3.338073367
341.15250,-3.032878959
341.15300,-2.422490144
341.15350,-1.812101328
341.15400,-2.117295736
341.15450,-3.032878959
341.15500,-3.032878959
341.15550,-2.117295736
341.15600,-1.812101328
341.15650,-3.032878959
341.15700,-3.948462182
341.15750,-1.506906921
341.15800,2.46062038
341.15850,4.902175641
341.15900,3.376203603
341.15950,1.239842749
341.16000,0.934648341
341.16050,2.765814787
341.16100,3.68139801
341.16150,3.376203603
341.16200,2.765814787
341.16250,2.46062038
341.16300,2.155425972
341.16350,2.155425972
341.16400,2.765814787
341.16450,3.376203603
341.16500,3.376203603
341.16550,2.155425972
341.16600,0.01906511792
341.16650,-3.948462182
341.16700,-8.22118389
341.16750,-11.27312797
341.16800,-11.27312797
341.16850,-9.136767113
341.16900,-6.695211852
341.16950,-4.558850998
341.17000,-1.812101328
341.17050,0.934648341
341.17100,0.934648341
341.17150,-1.812101328
341.17200,-4.25365659
341.17250,-3.032878959
341.17300,0.3242595256
341.17350,3.376203603
341.17400,4.902175641
341.17450,4.902175641
341.17500,3.071009195
341.17550,-0.2861292898
341.17600,-3.338073367
341.17650,-3.032878959
341.17700,-0.2861292898
341.17750,0.934648341
341.17800,-0.2861292898
341.17850,-2.117295736
341.17900,-2.727684551
341.17950,-1.201712513
341.18000,0.6294539333
341.18050,3.071009195
341.18100,5.207370049
341.18150,6.733342087
341.18200,8.869702941
341.18250,10.39567498
341.18300,10.39567498
341.18350,7.038536495
341.18400,3.376203603
341.18450,2.155425972
341.18500,3.986592418
341.18550,5.207370049
341.18600,4.291786826
341.18650,3.071009195
341.18700,3.071009195
341.18750,4.291786826
341.18800,4.902175641
341.18850,4.291786826
341.18900,2.765814787
341.18950,0.01906511792
341.19000,-3.032878959
341.19050,-5.474434221
341.19100,-5.779628628
341.19150,-4.25365659
341.19200,-2.727684551
341.19250,-1.201712513
341.19300,0.01906511792
341.19350,0.01906511792
341.19400,-0.5913236975
341.19450,-1.201712513
341.19500,-1.506906921
341.19550,-1.812101328
341.19600,-2.117295736
341.19650,-1.201712513
341.19700,0.934648341
341.19750,2.155425972
341.19800,0.01906511792
341.19850,-4.558850998
341.19900,-6.390017444
341.19950,-5.169239813
341.20000,-3.338073367
341.20050,-2.422490144
341.20100,-0.8965181052
341.20150,2.155425972
341.20200,5.512564457
341.20250,7.343730903
341.20300,7.954119718
341.20350,8.259314126
341.20400,8.564508534
341.20450,7.343730903
341.20500,6.42814768
341.20550,6.42814768
341.20600,5.817758864
341.20650,2.765814787
341.20700,-0.5913236975
341.20750,-2.422490144
341.20800,-2.422490144
341.20850,-2.727684551
341.20900,-4.558850998
341.20950,-6.695211852
341.21000,-8.526378298
341.21050,-10.96793356
341.21100,-13.40948882
341.21150,-13.10429441
341.21200,-10.05235034
341.21250,-8.22118389
341.21300,-9.747155929
341.21350,-10.96793356
341.21400,-9.136767113
341.21450,-6.390017444
341.21500,-6.390017444
341.21550,-8.526378298
341.21600,-9.136767113
341.21650,-7.305600667
341.21700,-6.695211852
341.21750,-7.305600667
341.21800,-7.915989482
341.21850,-7.305600667
341.21900,-7.305600667
341.21950,-7.305600667
341.22000,-3.643267774
341.22050,2.765814787
341.22100,8.259314126
341.22150,8.259314126
341.22200,4.596981233
341.22250,2.155425972
341.22300,3.376203603
341.22350,6.42814768
341.22400,9.480091757
341.22450,10.39567498
341.22500,9.785286164
341.22550,8.259314126
341.22600,7.64892531
341.22650,9.174897349
341.22700,11.3112582
341.22750,12.22684143
341.22800,10.70086939
341.22850,8.564508534
341.22900,7.343730903
341.22950,7.038536495
341.23000,6.122953272
341.23050,4.596981233
341.23100,2.46062038
341.23150,-0.2861292898
341.23200,-3.338073367
341.23250,-3.643267774
341.23300,-1.201712513
341.23350,0.01906511792
341.23400,-1.201712513
341.23450,-3.643267774
341.23500,-4.25365659
341.23550,-3.643267774
341.23600,-4.25365659
341.23650,-5.169239813
341.23700,-3.032878959
341.23750,0.01906511792
341.23800,0.01906511792
341.23850,-0.8965181052
341.23900,0.01906511792
341.23950,3.68139801
341.24000,5.207370049
341.24050,3.68139801
341.24100,3.071009195
341.24150,4.291786826
341.24200,3.071009195
341.24250,-1.812101328
341.24300,-5.169239813
341.24350,-2.422490144
341.24400,2.155425972
341.24450,3.986592418
341.24500,3.68139801
341.24550,4.596981233
341.24600,5.817758864
341.24650,3.986592418
341.24700,1.239842749
341.24750,0.3242595256
341.24800,-0.2861292898
341.24850,-3.338073367
341.24900,-6.695211852
341.24950,-6.390017444
341.25000,-3.948462182
341.25050,-4.25365659
341.25100,-8.22118389
341.25150,-12.4939056
341.25200,-13.40948882
341.25250,-12.18871119
341.25300,-11.88351678
341.25350,-12.18871119
341.25400,-10.96793356
341.25450,-7.915989482
341.25500,-4.558850998
341.25550,-2.727684551
341.25600,-3.643267774
341.25650,-6.695211852
341.25700,-9.136767113
341.25750,-8.831572705
341.25800,-5.169239813
341.25850,-1.201712513
341.25900,0.3242595256
341.25950,0.6294539333
341.26000,1.850231564
341.26050,3.376203603
341.26100,3.376203603
341.26150,1.850231564
341.26200,1.545037156
341.26250,2.765814787
341.26300,3.68139801
341.26350,2.46062038
341.26400,0.934648341
341.26450,1.850231564
341.26500,5.512564457
341.26550,10.09048057
341.26600,13.14242465
341.26650,14.05800787
341.26700,12.83723024
341.26750,10.39567498
341.26800,8.259314126
341.26850,6.733342087
341.26900,6.122953272
341.26950,5.207370049
341.27000,3.68139801
341.27050,1.239842749
341.27100,-0.2861292898
341.27150,-0.2861292898
341.27200,1.545037156
341.27250,2.765814787
341.27300,0.01906511792
341.27350,-4.25365659
341.27400,-5.779628628
341.27450,-3.032878959
341.27500,-0.5913236975
341.27550,-0.2861292898
341.27600,0.01906511792
341.27650,1.239842749
341.27700,1.239842749
341.27750,-1.201712513
341.27800,-4.558850998
341.27850,-4.558850998
341.27900,-1.506906921
341.27950,0.3242595256
341.28000,0.6294539333
341.28050,0.3242595256
341.28100,0.01906511792
341.28150,0.01906511792
341.28200,0.934648341
341.28250,2.46062038
341.28300,2.765814787
341.28350,0.934648341
341.28400,0.01906511792
341.28450,1.850231564
341.28500,4.291786826
341.28550,3.986592418
341.28600,1.850231564
341.28650,1.545037156
341.28700,3.68139801
341.28750,5.512564457
341.28800,5.512564457
341.28850,4.291786826
341.28900,2.765814787
341.28950,0.6294539333
341.29000,0.3242595256
341.29050,1.850231564
341.29100,3.986592418
341.29150,3.68139801
341.29200,1.545037156
341.29250,0.6294539333
341.29300,0.3242595256
341.29350,-0.2861292898
341.29400,-1.812101328
341.29450,-1.812101328
341.29500,-0.8965181052
341.29550,-0.8965181052
341.29600,-2.727684551
341.29650,-3.032878959
341.29700,-2.117295736
341.29750,-2.117295736
341.29800,-4.558850998
341.29850,-6.390017444
341.29900,-5.169239813
341.29950,-3.032878959
341.30000,-2.422490144
341.30050,-1.506906921
341.30100,0.3242595256
341.30150,2.765814787
341.30200,2.46062038
341.30250,0.3242595256
341.30300,-0.8965181052
341.30350,-0.2861292898
341.30400,0.6294539333
341.30450,1.850231564
341.30500,3.071009195
341.30550,3.68139801
341.30600,3.071009195
341.30650,2.46062038
341.30700,3.986592418
341.30750,6.122953272
341.30800,7.038536495
341.30850,4.902175641
341.30900,1.850231564
341.30950,0.01906511792
341.31000,0.6294539333
341.31050,2.46062038
341.31100,3.68139801
341.31150,2.46062038
341.31200,0.3242595256
341.31250,-0.2861292898
341.31300,0.01906511792
341.31350,0.01906511792
341.31400,-0.8965181052
341.31450,-1.812101328
341.31500,-0.8965181052
341.31550,0.01906511792
341.31600,0.01906511792
341.31650,-0.2861292898
341.31700,-0.8965181052
341.31750,-2.727684551
341.31800,-5.474434221
341.31850,-6.695211852
341.31900,-5.169239813
341.31950,-4.558850998
341.32000,-7.610795075
341.32050,-11.27312797
341.32100,-10.35754474
341.32150,-5.169239813
341.32200,-0.8965181052
341.32250,-0.5913236975
341.32300,-2.727684551
341.32350,-4.25365659
341.32400,-3.948462182
341.32450,-3.032878959
341.32500,-2.117295736
341.32550,-1.201712513
341.32600,-0.2861292898
341.32650,0.01906511792
341.32700,0.6294539333
341.32750,0.934648341
341.32800,0.6294539333
341.32850,0.01906511792
341.32900,0.01906511792
341.32950,0.6294539333
341.33000,0.934648341
341.33050,0.6294539333
341.33100,0.3242595256
341.33150,1.239842749
341.33200,2.765814787
341.33250,3.68139801
341.33300,3.376203603
341.33350,2.155425972
341.33400,1.239842749
341.33450,1.545037156
341.33500,2.765814787
341.33550,4.291786826
341.33600,6.733342087
341.33650,10.09048057
341.33700,11.0060638
341.33750,8.259314126
341.33800,3.68139801
341.33850,1.850231564
341.33900,3.071009195
341.33950,4.291786826
341.34000,3.376203603
341.34050,1.850231564
341.34100,1.850231564
341.34150,1.239842749
341.34200,-1.506906921
341.34250,-3.643267774
341.34300,-1.201712513
341.34350,3.986592418
341.34400,6.42814768
341.34450,2.765814787
341.34500,-2.727684551
341.34550,-5.779628628
341.34600,-5.169239813
341.34650,-3.643267774
341.34700,-2.727684551
341.34750,-3.032878959
341.34800,-4.558850998
341.34850,-6.390017444
341.34900,-7.000406259
341.34950,-5.474434221
341.35000,-4.558850998
341.35050,-4.864045405
341.35100,-4.558850998
341.35150,-1.506906921
341.35200,1.545037156
341.35250,2.155425972
341.35300,0.3242595256
341.35350,-1.812101328
341.35400,-2.727684551
341.35450,-3.643267774
341.35500,-5.169239813
341.35550,-7.000406259
341.35600,-7.610795075
341.35650,-8.22118389
341.35700,-8.831572705
341.35750,-9.136767113
341.35800,-7.610795075
341.35850,-3.948462182
341.35900,0.01906511792
341.35950,2.765814787
341.36000,3.376203603
341.36050,1.239842749
341.36100,-0.8965181052
341.36150,-1.812101328
341.36200,-0.5913236975
341.36250,0.01906511792
341.36300,0.01906511792
341.36350,0.01906511792
341.36400,2.46062038
341.36450,5.207370049
341.36500,5.207370049
341.36550,2.765814787
341.36600,2.155425972
341.36650,5.207370049
341.36700,8.259314126
341.36750,6.733342087
341.36800,1.545037156
341.36850,-2.117295736
341.36900,-2.117295736
341.36950,-0.2861292898
341.37000,0.6294539333
341.37050,0.934648341
341.37100,1.545037156
341.37150,3.68139801
341.37200,5.512564457
341.37250,5.207370049
341.37300,3.376203603
341.37350,1.850231564
341.37400,2.46062038
341.37450,3.071009195
341.37500,2.155425972
341.37550,0.6294539333
341.37600,1.239842749
341.37650,3.68139801
341.37700,5.207370049
341.37750,3.986592418
341.37800,1.850231564
341.37850,0.6294539333
341.37900,-0.5913236975
341.37950,-4.25365659
341.38000,-7.915989482
341.38050,-10.66273915
341.38100,-11.57832237
341.38150,-11.57832237
341.38200,-9.747155929
341.38250,-7.610795075
341.38300,-7.305600667
341.38350,-8.22118389
341.38400,-7.305600667
341.38450,-4.25365659
341.38500,-2.727684551
341.38550,-4.864045405
341.38600,-6.695211852
341.38650,-3.643267774
341.38700,1.850231564
341.38750,4.596981233
341.38800,3.986592418
341.38850,3.986592418
341.38900,5.817758864
341.38950,6.733342087
341.39000,5.817758864
341.39050,4.596981233
341.39100,2.46062038
341.39150,-0.2861292898
341.39200,-3.338073367
341.39250,-3.032878959
341.39300,0.01906511792
341.39350,2.155425972
341.39400,0.934648341
341.39450,-1.201712513
341.39500,-2.422490144
341.39550,-2.727684551
341.39600,-2.422490144
341.39650,-1.812101328
341.39700,-0.8965181052
341.39750,0.01906511792
341.39800,3.071009195
341.39850,8.869702941
341.39900,15.2787855
341.39950,17.72034076
341.40000,14.9735911
341.40050,10.39567498
341.40100,7.343730903
341.40150,6.122953272
341.40200,5.817758864
341.40250,5.817758864
341.40300,4.902175641
341.40350,2.46062038
341.40400,0.3242595256
341.40450,0.934648341
341.40500,2.765814787
341.40550,3.071009195
341.40600,1.545037156
341.40650,1.239842749
341.40700,3.376203603
341.40750,5.512564457
341.40800,4.902175641
341.40850,3.376203603
341.40900,2.155425972
341.40950,1.850231564
341.41000,2.155425972
341.41050,2.46062038
341.41100,1.850231564
341.41150,0.01906511792
341.41200,-0.8965181052
341.41250,0.934648341
341.41300,4.596981233
341.41350,5.512564457
341.41400,1.850231564
341.41450,-2.422490144
341.41500,-3.948462182
341.41550,-3.643267774
341.41600,-4.25365659
341.41650,-5.779628628
341.41700,-5.779628628
341.41750,-4.558850998
341.41800,-3.643267774
341.41850,-4.864045405
341.41900,-6.390017444
341.41950,-6.084823036
341.42000,-3.643267774
341.42050,-0.8965181052
341.42100,0.6294539333
341.42150,0.934648341
341.42200,0.934648341
341.42250,0.6294539333
341.42300,0.6294539333
341.42350,0.6294539333
341.42400,0.934648341
341.42450,0.01906511792
341.42500,-2.117295736
341.42550,-3.643267774
341.42600,-3.338073367
341.42650,-2.422490144
341.42700,-3.032878959
341.42750,-5.474434221
341.42800,-7.000406259
341.42850,-6.695211852
341.42900,-6.695211852
341.42950,-8.22118389
341.43000,-9.136767113
341.43050,-7.610795075
341.43100,-4.558850998
341.43150,-3.032878959
341.43200,-3.948462182
341.43250,-4.558850998
341.43300,-3.338073367
341.43350,0.01906511792
341.43400,3.986592418
341.43450,8.564508534
341.43500,12.22684143
341.43550,13.44761906
341.43600,10.39567498
341.43650,4.596981233
341.43700,0.01906511792
341.43750,0.01906511792
341.43800,1.239842749
341.43850,0.934648341
341.43900,-2.422490144
341.43950,-5.474434221
341.44000,-6.084823036
341.44050,-5.779628628
341.44100,-6.390017444
341.44150,-5.779628628
341.44200,-3.032878959
341.44250,-0.5913236975
341.44300,-2.117295736
341.44350,-5.169239813
341.44400,-4.25365659
341.44450,0.934648341
341.44500,5.207370049
341.44550,5.512564457
341.44600,3.986592418
341.44650,3.68139801
341.44700,3.071009195
341.44750,0.3242595256
341.44800,-1.506906921
341.44850,-1.201712513
341.44900,0.934648341
341.44950,2.155425972
341.45000,2.155425972
341.45050,1.850231564
341.45100,1.545037156
341.45150,-0.2861292898
341.45200,-2.422490144
341.45250,-2.422490144
341.45300,-1.201712513
341.45350,-1.201712513
341.45400,-4.25365659
341.45450,-7.305600667
341.45500,-7.915989482
341.45550,-6.390017444
341.45600,-5.779628628
341.45650,-6.695211852
341.45700,-7.305600667
341.45750,-7.305600667
341.45800,-7.000406259
341.45850,-7.305600667
341.45900,-7.305600667
341.45950,-7.000406259
341.46000,-9.136767113
341.46050,-12.4939056
341.46100,-12.79910001
341.46150,-7.000406259
341.46200,0.934648341
341.46250,4.902175641
341.46300,3.376203603
341.46350,1.850231564
341.46400,3.986592418
341.46450,6.733342087
341.46500,6.122953272
341.46550,3.68139801
341.46600,3.68139801
341.46650,7.038536495
341.46700,11.3112582
341.46750,14.36320228
341.46800,15.2787855
341.46850,13.44761906
341.46900,8.869702941
341.46950,4.596981233
341.47000,3.071009195
341.47050,2.765814787
341.47100,1.239842749
341.47150,-0.8965181052
341.47200,-2.117295736
341.47250,-1.506906921
341.47300,-0.5913236975
341.47350,-0.5913236975
341.47400,0.01906511792
341.47450,0.01906511792
341.47500,-0.5913236975
341.47550,-2.422490144
341.47600,-3.643267774
341.47650,-3.032878959
341.47700,-1.812101328
341.47750,-0.8965181052
341.47800,0.01906511792
341.47850,0.6294539333
341.47900,1.239842749
341.47950,0.934648341
341.48000,0.934648341
341.48050,1.545037156
341.48100,3.071009195
341.48150,6.122953272
341.48200,9.785286164
341.48250,11.3112582
341.48300,10.09048057
341.48350,8.564508534
341.48400,8.564508534
341.48450,8.564508534
341.48500,5.817758864
341.48550,1.850231564
341.48600,1.850231564
341.48650,5.817758864
341.48700,8.869702941
341.48750,7.64892531
341.48800,4.902175641
341.48850,5.207370049
341.48900,7.954119718
341.48950,8.869702941
341.49000,7.038536495
341.49050,5.817758864
341.49100,7.64892531
341.49150,8.869702941
341.49200,5.207370049
341.49250,-0.5913236975
341.49300,-3.032878959
341.49350,-0.5913236975
341.49400,2.155425972
341.49450,0.934648341
341.49500,-2.727684551
341.49550,-3.948462182
341.49600,-1.506906921
341.49650,0.3242595256
341.49700,-1.506906921
341.49750,-5.169239813
341.49800,-6.390017444
341.49850,-3.948462182
341.49900,-0.8965181052
341.49950,0.01906511792
341.50000,-0.5913236975
341.50050,-1.506906921
341.50100,-1.812101328
341.50150,-1.812101328
341.50200,-1.506906921
341.50250,-1.201712513
341.50300,-1.812101328
341.50350,-1.812101328
341.50400,0.6294539333
341.50450,4.291786826
341.50500,5.207370049
341.50550,1.850231564
341.50600,-0.8965181052
341.50650,0.01906511792
341.50700,3.68139801
341.50750,3.986592418
341.50800,0.01906511792
341.50850,-4.558850998
341.50900,-6.084823036
341.50950,-5.779628628
341.51000,-5.474434221
341.51050,-6.084823036
341.51100,-6.084823036
341.51150,-7.000406259
341.51200,-10.35754474
341.51250,-15.24065527
341.51300,-17.98740494
341.51350,-17.37701612
341.51400,-14.01987764
341.51450,-10.96793356
341.51500,-9.441961521
341.51550,-9.136767113
341.51600,-8.526378298
341.51650,-6.695211852
341.51700,-3.643267774
341.51750,-1.812101328
341.51800,-2.727684551
341.51850,-5.474434221
341.51900,-8.22118389
341.51950,-8.831572705
341.52000,-8.22118389
341.52050,-7.000406259
341.52100,-5.169239813
341.52150,-3.338073367
341.52200,-0.8965181052
341.52250,1.545037156
341.52300,3.376203603
341.52350,3.68139801
341.52400,3.986592418
341.52450,6.122953272
341.52500,9.785286164
341.52550,11.92164702
341.52600,10.39567498
341.52650,7.954119718
341.52700,6.733342087
341.52750,5.817758864
341.52800,4.291786826
341.52850,3.071009195
341.52900,4.291786826
341.52950,7.038536495
341.53000,7.343730903
341.53050,4.902175641
341.53100,2.155425972
341.53150,0.3242595256
341.53200,-0.5913236975
341.53250,-1.506906921
341.53300,-0.2861292898
341.53350,1.850231564
341.53400,3.071009195
341.53450,2.155425972
341.53500,0.6294539333
341.53550,-0.5913236975
341.53600,-2.422490144
341.53650,-4.558850998
341.53700,-5.779628628
341.53750,-5.474434221
341.53800,-4.864045405
341.53850,-4.864045405
341.53900,-4.558850998
341.53950,-4.25365659
341.54000,-3.643267774
341.54050,-3.338073367
341.54100,-2.117295736
341.54150,-0.8965181052
341.54200,0.01906511792
341.54250,0.934648341
341.54300,1.850231564
341.54350,1.545037156
341.54400,0.01906511792
341.54450,-1.812101328
341.54500,-3.032878959
341.54550,-3.643267774
341.54600,-4.558850998
341.54650,-5.169239813
341.54700,-4.558850998
341.54750,-3.643267774
341.54800,-2.727684551
341.54850,-0.5913236975
341.54900,3.68139801
341.54950,7.954119718
341.55000,7.64892531
341.55050,3.071009195
341.55100,-1.812101328
341.55150,-4.864045405
341.55200,-6.390017444
341.55250,-7.305600667
341.55300,-5.474434221
341.55350,-1.812101328
341.55400,0.934648341
341.55450,1.239842749
341.55500,0.3242595256
341.55550,0.6294539333
341.55600,3.071009195
341.55650,5.207370049
341.55700,6.122953272
341.55750,6.733342087
341.55800,7.64892531
341.55850,8.259314126
341.55900,8.564508534
341.55950,8.259314126
341.56000,7.954119718
341.56050,7.038536495
341.56100,4.596981233
341.56150,0.6294539333
341.56200,-2.727684551
341.56250,-3.032878959
341.56300,1.239842749
341.56350,7.64892531
341.56400,11.92164702
341.56450,10.70086939
341.56500,5.207370049
341.56550,0.01906511792
341.56600,-1.201712513
341.56650,0.01906511792
341.56700,0.6294539333
341.56750,-0.8965181052
341.56800,-3.338073367
341.56850,-3.948462182
341.56900,-3.338073367
341.56950,-2.422490144
341.57000,-0.8965181052
341.57050,0.934648341
341.57100,2.46062038
341.57150,1.545037156
341.57200,-0.5913236975
341.57250,-1.201712513
341.57300,0.01906511792
341.57350,0.01906511792
341.57400,-1.506906921
341.57450,-3.338073367
341.57500,-3.338073367
341.57550,-2.727684551
341.57600,-3.643267774
341.57650,-5.169239813
341.57700,-4.864045405
341.57750,-3.338073367
341.57800,-1.812101328
341.57850,0.01906511792
341.57900,2.155425972
341.57950,3.986592418
341.58000,3.986592418
341.58050,1.850231564
341.58100,0.6294539333
341.58150,1.545037156
341.58200,2.46062038
341.58250,1.239842749
341.58300,-0.2861292898
341.58350,-0.2861292898
341.58400,0.934648341
341.58450,1.239842749
341.58500,0.01906511792
341.58550,-0.8965181052
341.58600,0.01906511792
341.58650,1.545037156
341.58700,2.46062038
341.58750,1.850231564
341.58800,0.934648341
341.58850,1.239842749
341.58900,1.239842749
341.58950,-0.2861292898
341.59000,-3.032878959
341.59050,-4.25365659
341.59100,-4.558850998
341.59150,-4.25365659
341.59200,-3.643267774
341.59250,-1.201712513
341.59300,1.545037156
341.59350,1.239842749
341.59400,-2.727684551
341.59450,-6.390017444
341.59500,-5.474434221
341.59550,-2.117295736
341.59600,-0.8965181052
341.59650,-3.338073367
341.59700,-6.084823036
341.59750,-7.000406259
341.59800,-7.305600667
341.59850,-6.084823036
341.59900,-2.117295736
341.59950,2.46062038
341.60000,3.68139801
341.60050,0.6294539333
341.60100,-1.201712513
341.60150,1.545037156
341.60200,7.038536495
341.60250,9.174897349
341.60300,6.733342087
341.60350,4.291786826
341.60400,4.596981233
341.60450,7.038536495
341.60500,8.259314126
341.60550,7.038536495
341.60600,4.596981233
341.60650,3.071009195
341.60700,3.68139801
341.60750,5.207370049
341.60800,5.512564457
341.60850,3.071009195
341.60900,0.01906511792
341.60950,-0.2861292898
341.61000,0.3242595256
341.61050,0.01906511792
341.61100,-2.117295736
341.61150,-3.032878959
341.61200,-0.2861292898
341.61250,3.071009195
341.61300,3.986592418
341.61350,1.239842749
341.61400,-0.2861292898
341.61450,0.6294539333
341.61500,3.986592418
341.61550,6.42814768
341.61600,6.122953272
341.61650,3.68139801
341.61700,0.6294539333
341.61750,-1.506906921
341.61800,-1.812101328
341.61850,-0.5913236975
341.61900,0.01906511792
341.61950,-1.812101328
341.62000,-6.084823036
341.62050,-9.441961521
341.62100,-9.136767113
341.62150,-6.695211852
341.62200,-4.864045405
341.62250,-5.779628628
341.62300,-7.305600667
341.62350,-6.695211852
341.62400,-5.169239813
341.62450,-4.558850998
341.62500,-4.25365659
341.62550,-2.727684551
341.62600,-0.8965181052
341.62650,-1.812101328
341.62700,-3.948462182
341.62750,-2.727684551
341.62800,2.765814787
341.62850,7.64892531
341.62900,6.42814768
341.62950,1.545037156
341.63000,-0.5913236975
341.63050,2.765814787
341.63100,8.259314126
341.63150,11.61645261
341.63200,11.3112582
341.63250,8.259314126
341.63300,4.291786826
341.63350,0.01906511792
341.63400,-2.117295736
341.63450,-2.727684551
341.63500,-1.812101328
341.63550,-0.8965181052
341.63600,-0.8965181052
341.63650,-1.201712513
341.63700,-0.5913236975
341.63750,0.3242595256
341.63800,2.155425972
341.63850,3.376203603
341.63900,3.68139801
341.63950,3.071009195
341.64000,2.155425972
341.64050,1.545037156
341.64100,1.545037156
341.64150,2.155425972
341.64200,3.071009195
341.64250,3.68139801
341.64300,3.376203603
341.64350,2.765814787
341.64400,1.850231564
341.64450,0.934648341
341.64500,0.3242595256
341.64550,0.3242595256
341.64600,0.01906511792
341.64650,-1.812101328
341.64700,-4.558850998
341.64750,-7.305600667
341.64800,-8.526378298
341.64850,-8.22118389
341.64900,-5.474434221
341.64950,-1.506906921
341.65000,1.239842749
341.65050,1.850231564
341.65100,0.934648341
341.65150,0.01906511792
341.65200,0.01906511792
341.65250,0.01906511792
341.65300,-0.5913236975
341.65350,-2.422490144
341.65400,-3.338073367
341.65450,-2.727684551
341.65500,-1.506906921
341.65550,-1.201712513
341.65600,-1.506906921
341.65650,-2.422490144
341.65700,-4.864045405
341.65750,-7.915989482
341.65800,-9.747155929
341.65850,-9.747155929
341.65900,-8.526378298
341.65950,-6.390017444
341.66000,-3.338073367
341.66050,0.01906511792
341.66100,2.46062038
341.66150,3.071009195
341.66200,3.68139801
341.66250,5.207370049
341.66300,6.42814768
341.66350,5.207370049
341.66400,2.155425972
341.66450,-0.2861292898
341.66500,-0.2861292898
341.66550,1.545037156
341.66600,3.986592418
341.66650,3.986592418
341.66700,1.850231564
341.66750,1.239842749
341.66800,5.207370049
341.66850,10.39567498
341.66900,11.61645261
341.66950,8.259314126
341.67000,5.207370049
341.67050,5.512564457
341.67100,6.42814768
341.67150,4.291786826
341.67200,0.6294539333
341.67250,-1.201712513
341.67300,-1.201712513
341.67350,-1.506906921
341.67400,-2.117295736
341.67450,-2.727684551
341.67500,-3.338073367
341.67550,-4.558850998
341.67600,-6.084823036
341.67650,-6.390017444
341.67700,-5.779628628
341.67750,-5.474434221
341.67800,-5.474434221
341.67850,-5.169239813
341.67900,-4.864045405
341.67950,-4.558850998
341.68000,-3.948462182
341.68050,-3.643267774
341.68100,-4.558850998
341.68150,-5.474434221
341.68200,-3.948462182
341.68250,0.6294539333
341.68300,6.122953272
341.68350,8.564508534
341.68400,6.733342087
341.68450,3.071009195
341.68500,1.850231564
341.68550,3.986592418
341.68600,5.207370049
341.68650,3.071009195
341.68700,0.01906511792
341.68750,1.239842749
341.68800,5.817758864
341.68850,6.733342087
341.68900,2.46062038
341.68950,-1.201712513
341.69000,-0.8965181052
341.69050,0.01906511792
341.69100,-3.032878959
341.69150,-8.22118389
341.69200,-8.526378298
341.69250,-3.643267774
341.69300,0.01906511792
341.69350,0.6294539333
341.69400,1.850231564
341.69450,4.902175641
341.69500,5.207370049
341.69550,0.01906511792
341.69600,-6.390017444
341.69650,-9.136767113
341.69700,-7.305600667
341.69750,-4.864045405
341.69800,-3.338073367
341.69850,-2.117295736
341.69900,-1.201712513
341.69950,-0.5913236975
341.70000,-0.5913236975
341.70050,-0.8965181052
341.70100,-1.201712513
341.70150,-1.506906921
341.70200,-1.201712513
341.70250,-0.8965181052
341.70300,-1.506906921
341.70350,-2.422490144
341.70400,-3.032878959
341.70450,-2.117295736
341.70500,-1.506906921
341.70550,-2.117295736
341.70600,-1.812101328
341.70650,0.01906511792
341.70700,1.239842749
341.70750,1.239842749
341.70800,0.01906511792
341.70850,0.01906511792
341.70900,-0.2861292898
341.70950,-2.117295736
341.71000,-3.338073367
341.71050,-2.117295736
341.71100,0.934648341
341.71150,2.155425972
341.71200,0.3242595256
341.71250,-1.812101328
341.71300,-2.117295736
341.71350,-0.8965181052
341.71400,0.6294539333
341.71450,2.155425972
341.71500,2.155425972
341.71550,0.01906511792
341.71600,-1.812101328
341.71650,0.01906511792
341.71700,4.902175641
341.71750,8.564508534
341.71800,6.122953272
341.71850,1.239842749
341.71900,-0.2861292898
341.71950,1.545037156
341.72000,3.986592418
341.72050,5.512564457
341.72100,7.954119718
341.72150,11.92164702
341.72200,14.66839669
341.72250,12.83723024
341.72300,7.954119718
341.72350,3.376203603
341.72400,2.155425972
341.72450,2.765814787
341.72500,3.376203603
341.72550,2.46062038
341.72600,0.6294539333
341.72650,-0.5913236975
341.72700,-0.8965181052
341.72750,-0.8965181052
341.72800,-1.506906921
341.72850,-1.812101328
341.72900,-1.812101328
341.72950,-3.032878959
341.73000,-4.25365659
341.73050,-5.169239813
341.73100,-4.864045405
341.73150,-5.474434221
341.73200,-7.000406259
341.73250,-6.390017444
341.73300,-3.032878959
341.73350,0.3242595256
341.73400,2.155425972
341.73450,2.155425972
341.73500,2.765814787
341.73550,2.765814787
341.73600,0.6294539333
341.73650,-2.422490144
341.73700,-5.169239813
341.73750,-6.084823036
341.73800,-6.390017444
341.73850,-5.779628628
341.73900,-3.338073367
341.73950,-0.8965181052
341.74000,-0.8965181052
341.74050,-4.558850998
341.74100,-9.747155929
341.74150,-12.18871119
341.74200,-9.747155929
341.74250,-3.338073367
341.74300,2.155425972
341.74350,3.68139801
341.74400,1.239842749
341.74450,-0.8965181052
341.74500,-1.201712513
341.74550,-0.5913236975
341.74600,0.01906511792
341.74650,0.01906511792
341.74700,0.01906511792
341.74750,-0.5913236975
341.74800,-1.506906921
341.74850,-1.506906921
341.74900,0.01906511792
341.74950,3.071009195
341.75000,4.291786826
341.75050,3.986592418
341.75100,3.68139801
341.75150,3.986592418
341.75200,4.596981233
341.75250,4.291786826
341.75300,3.071009195
341.75350,2.155425972
341.75400,1.850231564
341.75450,1.239842749
341.75500,0.01906511792
341.75550,-0.5913236975
341.75600,0.01906511792
341.75650,0.3242595256
341.75700,-0.8965181052
341.75750,-3.032878959
341.75800,-2.727684551
341.75850,0.6294539333
341.75900,3.376203603
341.75950,3.376203603
341.76000,1.545037156
341.76050,0.934648341
341.76100,0.6294539333
341.76150,0.01906511792
341.76200,-0.5913236975
341.76250,0.01906511792
341.76300,2.155425972
341.76350,3.071009195
341.76400,2.155425972
341.76450,0.01906511792
341.76500,-0.8965181052
341.76550,-0.2861292898
341.76600,0.934648341
341.76650,1.239842749
341.76700,0.6294539333
341.76750,0.01906511792
341.76800,1.545037156
341.76850,3.376203603
341.76900,3.071009195
341.76950,1.239842749
341.77000,1.239842749
341.77050,3.071009195
341.77100,3.986592418
341.77150,2.46062038
341.77200,1.545037156
341.77250,1.850231564
341.77300,1.850231564
341.77350,0.01906511792
341.77400,-1.506906921
341.77450,0.01906511792
341.77500,1.239842749
341.77550,0.01906511792
341.77600,-3.338073367
341.77650,-5.169239813
341.77700,-4.558850998
341.77750,-4.864045405
341.77800,-4.864045405
341.77850,-2.117295736
341.77900,2.765814787
341.77950,5.512564457
341.78000,3.376203603
341.78050,0.934648341
341.78100,1.850231564
341.78150,3.68139801
341.78200,1.545037156
341.78250,-3.032878959
341.78300,-4.864045405
341.78350,-2.422490144
341.78400,0.01906511792
341.78450,-0.5913236975
341.78500,-1.506906921
341.78550,0.3242595256
341.78600,3.68139801
341.78650,4.902175641
341.78700,4.291786826
341.78750,4.902175641
341.78800,6.42814768
341.78850,7.64892531
341.78900,7.954119718
341.78950,8.869702941
341.79000,9.480091757
341.79050,7.64892531
341.79100,3.68139801
341.79150,0.3242595256
341.79200,-0.8965181052
341.79250,-1.506906921
341.79300,-1.201712513
341.79350,-1.201712513
341.79400,-2.727684551
341.79450,-7.000406259
341.79500,-10.66273915
341.79550,-8.831572705
341.79600,-3.338073367
341.79650,0.01906511792
341.79700,-1.201712513
341.79750,-2.727684551
341.79800,-0.5913236975
341.79850,2.765814787
341.79900,3.986592418
341.79950,2.46062038
341.80000,0.6294539333
341.80050,0.01906511792
341.80100,0.01906511792
341.80150,1.850231564
341.80200,4.902175641
341.80250,5.207370049
341.80300,0.3242595256
341.80350,-5.474434221
341.80400,-6.390017444
341.80450,-2.117295736
341.80500,1.239842749
341.80550,0.6294539333
341.80600,-2.422490144
341.80650,-5.474434221
341.80700,-7.915989482
341.80750,-8.831572705
341.80800,-6.695211852
341.80850,-0.5913236975
341.80900,4.902175641
341.80950,5.817758864
341.81000,1.850231564
341.81050,-2.727684551
341.81100,-4.864045405
341.81150,-3.948462182
341.81200,-1.201712513
341.81250,0.3242595256
341.81300,-0.2861292898
341.81350,-3.338073367
341.81400,-4.558850998
341.81450,-2.117295736
341.81500,0.01906511792
341.81550,-1.201712513
341.81600,-4.558850998
341.81650,-4.558850998
341.81700,-1.201712513
341.81750,-0.2861292898
341.81800,-3.338073367
341.81850,-5.779628628
341.81900,-1.812101328
341.81950,4.291786826
341.82000,5.207370049
341.82050,0.01906511792
341.82100,-3.948462182
341.82150,-1.812101328
341.82200,3.071009195
341.82250,5.207370049
341.82300,2.765814787
341.82350,0.01906511792
341.82400,0.01906511792
341.82450,2.155425972
341.82500,3.376203603
341.82550,2.46062038
341.82600,0.934648341
341.82650,1.850231564
341.82700,4.596981233
341.82750,5.817758864
341.82800,4.291786826
341.82850,2.155425972
341.82900,1.850231564
341.82950,1.850231564
341.83000,0.3242595256
341.83050,0.01906511792
341.83100,2.765814787
341.83150,6.733342087
341.83200,6.122953272
341.83250,0.6294539333
341.83300,-3.948462182
341.83350,-3.948462182
341.83400,-2.117295736
341.83450,-2.727684551
341.83500,-4.558850998
341.83550,-4.864045405
341.83600,-3.643267774
341.83650,-3.032878959
341.83700,-3.643267774
341.83750,-3.032878959
341.83800,-1.506906921
341.83850,-1.812101328
341.83900,-4.558850998
341.83950,-7.915989482
341.84000,-9.136767113
341.84050,-8.831572705
341.84100,-6.695211852
341.84150,-3.032878959
341.84200,0.6294539333
341.84250,1.850231564
341.84300,0.01906511792
341.84350,-2.422490144
341.84400,-3.948462182
341.84450,-3.643267774
341.84500,-2.422490144
341.84550,-1.506906921
341.84600,0.01906511792
341.84650,2.46062038
341.84700,4.596981233
341.84750,4.902175641
341.84800,2.765814787
341.84850,-0.2861292898
341.84900,-2.422490144
341.84950,-2.422490144
341.85000,-1.201712513
341.85050,-0.2861292898
341.85100,0.01906511792
341.85150,0.6294539333
341.85200,0.6294539333
341.85250,-1.201712513
341.85300,-3.948462182
341.85350,-4.864045405
341.85400,-3.032878959
341.85450,0.3242595256
341.85500,3.986592418
341.85550,6.122953272
341.85600,5.512564457
341.85650,3.071009195
341.85700,1.545037156
341.85750,3.071009195
341.85800,5.512564457
341.85850,5.512564457
341.85900,3.376203603
341.85950,1.239842749
341.86000,0.3242595256
341.86050,0.6294539333
341.86100,2.155425972
341.86150,4.596981233
341.86200,5.817758864
341.86250,3.986592418
341.86300,1.239842749
341.86350,0.6294539333
341.86400,2.155425972
341.86450,3.376203603
341.86500,3.376203603
341.86550,3.071009195
341.86600,3.071009195
341.86650,1.239842749
341.86700,-0.2861292898
341.86750,-0.2861292898
341.86800,1.850231564
341.86850,3.376203603
341.86900,1.850231564
341.86950,0.01906511792
341.87000,-0.2861292898
341.87050,0.3242595256
341.87100,1.239842749
341.87150,1.545037156
341.87200,2.46062038
341.87250,4.291786826
341.87300,5.512564457
341.87350,4.291786826
341.87400,2.765814787
341.87450,3.071009195
341.87500,4.596981233
341.87550,3.986592418
341.87600,0.01906511792
341.87650,-1.812101328
341.87700,1.545037156
341.87750,7.64892531
341.87800,8.259314126
341.87850,2.765814787
341.87900,-0.5913236975
341.87950,0.6294539333
341.88000,4.291786826
341.88050,5.207370049
341.88100,4.596981233
341.88150,5.512564457
341.88200,6.42814768
341.88250,4.291786826
341.88300,0.3242595256
341.88350,-1.506906921
341.88400,-2.117295736
341.88450,-2.422490144
341.88500,-3.338073367
341.88550,-4.25365659
341.88600,-4.864045405
341.88650,-5.779628628
341.88700,-6.390017444
341.88750,-6.390017444
341.88800,-6.695211852
341.88850,-7.610795075
341.88900,-8.22118389
341.88950,-7.915989482
341.89000,-8.526378298
341.89050,-10.66273915
341.89100,-12.4939056
341.89150,-12.79910001
341.89200,-10.96793356
341.89250,-8.526378298
341.89300,-6.084823036
341.89350,-2.727684551
341.89400,1.850231564
341.89450,7.64892531
341.89500,10.70086939
341.89550,9.174897349
341.89600,5.512564457
341.89650,3.071009195
341.89700,2.765814787
341.89750,0.934648341
341.89800,-3.338073367
341.89850,-7.305600667
341.89900,-7.915989482
341.89950,-8.22118389
341.90000,-9.747155929
341.90050,-10.05235034
341.90100,-5.779628628
341.90150,0.01906511792
341.90200,2.155425972
341.90250,1.239842749
341.90300,0.934648341
341.90350,2.46062038
341.90400,2.46062038
341.90450,0.934648341
341.90500,1.239842749
341.90550,3.986592418
341.90600,6.42814768
341.90650,4.902175641
341.90700,1.545037156
341.90750,-0.5913236975
341.90800,-0.8965181052
341.90850,-0.2861292898
341.90900,-0.2861292898
341.90950,-1.506906921
341.91000,-2.117295736
341.91050,-0.8965181052
341.91100,1.239842749
341.91150,1.850231564
341.91200,0.01906511792
341.91250,-1.812101328
341.91300,-2.727684551
341.91350,-2.422490144
341.91400,-2.727684551
341.91450,-3.032878959
341.91500,-2.727684551
341.91550,-3.338073367
341.91600,-5.169239813
341.91650,-6.390017444
341.91700,-6.084823036
341.91750,-5.169239813
341.91800,-4.558850998
341.91850,-2.422490144
341.91900,1.239842749
341.91950,3.986592418
341.92000,2.155425972
341.92050,-1.812101328
341.92100,-4.558850998
341.92150,-4.558850998
341.92200,-3.338073367
341.92250,-2.727684551
341.92300,-2.422490144
341.92350,-1.506906921
341.92400,0.01906511792
341.92450,2.765814787
341.92500,4.902175641
341.92550,5.207370049
341.92600,4.902175641
341.92650,5.817758864
341.92700,7.64892531
341.92750,8.259314126
341.92800,5.817758864
341.92850,4.291786826
341.92900,6.122953272
341.92950,9.480091757
341.93000,11.3112582
341.93050,11.61645261
341.93100,12.22684143
341.93150,13.14242465
341.93200,11.0060638
341.93250,6.122953272
341.93300,1.850231564
341.93350,-0.2861292898
341.93400,-3.032878959
341.93450,-7.305600667
341.93500,-9.441961521
341.93550,-7.305600667
341.93600,-2.727684551
341.93650,0.01906511792
341.93700,0.6294539333
341.93750,0.6294539333
341.93800,0.934648341
341.93850,0.3242595256
341.93900,-1.812101328
341.93950,-3.643267774
341.94000,-3.032878959
341.94050,-0.8965181052
341.94100,0.6294539333
341.94150,0.3242595256
341.94200,-0.8965181052
341.94250,-1.812101328
341.94300,-1.201712513
341.94350,0.01906511792
341.94400,0.3242595256
341.94450,0.01906511792
341.94500,-0.2861292898
341.94550,-0.8965181052
341.94600,-1.812101328
341.94650,-3.032878959
341.94700,-1.812101328
341.94750,2.155425972
341.94800,6.42814768
341.94850,6.42814768
341.94900,2.765814787
341.94950,0.01906511792
341.95000,0.01906511792
341.95050,0.934648341
341.95100,0.01906511792
341.95150,-3.338073367
341.95200,-5.169239813
341.95250,-4.558850998
341.95300,-3.643267774
341.95350,-3.948462182
341.95400,-4.864045405
341.95450,-4.864045405
341.95500,-2.117295736
341.95550,0.934648341
341.95600,3.376203603
341.95650,3.071009195
341.95700,0.3242595256
341.95750,-3.032878959
341.95800,-4.558850998
341.95850,-3.338073367
341.95900,0.6294539333
341.95950,5.817758864
341.96000,8.869702941
341.96050,7.038536495
341.96100,2.765814787
341.96150,0.3242595256
341.96200,0.6294539333
341.96250,1.239842749
341.96300,0.01906511792
341.96350,-0.8965181052
341.96400,-0.8965181052
341.96450,-0.5913236975
341.96500,-0.5913236975
341.96550,-0.5913236975
341.96600,-0.5913236975
341.96650,-1.506906921
341.96700,-4.25365659
341.96750,-6.084823036
341.96800,-4.25365659
341.96850,-0.5913236975
341.96900,1.239842749
341.96950,1.239842749
341.97000,1.239842749
341.97050,1.545037156
341.97100,2.155425972
341.97150,0.934648341
341.97200,-0.8965181052
341.97250,-2.422490144
341.97300,-2.422490144
341.97350,0.01906511792
341.97400,2.765814787
341.97450,3.376203603
341.97500,1.545037156
341.97550,0.01906511792
341.97600,0.01906511792
341.97650,0.3242595256
341.97700,-0.8965181052
341.97750,-2.422490144
341.97800,-1.506906921
341.97850,0.3242595256
341.97900,0.3242595256
341.97950,-2.422490144
341.98000,-4.558850998
341.98050,-3.643267774
341.98100,-2.117295736
341.98150,-2.727684551
341.98200,-4.558850998
341.98250,-4.558850998
341.98300,-2.117295736
341.98350,0.01906511792
341.98400,0.934648341
341.98450,2.155425972
341.98500,4.291786826
341.98550,6.122953272
341.98600,5.817758864
341.98650,4.596981233
341.98700,6.122953272
341.98750,11.3112582
341.98800,17.10995195
341.98850,16.80475754
341.98900,10.70086939
341.98950,4.902175641
341.99000,3.376203603
341.99050,3.376203603
341.99100,0.934648341
341.99150,-2.422490144
341.99200,-1.506906921
341.99250,3.071009195
341.99300,6.42814768
341.99350,4.902175641
341.99400,1.239842749
341.99450,0.01906511792
341.99500,0.3242595256
341.99550,0.01906511792
341.99600,-0.2861292898
341.99650,0.01906511792
341.99700,0.6294539333
341.99750,0.01906511792
341.99800,-2.727684551
341.99850,-4.25365659
341.99900,-3.338073367
341.99950,-2.117295736
342.00000,-2.727684551
342.00050,-3.948462182
342.00100,-4.558850998
342.00150,-4.558850998
342.00200,-4.558850998
342.00250,-4.25365659
342.00300,-2.727684551
342.00350,-2.727684551
342.00400,-5.169239813
342.00450,-8.526378298
342.00500,-8.831572705
342.00550,-5.779628628
342.00600,-3.338073367
342.00650,-4.25365659
342.00700,-6.084823036
342.00750,-5.779628628
342.00800,-2.727684551
342.00850,-0.2861292898
342.00900,0.01906511792
342.00950,-0.2861292898
342.01000,0.01906511792
342.01050,0.934648341
342.01100,2.765814787
342.01150,4.291786826
342.01200,5.207370049
342.01250,4.596981233
342.01300,1.850231564
342.01350,-1.201712513
342.01400,-4.25365659
342.01450,-6.695211852
342.01500,-7.305600667
342.01550,-5.169239813
342.01600,-0.8965181052
342.01650,2.155425972
342.01700,2.46062038
342.01750,0.934648341
342.01800,0.01906511792
342.01850,-0.5913236975
342.01900,-1.812101328
342.01950,-4.25365659
342.02000,-5.779628628
342.02050,-5.779628628
342.02100,-3.948462182
342.02150,-1.812101328
342.02200,-1.506906921
342.02250,-3.338073367
342.02300,-5.169239813
342.02350,-3.338073367
342.02400,1.239842749
342.02450,6.122953272
342.02500,7.343730903
342.02550,6.122953272
342.02600,6.122953272
342.02650,6.733342087
342.02700,4.596981233
342.02750,0.3242595256
342.02800,-2.422490144
342.02850,-3.032878959
342.02900,-3.338073367
342.02950,-4.558850998
342.03000,-4.864045405
342.03050,-2.727684551
342.03100,0.01906511792
342.03150,0.3242595256
342.03200,0.01906511792
342.03250,0.01906511792
342.03300,0.01906511792
342.03350,-0.5913236975
342.03400,-1.812101328
342.03450,-2.727684551
342.03500,-3.338073367
342.03550,-3.643267774
342.03600,-2.727684551
342.03650,-0.2861292898
342.03700,0.6294539333
342.03750,0.01906511792
342.03800,0.01906511792
342.03850,0.934648341
342.03900,0.6294539333
342.03950,-2.117295736
342.04000,-4.25365659
342.04050,-1.201712513
342.04100,4.902175641
342.04150,8.564508534
342.04200,7.038536495
342.04250,4.291786826
342.04300,4.291786826
342.04350,6.733342087
342.04400,8.869702941
342.04450,9.174897349
342.04500,8.259314126
342.04550,7.343730903
342.04600,6.733342087
342.04650,6.733342087
342.04700,5.512564457
342.04750,3.68139801
342.04800,1.850231564
342.04850,1.239842749
342.04900,0.3242595256
342.04950,-1.506906921
342.05000,-3.338073367
342.05050,-3.032878959
342.05100,-1.506906921
342.05150,-1.201712513
342.05200,-2.727684551
342.05250,-3.948462182
342.05300,-4.864045405
342.05350,-5.779628628
342.05400,-6.390017444
342.05450,-7.915989482
342.05500,-9.441961521
342.05550,-9.136767113
342.05600,-3.948462182
342.05650,3.68139801
342.05700,6.122953272
342.05750,0.01906511792
342.05800,-9.747155929
342.05850,-15.54584967
342.05900,-16.15623849
342.05950,-15.54584967
342.06000,-13.10429441
342.06050,-5.474434221
342.06100,4.291786826
342.06150,9.174897349
342.06200,6.122953272
342.06250,2.155425972
342.06300,4.902175641
342.06350,12.83723024
342.06400,18.9411184
342.06450,17.72034076
342.06500,11.3112582
342.06550,6.733342087
342.06600,7.954119718
342.06650,11.0060638
342.06700,10.09048057
342.06750,4.291786826
342.06800,-1.506906921
342.06850,-3.338073367
342.06900,-3.032878959
342.06950,-4.25365659
342.07000,-7.000406259
342.07050,-7.610795075
342.07100,-5.474434221
342.07150,-2.117295736
342.07200,0.01906511792
342.07250,0.934648341
342.07300,0.6294539333
342.07350,-0.5913236975
342.07400,-3.338073367
342.07450,-4.864045405
342.07500,-4.25365659
342.07550,-2.117295736
342.07600,-0.8965181052
342.07650,-2.422490144
342.07700,-3.643267774
342.07750,-0.2861292898
342.07800,7.343730903
342.07850,13.75281346
342.07900,13.75281346
342.07950,8.869702941
342.08000,4.902175641
342.08050,4.291786826
342.08100,3.376203603
342.08150,1.239842749
342.08200,0.01906511792
342.08250,0.6294539333
342.08300,1.850231564
342.08350,1.239842749
342.08400,0.01906511792
342.08450,0.01906511792
342.08500,0.01906511792
342.08550,-0.2861292898
342.08600,-1.506906921
342.08650,-1.812101328
342.08700,-0.8965181052
342.08750,0.6294539333
342.08800,2.46062038
342.08850,3.986592418
342.08900,3.986592418
342.08950,2.46062038
342.09000,0.934648341
342.09050,0.6294539333
342.09100,0.6294539333
342.09150,0.3242595256
342.09200,0.01906511792
342.09250,-1.201712513
342.09300,-2.727684551
342.09350,-3.948462182
342.09400,-4.558850998
342.09450,-4.25365659
342.09500,-3.643267774
342.09550,-3.338073367
342.09600,-3.338073367
342.09650,-3.338073367
342.09700,-3.643267774
342.09750,-3.643267774
342.09800,-2.117295736
342.09850,1.239842749
342.09900,5.817758864
342.09950,8.869702941
342.10000,8.564508534
342.10050,5.207370049
342.10100,0.6294539333
342.10150,-2.422490144
342.10200,-3.032878959
342.10250,-1.506906921
342.10300,-1.201712513
342.10350,-2.422490144
342.10400,-3.032878959
342.10450,-0.5913236975
342.10500,2.765814787
342.10550,3.376203603
342.10600,1.239842749
342.10650,-0.2861292898
342.10700,0.01906511792
342.10750,0.01906511792
342.10800,-2.727684551
342.10850,-4.558850998
342.10900,-1.201712513
342.10950,5.207370049
342.11000,9.174897349
342.11050,7.038536495
342.11100,2.46062038
342.11150,0.01906511792
342.11200,1.545037156
342.11250,3.376203603
342.11300,3.986592418
342.11350,4.291786826
342.11400,5.512564457
342.11450,6.733342087
342.11500,6.733342087
342.11550,4.902175641
342.11600,3.986592418
342.11650,3.986592418
342.11700,2.765814787
342.11750,-0.2861292898
342.11800,-3.643267774
342.11850,-3.948462182
342.11900,-1.506906921
342.11950,-0.8965181052
342.12000,-3.032878959
342.12050,-6.084823036
342.12100,-6.695211852
342.12150,-6.390017444
342.12200,-7.305600667
342.12250,-8.526378298
342.12300,-7.305600667
342.12350,-3.643267774
342.12400,-1.506906921
342.12450,-2.117295736
342.12500,-3.338073367
342.12550,-2.422490144
342.12600,0.01906511792
342.12650,2.155425972
342.12700,1.850231564
342.12750,0.934648341
342.12800,0.6294539333
342.12850,1.239842749
342.12900,0.934648341
342.12950,0.01906511792
342.13000,0.01906511792
342.13050,0.6294539333
342.13100,1.239842749
342.13150,0.01906511792
342.13200,-0.5913236975
342.13250,-0.2861292898
342.13300,0.3242595256
342.13350,0.01906511792
342.13400,-0.8965181052
342.13450,-1.201712513
342.13500,-1.201712513
342.13550,-2.422490144
342.13600,-3.948462182
342.13650,-4.864045405
342.13700,-4.864045405
342.13750,-4.864045405
342.13800,-5.779628628
342.13850,-6.084823036
342.13900,-4.864045405
342.13950,-3.643267774
342.14000,-2.422490144
342.14050,-2.422490144
342.14100,-3.032878959
342.14150,-3.643267774
342.14200,-2.727684551
342.14250,-0.2861292898
342.14300,0.3242595256
342.14350,-2.422490144
342.14400,-7.000406259
342.14450,-9.136767113
342.14500,-7.000406259
342.14550,-4.25365659
342.14600,-3.643267774
342.14650,-5.474434221
342.14700,-6.695211852
342.14750,-6.084823036
342.14800,-3.032878959
342.14850,0.01906511792
342.14900,1.850231564
342.14950,0.6294539333
342.15000,-1.506906921
342.15050,-2.422490144
342.15100,-2.422490144
342.15150,-2.727684551
342.15200,-2.727684551
342.15250,-1.506906921
342.15300,0.01906511792
342.15350,-1.201712513
342.15400,-4.558850998
342.15450,-4.25365659
342.15500,0.6294539333
342.15550,5.512564457
342.15600,5.207370049
342.15650,1.545037156
342.15700,-0.8965181052
342.15750,-3.032878959
342.15800,-5.474434221
342.15850,-6.695211852
342.15900,-4.25365659
342.15950,-0.2861292898
342.16000,1.239842749
342.16050,0.3242595256
342.16100,-0.2861292898
342.16150,0.934648341
342.16200,3.376203603
342.16250,5.817758864
342.16300,8.564508534
342.16350,10.39567498
342.16400,10.09048057
342.16450,8.869702941
342.16500,8.259314126
342.16550,7.954119718
342.16600,6.733342087
342.16650,4.596981233
342.16700,3.376203603
342.16750,2.46062038
342.16800,1.545037156
342.16850,1.239842749
342.16900,2.765814787
342.16950,4.902175641
342.17000,5.207370049
342.17050,3.376203603
342.17100,1.545037156
342.17150,0.934648341
342.17200,0.934648341
342.17250,1.239842749
342.17300,1.239842749
342.17350,0.934648341
342.17400,0.01906511792
342.17450,-0.2861292898
342.17500,0.934648341
342.17550,1.239842749
342.17600,-0.2861292898
342.17650,-2.117295736
342.17700,0.01906511792
342.17750,4.291786826
342.17800,6.42814768
342.17850,5.512564457
342.17900,4.291786826
342.17950,5.207370049
342.18000,6.122953272
342.18050,5.512564457
342.18100,4.902175641
342.18150,4.902175641
342.18200,4.291786826
342.18250,2.155425972
342.18300,0.3242595256
342.18350,0.6294539333
342.18400,1.850231564
342.18450,1.239842749
342.18500,-0.5913236975
342.18550,-3.032878959
342.18600,-5.474434221
342.18650,-7.610795075
342.18700,-8.526378298
342.18750,-6.084823036
342.18800,-2.422490144
342.18850,-0.8965181052
342.18900,-1.201712513
342.18950,0.01906511792
342.19000,3.376203603
342.19050,5.207370049
342.19100,3.68139801
342.19150,3.071009195
342.19200,5.512564457
342.19250,7.64892531
342.19300,3.68139801
342.19350,-3.948462182
342.19400,-8.526378298
342.19450,-8.526378298
342.19500,-8.526378298
342.19550,-9.747155929
342.19600,-8.831572705
342.19650,-4.864045405
342.19700,-1.812101328
342.19750,-3.032878959
342.19800,-4.558850998
342.19850,-3.948462182
342.19900,-3.032878959
342.19950,-4.25365659
342.20000,-4.864045405
342.20050,-0.5913236975
342.20100,6.122953272
342.20150,10.09048057
342.20200,9.785286164
342.20250,7.343730903
342.20300,4.902175641
342.20350,3.376203603
342.20400,3.376203603
342.20450,3.68139801
342.20500,2.46062038
342.20550,0.3242595256
342.20600,-0.2861292898
342.20650,-0.8965181052
342.20700,-2.422490144
342.20750,-4.25365659
342.20800,-3.338073367
342.20850,-0.8965181052
342.20900,-1.812101328
342.20950,-6.084823036
342.21000,-7.305600667
342.21050,-3.338073367
342.21100,0.01906511792
342.21150,-1.812101328
342.21200,-3.948462182
342.21250,-1.506906921
342.21300,1.239842749
342.21350,0.3242595256
342.21400,-0.8965181052
342.21450,2.155425972
342.21500,6.42814768
342.21550,4.902175641
342.21600,-0.8965181052
342.21650,-4.558850998
342.21700,-3.032878959
342.21750,-0.5913236975
342.21800,-0.2861292898
342.21850,-0.2861292898
342.21900,-0.2861292898
342.21950,-1.506906921
342.22000,-3.948462182
342.22050,-4.558850998
342.22100,-2.727684551
342.22150,-1.506906921
342.22200,-1.506906921
342.22250,-1.201712513
342.22300,0.01906511792
342.22350,0.934648341
342.22400,0.6294539333
342.22450,1.239842749
342.22500,4.291786826
342.22550,7.64892531
342.22600,9.174897349
342.22650,8.564508534
342.22700,6.42814768
342.22750,4.596981233
342.22800,4.596981233
342.22850,5.817758864
342.22900,6.42814768
342.22950,5.207370049
342.23000,3.68139801
342.23050,2.765814787
342.23100,0.934648341
342.23150,-1.812101328
342.23200,-3.338073367
342.23250,-1.506906921
342.23300,0.6294539333
342.23350,0.01906511792
342.23400,-3.032878959
342.23450,-2.727684551
342.23500,0.01906511792
342.23550,2.46062038
342.23600,1.545037156
342.23650,0.01906511792
342.23700,-0.2861292898
342.23750,-0.5913236975
342.23800,-0.5913236975
342.23850,0.01906511792
342.23900,2.155425972
342.23950,2.765814787
342.24000,0.01906511792
342.24050,-3.643267774
342.24100,-4.864045405
342.24150,-3.643267774
342.24200,-2.117295736
342.24250,-2.117295736
342.24300,-2.422490144
342.24350,-0.8965181052
342.24400,0.934648341
342.24450,1.850231564
342.24500,1.545037156
342.24550,1.239842749
342.24600,2.46062038
342.24650,4.902175641
342.24700,5.817758864
342.24750,4.596981233
342.24800,2.765814787
342.24850,2.46062038
342.24900,2.765814787
342.24950,1.545037156
342.25000,0.01906511792
342.25050,0.01906511792
342.25100,0.6294539333
342.25150,-0.2861292898
342.25200,-5.474434221
342.25250,-10.96793356
342.25300,-13.40948882
342.25350,-13.40948882
342.25400,-14.01987764
342.25450,-14.63026645
342.25500,-11.88351678
342.25550,-4.864045405
342.25600,1.545037156
342.25650,3.986592418
342.25700,3.071009195
342.25750,2.155425972
342.25800,1.545037156
342.25850,0.934648341
342.25900,1.239842749
342.25950,2.765814787
342.26000,4.291786826
342.26050,3.68139801
342.26100,1.850231564
342.26150,1.239842749
342.26200,1.545037156
342.26250,1.850231564
342.26300,2.765814787
342.26350,4.291786826
342.26400,5.817758864
342.26450,5.207370049
342.26500,3.986592418
342.26550,3.986592418
342.26600,4.291786826
342.26650,3.071009195
342.26700,0.3242595256
342.26750,-0.5913236975
342.26800,-0.8965181052
342.26850,-1.812101328
342.26900,-3.032878959
342.26950,-2.422490144
342.27000,-0.8965181052
342.27050,-1.201712513
342.27100,-1.812101328
342.27150,1.239842749
342.27200,7.343730903
342.27250,9.174897349
342.27300,4.291786826
342.27350,0.01906511792
342.27400,1.545037156
342.27450,5.512564457
342.27500,4.291786826
342.27550,-1.506906921
342.27600,-6.084823036
342.27650,-5.474434221
342.27700,-3.338073367
342.27750,-3.338073367
342.27800,-5.779628628
342.27850,-7.000406259
342.27900,-7.000406259
342.27950,-5.779628628
342.28000,-4.25365659
342.28050,-1.506906921
342.28100,2.46062038
342.28150,6.42814768
342.28200,7.954119718
342.28250,7.954119718
342.28300,7.038536495
342.28350,6.733342087
342.28400,5.817758864
342.28450,3.986592418
342.28500,2.765814787
342.28550,3.68139801
342.28600,4.291786826
342.28650,3.68139801
342.28700,2.155425972
342.28750,2.46062038
342.28800,2.765814787
342.28850,0.934648341
342.28900,-3.032878959
342.28950,-7.000406259
342.29000,-7.305600667
342.29050,-6.084823036
342.29100,-5.169239813
342.29150,-4.558850998
342.29200,-4.25365659
342.29250,-4.25365659
342.29300,-4.558850998
342.29350,-5.169239813
342.29400,-5.474434221
342.29450,-4.864045405
342.29500,-4.558850998
342.29550,-4.864045405
342.29600,-5.474434221
342.29650,-4.25365659
342.29700,0.01906511792
342.29750,3.986592418
342.29800,4.902175641
342.29850,1.545037156
342.29900,-1.812101328
342.29950,-3.032878959
342.30000,-2.117295736
342.30050,-2.117295736
342.30100,-2.117295736
342.30150,-0.5913236975
342.30200,1.239842749
342.30250,1.545037156
342.30300,-0.5913236975
342.30350,-2.727684551
342.30400,-2.422490144
342.30450,0.01906511792
342.30500,1.850231564
342.30550,0.934648341
342.30600,-0.8965181052
342.30650,-1.506906921
342.30700,-0.5913236975
342.30750,0.01906511792
342.30800,-1.201712513
342.30850,-3.032878959
342.30900,-3.643267774
342.30950,-2.422490144
342.31000,-0.8965181052
342.31050,0.01906511792
342.31100,0.3242595256
342.31150,-0.2861292898
342.31200,-2.422490144
342.31250,-2.727684551
342.31300,-0.2861292898
342.31350,3.071009195
342.31400,4.596981233
342.31450,4.596981233
342.31500,4.902175641
342.31550,5.207370049
342.31600,2.46062038
342.31650,-2.117295736
342.31700,-4.558850998
342.31750,-3.032878959
342.31800,-0.8965181052
342.31850,-0.2861292898
342.31900,0.01906511792
342.31950,0.934648341
342.32000,0.01906511792
342.32050,-4.25365659
342.32100,-7.305600667
342.32150,-4.864045405
342.32200,-1.506906921
342.32250,-3.338073367
342.32300,-7.915989482
342.32350,-9.136767113
342.32400,-6.084823036
342.32450,-3.948462182
342.32500,-4.558850998
342.32550,-4.25365659
342.32600,0.01906511792
342.32650,6.42814768
342.32700,11.0060638
342.32750,12.53203583
342.32800,11.61645261
342.32850,8.259314126
342.32900,4.902175641
342.32950,4.596981233
342.33000,7.038536495
342.33050,6.42814768
342.33100,1.850231564
342.33150,-2.727684551
342.33200,-4.25365659
342.33250,-2.727684551
342.33300,-0.8965181052
342.33350,0.934648341
342.33400,3.68139801
342.33450,5.512564457
342.33500,4.291786826
342.33550,2.155425972
342.33600,1.545037156
342.33650,2.155425972
342.33700,1.850231564
342.33750,0.01906511792
342.33800,-0.8965181052
342.33850,-0.2861292898
342.33900,0.934648341
342.33950,2.155425972
342.34000,3.68139801
342.34050,5.207370049
342.34100,7.038536495
342.34150,7.64892531
342.34200,6.122953272
342.34250,2.765814787
342.34300,-0.8965181052
342.34350,-2.422490144
342.34400,-1.201712513
342.34450,0.6294539333
342.34500,1.545037156
342.34550,0.934648341
342.34600,0.6294539333
342.34650,0.6294539333
342.34700,0.01906511792
342.34750,-0.5913236975
342.34800,-1.506906921
342.34850,-0.8965181052
342.34900,0.01906511792
342.34950,-0.2861292898
342.35000,-2.117295736
342.35050,-3.948462182
342.35100,-4.864045405
342.35150,-5.779628628
342.35200,-7.915989482
342.35250,-9.747155929
342.35300,-8.831572705
342.35350,-5.474434221
342.35400,-1.812101328
342.35450,-0.5913236975
342.35500,-1.201712513
342.35550,-2.727684551
342.35600,-4.864045405
342.35650,-6.084823036
342.35700,-5.474434221
342.35750,-3.948462182
342.35800,-4.25365659
342.35850,-6.084823036
342.35900,-7.305600667
342.35950,-6.695211852
342.36000,-5.169239813
342.36050,-2.727684551
342.36100,0.6294539333
342.36150,4.291786826
342.36200,5.512564457
342.36250,3.68139801
342.36300,2.155425972
342.36350,3.376203603
342.36400,5.817758864
342.36450,7.343730903
342.36500,6.42814768
342.36550,4.596981233
342.36600,2.155425972
342.36650,0.01906511792
342.36700,-1.812101328
342.36750,-2.117295736
342.36800,-1.201712513
342.36850,0.01906511792
342.36900,1.239842749
342.36950,3.071009195
342.37000,3.68139801
342.37050,2.155425972
342.37100,0.01906511792
342.37150,-0.5913236975
342.37200,1.545037156
342.37250,3.986592418
342.37300,3.68139801
342.37350,1.239842749
342.37400,0.3242595256
342.37450,4.902175641
342.37500,11.61645261
342.37550,13.75281346
342.37600,10.39567498
342.37650,6.42814768
342.37700,6.733342087
342.37750,7.954119718
342.37800,5.817758864
342.37850,3.986592418
342.37900,7.343730903
342.37950,12.83723024
342.38000,12.22684143
342.38050,3.986592418
342.38100,-3.948462182
342.38150,-6.695211852
342.38200,-6.084823036
342.38250,-5.779628628
342.38300,-5.474434221
342.38350,-3.643267774
342.38400,-2.117295736
342.38450,-1.506906921
342.38500,-1.506906921
342.38550,-0.8965181052
342.38600,-1.506906921
342.38650,-3.643267774
342.38700,-4.25365659
342.38750,-1.201712513
342.38800,2.155425972
342.38850,2.155425972
342.38900,0.01906511792
342.38950,-0.5913236975
342.39000,-0.2861292898
342.39050,-0.8965181052
342.39100,-2.422490144
342.39150,-3.032878959
342.39200,-2.422490144
342.39250,-2.422490144
342.39300,-3.338073367
342.39350,-4.25365659
342.39400,-3.948462182
342.39450,-4.25365659
342.39500,-5.169239813
342.39550,-6.084823036
342.39600,-5.779628628
342.39650,-5.474434221
342.39700,-6.390017444
342.39750,-6.695211852
342.39800,-4.558850998
342.39850,-0.5913236975
342.39900,1.545037156
342.39950,0.3242595256
342.40000,-2.422490144
342.40050,-3.948462182
342.40100,-3.032878959
342.40150,-1.812101328
342.40200,-0.8965181052
342.40250,-0.2861292898
342.40300,1.239842749
342.40350,2.155425972
342.40400,1.545037156
342.40450,0.01906511792
342.40500,-0.2861292898
342.40550,0.01906511792
342.40600,0.3242595256
342.40650,0.3242595256
342.40700,0.934648341
342.40750,1.545037156
342.40800,1.850231564
342.40850,3.071009195
342.40900,5.207370049
342.40950,5.207370049
342.41000,2.155425972
342.41050,-0.5913236975
342.41100,0.3242595256
342.41150,3.68139801
342.41200,2.765814787
342.41250,-1.812101328
342.41300,-4.558850998
342.41350,-2.422490144
342.41400,0.01906511792
342.41450,-1.506906921
342.41500,-3.643267774
342.41550,-1.812101328
342.41600,1.850231564
342.41650,2.46062038
342.41700,0.6294539333
342.41750,0.3242595256
342.41800,2.46062038
342.41850,3.68139801
342.41900,2.765814787
342.41950,1.850231564
342.42000,1.545037156
342.42050,1.239842749
342.42100,0.6294539333
342.42150,0.6294539333
342.42200,0.6294539333
342.42250,0.01906511792
342.42300,0.01906511792
342.42350,2.765814787
342.42400,6.122953272
342.42450,7.343730903
342.42500,6.42814768
342.42550,6.122953272
342.42600,5.512564457
342.42650,1.545037156
342.42700,-4.25365659
342.42750,-7.610795075
342.42800,-5.779628628
342.42850,-3.338073367
342.42900,-3.338073367
342.42950,-4.25365659
342.43000,-3.338073367
342.43050,-1.812101328
342.43100,-1.506906921
342.43150,-0.8965181052
342.43200,0.6294539333
342.43250,0.01906511792
342.43300,-4.864045405
342.43350,-9.441961521
342.43400,-8.22118389
342.43450,-3.032878959
342.43500,0.01906511792
342.43550,0.01906511792
342.43600,-0.2861292898
342.43650,1.545037156
342.43700,3.376203603
342.43750,2.155425972
342.43800,-0.2861292898
342.43850,-2.117295736
342.43900,-2.727684551
342.43950,-4.558850998
342.44000,-7.000406259
342.44050,-7.915989482
342.44100,-6.390017444
342.44150,-3.948462182
342.44200,-2.727684551
342.44250,-3.338073367
342.44300,-3.643267774
342.44350,-2.117295736
342.44400,0.3242595256
342.44450,3.68139801
342.44500,8.564508534
342.44550,13.75281346
342.44600,15.58397991
342.44650,11.92164702
342.44700,6.42814768
342.44750,4.596981233
342.44800,7.64892531
342.44850,9.785286164
342.44900,7.343730903
342.44950,1.850231564
342.45000,-1.812101328
342.45050,-3.643267774
342.45100,-5.169239813
342.45150,-7.000406259
342.45200,-7.305600667
342.45250,-5.474434221
342.45300,-3.643267774
342.45350,-3.643267774
342.45400,-4.558850998
342.45450,-3.948462182
342.45500,-1.506906921
342.45550,0.01906511792
342.45600,0.01906511792
342.45650,-1.506906921
342.45700,-2.117295736
342.45750,-1.506906921
342.45800,-0.8965181052
342.45850,-0.5913236975
342.45900,-0.8965181052
342.45950,-0.2861292898
342.46000,1.239842749
342.46050,4.596981233
342.46100,8.259314126
342.46150,9.480091757
342.46200,7.954119718
342.46250,4.596981233
342.46300,1.850231564
342.46350,0.3242595256
342.46400,-0.5913236975
342.46450,-1.812101328
342.46500,-1.506906921
342.46550,0.3242595256
342.46600,3.071009195
342.46650,5.512564457
342.46700,6.42814768
342.46750,4.291786826
342.46800,0.3242595256
342.46850,-3.032878959
342.46900,-4.25365659
342.46950,-2.727684551
342.47000,-1.201712513
342.47050,-0.8965181052
342.47100,-1.506906921
342.47150,-2.117295736
342.47200,-2.727684551
342.47250,-4.558850998
342.47300,-5.779628628
342.47350,-4.25365659
342.47400,0.934648341
342.47450,7.038536495
342.47500,9.785286164
342.47550,8.564508534
342.47600,6.122953272
342.47650,3.68139801
342.47700,0.934648341
342.47750,-1.812101328
342.47800,-3.643267774
342.47850,-3.948462182
342.47900,-4.558850998
342.47950,-6.390017444
342.48000,-7.000406259
342.48050,-4.864045405
342.48100,-2.727684551
342.48150,-3.032878959
342.48200,-4.864045405
342.48250,-3.948462182
342.48300,-0.2861292898
342.48350,1.850231564
342.48400,0.6294539333
342.48450,-2.117295736
342.48500,-4.25365659
342.48550,-4.558850998
342.48600,-3.948462182
342.48650,-2.422490144
342.48700,-0.8965181052
342.48750,0.01906511792
342.48800,0.6294539333
342.48850,1.850231564
342.48900,2.765814787
342.48950,1.850231564
342.49000,0.01906511792
342.49050,-0.5913236975
342.49100,-0.8965181052
342.49150,-3.643267774
342.49200,-7.610795075
342.49250,-8.831572705
342.49300,-4.25365659
342.49350,1.850231564
342.49400,5.512564457
342.49450,4.291786826
342.49500,0.934648341
342.49550,-0.5913236975
342.49600,-0.2861292898
342.49650,0.6294539333
342.49700,1.239842749
342.49750,0.3242595256
342.49800,-1.201712513
342.49850,-3.338073367
342.49900,-5.169239813
342.49950,-4.864045405
342.50000,-2.117295736
342.50050,0.3242595256
342.50100,0.6294539333
342.50150,0.01906511792
342.50200,-0.2861292898
342.50250,0.3242595256
342.50300,0.6294539333
342.50350,0.01906511792
342.50400,0.01906511792
342.50450,1.239842749
342.50500,2.765814787
342.50550,4.596981233
342.50600,7.343730903
342.50650,10.39567498
342.50700,11.61645261
342.50750,10.09048057
342.50800,7.343730903
342.50850,5.512564457
342.50900,5.817758864
342.50950,6.733342087
342.51000,5.817758864
342.51050,2.46062038
342.51100,-1.201712513
342.51150,-2.422490144
342.51200,0.01906511792
342.51250,2.46062038
342.51300,0.3242595256
342.51350,-3.338073367
342.51400,-3.643267774
342.51450,-0.5913236975
342.51500,1.545037156
342.51550,1.239842749
342.51600,0.934648341
342.51650,1.545037156
342.51700,1.239842749
342.51750,-0.5913236975
342.51800,-1.812101328
342.51850,-2.117295736
342.51900,-2.422490144
342.51950,-4.25365659
342.52000,-5.779628628
342.52050,-5.474434221
342.52100,-4.558850998
342.52150,-3.948462182
342.52200,-2.117295736
342.52250,0.934648341
342.52300,3.68139801
342.52350,3.071009195
342.52400,0.01906511792
342.52450,-3.032878959
342.52500,-3.643267774
342.52550,-2.422490144
342.52600,-1.201712513
342.52650,-0.2861292898
342.52700,0.3242595256
342.52750,2.155425972
342.52800,2.765814787
342.52850,1.545037156
342.52900,0.3242595256
342.52950,2.155425972
342.53000,5.512564457
342.53050,5.817758864
342.53100,3.376203603
342.53150,2.765814787
342.53200,5.512564457
342.53250,6.733342087
342.53300,3.68139801
342.53350,0.01906511792
342.53400,-1.201712513
342.53450,-1.201712513
342.53500,-2.727684551
342.53550,-4.25365659
342.53600,-3.032878959
342.53650,-1.506906921
342.53700,-2.117295736
342.53750,-3.948462182
342.53800,-4.25365659
342.53850,-3.032878959
342.53900,-2.727684551
342.53950,-3.032878959
342.54000,-2.727684551
342.54050,-2.727684551
342.54100,-3.948462182
342.54150,-4.864045405
342.54200,-3.338073367
342.54250,-1.506906921
342.54300,-1.201712513
342.54350,-1.201712513
342.54400,0.01906511792
342.54450,0.934648341
342.54500,-0.8965181052
342.54550,-2.117295736
342.54600,2.46062038
342.54650,10.39567498
342.54700,13.44761906
342.54750,10.09048057
342.54800,7.64892531
342.54850,11.61645261
342.54900,16.19436873
342.54950,15.58397991
342.55000,10.39567498
342.55050,5.817758864
342.55100,3.071009195
342.55150,0.934648341
342.55200,-0.2861292898
342.55250,-0.5913236975
342.55300,0.01906511792
342.55350,-0.8965181052
342.55400,-3.338073367
342.55450,-5.779628628
342.55500,-7.000406259
342.55550,-7.610795075
342.55600,-8.526378298
342.55650,-9.441961521
342.55700,-9.747155929
342.55750,-9.441961521
342.55800,-8.526378298
342.55850,-9.136767113
342.55900,-11.27312797
342.55950,-14.01987764
342.56000,-15.24065527
342.56050,-13.71468323
342.56100,-10.66273915
342.56150,-7.000406259
342.56200,-3.338073367
342.56250,0.01906511792
342.56300,2.46062038
342.56350,3.071009195
342.56400,2.765814787
342.56450,3.376203603
342.56500,6.733342087
342.56550,12.22684143
342.56600,17.41514636
342.56650,19.85670162
342.56700,18.33072958
342.56750,14.66839669
342.56800,11.0060638
342.56850,8.259314126
342.56900,6.733342087
342.56950,5.817758864
342.57000,5.817758864
342.57050,5.512564457
342.57100,3.68139801
342.57150,0.6294539333
342.57200,-0.8965181052
342.57250,0.01906511792
342.57300,1.545037156
342.57350,2.765814787
342.57400,2.155425972
342.57450,0.01906511792
342.57500,-2.727684551
342.57550,-4.558850998
342.57600,-4.25365659
342.57650,-2.422490144
342.57700,-0.2861292898
342.57750,0.6294539333
342.57800,0.934648341
342.57850,1.239842749
342.57900,1.239842749
342.57950,0.01906511792
342.58000,-1.506906921
342.58050,-2.422490144
342.58100,-2.727684551
342.58150,-3.948462182
342.58200,-5.474434221
342.58250,-5.779628628
342.58300,-4.864045405
342.58350,-4.25365659
342.58400,-5.474434221
342.58450,-7.305600667
342.58500,-7.915989482
342.58550,-8.22118389
342.58600,-7.915989482
342.58650,-7.305600667
342.58700,-6.390017444
342.58750,-5.779628628
342.58800,-4.25365659
342.58850,-0.8965181052
342.58900,3.071009195
342.58950,4.596981233
342.59000,3.376203603
342.59050,0.6294539333
342.59100,-0.5913236975
342.59150,-1.506906921
342.59200,-2.727684551
342.59250,-3.948462182
342.59300,-5.169239813
342.59350,-6.390017444
342.59400,-6.695211852
342.59450,-5.474434221
342.59500,-4.558850998
342.59550,-5.779628628
342.59600,-7.000406259
342.59650,-5.474434221
342.59700,-0.8965181052
342.59750,2.46062038
342.59800,3.68139801
342.59850,3.376203603
342.59900,3.376203603
342.59950,2.46062038
342.60000,1.239842749
342.60050,0.934648341
342.60100,1.545037156
342.60150,1.239842749
342.60200,0.01906511792
342.60250,-0.5913236975
342.60300,0.6294539333
342.60350,1.850231564
342.60400,2.155425972
342.60450,2.765814787
342.60500,2.765814787
342.60550,1.545037156
342.60600,0.01906511792
342.60650,0.01906511792
342.60700,0.934648341
342.60750,0.6294539333
342.60800,0.01906511792
342.60850,1.239842749
342.60900,3.986592418
342.60950,3.986592418
342.61000,1.545037156
342.61050,0.01906511792
342.61100,-0.2861292898
342.61150,-2.422490144
342.61200,-4.864045405
342.61250,-2.727684551
342.61300,2.765814787
342.61350,5.817758864
342.61400,3.68139801
342.61450,1.239842749
342.61500,2.155425972
342.61550,3.071009195
342.61600,2.155425972
342.61650,2.765814787
342.61700,5.207370049
342.61750,4.902175641
342.61800,-0.5913236975
342.61850,-4.558850998
342.61900,-0.8965181052
342.61950,3.986592418
342.62000,2.46062038
342.62050,-2.727684551
342.62100,-3.338073367
342.62150,1.850231564
342.62200,6.42814768
342.62250,3.986592418
342.62300,-2.117295736
342.62350,-7.000406259
342.62400,-8.526378298
342.62450,-7.305600667
342.62500,-4.864045405
342.62550,-3.032878959
342.62600,-2.422490144
342.62650,-1.506906921
342.62700,1.239842749
342.62750,3.68139801
342.62800,1.545037156
342.62850,-2.422490144
342.62900,-3.643267774
342.62950,0.01906511792
342.63000,4.291786826
342.63050,6.122953272
342.63100,5.207370049
342.63150,2.765814787
342.63200,0.6294539333
342.63250,0.934648341
342.63300,3.986592418
342.63350,6.733342087
342.63400,5.207370049
342.63450,1.239842749
342.63500,0.01906511792
342.63550,0.934648341
342.63600,1.545037156
342.63650,-0.5913236975
342.63700,-3.643267774
342.63750,-3.948462182
342.63800,-3.032878959
342.63850,-3.338073367
342.63900,-4.864045405
342.63950,-4.558850998
342.64000,-1.201712513
342.64050,2.765814787
342.64100,4.902175641
342.64150,4.902175641
342.64200,5.512564457
342.64250,8.259314126
342.64300,11.61645261
342.64350,11.3112582
342.64400,7.038536495
342.64450,2.46062038
342.64500,0.01906511792
342.64550,-0.2861292898
342.64600,0.01906511792
342.64650,1.850231564
342.64700,4.291786826
342.64750,4.596981233
342.64800,1.850231564
342.64850,-1.201712513
342.64900,-1.506906921
342.64950,0.6294539333
342.65000,2.46062038
342.65050,2.155425972
342.65100,1.239842749
342.65150,0.6294539333
342.65200,-0.2861292898
342.65250,-2.117295736
342.65300,-3.948462182
342.65350,-6.084823036
342.65400,-7.610795075
342.65450,-7.915989482
342.65500,-5.779628628
342.65550,-3.338073367
342.65600,-2.422490144
342.65650,-3.643267774
342.65700,-6.390017444
342.65750,-9.747155929
342.65800,-12.18871119
342.65850,-12.18871119
342.65900,-8.526378298
342.65950,-3.338073367
342.66000,1.239842749
342.66050,4.596981233
342.66100,5.817758864
342.66150,4.596981233
342.66200,1.850231564
342.66250,0.6294539333
342.66300,2.46062038
342.66350,4.902175641
342.66400,4.902175641
342.66450,1.239842749
342.66500,-3.338073367
342.66550,-4.864045405
342.66600,-3.032878959
342.66650,-0.8965181052
342.66700,-2.117295736
342.66750,-3.948462182
342.66800,-1.201712513
342.66850,5.817758864
342.66900,9.174897349
342.66950,3.68139801
342.67000,-5.474434221
342.67050,-8.22118389
342.67100,-3.032878959
342.67150,3.376203603
342.67200,6.122953272
342.67250,6.42814768
342.67300,6.733342087
342.67350,5.512564457
342.67400,3.376203603
342.67450,3.071009195
342.67500,5.207370049
342.67550,5.512564457
342.67600,1.545037156
342.67650,-2.422490144
342.67700,-3.338073367
342.67750,-1.812101328
342.67800,-0.5913236975
342.67850,-0.2861292898
342.67900,-0.2861292898
342.67950,-0.2861292898
342.68000,0.3242595256
342.68050,1.545037156
342.68100,1.239842749
342.68150,-1.506906921
342.68200,-3.948462182
342.68250,-2.117295736
342.68300,3.376203603
342.68350,6.122953272
342.68400,3.376203603
342.68450,-0.5913236975
342.68500,-1.506906921
342.68550,-0.5913236975
342.68600,-1.506906921
342.68650,-3.338073367
342.68700,-3.948462182
342.68750,-3.338073367
342.68800,-3.032878959
342.68850,-3.948462182
342.68900,-4.558850998
342.68950,-4.558850998
342.69000,-4.25365659
342.69050,-4.25365659
342.69100,-3.643267774
342.69150,-2.422490144
342.69200,-0.2861292898
342.69250,3.071009195
342.69300,5.512564457
342.69350,5.207370049
342.69400,3.68139801
342.69450,3.986592418
342.69500,5.512564457
342.69550,5.207370049
342.69600,1.850231564
342.69650,-0.2861292898
342.69700,0.01906511792
342.69750,0.3242595256
342.69800,-2.117295736
342.69850,-5.474434221
342.69900,-4.558850998
342.69950,0.6294539333
342.70000,4.596981233
342.70050,3.68139801
342.70100,0.3242595256
342.70150,-2.117295736
342.70200,-4.25365659
342.70250,-6.390017444
342.70300,-7.305600667
342.70350,-5.169239813
342.70400,-1.812101328
342.70450,0.01906511792
342.70500,-0.2861292898
342.70550,-0.2861292898
342.70600,1.239842749
342.70650,4.291786826
342.70700,6.122953272
342.70750,6.42814768
342.70800,6.122953272
342.70850,6.42814768
342.70900,7.038536495
342.70950,6.122953272
342.71000,3.376203603
342.71050,0.6294539333
342.71100,0.01906511792
342.71150,0.6294539333
342.71200,-0.2861292898
342.71250,-3.338073367
342.71300,-5.474434221
342.71350,-3.948462182
342.71400,0.01906511792
342.71450,2.155425972
342.71500,0.934648341
342.71550,-2.117295736
342.71600,-5.169239813
342.71650,-6.695211852
342.71700,-7.305600667
342.71750,-7.610795075
342.71800,-7.915989482
342.71850,-7.305600667
342.71900,-5.169239813
342.71950,-1.201712513
342.72000,1.850231564
342.72050,2.765814787
342.72100,0.934648341
342.72150,-1.506906921
342.72200,-2.422490144
342.72250,-1.812101328
342.72300,-0.2861292898
342.72350,1.239842749
342.72400,3.071009195
342.72450,4.596981233
342.72500,5.817758864
342.72550,7.038536495
342.72600,8.564508534
342.72650,10.09048057
342.72700,9.785286164
342.72750,6.42814768
342.72800,2.765814787
342.72850,0.934648341
342.72900,0.6294539333
342.72950,0.01906511792
342.73000,-1.201712513
342.73050,-0.8965181052
342.73100,1.850231564
342.73150,5.207370049
342.73200,7.343730903
342.73250,8.259314126
342.73300,7.038536495
342.73350,3.986592418
342.73400,0.3242595256
342.73450,-0.5913236975
342.73500,0.6294539333
342.73550,0.3242595256
342.73600,-2.422490144
342.73650,-4.25365659
342.73700,-2.422490144
342.73750,0.3242595256
342.73800,1.239842749
342.73850,0.6294539333
342.73900,1.239842749
342.73950,2.765814787
342.74000,3.376203603
342.74050,3.68139801
342.74100,4.902175641
342.74150,6.122953272
342.74200,4.902175641
342.74250,1.545037156
342.74300,-0.2861292898
342.74350,0.01906511792
342.74400,2.765814787
342.74450,5.817758864
342.74500,7.343730903
342.74550,5.817758864
342.74600,2.155425972
342.74650,0.01906511792
342.74700,0.6294539333
342.74750,0.01906511792
342.74800,-5.169239813
342.74850,-13.10429441
342.74900,-16.76662731
342.74950,-14.63026645
342.75000,-11.88351678
342.75050,-10.96793356
342.75100,-10.05235034
342.75150,-6.695211852
342.75200,-4.25365659
342.75250,-5.169239813
342.75300,-7.305600667
342.75350,-6.695211852
342.75400,-4.558850998
342.75450,-3.948462182
342.75500,-5.169239813
342.75550,-5.779628628
342.75600,-5.169239813
342.75650,-4.864045405
342.75700,-6.390017444
342.75750,-7.000406259
342.75800,-7.000406259
342.75850,-7.610795075
342.75900,-9.747155929
342.75950,-9.441961521
342.76000,-5.474434221
342.76050,-0.8965181052
342.76100,0.01906511792
342.76150,-2.422490144
342.76200,-3.338073367
342.76250,-1.812101328
342.76300,0.01906511792
342.76350,-0.8965181052
342.76400,-3.338073367
342.76450,-4.25365659
342.76500,-3.338073367
342.76550,-2.117295736
342.76600,-1.506906921
342.76650,0.01906511792
342.76700,2.46062038
342.76750,3.071009195
342.76800,0.3242595256
342.76850,-3.948462182
342.76900,-6.695211852
342.76950,-5.779628628
342.77000,-3.338073367
342.77050,-1.201712513
342.77100,-0.5913236975
342.77150,-0.8965181052
342.77200,-2.117295736
342.77250,-2.117295736
342.77300,-0.5913236975
342.77350,0.6294539333
342.77400,0.01906511792
342.77450,-2.117295736
342.77500,-1.812101328
342.77550,0.6294539333
342.77600,1.545037156
342.77650,-1.506906921
342.77700,-6.390017444
342.77750,-8.526378298
342.77800,-8.22118389
342.77850,-7.000406259
342.77900,-5.169239813
342.77950,0.6294539333
342.78000,9.174897349
342.78050,15.88917432
342.78100,18.02553517
342.78150,17.10995195
342.78200,15.88917432
342.78250,14.36320228
342.78300,12.22684143
342.78350,10.70086939
342.78400,9.785286164
342.78450,8.869702941
342.78500,8.259314126
342.78550,8.869702941
342.78600,10.09048057
342.78650,8.564508534
342.78700,4.596981233
342.78750,2.46062038
342.78800,4.902175641
342.78850,8.259314126
342.78900,8.869702941
342.78950,7.954119718
342.79000,9.174897349
342.79050,11.0060638
342.79100,10.39567498
342.79150,8.259314126
342.79200,7.954119718
342.79250,9.174897349
342.79300,8.564508534
342.79350,5.817758864
342.79400,3.68139801
342.79450,2.155425972
342.79500,0.3242595256
342.79550,-1.812101328
342.79600,-2.117295736
342.79650,-0.8965181052
342.79700,-0.8965181052
342.79750,-1.506906921
342.79800,-0.5913236975
342.79850,2.155425972
342.79900,3.376203603
342.79950,1.545037156
342.80000,-1.201712513
342.80050,-3.643267774
342.80100,-5.779628628
342.80150,-7.610795075
342.80200,-8.22118389
342.80250,-8.22118389
342.80300,-8.831572705
342.80350,-9.747155929
342.80400,-9.747155929
342.80450,-9.136767113
342.80500,-8.22118389
342.80550,-4.25365659
342.80600,3.071009195
342.80650,9.174897349
342.80700,8.564508534
342.80750,2.765814787
342.80800,-0.5913236975
342.80850,-0.2861292898
342.80900,0.3242595256
342.80950,0.01906511792
342.81000,-0.5913236975
342.81050,-0.8965181052
342.81100,-1.201712513
342.81150,-1.812101328
342.81200,-0.2861292898
342.81250,2.765814787
342.81300,4.902175641
342.81350,5.817758864
342.81400,6.122953272
342.81450,6.733342087
342.81500,5.207370049
342.81550,2.46062038
342.81600,-0.2861292898
342.81650,-2.422490144
342.81700,-4.864045405
342.81750,-6.390017444
342.81800,-6.390017444
342.81850,-6.390017444
342.81900,-7.610795075
342.81950,-7.000406259
342.82000,-3.643267774
342.82050,-0.2861292898
342.82100,-0.2861292898
342.82150,-0.8965181052
342.82200,2.46062038
342.82250,7.343730903
342.82300,5.817758864
342.82350,-2.727684551
342.82400,-10.66273915
342.82450,-10.96793356
342.82500,-6.390017444
342.82550,-3.338073367
342.82600,-3.338073367
342.82650,-3.643267774
342.82700,-2.727684551
342.82750,-1.812101328
342.82800,-1.812101328
342.82850,-2.422490144
342.82900,-2.422490144
342.82950,-1.506906921
342.83000,0.01906511792
342.83050,0.934648341
342.83100,0.3242595256
342.83150,-1.812101328
342.83200,-4.25365659
342.83250,-4.558850998
342.83300,-3.338073367
342.83350,-2.117295736
342.83400,-0.5913236975
342.83450,1.545037156
342.83500,4.902175641
342.83550,6.42814768
342.83600,6.122953272
342.83650,6.122953272
342.83700,7.343730903
342.83750,8.564508534
342.83800,6.122953272
342.83850,1.239842749
342.83900,-1.201712513
342.83950,0.01906511792
342.84000,1.239842749
342.84050,-0.2861292898
342.84100,-3.032878959
342.84150,-3.948462182
342.84200,-3.948462182
342.84250,-6.390017444
342.84300,-9.441961521
342.84350,-8.22118389
342.84400,-3.643267774
342.84450,-1.201712513
342.84500,-3.032878959
342.84550,-5.474434221
342.84600,-3.948462182
342.84650,-0.2861292898
342.84700,0.934648341
342.84750,0.934648341
342.84800,2.155425972
342.84850,4.596981233
342.84900,5.512564457
342.84950,4.291786826
342.85000,2.46062038
342.85050,2.46062038
342.85100,3.071009195
342.85150,3.071009195
342.85200,1.239842749
342.85250,0.01906511792
342.85300,-0.5913236975
342.85350,-0.2861292898
342.85400,-1.201712513
342.85450,-3.032878959
342.85500,-4.25365659
342.85550,-3.643267774
342.85600,-1.812101328
342.85650,-0.5913236975
342.85700,-0.8965181052
342.85750,-1.506906921
342.85800,-2.117295736
342.85850,-2.117295736
342.85900,-2.117295736
342.85950,-2.422490144
342.86000,-3.338073367
342.86050,-4.558850998
342.86100,-4.558850998
342.86150,-3.032878959
342.86200,-1.812101328
342.86250,-1.812101328
342.86300,-1.506906921
342.86350,1.239842749
342.86400,5.207370049
342.86450,7.343730903
342.86500,6.42814768
342.86550,5.512564457
342.86600,6.42814768
342.86650,7.954119718
342.86700,8.564508534
342.86750,9.174897349
342.86800,9.480091757
342.86850,8.869702941
342.86900,7.038536495
342.86950,5.512564457
342.87000,4.596981233
342.87050,3.68139801
342.87100,2.155425972
342.87150,2.155425972
342.87200,3.376203603
342.87250,2.46062038
342.87300,-2.422490144
342.87350,-8.831572705
342.87400,-11.27312797
342.87450,-9.441961521
342.87500,-7.610795075
342.87550,-8.526378298
342.87600,-9.747155929
342.87650,-9.136767113
342.87700,-7.610795075
342.87750,-7.305600667
342.87800,-7.610795075
342.87850,-7.915989482
342.87900,-8.22118389
342.87950,-7.915989482
342.88000,-6.084823036
342.88050,-3.032878959
342.88100,-0.8965181052
342.88150,-0.5913236975
342.88200,0.6294539333
342.88250,4.902175641
342.88300,8.869702941
342.88350,8.564508534
342.88400,4.596981233
342.88450,1.545037156
342.88500,0.934648341
342.88550,0.6294539333
342.88600,-1.506906921
342.88650,-4.558850998
342.88700,-6.390017444
342.88750,-6.390017444
342.88800,-4.25365659
342.88850,0.01906511792
342.88900,4.596981233
342.88950,7.954119718
342.89000,9.174897349
342.89050,10.09048057
342.89100,12.22684143
342.89150,13.75281346
342.89200,13.14242465
342.89250,10.09048057
342.89300,6.42814768
342.89350,3.986592418
342.89400,3.071009195
342.89450,3.071009195
342.89500,3.376203603
342.89550,2.765814787
342.89600,2.765814787
342.89650,3.376203603
342.89700,3.071009195
342.89750,0.6294539333
342.89800,-1.506906921
342.89850,-1.506906921
342.89900,0.01906511792
342.89950,-0.2861292898
342.90000,-3.032878959
342.90050,-4.25365659
342.90100,-1.506906921
342.90150,2.46062038
342.90200,3.986592418
342.90250,2.765814787
342.90300,1.239842749
342.90350,1.545037156
342.90400,2.765814787
342.90450,3.68139801
342.90500,3.68139801
342.90550,3.071009195
342.90600,2.765814787
342.90650,2.765814787
342.90700,2.155425972
342.90750,0.3242595256
342.90800,-1.201712513
342.90850,-2.117295736
342.90900,-1.201712513
342.90950,-0.5913236975
342.91000,-0.8965181052
342.91050,-1.201712513
342.91100,-0.5913236975
342.91150,0.3242595256
342.91200,2.46062038
342.91250,5.207370049
342.91300,7.038536495
342.91350,5.817758864
342.91400,1.850231564
342.91450,-2.117295736
342.91500,-3.338073367
342.91550,-2.727684551
342.91600,-3.032878959
342.91650,-5.169239813
342.91700,-7.305600667
342.91750,-7.610795075
342.91800,-7.305600667
342.91850,-7.610795075
342.91900,-9.441961521
342.91950,-9.747155929
342.92000,-7.610795075
342.92050,-4.558850998
342.92100,-3.643267774
342.92150,-5.169239813
342.92200,-6.695211852
342.92250,-5.779628628
342.92300,-3.338073367
342.92350,-2.117295736
342.92400,-4.558850998
342.92450,-8.526378298
342.92500,-10.35754474
342.92550,-7.305600667
342.92600,-2.117295736
342.92650,0.6294539333
342.92700,-0.5913236975
342.92750,-4.25365659
342.92800,-5.474434221
342.92850,-4.25365659
342.92900,-1.506906921
342.92950,1.545037156
342.93000,4.596981233
342.93050,6.42814768
342.93100,5.512564457
342.93150,3.376203603
342.93200,2.46062038
342.93250,3.071009195
342.93300,3.68139801
342.93350,2.765814787
342.93400,2.155425972
342.93450,2.46062038
342.93500,2.765814787
342.93550,2.46062038
342.93600,2.46062038
342.93650,3.68139801
342.93700,3.986592418
342.93750,2.155425972
342.93800,0.6294539333
342.93850,0.934648341
342.93900,2.46062038
342.93950,2.155425972
342.94000,0.6294539333
342.94050,0.934648341
342.94100,3.376203603
342.94150,5.207370049
342.94200,3.986592418
342.94250,2.155425972
342.94300,2.46062038
342.94350,4.291786826
342.94400,5.207370049
342.94450,4.596981233
342.94500,2.765814787
342.94550,0.01906511792
342.94600,-3.643267774
342.94650,-4.864045405
342.94700,-2.422490144
342.94750,0.934648341
342.94800,1.545037156
342.94850,0.01906511792
342.94900,0.3242595256
342.94950,2.155425972
342.95000,0.6294539333
342.95050,-4.864045405
342.95100,-9.441961521
342.95150,-7.610795075
342.95200,-2.117295736
342.95250,0.934648341
342.95300,0.6294539333
342.95350,0.01906511792
342.95400,0.01906511792
342.95450,0.3242595256
342.95500,0.01906511792
342.95550,-0.2861292898
342.95600,-0.2861292898
342.95650,-0.2861292898
342.95700,-0.8965181052
342.95750,-1.506906921
342.95800,-1.812101328
342.95850,-3.032878959
342.95900,-4.864045405
342.95950,-6.695211852
342.96000,-7.000406259
342.96050,-4.25365659
342.96100,0.3242595256
342.96150,5.817758864
342.96200,9.174897349
342.96250,9.785286164
342.96300,7.954119718
342.96350,3.68139801
342.96400,-1.201712513
342.96450,-3.032878959
342.96500,0.01906511792
342.96550,5.512564457
342.96600,9.174897349
342.96650,9.480091757
342.96700,8.259314126
342.96750,6.42814768
342.96800,3.376203603
342.96850,0.6294539333
342.96900,0.3242595256
342.96950,2.46062038
342.97000,3.986592418
342.97050,3.376203603
342.97100,2.155425972
342.97150,3.071009195
342.97200,4.291786826
342.97250,3.986592418
342.97300,3.071009195
342.97350,3.376203603
342.97400,5.207370049
342.97450,4.596981233
342.97500,0.6294539333
342.97550,-2.727684551
342.97600,-3.032878959
342.97650,-0.8965181052
342.97700,-0.5913236975
342.97750,-2.727684551
342.97800,-4.25365659
342.97850,-2.422490144
342.97900,0.6294539333
342.97950,0.6294539333
342.98000,-2.117295736
342.98050,-4.864045405
342.98100,-4.558850998
342.98150,-3.032878959
342.98200,-3.032878959
342.98250,-4.558850998
342.98300,-4.558850998
342.98350,-1.506906921
342.98400,2.46062038
342.98450,4.596981233
342.98500,3.071009195
342.98550,-0.2861292898
342.98600,-1.506906921
342.98650,0.6294539333
342.98700,2.765814787
342.98750,1.239842749
342.98800,-3.643267774
342.98850,-7.915989482
342.98900,-8.831572705
342.98950,-6.695211852
342.99000,-4.864045405
342.99050,-3.948462182
342.99100,-4.558850998
342.99150,-5.474434221
342.99200,-6.695211852
342.99250,-8.22118389
342.99300,-8.831572705
342.99350,-8.22118389
342.99400,-5.779628628
342.99450,-3.032878959
342.99500,-1.812101328
342.99550,-2.727684551
342.99600,-4.25365659
342.99650,-4.864045405
342.99700,-4.558850998
342.99750,-4.558850998
342.99800,-4.558850998
342.99850,-4.558850998
342.99900,-4.864045405
342.99950,-7.000406259
343.00000,-10.35754474
343.00050,-11.27312797
343.00100,-7.305600667
343.00150,0.934648341
343.00200,9.480091757
343.00250,14.05800787
343.00300,14.05800787
343.00350,10.70086939
343.00400,6.733342087
343.00450,3.68139801
343.00500,2.765814787
343.00550,3.376203603
343.00600,4.291786826
343.00650,4.596981233
343.00700,3.68139801
343.00750,3.071009195
343.00800,2.765814787
343.00850,1.850231564
343.00900,0.3242595256
343.00950,-0.2861292898
343.01000,0.01906511792
343.01050,0.3242595256
343.01100,0.01906511792
343.01150,-0.5913236975
343.01200,-0.8965181052
343.01250,-0.8965181052
343.01300,-2.727684551
343.01350,-5.474434221
343.01400,-5.779628628
343.01450,-4.25365659
343.01500,-3.643267774
343.01550,-4.558850998
343.01600,-4.25365659
343.01650,-0.2861292898
343.01700,2.765814787
343.01750,2.46062038
343.01800,0.934648341
343.01850,1.239842749
343.01900,2.765814787
343.01950,2.46062038
343.02000,0.6294539333
343.02050,0.01906511792
343.02100,-0.5913236975
343.02150,-2.117295736
343.02200,-1.201712513
343.02250,3.376203603
343.02300,7.954119718
343.02350,6.733342087
343.02400,2.765814787
343.02450,1.850231564
343.02500,4.596981233
343.02550,4.596981233
343.02600,0.01906511792
343.02650,-4.558850998
343.02700,-5.169239813
343.02750,-3.338073367
343.02800,-1.812101328
343.02850,0.01906511792
343.02900,1.239842749
343.02950,0.3242595256
343.03000,-3.338073367
343.03050,-7.610795075
343.03100,-8.831572705
343.03150,-7.000406259
343.03200,-4.864045405
343.03250,-3.338073367
343.03300,-2.422490144
343.03350,-0.5913236975
343.03400,2.765814787
343.03450,6.733342087
343.03500,7.343730903
343.03550,3.071009195
343.03600,-0.8965181052
343.03650,-0.8965181052
343.03700,1.239842749
343.03750,2.46062038
343.03800,3.071009195
343.03850,5.512564457
343.03900,8.259314126
343.03950,5.817758864
343.04000,-0.2861292898
343.04050,-3.643267774
343.04100,-1.201712513
343.04150,2.765814787
343.04200,3.68139801
343.04250,2.765814787
343.04300,2.765814787
343.04350,3.071009195
343.04400,2.765814787
343.04450,2.155425972
343.04500,1.850231564
343.04550,1.850231564
343.04600,0.934648341
343.04650,0.01906511792
343.04700,0.6294539333
343.04750,2.765814787
343.04800,4.902175641
343.04850,6.122953272
343.04900,6.122953272
343.04950,5.512564457
343.05000,4.596981233
343.05050,3.68139801
343.05100,2.46062038
343.05150,1.239842749
343.05200,1.239842749
343.05250,1.545037156
343.05300,0.934648341
343.05350,-1.812101328
343.05400,-4.864045405
343.05450,-5.779628628
343.05500,-4.25365659
343.05550,-3.338073367
343.05600,-3.643267774
343.05650,-4.25365659
343.05700,-4.25365659
343.05750,-3.338073367
343.05800,-2.422490144
343.05850,-1.812101328
343.05900,-2.422490144
343.05950,-5.474434221
343.06000,-8.831572705
343.06050,-10.05235034
343.06100,-8.526378298
343.06150,-6.390017444
343.06200,-6.390017444
343.06250,-7.000406259
343.06300,-7.000406259
343.06350,-6.390017444
343.06400,-5.779628628
343.06450,-5.169239813
343.06500,-3.948462182
343.06550,-2.422490144
343.06600,-0.5913236975
343.06650,1.239842749
343.06700,1.239842749
343.06750,-1.506906921
343.06800,-3.032878959
343.06850,0.934648341
343.06900,8.564508534
343.06950,10.39567498
343.07000,4.291786826
343.07050,-1.506906921
343.07100,-0.5913236975
343.07150,4.291786826
343.07200,6.122953272
343.07250,2.46062038
343.07300,-1.201712513
343.07350,-0.2861292898
343.07400,3.376203603
343.07450,5.817758864
343.07500,3.986592418
343.07550,0.934648341
343.07600,-0.5913236975
343.07650,-0.5913236975
343.07700,-0.8965181052
343.07750,-2.422490144
343.07800,-3.032878959
343.07850,-1.812101328
343.07900,-0.8965181052
343.07950,-2.727684551
343.08000,-6.084823036
343.08050,-7.000406259
343.08100,-4.864045405
343.08150,-2.727684551
343.08200,-1.812101328
343.08250,-1.506906921
343.08300,0.01906511792
343.08350,3.071009195
343.08400,7.954119718
343.08450,14.66839669
343.08500,19.85670162
343.08550,20.16189603
343.08600,15.2787855
343.08650,10.09048057
343.08700,7.64892531
343.08750,6.122953272
343.08800,3.68139801
343.08850,0.934648341
343.08900,0.01906511792
343.08950,0.01906511792
343.09000,-0.5913236975
343.09050,-0.5913236975
343.09100,1.239842749
343.09150,3.68139801
343.09200,4.291786826
343.09250,2.765814787
343.09300,1.239842749
343.09350,1.239842749
343.09400,1.850231564
343.09450,2.46062038
343.09500,1.545037156
343.09550,-0.2861292898
343.09600,-3.338073367
343.09650,-5.169239813
343.09700,-3.948462182
343.09750,-1.201712513
343.09800,0.3242595256
343.09850,-0.2861292898
343.09900,-2.422490144
343.09950,-3.643267774
343.10000,-3.338073367
343.10050,-2.422490144
343.10100,-2.117295736
343.10150,-2.727684551
343.10200,-3.032878959
343.10250,-2.117295736
343.10300,-1.506906921
343.10350,-1.506906921
343.10400,-1.201712513
343.10450,0.01906511792
343.10500,0.3242595256
343.10550,0.01906511792
343.10600,-0.8965181052
343.10650,0.01906511792
343.10700,2.46062038
343.10750,3.986592418
343.10800,3.071009195
343.10850,1.545037156
343.10900,0.6294539333
343.10950,0.934648341
343.11000,0.6294539333
343.11050,0.01906511792
343.11100,-0.2861292898
343.11150,-0.2861292898
343.11200,-1.201712513
343.11250,-2.117295736
343.11300,-3.032878959
343.11350,-3.032878959
343.11400,-3.032878959
343.11450,-3.948462182
343.11500,-6.390017444
343.11550,-8.22118389
343.11600,-7.915989482
343.11650,-5.474434221
343.11700,-3.948462182
343.11750,-4.25365659
343.11800,-5.474434221
343.11850,-6.695211852
343.11900,-7.000406259
343.11950,-5.474434221
343.12000,-1.201712513
343.12050,4.291786826
343.12100,6.733342087
343.12150,4.291786826
343.12200,0.934648341
343.12250,2.765814787
343.12300,8.869702941
343.12350,12.83723024
343.12400,11.3112582
343.12450,7.64892531
343.12500,6.42814768
343.12550,6.42814768
343.12600,3.68139801
343.12650,0.01906511792
343.12700,-0.8965181052
343.12750,0.6294539333
343.12800,1.545037156
343.12850,-0.2861292898
343.12900,-2.422490144
343.12950,-2.117295736
343.13000,-0.2861292898
343.13050,0.3242595256
343.13100,0.01906511792
343.13150,0.01906511792
343.13200,0.6294539333
343.13250,3.071009195
343.13300,6.733342087
343.13350,11.3112582
343.13400,13.44761906
343.13450,11.61645261
343.13500,8.259314126
343.13550,5.512564457
343.13600,3.376203603
343.13650,0.01906511792
343.13700,-3.643267774
343.13750,-5.779628628
343.13800,-5.169239813
343.13850,-2.727684551
343.13900,-0.2861292898
343.13950,1.239842749
343.14000,1.239842749
343.14050,0.01906511792
343.14100,-1.812101328
343.14150,0.01906511792
343.14200,4.902175641
343.14250,9.785286164
343.14300,11.61645261
343.14350,9.785286164
343.14400,6.733342087
343.14450,4.902175641
343.14500,4.902175641
343.14550,5.817758864
343.14600,5.512564457
343.14650,3.376203603
343.14700,0.3242595256
343.14750,-0.8965181052
343.14800,-1.201712513
343.14850,-2.727684551
343.14900,-5.474434221
343.14950,-7.000406259
343.15000,-5.474434221
343.15050,-3.643267774
343.15100,-4.25365659
343.15150,-7.000406259
343.15200,-8.526378298
343.15250,-7.000406259
343.15300,-5.474434221
343.15350,-5.474434221
343.15400,-6.390017444
343.15450,-7.000406259
343.15500,-7.915989482
343.15550,-9.747155929
343.15600,-11.57832237
343.15650,-12.4939056
343.15700,-12.18871119
343.15750,-11.88351678
343.15800,-11.57832237
343.15850,-9.747155929
343.15900,-7.305600667
343.15950,-5.779628628
343.16000,-5.474434221
343.16050,-4.558850998
343.16100,-3.032878959
343.16150,-1.812101328
343.16200,-1.201712513
343.16250,0.01906511792
343.16300,2.155425972
343.16350,5.817758864
343.16400,8.259314126
343.16450,8.869702941
343.16500,7.954119718
343.16550,7.343730903
343.16600,7.954119718
343.16650,8.259314126
343.16700,7.038536495
343.16750,5.207370049
343.16800,4.596981233
343.16850,3.68139801
343.16900,0.934648341
343.16950,-3.032878959
343.17000,-5.474434221
343.17050,-4.864045405
343.17100,-3.338073367
343.17150,-2.727684551
343.17200,-1.506906921
343.17250,0.3242595256
343.17300,2.155425972
343.17350,2.46062038
343.17400,3.376203603
343.17450,4.291786826
343.17500,3.986592418
343.17550,1.850231564
343.17600,0.3242595256
343.17650,-0.2861292898
343.17700,-2.422490144
343.17750,-5.474434221
343.17800,-5.474434221
343.17850,-2.117295736
343.17900,0.01906511792
343.17950,-3.032878959
343.18000,-9.747155929
343.18050,-13.10429441
343.18100,-11.57832237
343.18150,-8.526378298
343.18200,-6.390017444
343.18250,-4.558850998
343.18300,-3.032878959
343.18350,-2.117295736
343.18400,-2.117295736
343.18450,-1.201712513
343.18500,0.01906511792
343.18550,-0.2861292898
343.18600,-2.422490144
343.18650,-3.643267774
343.18700,-2.117295736
343.18750,1.239842749
343.18800,5.512564457
343.18850,7.954119718
343.18900,7.954119718
343.18950,5.207370049
343.19000,1.239842749
343.19050,0.01906511792
343.19100,1.239842749
343.19150,4.291786826
343.19200,5.207370049
343.19250,3.376203603
343.19300,1.239842749
343.19350,0.934648341
343.19400,1.239842749
343.19450,0.01906511792
343.19500,-1.201712513
343.19550,-0.8965181052
343.19600,0.3242595256
343.19650,0.01906511792
343.19700,-1.201712513
343.19750,1.545037156
343.19800,10.09048057
343.19850,17.41514636
343.19900,17.41514636
343.19950,12.22684143
343.20000,8.564508534
343.20050,7.038536495
343.20100,2.765814787
343.20150,-3.948462182
343.20200,-8.22118389
343.20250,-6.390017444
343.20300,-3.032878959
343.20350,-1.506906921
343.20400,-1.506906921
343.20450,0.01906511792
343.20500,1.545037156
343.20550,1.545037156
343.20600,-0.5913236975
343.20650,-2.117295736
343.20700,-2.117295736
343.20750,-1.812101328
343.20800,-2.117295736
343.20850,-2.727684551
343.20900,-3.032878959
343.20950,-3.032878959
343.21000,-1.812101328
343.21050,0.01906511792
343.21100,1.545037156
343.21150,2.155425972
343.21200,1.850231564
343.21250,0.6294539333
343.21300,-0.2861292898
343.21350,-0.5913236975
343.21400,0.01906511792
343.21450,1.239842749
343.21500,1.545037156
343.21550,0.934648341
343.21600,1.239842749
343.21650,1.850231564
343.21700,1.239842749
343.21750,-1.506906921
343.21800,-4.864045405
343.21850,-6.084823036
343.21900,-5.474434221
343.21950,-6.084823036
343.22000,-8.831572705
343.22050,-11.27312797
343.22100,-10.05235034
343.22150,-5.169239813
343.22200,-0.2861292898
343.22250,1.545037156
343.22300,0.934648341
343.22350,-0.5913236975
343.22400,-2.422490144
343.22450,-3.338073367
343.22500,-2.117295736
343.22550,0.6294539333
343.22600,3.071009195
343.22650,3.376203603
343.22700,1.239842749
343.22750,-1.506906921
343.22800,-3.032878959
343.22850,-0.8965181052
343.22900,3.68139801
343.22950,7.954119718
343.23000,8.564508534
343.23050,6.733342087
343.23100,6.122953272
343.23150,7.954119718
343.23200,9.480091757
343.23250,7.038536495
343.23300,2.765814787
343.23350,0.3242595256
343.23400,0.01906511792
343.23450,0.01906511792
343.23500,-0.8965181052
343.23550,-3.032878959
343.23600,-4.864045405
343.23650,-6.390017444
343.23700,-7.305600667
343.23750,-7.000406259
343.23800,-6.084823036
343.23850,-5.779628628
343.23900,-5.169239813
343.23950,-3.338073367
343.24000,-0.5913236975
343.24050,-0.2861292898
343.24100,-2.727684551
343.24150,-4.864045405
343.24200,-3.643267774
343.24250,-0.5913236975
343.24300,-0.2861292898
343.24350,-2.727684551
343.24400,-3.643267774
343.24450,-1.506906921
343.24500,1.850231564
343.24550,4.596981233
343.24600,6.42814768
343.24650,7.038536495
343.24700,5.512564457
343.24750,3.071009195
343.24800,3.071009195
343.24850,4.596981233
343.24900,4.902175641
343.24950,2.765814787
343.25000,3.376203603
343.25050,8.869702941
343.25100,14.9735911
343.25150,14.9735911
343.25200,9.785286164
343.25250,5.512564457
343.25300,5.207370049
343.25350,5.512564457
343.25400,2.765814787
343.25450,0.01906511792
343.25500,-0.5913236975
343.25550,-0.5913236975
343.25600,-1.812101328
343.25650,-2.727684551
343.25700,-1.812101328
343.25750,0.01906511792
343.25800,0.6294539333
343.25850,-0.2861292898
343.25900,-0.5913236975
343.25950,1.545037156
343.26000,5.512564457
343.26050,7.343730903
343.26100,5.817758864
343.26150,2.765814787
343.26200,1.239842749
343.26250,1.545037156
343.26300,0.934648341
343.26350,-1.506906921
343.26400,-5.169239813
343.26450,-6.084823036
343.26500,-4.25365659
343.26550,-1.506906921
343.26600,-0.2861292898
343.26650,0.01906511792
343.26700,-0.2861292898
343.26750,-0.5913236975
343.26800,-0.8965181052
343.26850,-0.5913236975
343.26900,-1.201712513
343.26950,-3.032878959
343.27000,-4.25365659
343.27050,-3.643267774
343.27100,-2.422490144
343.27150,-2.727684551
343.27200,-3.643267774
343.27250,-4.25365659
343.27300,-3.032878959
343.27350,-1.812101328
343.27400,-1.812101328
343.27450,-3.338073367
343.27500,-4.558850998
343.27550,-3.643267774
343.27600,-0.5913236975
343.27650,2.155425972
343.27700,3.376203603
343.27750,1.545037156
343.27800,-0.2861292898
343.27850,-1.201712513
343.27900,-1.201712513
343.27950,-2.117295736
343.28000,-2.727684551
343.28050,-2.422490144
343.28100,-1.812101328
343.28150,-2.117295736
343.28200,-3.948462182
343.28250,-6.084823036
343.28300,-7.305600667
343.28350,-7.610795075
343.28400,-7.305600667
343.28450,-7.305600667
343.28500,-6.695211852
343.28550,-4.25365659
343.28600,-1.201712513
343.28650,0.3242595256
343.28700,0.3242595256
343.28750,0.01906511792
343.28800,-0.2861292898
343.28850,-1.506906921
343.28900,-4.864045405
343.28950,-7.915989482
343.29000,-7.915989482
343.29050,-4.558850998
343.29100,-0.5913236975
343.29150,2.46062038
343.29200,4.902175641
343.29250,6.122953272
343.29300,4.902175641
343.29350,2.765814787
343.29400,3.376203603
343.29450,5.817758864
343.29500,7.343730903
343.29550,6.733342087
343.29600,4.596981233
343.29650,1.239842749
343.29700,-1.812101328
343.29750,-2.422490144
343.29800,2.155425972
343.29850,9.174897349
343.29900,12.22684143
343.29950,11.0060638
343.30000,9.785286164
343.30050,9.174897349
343.30100,5.817758864
343.30150,-1.506906921
343.30200,-7.915989482
343.30250,-9.441961521
343.30300,-8.22118389
343.30350,-7.915989482
343.30400,-6.084823036
343.30450,0.01906511792
343.30500,6.42814768
343.30550,8.564508534
343.30600,6.733342087
343.30650,6.733342087
343.30700,10.09048057
343.30750,10.70086939
343.30800,5.512564457
343.30850,-0.8965181052
343.30900,-3.338073367
343.30950,-1.812101328
343.31000,0.01906511792
343.31050,1.239842749
343.31100,2.765814787
343.31150,4.291786826
343.31200,3.986592418
343.31250,1.545037156
343.31300,0.01906511792
343.31350,0.6294539333
343.31400,2.765814787
343.31450,3.68139801
343.31500,1.850231564
343.31550,-0.2861292898
343.31600,-1.201712513
343.31650,-0.5913236975
343.31700,0.934648341
343.31750,2.155425972
343.31800,1.239842749
343.31850,-2.422490144
343.31900,-7.000406259
343.31950,-8.526378298
343.32000,-6.084823036
343.32050,-3.338073367
343.32100,-4.25365659
343.32150,-6.390017444
343.32200,-3.948462182
343.32250,2.765814787
343.32300,7.038536495
343.32350,3.986592418
343.32400,-2.117295736
343.32450,-5.169239813
343.32500,-5.169239813
343.32550,-6.084823036
343.32600,-7.610795075
343.32650,-6.695211852
343.32700,-3.032878959
343.32750,-1.201712513
343.32800,-2.727684551
343.32850,-4.25365659
343.32900,-3.338073367
343.32950,-1.812101328
343.33000,-1.812101328
343.33050,-0.2861292898
343.33100,3.986592418
343.33150,8.564508534
343.33200,8.869702941
343.33250,5.512564457
343.33300,2.155425972
343.33350,0.01906511792
343.33400,-1.201712513
343.33450,-1.812101328
343.33500,-1.201712513
343.33550,-0.5913236975
343.33600,-0.2861292898
343.33650,0.3242595256
343.33700,2.765814787
343.33750,5.512564457
343.33800,7.038536495
343.33850,6.733342087
343.33900,5.512564457
343.33950,4.291786826
343.34000,3.376203603
343.34050,3.071009195
343.34100,2.765814787
343.34150,1.545037156
343.34200,0.3242595256
343.34250,-0.2861292898
343.34300,-0.8965181052
343.34350,-1.812101328
343.34400,-1.812101328
343.34450,-1.506906921
343.34500,-2.422490144
343.34550,-4.558850998
343.34600,-4.864045405
343.34650,-1.506906921
343.34700,2.765814787
343.34750,4.291786826
343.34800,2.155425972
343.34850,0.01906511792
343.34900,-0.8965181052
343.34950,-1.812101328
343.35000,-3.032878959
343.35050,-3.948462182
343.35100,-4.25365659
343.35150,-4.558850998
343.35200,-5.779628628
343.35250,-6.084823036
343.35300,-5.474434221
343.35350,-5.169239813
343.35400,-5.169239813
343.35450,-4.558850998
343.35500,-3.032878959
343.35550,-2.422490144
343.35600,-2.117295736
343.35650,-0.2861292898
343.35700,2.46062038
343.35750,4.291786826
343.35800,3.986592418
343.35850,3.376203603
343.35900,3.986592418
343.35950,4.291786826
343.36000,3.071009195
343.36050,1.850231564
343.36100,2.46062038
343.36150,5.512564457
343.36200,8.259314126
343.36250,9.480091757
343.36300,8.564508534
343.36350,6.733342087
343.36400,6.122953272
343.36450,5.512564457
343.36500,3.68139801
343.36550,0.01906511792
343.36600,-3.338073367
343.36650,-5.169239813
343.36700,-5.169239813
343.36750,-4.864045405
343.36800,-3.948462182
343.36850,-2.117295736
343.36900,0.01906511792
343.36950,0.934648341
343.37000,1.239842749
343.37050,0.01906511792
343.37100,-2.422490144
343.37150,-4.558850998
343.37200,-3.338073367
343.37250,0.3242595256
343.37300,3.071009195
343.37350,2.155425972
343.37400,0.01906511792
343.37450,-1.201712513
343.37500,-2.117295736
343.37550,-4.864045405
343.37600,-7.915989482
343.37650,-7.915989482
343.37700,-6.084823036
343.37750,-5.474434221
343.37800,-6.390017444
343.37850,-6.695211852
343.37900,-3.948462182
343.37950,0.6294539333
343.38000,4.291786826
343.38050,4.596981233
343.38100,2.155425972
343.38150,0.01906511792
343.38200,-0.5913236975
343.38250,-0.5913236975
343.38300,-1.201712513
343.38350,-2.422490144
343.38400,-3.032878959
343.38450,-1.812101328
343.38500,-0.5913236975
343.38550,0.3242595256
343.38600,2.155425972
343.38650,3.986592418
343.38700,3.986592418
343.38750,2.155425972
343.38800,0.6294539333
343.38850,1.545037156
343.38900,2.765814787
343.38950,1.850231564
343.39000,-0.8965181052
343.39050,-3.032878959
343.39100,-3.032878959
343.39150,-0.8965181052
343.39200,1.545037156
343.39250,3.071009195
343.39300,3.071009195
343.39350,3.376203603
343.39400,4.902175641
343.39450,6.733342087
343.39500,6.42814768
343.39550,4.291786826
343.39600,1.850231564
343.39650,-0.2861292898
343.39700,-3.643267774
343.39750,-7.305600667
343.39800,-8.526378298
343.39850,-5.474434221
343.39900,0.01906511792
343.39950,2.765814787
343.40000,2.46062038
343.40050,0.01906511792
343.40100,-1.506906921
343.40150,-2.727684551
343.40200,-2.422490144
343.40250,-0.5913236975
343.40300,1.850231564
343.40350,3.986592418
343.40400,4.291786826
343.40450,3.071009195
343.40500,2.155425972
343.40550,1.850231564
343.40600,2.765814787
343.40650,4.291786826
343.40700,6.733342087
343.40750,7.64892531
343.40800,3.986592418
343.40850,-2.422490144
343.40900,-7.000406259
343.40950,-5.474434221
343.41000,0.01906511792
343.41050,2.765814787
343.41100,0.6294539333
343.41150,-3.948462182
343.41200,-6.390017444
343.41250,-4.864045405
343.41300,-2.727684551
343.41350,-3.338073367
343.41400,-5.779628628
343.41450,-6.695211852
343.41500,-6.390017444
343.41550,-6.390017444
343.41600,-7.000406259
343.41650,-5.779628628
343.41700,-2.117295736
343.41750,0.6294539333
343.41800,0.934648341
343.41850,-0.5913236975
343.41900,-0.8965181052
343.41950,0.01906511792
343.42000,0.01906511792
343.42050,0.3242595256
343.42100,0.934648341
343.42150,0.6294539333
343.42200,-1.201712513
343.42250,-5.169239813
343.42300,-7.000406259
343.42350,-6.390017444
343.42400,-6.084823036
343.42450,-6.390017444
343.42500,-5.169239813
343.42550,-0.5913236975
343.42600,5.512564457
343.42650,10.09048057
343.42700,10.70086939
343.42750,8.564508534
343.42800,4.902175641
343.42850,1.850231564
343.42900,0.6294539333
343.42950,1.239842749
343.43000,3.376203603
343.43050,6.122953272
343.43100,8.564508534
343.43150,10.09048057
343.43200,10.39567498
343.43250,9.785286164
343.43300,7.64892531
343.43350,3.071009195
343.43400,-2.422490144
343.43450,-5.779628628
343.43500,-4.864045405
343.43550,-1.812101328
343.43600,-0.5913236975
343.43650,-2.117295736
343.43700,-4.25365659
343.43750,-6.084823036
343.43800,-7.305600667
343.43850,-7.915989482
343.43900,-7.610795075
343.43950,-6.695211852
343.44000,-6.084823036
343.44050,-6.695211852
343.44100,-7.610795075
343.44150,-7.610795075
343.44200,-6.084823036
343.44250,-3.338073367
343.44300,-0.8965181052
343.44350,-0.5913236975
343.44400,-2.727684551
343.44450,-3.948462182
343.44500,-2.422490144
343.44550,-0.5913236975
343.44600,-0.8965181052
343.44650,-2.422490144
343.44700,-1.201712513
343.44750,3.376203603
343.44800,7.038536495
343.44850,6.42814768
343.44900,3.68139801
343.44950,2.765814787
343.45000,4.291786826
343.45050,5.512564457
343.45100,6.733342087
343.45150,8.869702941
343.45200,11.0060638
343.45250,10.39567498
343.45300,6.733342087
343.45350,2.765814787
343.45400,0.6294539333
343.45450,0.01906511792
343.45500,-0.2861292898
343.45550,-0.8965181052
343.45600,-0.5913236975
343.45650,-0.8965181052
343.45700,-1.506906921
343.45750,-1.201712513
343.45800,1.850231564
343.45850,5.207370049
343.45900,3.986592418
343.45950,-0.8965181052
343.46000,-5.169239813
343.46050,-5.779628628
343.46100,-4.558850998
343.46150,-5.169239813
343.46200,-7.000406259
343.46250,-7.305600667
343.46300,-4.864045405
343.46350,-2.727684551
343.46400,-1.201712513
343.46450,0.01906511792
343.46500,3.071009195
343.46550,6.42814768
343.46600,7.64892531
343.46650,6.122953272
343.46700,3.986592418
343.46750,3.68139801
343.46800,4.596981233
343.46850,5.817758864
343.46900,7.343730903
343.46950,9.174897349
343.47000,9.785286164
343.47050,7.038536495
343.47100,3.376203603
343.47150,1.850231564
343.47200,4.291786826
343.47250,6.42814768
343.47300,5.512564457
343.47350,2.765814787
343.47400,1.850231564
343.47450,2.155425972
343.47500,1.239842749
343.47550,-0.5913236975
343.47600,-0.8965181052
343.47650,0.6294539333
343.47700,1.850231564
343.47750,1.545037156
343.47800,0.6294539333
343.47850,0.01906511792
343.47900,-1.812101328
343.47950,-5.169239813
343.48000,-7.000406259
343.48050,-7.000406259
343.48100,-6.695211852
343.48150,-8.22118389
343.48200,-10.05235034
343.48250,-10.35754474
343.48300,-8.526378298
343.48350,-6.390017444
343.48400,-5.169239813
343.48450,-4.558850998
343.48500,-3.643267774
343.48550,-1.812101328
343.48600,0.934648341
343.48650,3.376203603
343.48700,2.765814787
343.48750,0.934648341
343.48800,0.6294539333
343.48850,3.68139801
343.48900,6.42814768
343.48950,6.122953272
343.49000,3.68139801
343.49050,2.46062038
343.49100,2.765814787
343.49150,2.765814787
343.49200,2.155425972
343.49250,1.850231564
343.49300,2.155425972
343.49350,2.155425972
343.49400,1.850231564
343.49450,0.6294539333
343.49500,-0.8965181052
343.49550,-3.948462182
343.49600,-6.084823036
343.49650,-5.779628628
343.49700,-3.032878959
343.49750,0.01906511792
343.49800,2.765814787
343.49850,4.596981233
343.49900,6.42814768
343.49950,7.038536495
343.50000,5.817758864
343.50050,3.68139801
343.50100,1.545037156
343.50150,0.934648341
343.50200,0.3242595256
343.50250,0.01906511792
343.50300,-1.506906921
343.50350,-2.117295736
343.50400,-2.117295736
343.50450,-0.8965181052
343.50500,0.01906511792
343.50550,0.01906511792
343.50600,0.01906511792
343.50650,0.3242595256
343.50700,0.934648341
343.50750,0.934648341
343.50800,0.01906511792
343.50850,-1.201712513
343.50900,-3.338073367
343.50950,-4.25365659
343.51000,-3.032878959
343.51050,0.01906511792
343.51100,0.934648341
343.51150,-3.032878959
343.51200,-9.441961521
343.51250,-11.57832237
343.51300,-7.305600667
343.51350,-2.117295736
343.51400,-0.2861292898
343.51450,-0.5913236975
343.51500,0.01906511792
343.51550,3.376203603
343.51600,6.122953272
343.51650,5.207370049
343.51700,0.6294539333
343.51750,-4.558850998
343.51800,-7.000406259
343.51850,-4.864045405
343.51900,0.01906511792
343.51950,3.376203603
343.52000,3.68139801
343.52050,2.46062038
343.52100,2.155425972
343.52150,3.071009195
343.52200,3.68139801
343.52250,3.376203603
343.52300,3.376203603
343.52350,3.68139801
343.52400,3.376203603
343.52450,1.239842749
343.52500,-1.506906921
343.52550,-3.032878959
343.52600,-2.117295736
343.52650,0.01906511792
343.52700,0.934648341
343.52750,0.6294539333
343.52800,0.6294539333
343.52850,1.850231564
343.52900,3.986592418
343.52950,5.207370049
343.53000,4.902175641
343.53050,3.986592418
343.53100,3.071009195
343.53150,1.850231564
343.53200,0.934648341
343.53250,0.6294539333
343.53300,0.6294539333
343.53350,0.3242595256
343.53400,0.3242595256
343.53450,1.239842749
343.53500,0.934648341
343.53550,-2.117295736
343.53600,-7.305600667
343.53650,-9.747155929
343.53700,-7.915989482
343.53750,-5.169239813
343.53800,-4.864045405
343.53850,-6.084823036
343.53900,-5.779628628
343.53950,-4.558850998
343.54000,-3.948462182
343.54050,-2.727684551
343.54100,1.239842749
343.54150,9.480091757
343.54200,17.10995195
343.54250,18.02553517
343.54300,12.22684143
343.54350,4.596981233
343.54400,0.3242595256
343.54450,0.01906511792
343.54500,0.01906511792
343.54550,-1.201712513
343.54600,-2.727684551
343.54650,-3.032878959
343.54700,-1.506906921
343.54750,-0.2861292898
343.54800,-0.5913236975
343.54850,-1.812101328
343.54900,-2.422490144
343.54950,-2.422490144
343.55000,-2.727684551
343.55050,-2.727684551
343.55100,-2.727684551
343.55150,-2.117295736
343.55200,-1.812101328
343.55250,-2.422490144
343.55300,-3.032878959
343.55350,-3.948462182
343.55400,-4.25365659
343.55450,-3.338073367
343.55500,-1.506906921
343.55550,-0.2861292898
343.55600,-0.2861292898
343.55650,-1.506906921
343.55700,-3.032878959
343.55750,-3.948462182
343.55800,-2.727684551
343.55850,0.6294539333
343.55900,4.291786826
343.55950,4.596981233
343.56000,2.155425972
343.56050,0.6294539333
343.56100,1.850231564
343.56150,3.68139801
343.56200,1.850231564
343.56250,-2.422490144
343.56300,-6.084823036
343.56350,-6.390017444
343.56400,-4.864045405
343.56450,-2.422490144
343.56500,0.01906511792
343.56550,2.155425972
343.56600,2.765814787
343.56650,2.155425972
343.56700,2.155425972
343.56750,3.376203603
343.56800,4.291786826
343.56850,3.071009195
343.56900,0.934648341
343.56950,0.01906511792
343.57000,0.3242595256
343.57050,0.3242595256
343.57100,-0.5913236975
343.57150,-0.2861292898
343.57200,3.071009195
343.57250,7.64892531
343.57300,9.174897349
343.57350,5.817758864
343.57400,1.239842749
343.57450,0.3242595256
343.57500,4.291786826
343.57550,8.869702941
343.57600,9.174897349
343.57650,4.596981233
343.57700,0.01906511792
343.57750,-2.422490144
343.57800,-2.117295736
343.57850,-2.117295736
343.57900,-3.643267774
343.57950,-5.474434221
343.58000,-6.390017444
343.58050,-6.084823036
343.58100,-4.25365659
343.58150,-0.5913236975
343.58200,3.376203603
343.58250,5.207370049
343.58300,3.986592418
343.58350,1.545037156
343.58400,0.01906511792
343.58450,-0.5913236975
343.58500,-0.8965181052
343.58550,-2.422490144
343.58600,-3.948462182
343.58650,-4.558850998
343.58700,-3.032878959
343.58750,-0.5913236975
343.58800,0.01906511792
343.58850,-1.812101328
343.58900,-4.25365659
343.58950,-4.25365659
343.59000,-1.812101328
343.59050,-1.201712513
343.59100,-3.643267774
343.59150,-6.390017444
343.59200,-6.390017444
343.59250,-4.864045405
343.59300,-4.558850998
343.59350,-5.169239813
343.59400,-4.558850998
343.59450,-3.338073367
343.59500,-3.032878959
343.59550,-3.643267774
343.59600,-3.643267774
343.59650,-2.422490144
343.59700,-2.117295736
343.59750,-3.032878959
343.59800,-3.643267774
343.59850,-1.506906921
343.59900,1.545037156
343.59950,3.376203603
343.60000,2.46062038
343.60050,0.01906511792
343.60100,-0.2861292898
343.60150,1.850231564
343.60200,5.207370049
343.60250,5.817758864
343.60300,4.291786826
343.60350,3.68139801
343.60400,4.596981233
343.60450,5.207370049
343.60500,3.986592418
343.60550,3.376203603
343.60600,5.512564457
343.60650,7.954119718
343.60700,6.122953272
343.60750,0.3242595256
343.60800,-3.338073367
343.60850,-2.422490144
343.60900,0.6294539333
343.60950,0.6294539333
343.61000,-3.032878959
343.61050,-6.390017444
343.61100,-6.390017444
343.61150,-4.558850998
343.61200,-3.948462182
343.61250,-5.169239813
343.61300,-6.695211852
343.61350,-7.305600667
343.61400,-7.610795075
343.61450,-8.22118389
343.61500,-7.915989482
343.61550,-7.000406259
343.61600,-6.695211852
343.61650,-6.390017444
343.61700,-4.25365659
343.61750,0.01906511792
343.61800,1.239842749
343.61850,-1.506906921
343.61900,-4.558850998
343.61950,-3.338073367
343.62000,0.934648341
343.62050,2.765814787
343.62100,0.934648341
343.62150,-0.8965181052
343.62200,0.01906511792
343.62250,2.46062038
343.62300,3.986592418
343.62350,3.376203603
343.62400,2.155425972
343.62450,1.850231564
