"type","name","time_units","begin_time","frequency","count","units"
"signal","Ultium EMG-FLEX.CARP.R RT","s",340.98000,2000,22000,"uV"

"time","value"
340.98000,-3.373000663
340.98050,-0.9314454012
340.98100,0.2893322296
340.98150,-0.01586217811
340.98200,1.204915453
340.98250,6.698414791
340.98300,11.27633091
340.98350,10.05555328
340.98400,1.51010986
340.98450,-9.476888817
340.98500,-16.49636019
340.98550,-16.19116579
340.98600,-13.74961052
340.98650,-16.49636019
340.98700,-19.85349868
340.98750,-8.561305594
340.98800,22.26332958
340.98850,54.91913121
340.98900,62.85418581
340.98950,43.93213253
340.99000,20.43216314
340.99050,9.750358868
340.99100,8.529581238
340.99150,6.088025976
340.99200,1.51010986
340.99250,-0.3210565858
340.99300,-0.6262509935
340.99350,-2.762611847
340.99400,-6.119750332
340.99450,-6.730139148
340.99500,-6.119750332
340.99550,-6.730139148
340.99600,-7.340527963
340.99650,-5.509361517
340.99700,-3.067806255
340.99750,-4.288583886
340.99800,-6.730139148
340.99850,-3.983389478
340.99900,3.951665122
340.99950,10.66594209
341.00000,10.9711365
341.00050,6.088025976
341.00100,1.204915453
341.00150,-2.152223032
341.00200,-4.898972701
341.00250,-6.42494474
341.00300,-5.509361517
341.00350,-3.067806255
341.00400,-0.6262509935
341.00450,-0.01586217811
341.00500,-0.01586217811
341.00550,-0.6262509935
341.00600,-0.9314454012
341.00650,-0.01586217811
341.00700,2.120498676
341.00750,4.867248345
341.00800,4.25685953
341.00850,0.899721045
341.00900,-0.9314454012
341.00950,1.815304268
341.01000,7.003609199
341.01050,6.698414791
341.01100,-2.762611847
341.01150,-16.49636019
341.01200,-26.56777565
341.01250,-28.39894209
341.01300,-23.82102598
341.01350,-16.19116579
341.01400,-8.561305594
341.01450,-2.45741744
341.01500,-0.01586217811
341.01550,-1.236639809
341.01600,-3.373000663
341.01650,-0.9314454012
341.01700,7.919192422
341.01750,17.07502465
341.01800,16.15944143
341.01850,5.477637161
341.01900,-0.6262509935
341.01950,5.477637161
341.02000,13.71788617
341.02050,3.341276307
341.02100,-25.04180361
341.02150,-48.23657859
341.02200,-45.48982893
341.02250,-25.04180361
341.02300,-10.39247204
341.02350,-9.171694409
341.02400,-11.30805526
341.02450,-8.256111186
341.02500,-3.678195071
341.02550,-2.152223032
341.02600,-0.6262509935
341.02650,3.036081899
341.02700,3.951665122
341.02750,-2.762611847
341.02800,-11.91844408
341.02850,-11.00286086
341.02900,0.2893322296
341.02950,9.445164461
341.03000,6.088025976
341.03050,-4.898972701
341.03100,-10.39247204
341.03150,-4.288583886
341.03200,4.562053937
341.03250,6.088025976
341.03300,1.51010986
341.03350,1.815304268
341.03400,11.88671972
341.03450,24.09449603
341.03500,27.45163452
341.03550,21.65294077
341.03600,14.02308058
341.03650,10.05555328
341.03700,8.834775645
341.03750,8.22438683
341.03800,7.003609199
341.03850,6.088025976
341.03900,5.782831568
341.03950,6.698414791
341.04000,7.613998014
341.04050,6.393220384
341.04100,2.120498676
341.04150,-1.847028624
341.04200,-2.45741744
341.04250,-0.01586217811
341.04300,2.730887491
341.04350,3.341276307
341.04400,3.341276307
341.04450,3.036081899
341.04500,3.341276307
341.04550,3.646470714
341.04600,4.25685953
341.04650,3.951665122
341.04700,2.730887491
341.04750,0.899721045
341.04800,0.5945266373
341.04850,0.899721045
341.04900,1.204915453
341.04950,0.5945266373
341.05000,0.2893322296
341.05050,0.899721045
341.05100,1.51010986
341.05150,1.204915453
341.05200,0.2893322296
341.05250,0.2893322296
341.05300,0.2893322296
341.05350,-0.01586217811
341.05400,-0.9314454012
341.05450,-0.3210565858
341.05500,0.5945266373
341.05550,0.5945266373
341.05600,-0.6262509935
341.05650,-2.152223032
341.05700,-2.152223032
341.05750,-1.541834217
341.05800,-0.9314454012
341.05850,-0.6262509935
341.05900,-0.01586217811
341.05950,-0.01586217811
341.06000,0.5945266373
341.06050,2.120498676
341.06100,3.036081899
341.06150,1.204915453
341.06200,-1.236639809
341.06250,-1.847028624
341.06300,-0.01586217811
341.06350,1.204915453
341.06400,1.204915453
341.06450,0.899721045
341.06500,-0.01586217811
341.06550,-2.762611847
341.06600,-4.593778294
341.06650,-2.45741744
341.06700,2.425693084
341.06750,5.477637161
341.06800,3.951665122
341.06850,0.899721045
341.06900,-0.6262509935
341.06950,0.5945266373
341.07000,6.088025976
341.07050,10.66594209
341.07100,4.562053937
341.07150,-14.66519375
341.07200,-33.28205262
341.07250,-33.58724703
341.07300,-17.41194342
341.07350,-3.983389478
341.07400,-2.762611847
341.07450,-6.730139148
341.07500,-6.42494474
341.07550,-4.288583886
341.07600,-2.45741744
341.07650,2.730887491
341.07700,14.32827498
341.07750,24.09449603
341.07800,24.39969044
341.07850,17.38021906
341.07900,11.58152531
341.07950,11.27633091
341.08000,13.41269176
341.08050,13.41269176
341.08100,9.445164461
341.08150,5.172442753
341.08200,5.782831568
341.08250,7.919192422
341.08300,-0.01586217811
341.08350,-23.82102598
341.08400,-47.93138419
341.08450,-52.81449471
341.08500,-39.99632959
341.08550,-25.65219243
341.08600,-18.32752664
341.08650,-9.476888817
341.08700,6.393220384
341.08750,19.51657991
341.08800,19.51657991
341.08850,11.58152531
341.08900,9.139970053
341.08950,13.41269176
341.09000,15.24385821
341.09050,8.834775645
341.09100,-0.01586217811
341.09150,-4.593778294
341.09200,-4.898972701
341.09250,-4.593778294
341.09300,-4.593778294
341.09350,-3.983389478
341.09400,-2.152223032
341.09450,-1.236639809
341.09500,-1.236639809
341.09550,-0.6262509935
341.09600,-0.01586217811
341.09650,-0.01586217811
341.09700,-1.541834217
341.09750,-1.236639809
341.09800,2.120498676
341.09850,5.477637161
341.09900,3.951665122
341.09950,-2.762611847
341.10000,-12.52883289
341.10050,-22.29505394
341.10100,-27.48335887
341.10150,-24.7366092
341.10200,-18.93791546
341.10250,-18.63272105
341.10300,-20.7690819
341.10350,-8.866500001
341.10400,22.8737184
341.10450,55.52952002
341.10500,61.32821377
341.10550,39.35421642
341.10600,14.63346939
341.10650,5.172442753
341.10700,5.477637161
341.10750,4.25685953
341.10800,0.899721045
341.10850,-0.01586217811
341.10900,0.899721045
341.10950,-0.01586217811
341.11000,-1.847028624
341.11050,-0.9314454012
341.11100,0.899721045
341.11150,1.815304268
341.11200,1.204915453
341.11250,1.51010986
341.11300,2.730887491
341.11350,3.341276307
341.11400,3.036081899
341.11450,1.815304268
341.11500,-1.847028624
341.11550,-6.730139148
341.11600,-8.866500001
341.11650,-6.730139148
341.11700,-3.678195071
341.11750,-2.152223032
341.11800,-1.847028624
341.11850,-2.152223032
341.11900,-3.067806255
341.11950,-3.678195071
341.12000,-0.01586217811
341.12050,6.393220384
341.12100,10.66594209
341.12150,9.445164461
341.12200,6.698414791
341.12250,6.088025976
341.12300,4.562053937
341.12350,-2.152223032
341.12400,-11.30805526
341.12450,-15.58077697
341.12500,-13.44441612
341.12550,-9.476888817
341.12600,-8.256111186
341.12650,-8.256111186
341.12700,-8.866500001
341.12750,-11.91844408
341.12800,-18.32752664
341.12850,-23.82102598
341.12900,-21.07427631
341.12950,-7.950916778
341.13000,3.951665122
341.13050,4.562053937
341.13100,-3.373000663
341.13150,-3.373000663
341.13200,10.05555328
341.13250,22.26332958
341.13300,15.54905261
341.13350,-2.152223032
341.13400,-11.00286086
341.13450,-3.678195071
341.13500,3.646470714
341.13550,-0.01586217811
341.13600,-7.645722371
341.13650,-8.256111186
341.13700,-2.152223032
341.13750,2.120498676
341.13800,3.341276307
341.13850,5.172442753
341.13900,5.782831568
341.13950,2.730887491
341.14000,-0.9314454012
341.14050,-0.6262509935
341.14100,2.425693084
341.14150,4.562053937
341.14200,3.646470714
341.14250,3.341276307
341.14300,3.951665122
341.14350,4.562053937
341.14400,3.951665122
341.14450,3.341276307
341.14500,3.036081899
341.14550,3.036081899
341.14600,2.730887491
341.14650,1.815304268
341.14700,0.899721045
341.14750,-0.01586217811
341.14800,0.2893322296
341.14850,2.120498676
341.14900,3.951665122
341.14950,3.951665122
341.15000,3.036081899
341.15050,2.120498676
341.15100,1.815304268
341.15150,0.899721045
341.15200,-0.01586217811
341.15250,-0.6262509935
341.15300,-1.236639809
341.15350,-1.236639809
341.15400,-1.236639809
341.15450,-1.236639809
341.15500,-1.236639809
341.15550,-0.6262509935
341.15600,-0.01586217811
341.15650,0.899721045
341.15700,3.036081899
341.15750,7.003609199
341.15800,10.9711365
341.15850,12.19191413
341.15900,9.445164461
341.15950,5.477637161
341.16000,3.036081899
341.16050,3.036081899
341.16100,4.25685953
341.16150,4.25685953
341.16200,3.036081899
341.16250,1.815304268
341.16300,2.120498676
341.16350,2.730887491
341.16400,3.036081899
341.16450,1.51010986
341.16500,-0.01586217811
341.16550,-0.9314454012
341.16600,-1.236639809
341.16650,-0.6262509935
341.16700,0.5945266373
341.16750,-0.3210565858
341.16800,-4.898972701
341.16850,-8.561305594
341.16900,-5.204167109
341.16950,4.25685953
341.17000,11.27633091
341.17050,9.750358868
341.17100,3.036081899
341.17150,-0.9314454012
341.17200,-1.236639809
341.17250,-0.9314454012
341.17300,-0.6262509935
341.17350,0.2893322296
341.17400,0.899721045
341.17450,-0.01586217811
341.17500,-0.9314454012
341.17550,0.2893322296
341.17600,2.425693084
341.17650,3.036081899
341.17700,3.036081899
341.17750,3.341276307
341.17800,2.425693084
341.17850,-0.3210565858
341.17900,-2.45741744
341.17950,-0.3210565858
341.18000,2.425693084
341.18050,3.341276307
341.18100,3.646470714
341.18150,4.867248345
341.18200,4.867248345
341.18250,3.341276307
341.18300,5.477637161
341.18350,11.27633091
341.18400,9.139970053
341.18450,-8.561305594
341.18500,-33.58724703
341.18550,-47.62618978
341.18600,-46.71060656
341.18650,-38.47035755
341.18700,-28.7041365
341.18750,-17.41194342
341.18800,-7.035333555
341.18850,-3.983389478
341.18900,-7.645722371
341.18950,-13.13922171
341.19000,-19.85349868
341.19050,-28.39894209
341.19100,-31.45088617
341.19150,-23.51583157
341.19200,-11.91844408
341.19250,-9.171694409
341.19300,-7.950916778
341.19350,10.66594209
341.19400,46.98407661
341.19450,71.70482363
341.19500,64.07496344
341.19550,35.69188352
341.19600,14.02308058
341.19650,7.919192422
341.19700,7.919192422
341.19750,6.393220384
341.19800,4.25685953
341.19850,3.951665122
341.19900,2.730887491
341.19950,0.899721045
341.20000,0.5945266373
341.20050,2.730887491
341.20100,6.393220384
341.20150,12.19191413
341.20200,18.60099669
341.20250,21.95813518
341.20300,18.9061911
341.20350,13.41269176
341.20400,10.9711365
341.20450,9.750358868
341.20500,3.341276307
341.20550,-8.866500001
341.20600,-19.85349868
341.20650,-22.90544276
341.20700,-18.63272105
341.20750,-12.52883289
341.20800,-7.645722371
341.20850,-3.067806255
341.20900,2.730887491
341.20950,8.529581238
341.21000,12.19191413
341.21050,10.05555328
341.21100,3.951665122
341.21150,-1.236639809
341.21200,-0.6262509935
341.21250,2.425693084
341.21300,1.204915453
341.21350,-5.204167109
341.21400,-9.171694409
341.21450,-4.898972701
341.21500,0.2893322296
341.21550,-3.067806255
341.21600,-13.44441612
341.21650,-17.41194342
341.21700,-7.645722371
341.21750,6.393220384
341.21800,12.19191413
341.21850,7.003609199
341.21900,-1.541834217
341.21950,-7.340527963
341.22000,-6.730139148
341.22050,-0.01586217811
341.22100,7.919192422
341.22150,9.750358868
341.22200,3.036081899
341.22250,-3.983389478
341.22300,-4.898972701
341.22350,-3.678195071
341.22400,-11.30805526
341.22450,-27.78855328
341.22500,-38.47035755
341.22550,-34.50283025
341.22600,-23.82102598
341.22650,-18.93791546
341.22700,-20.15869309
341.22750,-16.8015546
341.22800,-3.983389478
341.22850,10.36074768
341.22900,19.21138551
341.22950,23.78930162
341.23000,27.45163452
341.23050,28.36721774
341.23100,22.8737184
341.23150,13.71788617
341.23200,7.308803607
341.23250,6.088025976
341.23300,6.698414791
341.23350,5.782831568
341.23400,3.646470714
341.23450,1.815304268
341.23500,0.5945266373
341.23550,0.2893322296
341.23600,1.204915453
341.23650,0.5945266373
341.23700,-3.678195071
341.23750,-11.30805526
341.23800,-16.8015546
341.23850,-15.88597138
341.23900,-10.39247204
341.23950,-4.898972701
341.24000,-1.847028624
341.24050,-0.01586217811
341.24100,1.815304268
341.24150,3.951665122
341.24200,4.562053937
341.24250,2.120498676
341.24300,-0.6262509935
341.24350,-1.541834217
341.24400,0.2893322296
341.24450,3.951665122
341.24500,6.088025976
341.24550,5.782831568
341.24600,3.646470714
341.24650,1.204915453
341.24700,0.899721045
341.24750,3.036081899
341.24800,2.425693084
341.24850,-5.509361517
341.24900,-16.19116579
341.24950,-18.02233223
341.25000,-7.035333555
341.25050,6.088025976
341.25100,9.750358868
341.25150,5.172442753
341.25200,1.815304268
341.25250,3.341276307
341.25300,4.25685953
341.25350,0.899721045
341.25400,-2.152223032
341.25450,-1.236639809
341.25500,3.036081899
341.25550,5.782831568
341.25600,4.867248345
341.25650,2.120498676
341.25700,-0.01586217811
341.25750,-1.541834217
341.25800,-2.762611847
341.25850,-3.373000663
341.25900,-3.067806255
341.25950,-1.541834217
341.26000,-0.01586217811
341.26050,-0.01586217811
341.26100,-0.01586217811
341.26150,0.5945266373
341.26200,1.204915453
341.26250,-0.6262509935
341.26300,-4.898972701
341.26350,-5.814555924
341.26400,-1.236639809
341.26450,5.477637161
341.26500,9.445164461
341.26550,10.05555328
341.26600,7.919192422
341.26650,0.2893322296
341.26700,-12.8340273
341.26750,-23.21063716
341.26800,-21.37947072
341.26850,-9.476888817
341.26900,3.036081899
341.26950,11.88671972
341.27000,18.29580228
341.27050,22.56852399
341.27100,19.51657991
341.27150,9.445164461
341.27200,0.899721045
341.27250,2.425693084
341.27300,12.49710854
341.27350,25.01007925
341.27400,34.16591148
341.27450,33.86071708
341.27500,17.38021906
341.27550,-13.13922171
341.27600,-42.43788485
341.27650,-53.42488353
341.27700,-44.5742457
341.27750,-29.92491413
341.27800,-19.85349868
341.27850,-14.05480493
341.27900,-7.645722371
341.27950,-0.9314454012
341.28000,2.120498676
341.28050,1.204915453
341.28100,-1.847028624
341.28150,-3.983389478
341.28200,-3.373000663
341.28250,-1.541834217
341.28300,-1.236639809
341.28350,-2.762611847
341.28400,-3.373000663
341.28450,-0.9314454012
341.28500,2.120498676
341.28550,2.730887491
341.28600,2.730887491
341.28650,5.782831568
341.28700,9.750358868
341.28750,10.36074768
341.28800,7.613998014
341.28850,5.782831568
341.28900,6.088025976
341.28950,4.562053937
341.29000,1.204915453
341.29050,0.899721045
341.29100,4.562053937
341.29150,6.393220384
341.29200,4.25685953
341.29250,1.815304268
341.29300,2.730887491
341.29350,3.036081899
341.29400,-1.847028624
341.29450,-11.30805526
341.29500,-21.68466512
341.29550,-29.92491413
341.29600,-32.06127499
341.29650,-26.87297006
341.29700,-22.29505394
341.29750,-25.04180361
341.29800,-25.65219243
341.29850,-4.288583886
341.29900,37.82824438
341.29950,72.31521245
341.30000,72.92560126
341.30050,47.28927102
341.30100,23.17891281
341.30150,13.71788617
341.30200,10.36074768
341.30250,4.867248345
341.30300,0.2893322296
341.30350,1.204915453
341.30400,4.562053937
341.30450,5.172442753
341.30500,3.646470714
341.30550,1.51010986
341.30600,-0.01586217811
341.30650,-0.9314454012
341.30700,0.2893322296
341.30750,4.562053937
341.30800,8.529581238
341.30850,9.139970053
341.30900,5.172442753
341.30950,0.2893322296
341.31000,-0.9314454012
341.31050,0.899721045
341.31100,1.204915453
341.31150,-2.762611847
341.31200,-7.645722371
341.31250,-6.42494474
341.31300,-0.6262509935
341.31350,1.204915453
341.31400,-3.678195071
341.31450,-10.39247204
341.31500,-12.52883289
341.31550,-11.00286086
341.31600,-8.866500001
341.31650,-8.256111186
341.31700,-8.866500001
341.31750,-10.39247204
341.31800,-9.782083225
341.31850,-4.898972701
341.31900,0.899721045
341.31950,0.5945266373
341.32000,-5.814555924
341.32050,-10.08727763
341.32100,-5.509361517
341.32150,3.036081899
341.32200,7.308803607
341.32250,6.088025976
341.32300,4.25685953
341.32350,4.562053937
341.32400,2.730887491
341.32450,-2.152223032
341.32500,-6.730139148
341.32550,-7.950916778
341.32600,-5.204167109
341.32650,-1.541834217
341.32700,1.815304268
341.32750,3.341276307
341.32800,2.730887491
341.32850,1.204915453
341.32900,-0.01586217811
341.32950,-2.762611847
341.33000,-7.645722371
341.33050,-12.22363849
341.33100,-11.91844408
341.33150,-6.42494474
341.33200,-3.067806255
341.33250,-5.204167109
341.33300,-9.476888817
341.33350,-10.39247204
341.33400,-6.42494474
341.33450,-0.9314454012
341.33500,2.730887491
341.33550,5.172442753
341.33600,5.477637161
341.33650,3.341276307
341.33700,-0.01586217811
341.33750,-1.847028624
341.33800,-1.847028624
341.33850,-2.152223032
341.33900,-3.983389478
341.33950,-6.119750332
341.34000,-6.42494474
341.34050,-4.593778294
341.34100,-0.9314454012
341.34150,1.51010986
341.34200,1.51010986
341.34250,-0.9314454012
341.34300,-2.762611847
341.34350,-0.6262509935
341.34400,3.951665122
341.34450,8.834775645
341.34500,11.58152531
341.34550,10.9711365
341.34600,8.22438683
341.34650,6.698414791
341.34700,8.834775645
341.34750,11.58152531
341.34800,9.139970053
341.34850,0.899721045
341.34900,-5.509361517
341.34950,-4.593778294
341.35000,0.2893322296
341.35050,3.036081899
341.35100,2.730887491
341.35150,2.425693084
341.35200,2.120498676
341.35250,1.204915453
341.35300,0.5945266373
341.35350,2.425693084
341.35400,3.646470714
341.35450,0.899721045
341.35500,-3.983389478
341.35550,-5.814555924
341.35600,-4.593778294
341.35650,-5.814555924
341.35700,-10.39247204
341.35750,-13.13922171
341.35800,-10.39247204
341.35850,-5.509361517
341.35900,-3.067806255
341.35950,-4.898972701
341.36000,-9.171694409
341.36050,-14.05480493
341.36100,-15.27558256
341.36150,-10.69766645
341.36200,-2.152223032
341.36250,7.919192422
341.36300,19.82177432
341.36350,31.11396741
341.36400,32.63993945
341.36450,17.07502465
341.36500,-5.204167109
341.36550,-14.66519375
341.36600,-3.983389478
341.36650,11.27633091
341.36700,16.46463584
341.36750,11.88671972
341.36800,8.529581238
341.36850,9.445164461
341.36900,10.05555328
341.36950,7.919192422
341.37000,7.003609199
341.37050,8.529581238
341.37100,10.9711365
341.37150,12.80230295
341.37200,12.19191413
341.37250,6.393220384
341.37300,-0.01586217811
341.37350,1.204915453
341.37400,10.36074768
341.37450,10.36074768
341.37500,-10.39247204
341.37550,-39.08074636
341.37600,-50.06774504
341.37650,-38.47035755
341.37700,-21.37947072
341.37750,-12.52883289
341.37800,-8.866500001
341.37850,-3.678195071
341.37900,-0.01586217811
341.37950,-1.541834217
341.38000,-4.288583886
341.38050,-2.762611847
341.38100,-0.01586217811
341.38150,0.2893322296
341.38200,0.5945266373
341.38250,3.036081899
341.38300,4.867248345
341.38350,4.25685953
341.38400,3.951665122
341.38450,4.867248345
341.38500,2.120498676
341.38550,-4.288583886
341.38600,-8.561305594
341.38650,-6.730139148
341.38700,-3.373000663
341.38750,-2.152223032
341.38800,1.204915453
341.38850,10.66594209
341.38900,18.29580228
341.38950,17.38021906
341.39000,10.05555328
341.39050,3.951665122
341.39100,-1.236639809
341.39150,-8.256111186
341.39200,-11.91844408
341.39250,-6.730139148
341.39300,2.120498676
341.39350,5.172442753
341.39400,1.204915453
341.39450,-1.236639809
341.39500,-0.6262509935
341.39550,-1.236639809
341.39600,-3.373000663
341.39650,-3.373000663
341.39700,-2.152223032
341.39750,-3.373000663
341.39800,-6.119750332
341.39850,-3.983389478
341.39900,3.341276307
341.39950,9.139970053
341.40000,9.139970053
341.40050,7.003609199
341.40100,6.088025976
341.40150,5.782831568
341.40200,2.425693084
341.40250,-3.983389478
341.40300,-11.61324967
341.40350,-16.19116579
341.40400,-13.13922171
341.40450,-4.288583886
341.40500,-0.01586217811
341.40550,-3.678195071
341.40600,-4.593778294
341.40650,8.22438683
341.40700,28.36721774
341.40750,36.60746675
341.40800,26.53605129
341.40850,10.66594209
341.40900,2.730887491
341.40950,2.730887491
341.41000,3.036081899
341.41050,-0.3210565858
341.41100,-5.814555924
341.41150,-9.782083225
341.41200,-9.476888817
341.41250,-3.983389478
341.41300,3.036081899
341.41350,6.393220384
341.41400,6.088025976
341.41450,7.308803607
341.41500,10.36074768
341.41550,10.9711365
341.41600,6.698414791
341.41650,2.120498676
341.41700,0.5945266373
341.41750,0.2893322296
341.41800,-1.847028624
341.41850,-3.678195071
341.41900,-3.373000663
341.41950,-1.847028624
341.42000,-2.762611847
341.42050,-5.204167109
341.42100,-6.119750332
341.42150,-4.593778294
341.42200,-2.152223032
341.42250,0.2893322296
341.42300,3.951665122
341.42350,7.613998014
341.42400,8.529581238
341.42450,4.867248345
341.42500,-1.541834217
341.42550,-8.561305594
341.42600,-13.13922171
341.42650,-15.58077697
341.42700,-16.19116579
341.42750,-13.13922171
341.42800,-5.814555924
341.42850,2.425693084
341.42900,5.782831568
341.42950,3.646470714
341.43000,1.51010986
341.43050,3.341276307
341.43100,7.003609199
341.43150,7.308803607
341.43200,3.036081899
341.43250,-2.762611847
341.43300,-7.950916778
341.43350,-9.782083225
341.43400,-7.340527963
341.43450,-0.9314454012
341.43500,4.562053937
341.43550,5.172442753
341.43600,1.204915453
341.43650,-1.236639809
341.43700,-0.3210565858
341.43750,0.5945266373
341.43800,-1.541834217
341.43850,-7.035333555
341.43900,-11.00286086
341.43950,-11.00286086
341.44000,-7.645722371
341.44050,-3.067806255
341.44100,0.899721045
341.44150,4.25685953
341.44200,4.562053937
341.44250,1.204915453
341.44300,-3.067806255
341.44350,-4.593778294
341.44400,-1.541834217
341.44450,2.120498676
341.44500,2.730887491
341.44550,-0.01586217811
341.44600,-2.762611847
341.44650,-3.983389478
341.44700,-3.983389478
341.44750,-3.983389478
341.44800,-4.898972701
341.44850,-7.035333555
341.44900,-9.476888817
341.44950,-8.866500001
341.45000,-2.152223032
341.45050,7.919192422
341.45100,13.10749735
341.45150,8.834775645
341.45200,0.2893322296
341.45250,-3.983389478
341.45300,-3.983389478
341.45350,-4.288583886
341.45400,-5.204167109
341.45450,-0.6262509935
341.45500,10.9711365
341.45550,22.56852399
341.45600,26.23085688
341.45650,21.95813518
341.45700,15.85424702
341.45750,10.66594209
341.45800,6.088025976
341.45850,2.730887491
341.45900,0.2893322296
341.45950,-3.373000663
341.46000,-11.91844408
341.46050,-22.29505394
341.46100,-27.78855328
341.46150,-23.51583157
341.46200,-10.69766645
341.46250,3.036081899
341.46300,9.750358868
341.46350,7.919192422
341.46400,3.646470714
341.46450,3.341276307
341.46500,4.867248345
341.46550,1.815304268
341.46600,-2.152223032
341.46650,3.341276307
341.46700,18.9061911
341.46750,25.92566248
341.46800,8.834775645
341.46850,-21.37947072
341.46900,-38.77555196
341.46950,-33.28205262
341.47000,-18.32752664
341.47050,-8.561305594
341.47100,-4.593778294
341.47150,-1.236639809
341.47200,-0.3210565858
341.47250,-4.593778294
341.47300,-8.866500001
341.47350,-7.340527963
341.47400,-3.067806255
341.47450,-2.45741744
341.47500,-5.204167109
341.47550,-6.119750332
341.47600,-3.373000663
341.47650,-1.541834217
341.47700,-1.236639809
341.47750,0.5945266373
341.47800,6.088025976
341.47850,10.66594209
341.47900,11.27633091
341.47950,9.139970053
341.48000,6.393220384
341.48050,3.646470714
341.48100,0.2893322296
341.48150,-0.9314454012
341.48200,-0.01586217811
341.48250,1.204915453
341.48300,1.815304268
341.48350,2.730887491
341.48400,3.951665122
341.48450,3.646470714
341.48500,1.204915453
341.48550,-0.01586217811
341.48600,1.204915453
341.48650,1.815304268
341.48700,-0.01586217811
341.48750,-0.6262509935
341.48800,3.951665122
341.48850,9.750358868
341.48900,10.66594209
341.48950,7.919192422
341.49000,7.613998014
341.49050,10.66594209
341.49100,11.27633091
341.49150,6.393220384
341.49200,-0.9314454012
341.49250,-7.340527963
341.49300,-10.08727763
341.49350,-11.30805526
341.49400,-14.66519375
341.49450,-21.98985953
341.49500,-26.87297006
341.49550,-23.82102598
341.49600,-17.71713782
341.49650,-18.02233223
341.49700,-19.85349868
341.49750,-3.678195071
341.49800,34.47110589
341.49850,67.43210192
341.49900,66.5165187
341.49950,39.65941082
341.50000,18.29580228
341.50050,14.32827498
341.50100,12.80230295
341.50150,2.730887491
341.50200,-7.645722371
341.50250,-11.61324967
341.50300,-14.97038816
341.50350,-23.21063716
341.50400,-28.7041365
341.50450,-24.7366092
341.50500,-17.41194342
341.50550,-13.13922171
341.50600,-6.730139148
341.50650,6.393220384
341.50700,20.12696873
341.50750,23.48410721
341.50800,18.60099669
341.50850,15.54905261
341.50900,16.15944143
341.50950,13.71788617
341.51000,7.613998014
341.51050,3.951665122
341.51100,5.477637161
341.51150,6.698414791
341.51200,4.25685953
341.51250,0.2893322296
341.51300,-2.762611847
341.51350,-4.593778294
341.51400,-5.204167109
341.51450,-5.509361517
341.51500,-9.171694409
341.51550,-17.10674901
341.51600,-22.90544276
341.51650,-21.07427631
341.51700,-15.88597138
341.51750,-14.97038816
341.51800,-16.19116579
341.51850,-9.171694409
341.51900,7.308803607
341.51950,21.95813518
341.52000,22.8737184
341.52050,12.80230295
341.52100,3.036081899
341.52150,-1.236639809
341.52200,-3.067806255
341.52250,-3.983389478
341.52300,-3.373000663
341.52350,-2.152223032
341.52400,-2.45741744
341.52450,-2.762611847
341.52500,-0.6262509935
341.52550,2.425693084
341.52600,2.730887491
341.52650,-0.01586217811
341.52700,-1.541834217
341.52750,-0.01586217811
341.52800,0.5945266373
341.52850,-1.236639809
341.52900,-3.678195071
341.52950,-2.45741744
341.53000,1.815304268
341.53050,5.172442753
341.53100,5.477637161
341.53150,4.867248345
341.53200,4.562053937
341.53250,3.341276307
341.53300,2.425693084
341.53350,2.730887491
341.53400,4.867248345
341.53450,4.867248345
341.53500,0.2893322296
341.53550,-5.204167109
341.53600,-6.730139148
341.53650,-3.678195071
341.53700,-0.01586217811
341.53750,0.2893322296
341.53800,-0.3210565858
341.53850,0.2893322296
341.53900,2.730887491
341.53950,3.341276307
341.54000,1.815304268
341.54050,-0.6262509935
341.54100,-2.762611847
341.54150,-2.762611847
341.54200,-0.01586217811
341.54250,1.204915453
341.54300,-2.762611847
341.54350,-12.22363849
341.54400,-17.41194342
341.54450,-15.88597138
341.54500,-15.27558256
341.54550,-21.37947072
341.54600,-25.04180361
341.54650,-16.19116579
341.54700,-3.067806255
341.54750,-1.541834217
341.54800,-9.171694409
341.54850,-7.340527963
341.54900,8.834775645
341.54950,22.8737184
341.55000,22.56852399
341.55050,18.60099669
341.55100,22.8737184
341.55150,28.67241215
341.55200,25.31527366
341.55250,18.29580228
341.55300,19.21138551
341.55350,24.39969044
341.55400,23.78930162
341.55450,19.51657991
341.55500,18.60099669
341.55550,13.41269176
341.55600,-7.645722371
341.55650,-37.85996873
341.55700,-53.11968912
341.55750,-44.26905129
341.55800,-26.56777565
341.55850,-15.88597138
341.55900,-11.61324967
341.55950,-6.119750332
341.56000,-0.6262509935
341.56050,0.899721045
341.56100,-0.01586217811
341.56150,-0.9314454012
341.56200,-0.9314454012
341.56250,-0.9314454012
341.56300,-0.01586217811
341.56350,-0.01586217811
341.56400,-2.762611847
341.56450,-8.256111186
341.56500,-11.00286086
341.56550,-7.645722371
341.56600,-1.236639809
341.56650,3.036081899
341.56700,5.782831568
341.56750,7.308803607
341.56800,7.613998014
341.56850,7.003609199
341.56900,5.172442753
341.56950,0.2893322296
341.57000,-7.645722371
341.57050,-15.58077697
341.57100,-16.8015546
341.57150,-10.69766645
341.57200,-3.678195071
341.57250,-0.6262509935
341.57300,-0.3210565858
341.57350,0.2893322296
341.57400,1.204915453
341.57450,1.815304268
341.57500,2.120498676
341.57550,3.646470714
341.57600,4.562053937
341.57650,3.951665122
341.57700,3.036081899
341.57750,3.646470714
341.57800,4.25685953
341.57850,3.036081899
341.57900,0.5945266373
341.57950,-0.9314454012
341.58000,-0.6262509935
341.58050,0.5945266373
341.58100,2.730887491
341.58150,3.951665122
341.58200,3.646470714
341.58250,2.730887491
341.58300,3.341276307
341.58350,3.951665122
341.58400,3.646470714
341.58450,2.425693084
341.58500,3.341276307
341.58550,5.782831568
341.58600,6.698414791
341.58650,5.172442753
341.58700,3.341276307
341.58750,3.951665122
341.58800,5.172442753
341.58850,4.867248345
341.58900,3.341276307
341.58950,2.120498676
341.59000,1.815304268
341.59050,1.815304268
341.59100,2.120498676
341.59150,3.646470714
341.59200,4.867248345
341.59250,5.172442753
341.59300,5.172442753
341.59350,6.393220384
341.59400,7.613998014
341.59450,7.308803607
341.59500,5.782831568
341.59550,5.172442753
341.59600,6.088025976
341.59650,7.003609199
341.59700,4.867248345
341.59750,-0.01586217811
341.59800,-6.730139148
341.59850,-13.13922171
341.59900,-17.41194342
341.59950,-18.63272105
341.60000,-19.54830427
341.60050,-20.46388749
341.60100,-18.02233223
341.60150,-9.782083225
341.60200,0.5945266373
341.60250,3.951665122
341.60300,-1.847028624
341.60350,-8.256111186
341.60400,-6.730139148
341.60450,0.899721045
341.60500,7.308803607
341.60550,8.834775645
341.60600,7.003609199
341.60650,1.204915453
341.60700,-8.256111186
341.60750,-16.19116579
341.60800,-14.35999934
341.60850,-4.898972701
341.60900,2.425693084
341.60950,-0.01586217811
341.61000,-10.69766645
341.61050,-22.29505394
341.61100,-23.51583157
341.61150,-4.898972701
341.61200,30.808773
341.61250,63.15938022
341.61300,68.04249074
341.61350,44.54252135
341.61400,15.54905261
341.61450,0.5945266373
341.61500,-0.3210565858
341.61550,1.51010986
341.61600,2.730887491
341.61650,4.25685953
341.61700,4.867248345
341.61750,3.341276307
341.61800,1.815304268
341.61850,2.730887491
341.61900,4.25685953
341.61950,2.120498676
341.62000,-0.6262509935
341.62050,-1.236639809
341.62100,0.899721045
341.62150,3.036081899
341.62200,2.730887491
341.62250,0.899721045
341.62300,-2.45741744
341.62350,-6.119750332
341.62400,-8.256111186
341.62450,-7.035333555
341.62500,-4.898972701
341.62550,-4.593778294
341.62600,-4.898972701
341.62650,-4.898972701
341.62700,-3.983389478
341.62750,-3.373000663
341.62800,-2.762611847
341.62850,-1.847028624
341.62900,-2.152223032
341.62950,-3.678195071
341.63000,-5.509361517
341.63050,-5.509361517
341.63100,-4.288583886
341.63150,-3.983389478
341.63200,-4.593778294
341.63250,-5.509361517
341.63300,-5.204167109
341.63350,-4.593778294
341.63400,-4.898972701
341.63450,-5.509361517
341.63500,-5.204167109
341.63550,-3.983389478
341.63600,-3.067806255
341.63650,-3.373000663
341.63700,-4.898972701
341.63750,-5.814555924
341.63800,-5.814555924
341.63850,-5.204167109
341.63900,-4.898972701
341.63950,-4.898972701
341.64000,-4.593778294
341.64050,-4.593778294
341.64100,-4.593778294
341.64150,-3.067806255
341.64200,-0.3210565858
341.64250,0.2893322296
341.64300,-1.541834217
341.64350,-4.898972701
341.64400,-5.204167109
341.64450,-3.067806255
341.64500,-1.541834217
341.64550,-3.373000663
341.64600,-6.730139148
341.64650,-9.171694409
341.64700,-9.476888817
341.64750,-8.256111186
341.64800,-5.814555924
341.64850,-3.067806255
341.64900,-1.847028624
341.64950,-0.6262509935
341.65000,3.646470714
341.65050,12.19191413
341.65100,19.51657991
341.65150,20.73735755
341.65200,17.38021906
341.65250,13.41269176
341.65300,12.80230295
341.65350,15.54905261
341.65400,19.51657991
341.65450,21.34774636
341.65500,20.43216314
341.65550,19.82177432
341.65600,20.12696873
341.65650,15.24385821
341.65700,2.730887491
341.65750,-7.645722371
341.65800,-6.730139148
341.65850,-3.373000663
341.65900,-16.19116579
341.65950,-44.5742457
341.66000,-62.88591016
341.66050,-54.03527234
341.66100,-32.97685821
341.66150,-23.82102598
341.66200,-27.17816446
341.66250,-24.12622039
341.66300,-8.561305594
341.66350,4.867248345
341.66400,6.698414791
341.66450,3.341276307
341.66500,5.477637161
341.66550,10.9711365
341.66600,12.19191413
341.66650,8.529581238
341.66700,5.172442753
341.66750,4.562053937
341.66800,6.393220384
341.66850,8.22438683
341.66900,8.834775645
341.66950,8.529581238
341.67000,7.613998014
341.67050,6.698414791
341.67100,3.341276307
341.67150,-0.6262509935
341.67200,-1.847028624
341.67250,2.120498676
341.67300,8.529581238
341.67350,10.9711365
341.67400,7.613998014
341.67450,2.730887491
341.67500,0.5945266373
341.67550,0.899721045
341.67600,1.51010986
341.67650,1.815304268
341.67700,2.425693084
341.67750,3.036081899
341.67800,3.341276307
341.67850,2.425693084
341.67900,1.815304268
341.67950,3.341276307
341.68000,7.003609199
341.68050,9.750358868
341.68100,10.05555328
341.68150,8.834775645
341.68200,7.613998014
341.68250,6.698414791
341.68300,5.782831568
341.68350,3.036081899
341.68400,-4.898972701
341.68450,-18.93791546
341.68500,-31.45088617
341.68550,-31.75608058
341.68600,-20.7690819
341.68650,-7.035333555
341.68700,4.562053937
341.68750,17.68541347
341.68800,30.808773
341.68850,33.55552267
341.68900,23.48410721
341.68950,8.22438683
341.69000,-6.730139148
341.69050,-23.82102598
341.69100,-37.55477433
341.69150,-36.94438551
341.69200,-25.04180361
341.69250,-22.90544276
341.69300,-32.6716638
341.69350,-23.51583157
341.69400,26.23085688
341.69450,84.82818316
341.69500,97.64634829
341.69550,55.83471443
341.69600,3.951665122
341.69650,-17.71713782
341.69700,-12.22363849
341.69750,-2.762611847
341.69800,1.51010986
341.69850,4.562053937
341.69900,6.088025976
341.69950,3.951665122
341.70000,1.51010986
341.70050,2.730887491
341.70100,4.867248345
341.70150,3.951665122
341.70200,1.815304268
341.70250,2.730887491
341.70300,5.172442753
341.70350,5.172442753
341.70400,1.815304268
341.70450,-0.6262509935
341.70500,-0.01586217811
341.70550,5.782831568
341.70600,14.9386638
341.70650,21.95813518
341.70700,21.95813518
341.70750,15.85424702
341.70800,8.22438683
341.70850,0.5945266373
341.70900,-7.950916778
341.70950,-15.88597138
341.71000,-18.63272105
341.71050,-15.58077697
341.71100,-11.91844408
341.71150,-9.782083225
341.71200,-8.256111186
341.71250,-6.119750332
341.71300,-4.898972701
341.71350,-5.814555924
341.71400,-7.035333555
341.71450,-6.730139148
341.71500,-6.730139148
341.71550,-7.645722371
341.71600,-7.950916778
341.71650,-6.730139148
341.71700,-5.509361517
341.71750,-6.730139148
341.71800,-9.476888817
341.71850,-10.69766645
341.71900,-9.782083225
341.71950,-8.256111186
341.72000,-6.730139148
341.72050,-5.204167109
341.72100,-3.678195071
341.72150,-1.541834217
341.72200,0.899721045
341.72250,3.036081899
341.72300,2.730887491
341.72350,-0.01586217811
341.72400,-1.541834217
341.72450,-0.01586217811
341.72500,2.730887491
341.72550,3.646470714
341.72600,4.25685953
341.72650,7.003609199
341.72700,9.139970053
341.72750,7.613998014
341.72800,4.25685953
341.72850,3.646470714
341.72900,5.172442753
341.72950,1.815304268
341.73000,-7.950916778
341.73050,-18.93791546
341.73100,-22.90544276
341.73150,-20.15869309
341.73200,-15.27558256
341.73250,-12.52883289
341.73300,-12.22363849
341.73350,-12.52883289
341.73400,-11.30805526
341.73450,-9.171694409
341.73500,-8.256111186
341.73550,-9.782083225
341.73600,-9.782083225
341.73650,-7.340527963
341.73700,-7.645722371
341.73750,-12.52883289
341.73800,-14.97038816
341.73850,-6.119750332
341.73900,9.445164461
341.73950,17.99060788
341.74000,14.63346939
341.74050,7.308803607
341.74100,2.730887491
341.74150,0.2893322296
341.74200,-0.01586217811
341.74250,2.425693084
341.74300,5.782831568
341.74350,3.341276307
341.74400,-4.288583886
341.74450,-7.950916778
341.74500,-3.678195071
341.74550,0.5945266373
341.74600,1.51010986
341.74650,6.698414791
341.74700,20.73735755
341.74750,31.72435622
341.74800,25.92566248
341.74850,8.529581238
341.74900,-3.983389478
341.74950,-5.509361517
341.75000,-3.983389478
341.75050,-5.204167109
341.75100,-3.373000663
341.75150,4.25685953
341.75200,11.88671972
341.75250,12.80230295
341.75300,11.27633091
341.75350,12.19191413
341.75400,13.71788617
341.75450,11.88671972
341.75500,11.27633091
341.75550,17.07502465
341.75600,21.95813518
341.75650,11.58152531
341.75700,-15.27558256
341.75750,-40.30152399
341.75800,-45.18463452
341.75850,-32.6716638
341.75900,-18.02233223
341.75950,-10.39247204
341.76000,-6.42494474
341.76050,-1.847028624
341.76100,0.2893322296
341.76150,-1.236639809
341.76200,-4.593778294
341.76250,-5.509361517
341.76300,-3.067806255
341.76350,-0.01586217811
341.76400,3.036081899
341.76450,4.562053937
341.76500,5.172442753
341.76550,5.172442753
341.76600,6.088025976
341.76650,6.698414791
341.76700,4.562053937
341.76750,-0.3210565858
341.76800,-5.204167109
341.76850,-5.814555924
341.76900,-0.6262509935
341.76950,5.172442753
341.77000,6.698414791
341.77050,1.51010986
341.77100,-3.983389478
341.77150,-3.067806255
341.77200,3.951665122
341.77250,9.445164461
341.77300,8.22438683
341.77350,5.172442753
341.77400,4.867248345
341.77450,5.782831568
341.77500,4.562053937
341.77550,3.036081899
341.77600,3.341276307
341.77650,2.730887491
341.77700,-1.541834217
341.77750,-7.035333555
341.77800,-7.950916778
341.77850,-5.204167109
341.77900,-4.593778294
341.77950,-6.119750332
341.78000,-5.509361517
341.78050,-3.373000663
341.78100,-2.762611847
341.78150,-1.541834217
341.78200,5.782831568
341.78250,17.38021906
341.78300,22.56852399
341.78350,17.38021906
341.78400,9.445164461
341.78450,6.698414791
341.78500,6.393220384
341.78550,3.646470714
341.78600,-0.01586217811
341.78650,-0.01586217811
341.78700,2.425693084
341.78750,2.425693084
341.78800,-3.983389478
341.78850,-15.58077697
341.78900,-25.04180361
341.78950,-26.56777565
341.79000,-21.98985953
341.79050,-18.63272105
341.79100,-18.02233223
341.79150,-7.035333555
341.79200,22.26332958
341.79250,57.05549206
341.79300,68.95807396
341.79350,50.03602068
341.79400,20.73735755
341.79450,3.341276307
341.79500,-0.6262509935
341.79550,-3.373000663
341.79600,-5.509361517
341.79650,-1.541834217
341.79700,6.698414791
341.79750,13.10749735
341.79800,14.63346939
341.79850,12.49710854
341.79900,5.782831568
341.79950,-6.730139148
341.80000,-18.63272105
341.80050,-20.46388749
341.80100,-14.35999934
341.80150,-7.950916778
341.80200,-3.373000663
341.80250,2.120498676
341.80300,7.613998014
341.80350,6.698414791
341.80400,-0.01586217811
341.80450,-5.814555924
341.80500,-7.645722371
341.80550,-9.782083225
341.80600,-14.35999934
341.80650,-16.19116579
341.80700,-12.52883289
341.80750,-6.730139148
341.80800,-2.762611847
341.80850,0.5945266373
341.80900,5.477637161
341.80950,8.22438683
341.81000,5.782831568
341.81050,-0.3210565858
341.81100,-7.035333555
341.81150,-12.8340273
341.81200,-15.58077697
341.81250,-13.13922171
341.81300,-5.814555924
341.81350,0.899721045
341.81400,3.036081899
341.81450,2.730887491
341.81500,2.425693084
341.81550,3.341276307
341.81600,4.25685953
341.81650,7.003609199
341.81700,11.58152531
341.81750,13.71788617
341.81800,9.139970053
341.81850,0.5945266373
341.81900,-3.983389478
341.81950,-3.373000663
341.82000,-0.9314454012
341.82050,-1.236639809
341.82100,-2.152223032
341.82150,-0.9314454012
341.82200,1.815304268
341.82250,2.425693084
341.82300,-0.6262509935
341.82350,-3.373000663
341.82400,-2.152223032
341.82450,-0.01586217811
341.82500,-3.373000663
341.82550,-12.52883289
341.82600,-19.24310986
341.82650,-18.32752664
341.82700,-13.13922171
341.82750,-10.39247204
341.82800,-9.782083225
341.82850,-6.119750332
341.82900,-0.3210565858
341.82950,1.815304268
341.83000,0.899721045
341.83050,3.951665122
341.83100,13.71788617
341.83150,22.26332958
341.83200,21.95813518
341.83250,14.63346939
341.83300,8.529581238
341.83350,4.562053937
341.83400,0.2893322296
341.83450,-3.373000663
341.83500,-2.45741744
341.83550,2.425693084
341.83600,4.562053937
341.83650,-0.3210565858
341.83700,-7.950916778
341.83750,-11.00286086
341.83800,-8.561305594
341.83850,-6.42494474
341.83900,-9.782083225
341.83950,-16.19116579
341.84000,-18.63272105
341.84050,-11.61324967
341.84100,0.5945266373
341.84150,11.58152531
341.84200,16.46463584
341.84250,16.76983025
341.84300,13.41269176
341.84350,7.003609199
341.84400,3.036081899
341.84450,7.308803607
341.84500,15.54905261
341.84550,12.80230295
341.84600,-7.035333555
341.84650,-30.23010854
341.84700,-37.55477433
341.84750,-28.09374769
341.84800,-17.10674901
341.84850,-13.74961052
341.84900,-12.8340273
341.84950,-9.476888817
341.85000,-6.730139148
341.85050,-7.950916778
341.85100,-9.782083225
341.85150,-9.476888817
341.85200,-7.950916778
341.85250,-5.509361517
341.85300,0.2893322296
341.85350,10.36074768
341.85400,17.99060788
341.85450,18.60099669
341.85500,16.76983025
341.85550,17.07502465
341.85600,17.68541347
341.85650,14.32827498
341.85700,8.834775645
341.85750,7.308803607
341.85800,10.66594209
341.85850,14.02308058
341.85900,13.10749735
341.85950,9.139970053
341.86000,5.782831568
341.86050,4.562053937
341.86100,4.25685953
341.86150,3.036081899
341.86200,0.5945266373
341.86250,-0.6262509935
341.86300,0.2893322296
341.86350,2.730887491
341.86400,4.562053937
341.86450,6.393220384
341.86500,7.003609199
341.86550,4.562053937
341.86600,-0.3210565858
341.86650,-3.678195071
341.86700,-1.541834217
341.86750,2.730887491
341.86800,4.867248345
341.86850,2.730887491
341.86900,-0.3210565858
341.86950,-3.373000663
341.87000,-4.898972701
341.87050,-3.373000663
341.87100,0.2893322296
341.87150,1.204915453
341.87200,-2.45741744
341.87250,-7.340527963
341.87300,-7.645722371
341.87350,-5.814555924
341.87400,-4.898972701
341.87450,-3.983389478
341.87500,-1.236639809
341.87550,-2.152223032
341.87600,-9.171694409
341.87650,-14.05480493
341.87700,-7.340527963
341.87750,5.782831568
341.87800,10.05555328
341.87850,3.341276307
341.87900,-0.6262509935
341.87950,4.562053937
341.88000,9.750358868
341.88050,3.951665122
341.88100,-6.42494474
341.88150,-10.08727763
341.88200,-6.42494474
341.88250,-3.678195071
341.88300,-5.814555924
341.88350,-7.950916778
341.88400,-7.645722371
341.88450,-7.340527963
341.88500,-7.950916778
341.88550,-7.035333555
341.88600,-4.288583886
341.88650,-2.762611847
341.88700,-4.593778294
341.88750,-5.204167109
341.88800,0.2893322296
341.88850,12.19191413
341.88900,22.56852399
341.88950,23.17891281
341.89000,14.32827498
341.89050,4.867248345
341.89100,0.2893322296
341.89150,-0.01586217811
341.89200,-0.6262509935
341.89250,-3.983389478
341.89300,-10.39247204
341.89350,-19.24310986
341.89400,-24.43141479
341.89450,-19.85349868
341.89500,-10.69766645
341.89550,-11.91844408
341.89600,-25.34699802
341.89650,-29.31452532
341.89700,-4.898972701
341.89750,32.33474504
341.89800,50.03602068
341.89850,36.91266115
341.89900,14.02308058
341.89950,3.036081899
341.90000,0.5945266373
341.90050,-3.983389478
341.90100,-8.866500001
341.90150,-5.814555924
341.90200,1.204915453
341.90250,3.036081899
341.90300,-0.01586217811
341.90350,0.5945266373
341.90400,5.172442753
341.90450,7.308803607
341.90500,5.172442753
341.90550,3.646470714
341.90600,4.25685953
341.90650,4.25685953
341.90700,2.120498676
341.90750,0.899721045
341.90800,0.2893322296
341.90850,-2.762611847
341.90900,-8.561305594
341.90950,-11.91844408
341.91000,-12.52883289
341.91050,-12.8340273
341.91100,-13.74961052
341.91150,-12.22363849
341.91200,-7.950916778
341.91250,-7.035333555
341.91300,-9.782083225
341.91350,-10.08727763
341.91400,-3.373000663
341.91450,6.393220384
341.91500,13.71788617
341.91550,16.15944143
341.91600,14.9386638
341.91650,10.66594209
341.91700,4.562053937
341.91750,-0.01586217811
341.91800,0.2893322296
341.91850,5.477637161
341.91900,11.88671972
341.91950,15.24385821
341.92000,9.139970053
341.92050,-9.476888817
341.92100,-31.45088617
341.92150,-37.55477433
341.92200,-19.24310986
341.92250,8.834775645
341.92300,25.01007925
341.92350,22.8737184
341.92400,12.80230295
341.92450,5.477637161
341.92500,3.341276307
341.92550,5.172442753
341.92600,10.66594209
341.92650,15.54905261
341.92700,14.9386638
341.92750,7.919192422
341.92800,0.5945266373
341.92850,-3.067806255
341.92900,-3.678195071
341.92950,-3.067806255
341.93000,-1.541834217
341.93050,-0.9314454012
341.93100,-2.45741744
341.93150,-4.593778294
341.93200,-4.898972701
341.93250,-3.983389478
341.93300,-3.983389478
341.93350,-4.898972701
341.93400,-6.42494474
341.93450,-8.866500001
341.93500,-10.69766645
341.93550,-8.256111186
341.93600,-2.45741744
341.93650,0.2893322296
341.93700,-0.9314454012
341.93750,-1.847028624
341.93800,3.341276307
341.93850,12.49710854
341.93900,18.60099669
341.93950,19.51657991
341.94000,17.38021906
341.94050,14.63346939
341.94100,14.63346939
341.94150,18.9061911
341.94200,22.26332958
341.94250,12.80230295
341.94300,-11.30805526
341.94350,-34.80802466
341.94400,-40.30152399
341.94450,-27.78855328
341.94500,-12.22363849
341.94550,-3.373000663
341.94600,0.2893322296
341.94650,3.036081899
341.94700,2.425693084
341.94750,-4.593778294
341.94800,-17.10674901
341.94850,-28.09374769
341.94900,-30.53530295
341.94950,-22.29505394
341.95000,-9.782083225
341.95050,-1.847028624
341.95100,-1.847028624
341.95150,-4.898972701
341.95200,-5.509361517
341.95250,-4.593778294
341.95300,-5.814555924
341.95350,-10.08727763
341.95400,-14.05480493
341.95450,-13.44441612
341.95500,-5.814555924
341.95550,5.782831568
341.95600,15.54905261
341.95650,18.29580228
341.95700,14.02308058
341.95750,7.613998014
341.95800,2.730887491
341.95850,1.51010986
341.95900,4.867248345
341.95950,10.36074768
341.96000,12.80230295
341.96050,9.445164461
341.96100,3.646470714
341.96150,0.899721045
341.96200,2.730887491
341.96250,5.172442753
341.96300,6.393220384
341.96350,6.393220384
341.96400,5.782831568
341.96450,4.562053937
341.96500,3.646470714
341.96550,4.25685953
341.96600,5.782831568
341.96650,6.393220384
341.96700,5.782831568
341.96750,4.562053937
341.96800,3.341276307
341.96850,2.730887491
341.96900,3.341276307
341.96950,3.646470714
341.97000,3.036081899
341.97050,2.120498676
341.97100,2.425693084
341.97150,2.425693084
341.97200,0.5945266373
341.97250,-0.3210565858
341.97300,0.5945266373
341.97350,1.51010986
341.97400,-0.6262509935
341.97450,-5.204167109
341.97500,-7.035333555
341.97550,-5.509361517
341.97600,-3.983389478
341.97650,-3.373000663
341.97700,-0.9314454012
341.97750,2.730887491
341.97800,3.951665122
341.97850,2.425693084
341.97900,3.341276307
341.97950,8.22438683
341.98000,12.49710854
341.98050,10.9711365
341.98100,5.477637161
341.98150,0.5945266373
341.98200,-1.541834217
341.98250,-2.762611847
341.98300,-2.762611847
341.98350,-1.541834217
341.98400,-0.01586217811
341.98450,0.899721045
341.98500,0.899721045
341.98550,0.5945266373
341.98600,0.2893322296
341.98650,-0.3210565858
341.98700,-0.6262509935
341.98750,0.5945266373
341.98800,2.425693084
341.98850,2.730887491
341.98900,1.204915453
341.98950,0.2893322296
341.99000,-0.01586217811
341.99050,-0.01586217811
341.99100,-0.3210565858
341.99150,-0.3210565858
341.99200,-0.01586217811
341.99250,0.5945266373
341.99300,0.2893322296
341.99350,-0.3210565858
341.99400,-1.541834217
341.99450,-3.373000663
341.99500,-5.509361517
341.99550,-6.42494474
341.99600,-5.814555924
341.99650,-4.898972701
341.99700,-3.983389478
341.99750,-3.373000663
341.99800,-2.45741744
341.99850,-2.762611847
341.99900,-4.898972701
341.99950,-9.171694409
342.00000,-15.88597138
342.00050,-23.82102598
342.00100,-27.48335887
342.00150,-22.60024835
342.00200,-14.35999934
342.00250,-12.52883289
342.00300,-15.27558256
342.00350,-5.509361517
342.00400,24.39969044
342.00450,56.75029765
342.00500,64.68535225
342.00550,45.76329898
342.00600,22.8737184
342.00650,13.10749735
342.00700,11.88671972
342.00750,9.139970053
342.00800,4.867248345
342.00850,3.646470714
342.00900,3.951665122
342.00950,2.730887491
342.01000,3.646470714
342.01050,8.529581238
342.01100,10.9711365
342.01150,4.25685953
342.01200,-5.509361517
342.01250,-10.39247204
342.01300,-8.561305594
342.01350,-5.509361517
342.01400,-3.678195071
342.01450,-3.678195071
342.01500,-7.950916778
342.01550,-16.19116579
342.01600,-19.85349868
342.01650,-14.97038816
342.01700,-9.171694409
342.01750,-13.44441612
342.01800,-26.87297006
342.01850,-37.24957992
342.01900,-38.47035755
342.01950,-35.11321906
342.02000,-31.75608058
342.02050,-28.39894209
342.02100,-24.43141479
342.02150,-18.93791546
342.02200,-7.950916778
342.02250,8.22438683
342.02300,21.95813518
342.02350,24.09449603
342.02400,17.68541347
342.02450,15.24385821
342.02500,21.95813518
342.02550,31.11396741
342.02600,33.25032826
342.02650,27.45163452
342.02700,18.60099669
342.02750,10.36074768
342.02800,3.341276307
342.02850,-1.847028624
342.02900,-3.983389478
342.02950,-1.236639809
342.03000,4.562053937
342.03050,9.139970053
342.03100,9.139970053
342.03150,6.393220384
342.03200,4.562053937
342.03250,3.341276307
342.03300,0.5945266373
342.03350,-1.541834217
342.03400,-0.01586217811
342.03450,3.341276307
342.03500,3.036081899
342.03550,-2.45741744
342.03600,-7.950916778
342.03650,-7.340527963
342.03700,-3.373000663
342.03750,-0.01586217811
342.03800,1.815304268
342.03850,3.341276307
342.03900,2.425693084
342.03950,-0.01586217811
342.04000,-0.3210565858
342.04050,2.425693084
342.04100,4.867248345
342.04150,1.204915453
342.04200,-6.42494474
342.04250,-13.13922171
342.04300,-16.19116579
342.04350,-15.88597138
342.04400,-12.8340273
342.04450,-7.340527963
342.04500,-0.6262509935
342.04550,5.477637161
342.04600,8.834775645
342.04650,7.919192422
342.04700,4.867248345
342.04750,4.25685953
342.04800,7.308803607
342.04850,7.919192422
342.04900,2.425693084
342.04950,-3.678195071
342.05000,-3.373000663
342.05050,0.5945266373
342.05100,1.51010986
342.05150,-1.541834217
342.05200,-2.762611847
342.05250,-0.6262509935
342.05300,-0.9314454012
342.05350,-5.204167109
342.05400,-9.171694409
342.05450,-10.39247204
342.05500,-10.39247204
342.05550,-7.645722371
342.05600,-0.3210565858
342.05650,4.867248345
342.05700,2.425693084
342.05750,-3.983389478
342.05800,-6.119750332
342.05850,-8.866500001
342.05900,-21.68466512
342.05950,-36.02880229
342.06000,-30.23010854
342.06050,-4.593778294
342.06100,15.24385821
342.06150,14.32827498
342.06200,9.139970053
342.06250,20.12696873
342.06300,40.88018845
342.06350,53.08796476
342.06400,50.95160391
342.06450,39.96460523
342.06500,18.9061911
342.06550,-11.61324967
342.06600,-37.55477433
342.06650,-42.74307926
342.06700,-29.61971973
342.06750,-14.66519375
342.06800,-7.035333555
342.06850,-5.509361517
342.06900,-7.950916778
342.06950,-14.05480493
342.07000,-17.71713782
342.07050,-14.35999934
342.07100,-9.476888817
342.07150,-10.08727763
342.07200,-12.52883289
342.07250,-10.39247204
342.07300,-9.171694409
342.07350,-16.19116579
342.07400,-24.43141479
342.07450,-18.63272105
342.07500,0.2893322296
342.07550,15.85424702
342.07600,17.99060788
342.07650,13.71788617
342.07700,14.32827498
342.07750,17.68541347
342.07800,17.38021906
342.07850,13.41269176
342.07900,10.36074768
342.07950,9.139970053
342.08000,7.919192422
342.08050,6.698414791
342.08100,6.088025976
342.08150,6.088025976
342.08200,6.088025976
342.08250,6.088025976
342.08300,5.782831568
342.08350,5.477637161
342.08400,5.172442753
342.08450,5.782831568
342.08500,5.477637161
342.08550,3.341276307
342.08600,-0.01586217811
342.08650,-2.152223032
342.08700,-1.541834217
342.08750,0.5945266373
342.08800,3.341276307
342.08850,4.867248345
342.08900,4.867248345
342.08950,2.730887491
342.09000,-0.01586217811
342.09050,-0.3210565858
342.09100,-0.01586217811
342.09150,0.2893322296
342.09200,-0.3210565858
342.09250,-1.541834217
342.09300,-1.541834217
342.09350,-1.541834217
342.09400,-1.236639809
342.09450,-0.3210565858
342.09500,1.815304268
342.09550,4.562053937
342.09600,5.782831568
342.09650,4.867248345
342.09700,2.730887491
342.09750,1.51010986
342.09800,0.899721045
342.09850,1.204915453
342.09900,2.120498676
342.09950,3.341276307
342.10000,4.562053937
342.10050,3.646470714
342.10100,1.815304268
342.10150,0.899721045
342.10200,0.899721045
342.10250,-0.01586217811
342.10300,-2.45741744
342.10350,-3.983389478
342.10400,-1.847028624
342.10450,3.341276307
342.10500,7.919192422
342.10550,6.393220384
342.10600,-2.152223032
342.10650,-14.05480493
342.10700,-21.07427631
342.10750,-20.7690819
342.10800,-19.85349868
342.10850,-25.04180361
342.10900,-27.17816446
342.10950,-10.39247204
342.11000,24.39969044
342.11050,54.30874239
342.11100,56.44510325
342.11150,34.7763003
342.11200,13.10749735
342.11250,4.25685953
342.11300,2.730887491
342.11350,-0.01586217811
342.11400,-2.762611847
342.11450,-0.6262509935
342.11500,3.341276307
342.11550,3.341276307
342.11600,-0.01586217811
342.11650,-1.236639809
342.11700,-1.236639809
342.11750,-5.814555924
342.11800,-15.88597138
342.11850,-25.95738683
342.11900,-28.7041365
342.11950,-24.7366092
342.12000,-18.63272105
342.12050,-13.74961052
342.12100,-9.476888817
342.12150,-4.898972701
342.12200,-0.01586217811
342.12250,3.036081899
342.12300,3.646470714
342.12350,2.120498676
342.12400,-0.01586217811
342.12450,-1.847028624
342.12500,-5.509361517
342.12550,-9.171694409
342.12600,-9.171694409
342.12650,-3.373000663
342.12700,3.036081899
342.12750,4.25685953
342.12800,-0.01586217811
342.12850,-4.898972701
342.12900,-6.42494474
342.12950,-5.814555924
342.13000,-5.509361517
342.13050,-4.898972701
342.13100,-4.593778294
342.13150,-6.119750332
342.13200,-7.340527963
342.13250,-3.067806255
342.13300,9.139970053
342.13350,21.95813518
342.13400,24.09449603
342.13450,14.02308058
342.13500,1.51010986
342.13550,-3.373000663
342.13600,-2.45741744
342.13650,-1.541834217
342.13700,-1.236639809
342.13750,2.425693084
342.13800,10.66594209
342.13850,17.07502465
342.13900,16.76983025
342.13950,10.9711365
342.14000,4.562053937
342.14050,-0.01586217811
342.14100,-5.509361517
342.14150,-9.782083225
342.14200,-10.08727763
342.14250,-7.035333555
342.14300,-4.593778294
342.14350,-5.509361517
342.14400,-6.42494474
342.14450,-4.288583886
342.14500,-0.3210565858
342.14550,0.2893322296
342.14600,-0.6262509935
342.14650,-1.236639809
342.14700,0.2893322296
342.14750,1.815304268
342.14800,0.899721045
342.14850,-1.236639809
342.14900,-3.678195071
342.14950,-4.288583886
342.15000,-2.762611847
342.15050,-0.3210565858
342.15100,0.2893322296
342.15150,-0.6262509935
342.15200,-1.847028624
342.15250,-0.9314454012
342.15300,0.2893322296
342.15350,0.2893322296
342.15400,-1.236639809
342.15450,-1.541834217
342.15500,-0.01586217811
342.15550,-0.01586217811
342.15600,-3.067806255
342.15650,-7.340527963
342.15700,-8.561305594
342.15750,-5.814555924
342.15800,-2.762611847
342.15850,-2.152223032
342.15900,-3.983389478
342.15950,-6.119750332
342.16000,-7.340527963
342.16050,-7.645722371
342.16100,-7.645722371
342.16150,-7.035333555
342.16200,-3.983389478
342.16250,2.120498676
342.16300,8.22438683
342.16350,10.05555328
342.16400,6.698414791
342.16450,2.425693084
342.16500,0.2893322296
342.16550,-0.01586217811
342.16600,0.2893322296
342.16650,0.2893322296
342.16700,-0.01586217811
342.16750,-0.6262509935
342.16800,-0.6262509935
342.16850,2.730887491
342.16900,8.22438683
342.16950,10.05555328
342.17000,4.562053937
342.17050,-3.067806255
342.17100,-6.42494474
342.17150,-3.067806255
342.17200,2.120498676
342.17250,5.782831568
342.17300,7.919192422
342.17350,9.750358868
342.17400,11.88671972
342.17450,16.76983025
342.17500,24.09449603
342.17550,27.45163452
342.17600,20.73735755
342.17650,8.22438683
342.17700,2.730887491
342.17750,9.445164461
342.17800,15.85424702
342.17850,7.003609199
342.17900,-14.97038816
342.17950,-33.58724703
342.18000,-37.55477433
342.18050,-29.61971973
342.18100,-19.85349868
342.18150,-12.8340273
342.18200,-7.645722371
342.18250,-4.288583886
342.18300,-3.067806255
342.18350,-3.067806255
342.18400,-2.45741744
342.18450,-1.541834217
342.18500,-0.3210565858
342.18550,1.204915453
342.18600,4.562053937
342.18650,7.919192422
342.18700,10.66594209
342.18750,11.58152531
342.18800,10.9711365
342.18850,10.05555328
342.18900,10.05555328
342.18950,11.27633091
342.19000,10.66594209
342.19050,4.562053937
342.19100,-4.288583886
342.19150,-10.08727763
342.19200,-8.561305594
342.19250,-3.067806255
342.19300,1.51010986
342.19350,4.25685953
342.19400,5.477637161
342.19450,3.646470714
342.19500,-0.6262509935
342.19550,-3.678195071
342.19600,-3.067806255
342.19650,-0.6262509935
342.19700,-2.152223032
342.19750,-6.730139148
342.19800,-8.561305594
342.19850,-4.288583886
342.19900,2.425693084
342.19950,5.782831568
342.20000,4.25685953
342.20050,1.204915453
342.20100,-1.847028624
342.20150,-8.866500001
342.20200,-19.85349868
342.20250,-28.09374769
342.20300,-28.7041365
342.20350,-25.95738683
342.20400,-26.87297006
342.20450,-24.43141479
342.20500,-3.983389478
342.20550,32.94513385
342.20600,62.5489914
342.20650,64.07496344
342.20700,46.37368779
342.20750,32.63993945
342.20800,29.28280096
342.20850,24.09449603
342.20900,9.139970053
342.20950,-6.730139148
342.21000,-14.05480493
342.21050,-14.35999934
342.21100,-14.97038816
342.21150,-16.19116579
342.21200,-13.74961052
342.21250,-9.782083225
342.21300,-8.561305594
342.21350,-8.866500001
342.21400,-5.509361517
342.21450,0.5945266373
342.21500,5.782831568
342.21550,6.698414791
342.21600,7.308803607
342.21650,9.750358868
342.21700,10.9711365
342.21750,7.613998014
342.21800,1.204915453
342.21850,-2.152223032
342.21900,-1.847028624
342.21950,-2.152223032
342.22000,-8.256111186
342.22050,-17.71713782
342.22100,-22.60024835
342.22150,-18.02233223
342.22200,-9.171694409
342.22250,-3.983389478
342.22300,-4.898972701
342.22350,-4.898972701
342.22400,1.51010986
342.22450,12.19191413
342.22500,18.60099669
342.22550,16.76983025
342.22600,11.27633091
342.22650,6.698414791
342.22700,4.867248345
342.22750,4.562053937
342.22800,3.646470714
342.22850,2.120498676
342.22900,-0.3210565858
342.22950,-2.45741744
342.23000,-3.067806255
342.23050,-2.152223032
342.23100,-1.236639809
342.23150,-0.01586217811
342.23200,2.425693084
342.23250,4.25685953
342.23300,1.815304268
342.23350,-3.067806255
342.23400,-6.730139148
342.23450,-6.730139148
342.23500,-7.035333555
342.23550,-10.39247204
342.23600,-13.44441612
342.23650,-14.05480493
342.23700,-14.05480493
342.23750,-15.27558256
342.23800,-13.44441612
342.23850,-2.45741744
342.23900,13.71788617
342.23950,25.92566248
342.24000,27.75682892
342.24050,21.34774636
342.24100,12.80230295
342.24150,5.782831568
342.24200,2.425693084
342.24250,2.120498676
342.24300,3.646470714
342.24350,4.867248345
342.24400,4.562053937
342.24450,2.120498676
342.24500,-0.3210565858
342.24550,-0.01586217811
342.24600,4.25685953
342.24650,7.613998014
342.24700,2.730887491
342.24750,-9.476888817
342.24800,-21.37947072
342.24850,-25.65219243
342.24900,-23.21063716
342.24950,-18.32752664
342.25000,-12.22363849
342.25050,-7.035333555
342.25100,-4.593778294
342.25150,-4.288583886
342.25200,-2.45741744
342.25250,0.899721045
342.25300,2.730887491
342.25350,2.120498676
342.25400,1.51010986
342.25450,2.425693084
342.25500,2.730887491
342.25550,2.730887491
342.25600,4.867248345
342.25650,7.613998014
342.25700,5.172442753
342.25750,-2.45741744
342.25800,-7.950916778
342.25850,-6.42494474
342.25900,-3.067806255
342.25950,-3.983389478
342.26000,-5.509361517
342.26050,-3.678195071
342.26100,-2.45741744
342.26150,-7.035333555
342.26200,-11.61324967
342.26250,-5.814555924
342.26300,8.22438683
342.26350,17.99060788
342.26400,15.54905261
342.26450,7.308803607
342.26500,2.120498676
342.26550,-0.01586217811
342.26600,-1.541834217
342.26650,-1.847028624
342.26700,1.815304268
342.26750,7.308803607
342.26800,9.445164461
342.26850,10.05555328
342.26900,12.19191413
342.26950,14.32827498
342.27000,12.49710854
342.27050,8.22438683
342.27100,6.393220384
342.27150,7.613998014
342.27200,6.088025976
342.27250,0.5945266373
342.27300,-4.898972701
342.27350,-8.866500001
342.27400,-13.13922171
342.27450,-15.27558256
342.27500,-11.91844408
342.27550,-3.983389478
342.27600,-0.01586217811
342.27650,-0.01586217811
342.27700,2.425693084
342.27750,9.445164461
342.27800,14.9386638
342.27850,15.24385821
342.27900,15.54905261
342.27950,18.29580228
342.28000,11.58152531
342.28050,-11.61324967
342.28100,-39.69113518
342.28150,-51.59371708
342.28200,-43.04827366
342.28250,-27.17816446
342.28300,-14.66519375
342.28350,-5.509361517
342.28400,1.204915453
342.28450,3.646470714
342.28500,1.204915453
342.28550,-1.541834217
342.28600,-1.236639809
342.28650,-0.3210565858
342.28700,-2.45741744
342.28750,-7.035333555
342.28800,-11.91844408
342.28850,-14.66519375
342.28900,-12.8340273
342.28950,-4.898972701
342.29000,3.036081899
342.29050,4.867248345
342.29100,-1.236639809
342.29150,-8.256111186
342.29200,-9.476888817
342.29250,-5.814555924
342.29300,-3.067806255
342.29350,-3.373000663
342.29400,-2.45741744
342.29450,3.036081899
342.29500,11.27633091
342.29550,16.76983025
342.29600,17.07502465
342.29650,13.71788617
342.29700,7.919192422
342.29750,1.204915453
342.29800,-5.204167109
342.29850,-10.08727763
342.29900,-14.97038816
342.29950,-21.68466512
342.30000,-23.51583157
342.30050,-6.42494474
342.30100,29.28280096
342.30150,61.02301936
342.30200,64.68535225
342.30250,42.7113549
342.30300,18.9061911
342.30350,10.36074768
342.30400,11.58152531
342.30450,11.27633091
342.30500,7.613998014
342.30550,4.562053937
342.30600,1.204915453
342.30650,-2.762611847
342.30700,-5.509361517
342.30750,-4.288583886
342.30800,-3.678195071
342.30850,-6.42494474
342.30900,-7.645722371
342.30950,-1.236639809
342.31000,9.445164461
342.31050,15.85424702
342.31100,14.32827498
342.31150,9.445164461
342.31200,5.477637161
342.31250,2.730887491
342.31300,-0.01586217811
342.31350,-1.847028624
342.31400,-2.45741744
342.31450,-3.067806255
342.31500,-3.983389478
342.31550,-4.898972701
342.31600,-6.42494474
342.31650,-8.866500001
342.31700,-10.08727763
342.31750,-8.256111186
342.31800,-5.814555924
342.31850,-6.42494474
342.31900,-8.866500001
342.31950,-9.476888817
342.32000,-8.561305594
342.32050,-10.39247204
342.32100,-13.13922171
342.32150,-9.476888817
342.32200,2.730887491
342.32250,14.32827498
342.32300,14.63346939
342.32350,7.003609199
342.32400,2.730887491
342.32450,5.782831568
342.32500,10.05555328
342.32550,8.834775645
342.32600,2.730887491
342.32650,-5.509361517
342.32700,-13.44441612
342.32750,-19.24310986
342.32800,-19.85349868
342.32850,-15.27558256
342.32900,-8.256111186
342.32950,-1.541834217
342.33000,2.730887491
342.33050,3.036081899
342.33100,-0.9314454012
342.33150,-5.204167109
342.33200,-4.288583886
342.33250,-0.3210565858
342.33300,0.5945266373
342.33350,-1.236639809
342.33400,-2.762611847
342.33450,-2.45741744
342.33500,-2.45741744
342.33550,-2.762611847
342.33600,-0.01586217811
342.33650,3.646470714
342.33700,1.815304268
342.33750,-2.762611847
342.33800,-1.847028624
342.33850,6.393220384
342.33900,10.05555328
342.33950,0.5945266373
342.34000,-11.00286086
342.34050,-10.69766645
342.34100,-1.236639809
342.34150,2.120498676
342.34200,-3.373000663
342.34250,-9.171694409
342.34300,-7.645722371
342.34350,-3.678195071
342.34400,-3.067806255
342.34450,-3.678195071
342.34500,-1.847028624
342.34550,0.2893322296
342.34600,-0.01586217811
342.34650,-1.847028624
342.34700,-2.45741744
342.34750,-1.236639809
342.34800,-0.01586217811
342.34850,-0.3210565858
342.34900,-1.236639809
342.34950,-2.152223032
342.35000,-0.9314454012
342.35050,2.730887491
342.35100,7.308803607
342.35150,8.22438683
342.35200,5.477637161
342.35250,3.646470714
342.35300,4.867248345
342.35350,7.003609199
342.35400,6.698414791
342.35450,3.646470714
342.35500,-0.3210565858
342.35550,-3.678195071
342.35600,-4.593778294
342.35650,-2.45741744
342.35700,1.51010986
342.35750,4.867248345
342.35800,4.562053937
342.35850,2.425693084
342.35900,1.51010986
342.35950,1.815304268
342.36000,0.899721045
342.36050,-1.236639809
342.36100,-2.762611847
342.36150,-2.152223032
342.36200,-0.6262509935
342.36250,-0.01586217811
342.36300,0.2893322296
342.36350,0.5945266373
342.36400,-1.541834217
342.36450,-8.256111186
342.36500,-15.88597138
342.36550,-16.49636019
342.36600,-7.035333555
342.36650,6.393220384
342.36700,13.71788617
342.36750,12.49710854
342.36800,10.05555328
342.36850,13.10749735
342.36900,17.99060788
342.36950,18.60099669
342.37000,14.32827498
342.37050,11.88671972
342.37100,13.71788617
342.37150,15.54905261
342.37200,14.63346939
342.37250,9.445164461
342.37300,-0.01586217811
342.37350,-13.44441612
342.37400,-25.04180361
342.37450,-25.65219243
342.37500,-15.88597138
342.37550,-4.593778294
342.37600,2.425693084
342.37650,7.919192422
342.37700,10.66594209
342.37750,6.698414791
342.37800,-1.236639809
342.37850,-3.983389478
342.37900,-0.01586217811
342.37950,0.899721045
342.38000,-5.814555924
342.38050,-11.30805526
342.38100,-6.119750332
342.38150,3.646470714
342.38200,8.22438683
342.38250,7.919192422
342.38300,9.445164461
342.38350,11.58152531
342.38400,12.80230295
342.38450,15.54905261
342.38500,18.60099669
342.38550,10.36074768
342.38600,-14.97038816
342.38650,-42.74307926
342.38700,-50.06774504
342.38750,-36.94438551
342.38800,-22.29505394
342.38850,-15.88597138
342.38900,-11.00286086
342.38950,-1.541834217
342.39000,6.088025976
342.39050,5.782831568
342.39100,3.036081899
342.39150,5.477637161
342.39200,9.445164461
342.39250,8.529581238
342.39300,3.341276307
342.39350,0.5945266373
342.39400,0.899721045
342.39450,0.2893322296
342.39500,-3.067806255
342.39550,-6.119750332
342.39600,-6.119750332
342.39650,-3.983389478
342.39700,-0.9314454012
342.39750,2.120498676
342.39800,5.477637161
342.39850,7.919192422
342.39900,7.308803607
342.39950,4.25685953
342.40000,0.5945266373
342.40050,-0.3210565858
342.40100,0.899721045
342.40150,3.951665122
342.40200,7.308803607
342.40250,8.834775645
342.40300,7.308803607
342.40350,2.730887491
342.40400,-3.678195071
342.40450,-9.782083225
342.40500,-14.35999934
342.40550,-17.71713782
342.40600,-18.63272105
342.40650,-14.35999934
342.40700,-5.509361517
342.40750,3.646470714
342.40800,10.05555328
342.40850,11.58152531
342.40900,7.308803607
342.40950,-2.45741744
342.41000,-11.91844408
342.41050,-11.00286086
342.41100,-0.3210565858
342.41150,4.562053937
342.41200,-4.288583886
342.41250,-14.05480493
342.41300,-2.152223032
342.41350,30.50357859
342.41400,57.36068647
342.41450,56.13990884
342.41500,34.16591148
342.41550,13.41269176
342.41600,6.088025976
342.41650,5.477637161
342.41700,4.25685953
342.41750,2.120498676
342.41800,1.815304268
342.41850,3.646470714
342.41900,5.782831568
342.41950,6.698414791
342.42000,5.172442753
342.42050,1.204915453
342.42100,-2.45741744
342.42150,-3.678195071
342.42200,-2.762611847
342.42250,-3.678195071
342.42300,-8.866500001
342.42350,-14.97038816
342.42400,-16.49636019
342.42450,-10.39247204
342.42500,-1.847028624
342.42550,1.815304268
342.42600,0.5945266373
342.42650,-0.9314454012
342.42700,0.899721045
342.42750,4.25685953
342.42800,3.646470714
342.42850,-1.541834217
342.42900,-9.476888817
342.42950,-16.8015546
342.43000,-20.7690819
342.43050,-17.41194342
342.43100,-4.593778294
342.43150,10.05555328
342.43200,17.99060788
342.43250,15.85424702
342.43300,10.36074768
342.43350,7.613998014
342.43400,6.088025976
342.43450,2.425693084
342.43500,-0.9314454012
342.43550,-1.236639809
342.43600,1.51010986
342.43650,3.341276307
342.43700,1.204915453
342.43750,-3.373000663
342.43800,-8.866500001
342.43850,-14.35999934
342.43900,-18.93791546
342.43950,-18.02233223
342.44000,-11.00286086
342.44050,-3.983389478
342.44100,-2.152223032
342.44150,-3.373000663
342.44200,-2.762611847
342.44250,-0.9314454012
342.44300,-4.898972701
342.44350,-15.27558256
342.44400,-21.07427631
342.44450,-14.97038816
342.44500,-3.373000663
342.44550,0.899721045
342.44600,-3.678195071
342.44650,-10.69766645
342.44700,-13.44441612
342.44750,-13.13922171
342.44800,-9.476888817
342.44850,-1.236639809
342.44900,9.750358868
342.44950,15.54905261
342.45000,11.58152531
342.45050,3.646470714
342.45100,-0.6262509935
342.45150,0.2893322296
342.45200,3.341276307
342.45250,5.782831568
342.45300,7.003609199
342.45350,4.867248345
342.45400,-0.6262509935
342.45450,-4.898972701
342.45500,-3.678195071
342.45550,-0.3210565858
342.45600,-1.847028624
342.45650,-7.340527963
342.45700,-7.645722371
342.45750,-0.01586217811
342.45800,8.22438683
342.45850,8.529581238
342.45900,3.646470714
342.45950,3.036081899
342.46000,9.750358868
342.46050,18.60099669
342.46100,22.8737184
342.46150,21.04255195
342.46200,14.63346939
342.46250,8.834775645
342.46300,7.308803607
342.46350,9.445164461
342.46400,6.698414791
342.46450,-7.035333555
342.46500,-25.34699802
342.46550,-33.58724703
342.46600,-25.34699802
342.46650,-10.08727763
342.46700,0.899721045
342.46750,4.867248345
342.46800,5.477637161
342.46850,4.562053937
342.46900,2.425693084
342.46950,0.2893322296
342.47000,0.899721045
342.47050,3.341276307
342.47100,4.25685953
342.47150,2.425693084
342.47200,-1.541834217
342.47250,-7.035333555
342.47300,-11.30805526
342.47350,-10.08727763
342.47400,-3.678195071
342.47450,0.5945266373
342.47500,-0.6262509935
342.47550,-4.593778294
342.47600,-4.898972701
342.47650,-3.678195071
342.47700,-5.509361517
342.47750,-8.866500001
342.47800,-7.950916778
342.47850,-3.678195071
342.47900,-3.067806255
342.47950,-7.035333555
342.48000,-7.035333555
342.48050,0.5945266373
342.48100,10.05555328
342.48150,12.80230295
342.48200,8.834775645
342.48250,5.477637161
342.48300,5.782831568
342.48350,7.003609199
342.48400,6.393220384
342.48450,6.088025976
342.48500,8.529581238
342.48550,11.27633091
342.48600,10.05555328
342.48650,5.477637161
342.48700,2.120498676
342.48750,3.341276307
342.48800,7.308803607
342.48850,11.27633091
342.48900,14.02308058
342.48950,14.9386638
342.49000,11.58152531
342.49050,6.088025976
342.49100,6.698414791
342.49150,17.38021906
342.49200,26.53605129
342.49250,17.68541347
342.49300,-7.340527963
342.49350,-28.7041365
342.49400,-31.14569176
342.49450,-20.46388749
342.49500,-12.8340273
342.49550,-12.8340273
342.49600,-14.66519375
342.49650,-13.44441612
342.49700,-11.61324967
342.49750,-10.39247204
342.49800,-9.171694409
342.49850,-7.035333555
342.49900,-5.204167109
342.49950,-3.678195071
342.50000,-2.152223032
342.50050,-0.3210565858
342.50100,0.899721045
342.50150,1.815304268
342.50200,3.036081899
342.50250,4.562053937
342.50300,5.477637161
342.50350,5.782831568
342.50400,6.088025976
342.50450,5.172442753
342.50500,0.2893322296
342.50550,-8.561305594
342.50600,-16.19116579
342.50650,-16.49636019
342.50700,-14.05480493
342.50750,-20.46388749
342.50800,-34.19763584
342.50850,-34.19763584
342.50900,-4.593778294
342.50950,37.21785556
342.51000,55.83471443
342.51050,39.04902201
342.51100,12.80230295
342.51150,4.867248345
342.51200,13.41269176
342.51250,19.82177432
342.51300,18.60099669
342.51350,18.29580228
342.51400,21.04255195
342.51450,20.73735755
342.51500,14.9386638
342.51550,9.445164461
342.51600,7.613998014
342.51650,6.393220384
342.51700,4.562053937
342.51750,4.25685953
342.51800,5.477637161
342.51850,4.562053937
342.51900,0.2893322296
342.51950,-3.983389478
342.52000,-9.171694409
342.52050,-15.58077697
342.52100,-19.54830427
342.52150,-15.58077697
342.52200,-6.119750332
342.52250,-0.3210565858
342.52300,-2.152223032
342.52350,-5.814555924
342.52400,-4.593778294
342.52450,-0.9314454012
342.52500,-0.01586217811
342.52550,-1.847028624
342.52600,-3.067806255
342.52650,-3.678195071
342.52700,-6.730139148
342.52750,-11.30805526
342.52800,-12.52883289
342.52850,-8.256111186
342.52900,-4.288583886
342.52950,-5.204167109
342.53000,-7.645722371
342.53050,-4.593778294
342.53100,4.25685953
342.53150,11.27633091
342.53200,9.750358868
342.53250,3.951665122
342.53300,1.204915453
342.53350,1.51010986
342.53400,1.204915453
342.53450,-0.6262509935
342.53500,-0.01586217811
342.53550,4.25685953
342.53600,7.003609199
342.53650,3.036081899
342.53700,-3.983389478
342.53750,-7.950916778
342.53800,-7.035333555
342.53850,-5.204167109
342.53900,-5.204167109
342.53950,-5.814555924
342.54000,-5.204167109
342.54050,-3.678195071
342.54100,-2.45741744
342.54150,-2.152223032
342.54200,-3.067806255
342.54250,-4.898972701
342.54300,-6.119750332
342.54350,-4.898972701
342.54400,-2.152223032
342.54450,-1.541834217
342.54500,-4.593778294
342.54550,-8.561305594
342.54600,-8.866500001
342.54650,-6.730139148
342.54700,-5.509361517
342.54750,-6.42494474
342.54800,-3.983389478
342.54850,4.562053937
342.54900,14.32827498
342.54950,17.68541347
342.55000,13.71788617
342.55050,7.919192422
342.55100,3.951665122
342.55150,-0.01586217811
342.55200,-4.898972701
342.55250,-5.509361517
342.55300,-0.01586217811
342.55350,5.782831568
342.55400,4.25685953
342.55450,-2.152223032
342.55500,-5.509361517
342.55550,-2.762611847
342.55600,-0.01586217811
342.55650,-2.45741744
342.55700,-7.340527963
342.55750,-9.476888817
342.55800,-7.645722371
342.55850,-5.204167109
342.55900,-4.288583886
342.55950,-4.288583886
342.56000,-4.898972701
342.56050,-5.204167109
342.56100,-4.288583886
342.56150,-2.762611847
342.56200,-1.541834217
342.56250,-2.152223032
342.56300,-3.373000663
342.56350,-4.288583886
342.56400,-3.983389478
342.56450,-2.152223032
342.56500,0.899721045
342.56550,4.562053937
342.56600,7.003609199
342.56650,6.088025976
342.56700,4.25685953
342.56750,3.036081899
342.56800,3.341276307
342.56850,3.646470714
342.56900,2.425693084
342.56950,1.51010986
342.57000,2.425693084
342.57050,4.562053937
342.57100,6.698414791
342.57150,7.919192422
342.57200,7.308803607
342.57250,5.782831568
342.57300,4.25685953
342.57350,3.951665122
342.57400,4.562053937
342.57450,4.25685953
342.57500,3.341276307
342.57550,3.341276307
342.57600,3.646470714
342.57650,0.899721045
342.57700,-6.119750332
342.57750,-14.66519375
342.57800,-18.32752664
342.57850,-15.58077697
342.57900,-10.69766645
342.57950,-7.035333555
342.58000,-4.288583886
342.58050,-1.847028624
342.58100,-0.9314454012
342.58150,-1.541834217
342.58200,-0.3210565858
342.58250,2.730887491
342.58300,5.477637161
342.58350,4.25685953
342.58400,1.204915453
342.58450,1.204915453
342.58500,4.25685953
342.58550,7.003609199
342.58600,6.088025976
342.58650,1.51010986
342.58700,-2.762611847
342.58750,-2.762611847
342.58800,1.51010986
342.58850,5.172442753
342.58900,2.120498676
342.58950,-5.204167109
342.59000,-8.256111186
342.59050,-3.067806255
342.59100,3.646470714
342.59150,5.477637161
342.59200,3.341276307
342.59250,1.815304268
342.59300,0.899721045
342.59350,-2.45741744
342.59400,-6.119750332
342.59450,-5.204167109
342.59500,-3.067806255
342.59550,-4.898972701
342.59600,-8.561305594
342.59650,-6.730139148
342.59700,0.899721045
342.59750,5.477637161
342.59800,2.425693084
342.59850,-2.45741744
342.59900,-3.067806255
342.59950,-0.01586217811
342.60000,4.562053937
342.60050,14.32827498
342.60100,26.23085688
342.60150,30.50357859
342.60200,20.12696873
342.60250,4.867248345
342.60300,-1.236639809
342.60350,1.51010986
342.60400,4.25685953
342.60450,2.730887491
342.60500,2.425693084
342.60550,7.003609199
342.60600,9.750358868
342.60650,6.393220384
342.60700,-0.6262509935
342.60750,-4.593778294
342.60800,-4.593778294
342.60850,-3.373000663
342.60900,-3.373000663
342.60950,-5.814555924
342.61000,-11.61324967
342.61050,-17.41194342
342.61100,-17.10674901
342.61150,-7.340527963
342.61200,5.172442753
342.61250,10.9711365
342.61300,5.172442753
342.61350,-5.509361517
342.61400,-13.13922171
342.61450,-12.52883289
342.61500,-7.035333555
342.61550,-2.152223032
342.61600,-2.45741744
342.61650,-7.035333555
342.61700,-13.74961052
342.61750,-21.98985953
342.61800,-30.23010854
342.61850,-30.84049736
342.61900,-18.93791546
342.61950,-1.236639809
342.62000,8.22438683
342.62050,11.27633091
342.62100,26.53605129
342.62150,60.10743614
342.62200,86.96454402
342.62250,78.72429501
342.62300,43.01654931
342.62350,17.99060788
342.62400,22.56852399
342.62450,33.25032826
342.62500,18.9061911
342.62550,-17.71713782
342.62600,-48.23657859
342.62650,-52.2041059
342.62700,-35.72360788
342.62750,-17.10674901
342.62800,-6.730139148
342.62850,-5.204167109
342.62900,-7.340527963
342.62950,-8.866500001
342.63000,-6.730139148
342.63050,-3.983389478
342.63100,-3.373000663
342.63150,-5.814555924
342.63200,-9.171694409
342.63250,-9.782083225
342.63300,-6.119750332
342.63350,0.5945266373
342.63400,7.003609199
342.63450,8.22438683
342.63500,4.867248345
342.63550,0.2893322296
342.63600,-1.236639809
342.63650,-1.847028624
342.63700,-2.45741744
342.63750,-2.152223032
342.63800,-0.6262509935
342.63850,0.899721045
342.63900,1.51010986
342.63950,0.899721045
342.64000,0.2893322296
342.64050,-0.01586217811
342.64100,-1.541834217
342.64150,-3.373000663
342.64200,-3.983389478
342.64250,-3.373000663
342.64300,-1.847028624
342.64350,-0.01586217811
342.64400,1.51010986
342.64450,2.120498676
342.64500,1.204915453
342.64550,-2.762611847
342.64600,-9.782083225
342.64650,-16.49636019
342.64700,-17.41194342
342.64750,-14.35999934
342.64800,-13.13922171
342.64850,-15.88597138
342.64900,-15.88597138
342.64950,-7.950916778
342.65000,1.204915453
342.65050,3.646470714
342.65100,2.425693084
342.65150,8.22438683
342.65200,20.43216314
342.65250,25.62046807
342.65300,16.76983025
342.65350,4.562053937
342.65400,2.120498676
342.65450,7.003609199
342.65500,9.139970053
342.65550,4.867248345
342.65600,0.899721045
342.65650,0.5945266373
342.65700,-0.3210565858
342.65750,-5.814555924
342.65800,-11.61324967
342.65850,-13.13922171
342.65900,-11.00286086
342.65950,-7.645722371
342.66000,-1.847028624
342.66050,5.782831568
342.66100,12.19191413
342.66150,13.71788617
342.66200,13.10749735
342.66250,14.32827498
342.66300,16.76983025
342.66350,15.24385821
342.66400,6.088025976
342.66450,-6.730139148
342.66500,-17.10674901
342.66550,-20.15869309
342.66600,-17.10674901
342.66650,-13.13922171
342.66700,-11.91844408
342.66750,-12.52883289
342.66800,-9.171694409
342.66850,0.899721045
342.66900,14.02308058
342.66950,20.43216314
342.67000,17.07502465
342.67050,8.529581238
342.67100,2.425693084
342.67150,1.204915453
342.67200,2.120498676
342.67250,2.730887491
342.67300,2.425693084
342.67350,1.815304268
342.67400,1.51010986
342.67450,1.51010986
342.67500,2.120498676
342.67550,2.730887491
342.67600,3.341276307
342.67650,4.867248345
342.67700,6.088025976
342.67750,6.393220384
342.67800,4.562053937
342.67850,2.425693084
342.67900,0.899721045
342.67950,-1.541834217
342.68000,-8.561305594
342.68050,-18.32752664
342.68100,-25.04180361
342.68150,-23.21063716
342.68200,-13.13922171
342.68250,-0.9314454012
342.68300,6.088025976
342.68350,7.308803607
342.68400,5.172442753
342.68450,3.646470714
342.68500,2.730887491
342.68550,1.51010986
342.68600,-0.3210565858
342.68650,-2.152223032
342.68700,-2.152223032
342.68750,-0.01586217811
342.68800,3.951665122
342.68850,7.003609199
342.68900,6.698414791
342.68950,5.172442753
342.69000,5.782831568
342.69050,7.308803607
342.69100,5.172442753
342.69150,-2.152223032
342.69200,-10.08727763
342.69250,-12.52883289
342.69300,-9.782083225
342.69350,-6.730139148
342.69400,-5.509361517
342.69450,-3.678195071
342.69500,-1.847028624
342.69550,-2.45741744
342.69600,-6.119750332
342.69650,-8.256111186
342.69700,-6.42494474
342.69750,-4.593778294
342.69800,-5.509361517
342.69850,-7.645722371
342.69900,-7.340527963
342.69950,-4.593778294
342.70000,-1.847028624
342.70050,-0.01586217811
342.70100,2.425693084
342.70150,4.562053937
342.70200,4.562053937
342.70250,3.341276307
342.70300,2.120498676
342.70350,1.51010986
342.70400,1.204915453
342.70450,1.815304268
342.70500,5.477637161
342.70550,10.05555328
342.70600,11.58152531
342.70650,8.834775645
342.70700,4.867248345
342.70750,3.036081899
342.70800,3.036081899
342.70850,3.341276307
342.70900,3.646470714
342.70950,3.951665122
342.71000,3.951665122
342.71050,4.562053937
342.71100,5.477637161
342.71150,5.477637161
342.71200,3.646470714
342.71250,1.204915453
342.71300,0.2893322296
342.71350,1.204915453
342.71400,0.5945266373
342.71450,-0.9314454012
342.71500,-0.9314454012
342.71550,3.036081899
342.71600,7.613998014
342.71650,9.445164461
342.71700,7.919192422
342.71750,6.698414791
342.71800,6.393220384
342.71850,3.341276307
342.71900,-4.593778294
342.71950,-16.49636019
342.72000,-25.04180361
342.72050,-24.43141479
342.72100,-16.8015546
342.72150,-8.866500001
342.72200,-4.898972701
342.72250,-4.898972701
342.72300,-5.509361517
342.72350,-5.814555924
342.72400,-6.119750332
342.72450,-7.340527963
342.72500,-9.171694409
342.72550,-10.08727763
342.72600,-6.119750332
342.72650,2.425693084
342.72700,10.66594209
342.72750,11.27633091
342.72800,7.613998014
342.72850,8.529581238
342.72900,14.02308058
342.72950,14.02308058
342.73000,5.172442753
342.73050,-2.45741744
342.73100,-0.6262509935
342.73150,4.562053937
342.73200,4.562053937
342.73250,-1.236639809
342.73300,-7.950916778
342.73350,-17.41194342
342.73400,-29.92491413
342.73450,-38.47035755
342.73500,-35.72360788
342.73550,-29.00933091
342.73600,-26.56777565
342.73650,-19.85349868
342.73700,5.477637161
342.73750,41.79577168
342.73800,61.32821377
342.73850,50.34121509
342.73900,25.62046807
342.73950,10.36074768
342.74000,7.919192422
342.74050,8.22438683
342.74100,5.782831568
342.74150,3.036081899
342.74200,1.51010986
342.74250,0.2893322296
342.74300,0.5945266373
342.74350,3.036081899
342.74400,5.477637161
342.74450,4.867248345
342.74500,1.815304268
342.74550,-0.6262509935
342.74600,-2.45741744
342.74650,-3.067806255
342.74700,-1.236639809
342.74750,0.5945266373
342.74800,-0.01586217811
342.74850,-3.373000663
342.74900,-4.898972701
342.74950,0.2893322296
342.75000,10.05555328
342.75050,16.76983025
342.75100,16.46463584
342.75150,10.9711365
342.75200,4.867248345
342.75250,1.204915453
342.75300,-0.01586217811
342.75350,-0.01586217811
342.75400,-0.3210565858
342.75450,-0.9314454012
342.75500,-0.9314454012
342.75550,-0.6262509935
342.75600,0.2893322296
342.75650,0.899721045
342.75700,0.2893322296
342.75750,-0.9314454012
342.75800,-0.01586217811
342.75850,3.951665122
342.75900,8.834775645
342.75950,10.05555328
342.76000,7.919192422
342.76050,7.003609199
342.76100,8.22438683
342.76150,9.445164461
342.76200,10.66594209
342.76250,13.41269176
342.76300,12.49710854
342.76350,-0.3210565858
342.76400,-25.65219243
342.76450,-48.541773
342.76500,-53.42488353
342.76550,-40.6067184
342.76600,-22.60024835
342.76650,-10.08727763
342.76700,-4.593778294
342.76750,-3.678195071
342.76800,-6.730139148
342.76850,-10.39247204
342.76900,-11.00286086
342.76950,-7.035333555
342.77000,-2.762611847
342.77050,-0.01586217811
342.77100,1.51010986
342.77150,4.25685953
342.77200,3.951665122
342.77250,-1.236639809
342.77300,-8.866500001
342.77350,-12.52883289
342.77400,-9.476888817
342.77450,-3.678195071
342.77500,0.899721045
342.77550,6.088025976
342.77600,12.80230295
342.77650,19.51657991
342.77700,20.12696873
342.77750,10.9711365
342.77800,-3.373000663
342.77850,-12.8340273
342.77900,-10.08727763
342.77950,2.425693084
342.78000,15.24385821
342.78050,21.04255195
342.78100,20.73735755
342.78150,18.60099669
342.78200,15.24385821
342.78250,9.139970053
342.78300,1.815304268
342.78350,-0.6262509935
342.78400,1.815304268
342.78450,4.562053937
342.78500,1.815304268
342.78550,-3.983389478
342.78600,-8.256111186
342.78650,-8.866500001
342.78700,-8.561305594
342.78750,-8.256111186
342.78800,-6.42494474
342.78850,-3.067806255
342.78900,-0.9314454012
342.78950,-1.541834217
342.79000,-1.847028624
342.79050,0.2893322296
342.79100,2.425693084
342.79150,1.204915453
342.79200,-2.152223032
342.79250,-4.593778294
342.79300,-4.288583886
342.79350,-3.373000663
342.79400,-3.373000663
342.79450,-3.373000663
342.79500,-2.45741744
342.79550,-1.847028624
342.79600,-3.067806255
342.79650,-7.340527963
342.79700,-13.13922171
342.79750,-14.66519375
342.79800,-7.340527963
342.79850,7.308803607
342.79900,20.12696873
342.79950,22.26332958
342.80000,15.24385821
342.80050,8.834775645
342.80100,7.003609199
342.80150,4.562053937
342.80200,-3.067806255
342.80250,-11.30805526
342.80300,-11.61324967
342.80350,-5.509361517
342.80400,-1.541834217
342.80450,-2.152223032
342.80500,-2.152223032
342.80550,1.204915453
342.80600,5.477637161
342.80650,6.393220384
342.80700,4.562053937
342.80750,1.204915453
342.80800,-3.067806255
342.80850,-7.645722371
342.80900,-8.561305594
342.80950,-5.509361517
342.81000,-3.983389478
342.81050,-7.340527963
342.81100,-13.13922171
342.81150,-14.35999934
342.81200,-9.476888817
342.81250,-1.847028624
342.81300,3.951665122
342.81350,7.613998014
342.81400,9.139970053
342.81450,10.66594209
342.81500,11.88671972
342.81550,11.88671972
342.81600,10.05555328
342.81650,8.529581238
342.81700,9.139970053
342.81750,7.308803607
342.81800,-1.236639809
342.81850,-13.74961052
342.81900,-18.02233223
342.81950,-10.69766645
342.82000,-3.067806255
342.82050,-5.204167109
342.82100,-12.52883289
342.82150,-11.30805526
342.82200,-0.6262509935
342.82250,7.308803607
342.82300,4.562053937
342.82350,-1.541834217
342.82400,-2.152223032
342.82450,2.425693084
342.82500,5.782831568
342.82550,4.562053937
342.82600,2.120498676
342.82650,0.2893322296
342.82700,-0.6262509935
342.82750,-0.9314454012
342.82800,-0.6262509935
342.82850,-1.541834217
342.82900,-5.204167109
342.82950,-7.950916778
342.83000,-4.593778294
342.83050,4.562053937
342.83100,10.9711365
342.83150,8.529581238
342.83200,2.120498676
342.83250,-0.3210565858
342.83300,-0.01586217811
342.83350,-2.762611847
342.83400,-6.42494474
342.83450,-3.373000663
342.83500,6.088025976
342.83550,12.49710854
342.83600,12.49710854
342.83650,16.46463584
342.83700,29.89318978
342.83750,39.04902201
342.83800,27.75682892
342.83850,0.899721045
342.83900,-21.37947072
342.83950,-31.14569176
342.84000,-35.72360788
342.84050,-39.08074636
342.84100,-38.16516314
342.84150,-34.50283025
342.84200,-31.75608058
342.84250,-22.60024835
342.84300,5.172442753
342.84350,44.23732694
342.84400,64.99054666
342.84450,51.86718713
342.84500,24.09449603
342.84550,8.529581238
342.84600,7.003609199
342.84650,4.867248345
342.84700,-1.236639809
342.84750,-3.983389478
342.84800,-2.152223032
342.84850,-1.541834217
342.84900,-1.236639809
342.84950,3.341276307
342.85000,10.66594209
342.85050,11.58152531
342.85100,5.477637161
342.85150,0.5945266373
342.85200,0.5945266373
342.85250,0.5945266373
342.85300,-2.762611847
342.85350,-7.035333555
342.85400,-7.950916778
342.85450,-6.730139148
342.85500,-5.204167109
342.85550,-2.152223032
342.85600,1.204915453
342.85650,2.425693084
342.85700,-0.9314454012
342.85750,-5.509361517
342.85800,-6.42494474
342.85850,-4.288583886
342.85900,-2.45741744
342.85950,-2.152223032
342.86000,-2.45741744
342.86050,-2.152223032
342.86100,-2.45741744
342.86150,-3.983389478
342.86200,-7.340527963
342.86250,-11.00286086
342.86300,-13.44441612
342.86350,-13.13922171
342.86400,-10.69766645
342.86450,-7.035333555
342.86500,-3.983389478
342.86550,-2.152223032
342.86600,-0.9314454012
342.86650,-0.01586217811
342.86700,-0.6262509935
342.86750,-1.236639809
342.86800,0.899721045
342.86850,9.139970053
342.86900,20.73735755
342.86950,29.58799537
342.87000,29.58799537
342.87050,19.51657991
342.87100,5.172442753
342.87150,-6.119750332
342.87200,-11.30805526
342.87250,-11.61324967
342.87300,-10.39247204
342.87350,-7.950916778
342.87400,-3.983389478
342.87450,-0.01586217811
342.87500,-0.01586217811
342.87550,-3.983389478
342.87600,-8.256111186
342.87650,-7.950916778
342.87700,-3.678195071
342.87750,-0.3210565858
342.87800,-1.236639809
342.87850,-4.898972701
342.87900,-7.035333555
342.87950,-5.814555924
342.88000,-3.373000663
342.88050,-3.678195071
342.88100,-4.898972701
342.88150,-2.45741744
342.88200,3.951665122
342.88250,9.139970053
342.88300,8.529581238
342.88350,4.25685953
342.88400,1.204915453
342.88450,-0.01586217811
342.88500,-0.9314454012
342.88550,-1.236639809
342.88600,-0.01586217811
342.88650,0.2893322296
342.88700,0.5945266373
342.88750,4.867248345
342.88800,16.46463584
342.88850,28.06202333
342.88900,30.808773
342.88950,27.45163452
342.89000,25.92566248
342.89050,24.39969044
342.89100,10.66594209
342.89150,-18.02233223
342.89200,-45.48982893
342.89250,-54.03527234
342.89300,-43.65866248
342.89350,-29.92491413
342.89400,-22.60024835
342.89450,-18.63272105
342.89500,-13.13922171
342.89550,-8.561305594
342.89600,-9.171694409
342.89650,-10.39247204
342.89700,-3.373000663
342.89750,12.19191413
342.89800,25.01007925
342.89850,24.09449603
342.89900,13.71788617
342.89950,5.172442753
342.90000,4.562053937
342.90050,7.613998014
342.90100,8.529581238
342.90150,6.088025976
342.90200,2.120498676
342.90250,-1.847028624
342.90300,-3.678195071
342.90350,-1.541834217
342.90400,1.815304268
342.90450,3.036081899
342.90500,1.204915453
342.90550,-0.01586217811
342.90600,2.120498676
342.90650,6.698414791
342.90700,9.750358868
342.90750,10.66594209
342.90800,11.88671972
342.90850,13.71788617
342.90900,15.54905261
342.90950,15.24385821
342.91000,13.41269176
342.91050,10.9711365
342.91100,6.698414791
342.91150,-2.762611847
342.91200,-17.41194342
342.91250,-28.39894209
342.91300,-28.09374769
342.91350,-19.85349868
342.91400,-13.13922171
342.91450,-12.22363849
342.91500,-11.30805526
342.91550,-6.119750332
342.91600,0.2893322296
342.91650,4.25685953
342.91700,7.003609199
342.91750,10.9711365
342.91800,14.63346939
342.91850,14.02308058
342.91900,10.05555328
342.91950,5.782831568
342.92000,3.341276307
342.92050,-0.01586217811
342.92100,-5.814555924
342.92150,-13.44441612
342.92200,-17.41194342
342.92250,-14.97038816
342.92300,-7.950916778
342.92350,-3.373000663
342.92400,-5.509361517
342.92450,-11.00286086
342.92500,-12.52883289
342.92550,-7.035333555
342.92600,-0.01586217811
342.92650,2.425693084
342.92700,0.5945266373
342.92750,-0.01586217811
342.92800,3.036081899
342.92850,7.003609199
342.92900,6.088025976
342.92950,0.5945266373
342.93000,-3.678195071
342.93050,-3.373000663
342.93100,-0.01586217811
342.93150,3.646470714
342.93200,8.529581238
342.93250,16.15944143
342.93300,24.39969044
342.93350,27.14644011
342.93400,22.26332958
342.93450,13.41269176
342.93500,5.477637161
342.93550,-0.01586217811
342.93600,-2.45741744
342.93650,-3.067806255
342.93700,-1.236639809
342.93750,0.899721045
342.93800,1.815304268
342.93850,-0.01586217811
342.93900,-2.45741744
342.93950,-5.204167109
342.94000,-6.119750332
342.94050,-5.509361517
342.94100,-5.204167109
342.94150,-5.204167109
342.94200,-5.509361517
342.94250,-4.593778294
342.94300,-2.152223032
342.94350,-0.01586217811
342.94400,0.5945266373
342.94450,-1.847028624
342.94500,-5.509361517
342.94550,-6.119750332
342.94600,-1.541834217
342.94650,4.867248345
342.94700,7.613998014
342.94750,5.477637161
342.94800,3.036081899
342.94850,3.646470714
342.94900,5.172442753
342.94950,4.562053937
342.95000,1.815304268
342.95050,-0.01586217811
342.95100,-0.6262509935
342.95150,-0.9314454012
342.95200,-0.6262509935
342.95250,0.899721045
342.95300,2.730887491
342.95350,2.730887491
342.95400,0.2893322296
342.95450,-1.847028624
342.95500,-3.678195071
342.95550,-5.204167109
342.95600,-4.593778294
342.95650,-1.847028624
342.95700,0.899721045
342.95750,1.204915453
342.95800,-1.541834217
342.95850,-6.42494474
342.95900,-11.61324967
342.95950,-14.66519375
342.96000,-14.05480493
342.96050,-9.476888817
342.96100,-3.067806255
342.96150,2.120498676
342.96200,6.088025976
342.96250,5.477637161
342.96300,-0.6262509935
342.96350,-6.42494474
342.96400,-6.119750332
342.96450,-3.678195071
342.96500,-7.340527963
342.96550,-12.52883289
342.96600,-2.45741744
342.96650,23.78930162
342.96700,44.54252135
342.96750,39.04902201
342.96800,16.46463584
342.96850,0.2893322296
342.96900,-2.762611847
342.96950,-3.678195071
342.97000,-7.035333555
342.97050,-6.730139148
342.97100,-2.45741744
342.97150,-0.01586217811
342.97200,0.5945266373
342.97250,7.003609199
342.97300,18.29580228
342.97350,24.09449603
342.97400,19.51657991
342.97450,11.88671972
342.97500,5.782831568
342.97550,-0.9314454012
342.97600,-9.476888817
342.97650,-12.8340273
342.97700,-8.256111186
342.97750,-3.678195071
342.97800,-5.509361517
342.97850,-6.730139148
342.97900,0.899721045
342.97950,14.63346939
342.98000,21.95813518
342.98050,19.21138551
342.98100,15.24385821
342.98150,15.24385821
342.98200,10.9711365
342.98250,-6.42494474
342.98300,-31.75608058
342.98350,-48.541773
342.98400,-48.541773
342.98450,-38.16516314
342.98500,-28.09374769
342.98550,-21.68466512
342.98600,-15.58077697
342.98650,-8.256111186
342.98700,-2.152223032
342.98750,-0.01586217811
342.98800,-1.236639809
342.98850,-3.983389478
342.98900,-5.204167109
342.98950,-3.067806255
342.99000,0.2893322296
342.99050,1.815304268
342.99100,1.204915453
342.99150,1.815304268
342.99200,4.25685953
342.99250,4.867248345
342.99300,3.341276307
342.99350,4.25685953
342.99400,8.834775645
342.99450,8.834775645
342.99500,-0.6262509935
342.99550,-12.8340273
342.99600,-15.27558256
342.99650,-8.256111186
342.99700,-1.236639809
342.99750,-0.01586217811
342.99800,-0.6262509935
342.99850,0.2893322296
342.99900,1.815304268
342.99950,0.899721045
343.00000,-1.541834217
343.00050,-5.204167109
343.00100,-7.950916778
343.00150,-8.256111186
343.00200,-5.509361517
343.00250,-1.541834217
343.00300,0.5945266373
343.00350,1.204915453
343.00400,1.204915453
343.00450,0.5945266373
343.00500,-0.9314454012
343.00550,-0.6262509935
343.00600,3.646470714
343.00650,7.919192422
343.00700,6.088025976
343.00750,0.2893322296
343.00800,-1.541834217
343.00850,1.815304268
343.00900,4.562053937
343.00950,3.341276307
343.01000,2.425693084
343.01050,4.562053937
343.01100,5.172442753
343.01150,0.5945266373
343.01200,-3.678195071
343.01250,-1.541834217
343.01300,3.646470714
343.01350,3.646470714
343.01400,-1.541834217
343.01450,-4.593778294
343.01500,-1.541834217
343.01550,2.120498676
343.01600,2.730887491
343.01650,2.425693084
343.01700,6.393220384
343.01750,12.49710854
343.01800,14.32827498
343.01850,10.36074768
343.01900,4.867248345
343.01950,1.51010986
343.02000,0.5945266373
343.02050,0.899721045
343.02100,3.036081899
343.02150,4.562053937
343.02200,0.5945266373
343.02250,-7.035333555
343.02300,-11.00286086
343.02350,-3.983389478
343.02400,7.308803607
343.02450,10.36074768
343.02500,2.120498676
343.02550,-6.42494474
343.02600,-7.340527963
343.02650,-3.067806255
343.02700,0.5945266373
343.02750,4.867248345
343.02800,12.49710854
343.02850,19.21138551
343.02900,17.38021906
343.02950,8.22438683
343.03000,2.730887491
343.03050,8.22438683
343.03100,20.12696873
343.03150,28.97760655
343.03200,28.06202333
343.03250,20.12696873
343.03300,9.750358868
343.03350,0.899721045
343.03400,-6.42494474
343.03450,-14.05480493
343.03500,-21.98985953
343.03550,-27.78855328
343.03600,-29.61971973
343.03650,-27.17816446
343.03700,-23.51583157
343.03750,-21.37947072
343.03800,-20.46388749
343.03850,-16.8015546
343.03900,-8.256111186
343.03950,-0.01586217811
343.04000,2.425693084
343.04050,-0.01586217811
343.04100,-1.847028624
343.04150,-1.847028624
343.04200,-3.983389478
343.04250,-6.42494474
343.04300,-0.9314454012
343.04350,13.71788617
343.04400,26.8412457
343.04450,25.92566248
343.04500,14.63346939
343.04550,6.698414791
343.04600,5.782831568
343.04650,5.782831568
343.04700,3.341276307
343.04750,1.815304268
343.04800,3.341276307
343.04850,4.25685953
343.04900,2.730887491
343.04950,1.51010986
343.05000,1.51010986
343.05050,0.899721045
343.05100,-1.236639809
343.05150,-2.152223032
343.05200,-0.3210565858
343.05250,0.2893322296
343.05300,-2.152223032
343.05350,-5.204167109
343.05400,-4.898972701
343.05450,-2.762611847
343.05500,-1.847028624
343.05550,-2.152223032
343.05600,-1.847028624
343.05650,-2.152223032
343.05700,-5.204167109
343.05750,-7.645722371
343.05800,-4.593778294
343.05850,2.730887491
343.05900,6.393220384
343.05950,2.425693084
343.06000,-3.373000663
343.06050,-5.204167109
343.06100,-3.678195071
343.06150,-4.288583886
343.06200,-9.171694409
343.06250,-16.19116579
343.06300,-21.98985953
343.06350,-24.43141479
343.06400,-22.60024835
343.06450,-19.85349868
343.06500,-18.93791546
343.06550,-11.61324967
343.06600,13.41269176
343.06650,51.56199272
343.06700,73.53599008
343.06750,58.27626969
343.06800,23.48410721
343.06850,5.477637161
343.06900,12.80230295
343.06950,22.26332958
343.07000,14.63346939
343.07050,-0.01586217811
343.07100,-6.42494474
343.07150,-7.645722371
343.07200,-11.30805526
343.07250,-13.44441612
343.07300,-5.509361517
343.07350,7.308803607
343.07400,13.71788617
343.07450,12.80230295
343.07500,13.71788617
343.07550,18.9061911
343.07600,21.04255195
343.07650,18.29580228
343.07700,16.15944143
343.07750,19.21138551
343.07800,18.9061911
343.07850,3.951665122
343.07900,-26.56777565
343.07950,-57.39241083
343.08000,-68.68460391
343.08050,-57.39241083
343.08100,-39.69113518
343.08150,-32.36646939
343.08200,-34.19763584
343.08250,-34.19763584
343.08300,-28.39894209
343.08350,-21.37947072
343.08400,-15.88597138
343.08450,-8.866500001
343.08500,-1.236639809
343.08550,1.204915453
343.08600,2.425693084
343.08650,10.9711365
343.08700,26.53605129
343.08750,34.7763003
343.08800,27.75682892
343.08850,13.41269176
343.08900,4.867248345
343.08950,3.341276307
343.09000,2.425693084
343.09050,0.2893322296
343.09100,0.2893322296
343.09150,1.51010986
343.09200,-0.01586217811
343.09250,-4.288583886
343.09300,-6.730139148
343.09350,-3.678195071
343.09400,1.815304268
343.09450,5.172442753
343.09500,4.562053937
343.09550,1.815304268
343.09600,-0.3210565858
343.09650,-1.236639809
343.09700,-0.6262509935
343.09750,-0.01586217811
343.09800,-0.3210565858
343.09850,-0.6262509935
343.09900,-1.236639809
343.09950,-1.847028624
343.10000,-2.45741744
343.10050,-2.45741744
343.10100,-2.152223032
343.10150,-1.847028624
343.10200,-1.847028624
343.10250,-0.9314454012
343.10300,-0.01586217811
343.10350,-0.01586217811
343.10400,-0.01586217811
343.10450,1.815304268
343.10500,5.477637161
343.10550,7.308803607
343.10600,6.698414791
343.10650,6.393220384
343.10700,8.529581238
343.10750,9.750358868
343.10800,7.919192422
343.10850,5.477637161
343.10900,4.867248345
343.10950,4.867248345
343.11000,2.120498676
343.11050,-0.6262509935
343.11100,-0.3210565858
343.11150,1.815304268
343.11200,1.51010986
343.11250,-0.9314454012
343.11300,-1.236639809
343.11350,1.204915453
343.11400,2.425693084
343.11450,1.204915453
343.11500,-0.01586217811
343.11550,0.5945266373
343.11600,-0.6262509935
343.11650,-6.42494474
343.11700,-13.13922171
343.11750,-16.19116579
343.11800,-14.66519375
343.11850,-11.30805526
343.11900,-9.171694409
343.11950,-7.035333555
343.12000,-1.541834217
343.12050,9.750358868
343.12100,24.09449603
343.12150,30.50357859
343.12200,23.17891281
343.12250,8.529581238
343.12300,-2.152223032
343.12350,-6.42494474
343.12400,-9.171694409
343.12450,-12.22363849
343.12500,-11.30805526
343.12550,-5.814555924
343.12600,-0.3210565858
343.12650,1.815304268
343.12700,2.425693084
343.12750,3.341276307
343.12800,2.730887491
343.12850,-0.01586217811
343.12900,-2.762611847
343.12950,-4.593778294
343.13000,-5.204167109
343.13050,-4.288583886
343.13100,-1.847028624
343.13150,-0.01586217811
343.13200,0.2893322296
343.13250,2.425693084
343.13300,8.529581238
343.13350,14.02308058
343.13400,10.9711365
343.13450,2.730887491
343.13500,-0.6262509935
343.13550,2.730887491
343.13600,6.393220384
343.13650,6.088025976
343.13700,4.867248345
343.13750,3.646470714
343.13800,-3.067806255
343.13850,-15.88597138
343.13900,-24.7366092
343.13950,-21.07427631
343.14000,-10.69766645
343.14050,-3.983389478
343.14100,-3.983389478
343.14150,-4.593778294
343.14200,-3.678195071
343.14250,-3.373000663
343.14300,-3.373000663
343.14350,-2.152223032
343.14400,0.2893322296
343.14450,1.815304268
343.14500,1.815304268
343.14550,1.51010986
343.14600,2.120498676
343.14650,3.646470714
343.14700,4.562053937
343.14750,5.782831568
343.14800,7.613998014
343.14850,8.834775645
343.14900,7.919192422
343.14950,4.562053937
343.15000,0.899721045
343.15050,-0.6262509935
343.15100,-0.01586217811
343.15150,0.899721045
343.15200,1.51010986
343.15250,2.120498676
343.15300,2.730887491
343.15350,1.815304268
343.15400,0.2893322296
343.15450,0.899721045
343.15500,2.730887491
343.15550,3.341276307
343.15600,1.815304268
343.15650,-0.01586217811
343.15700,-2.152223032
343.15750,-5.204167109
343.15800,-8.866500001
343.15850,-10.08727763
343.15900,-7.645722371
343.15950,-1.847028624
343.16000,5.782831568
343.16050,15.54905261
343.16100,22.56852399
343.16150,21.34774636
343.16200,13.41269176
343.16250,4.867248345
343.16300,-0.01586217811
343.16350,-2.45741744
343.16400,-7.645722371
343.16450,-16.19116579
343.16500,-24.12622039
343.16550,-24.7366092
343.16600,-16.8015546
343.16650,-10.08727763
343.16700,-12.52883289
343.16750,-13.74961052
343.16800,3.951665122
343.16850,39.65941082
343.16900,63.15938022
343.16950,52.47757595
343.17000,20.12696873
343.17050,-4.593778294
343.17100,-11.00286086
343.17150,-9.171694409
343.17200,-8.256111186
343.17250,-8.866500001
343.17300,-10.69766645
343.17350,-14.97038816
343.17400,-18.02233223
343.17450,-18.02233223
343.17500,-18.63272105
343.17550,-21.07427631
343.17600,-15.58077697
343.17650,3.036081899
343.17700,22.8737184
343.17750,27.75682892
343.17800,21.65294077
343.17850,21.04255195
343.17900,28.06202333
343.17950,31.11396741
343.18000,26.8412457
343.18050,22.56852399
343.18100,21.04255195
343.18150,16.76983025
343.18200,11.58152531
343.18250,11.27633091
343.18300,9.750358868
343.18350,-6.119750332
343.18400,-33.89244143
343.18450,-50.98332826
343.18500,-45.18463452
343.18550,-29.92491413
343.18600,-22.90544276
343.18650,-22.60024835
343.18700,-17.71713782
343.18750,-7.645722371
343.18800,-1.541834217
343.18850,-2.45741744
343.18900,-3.678195071
343.18950,-0.6262509935
343.19000,4.562053937
343.19050,7.308803607
343.19100,5.172442753
343.19150,1.815304268
343.19200,-0.3210565858
343.19250,-0.3210565858
343.19300,-0.01586217811
343.19350,-0.6262509935
343.19400,-1.541834217
343.19450,-1.541834217
343.19500,-1.236639809
343.19550,-0.9314454012
343.19600,-1.541834217
343.19650,-3.067806255
343.19700,-5.814555924
343.19750,-7.950916778
343.19800,-5.509361517
343.19850,-0.9314454012
343.19900,-0.01586217811
343.19950,-2.45741744
343.20000,-2.45741744
343.20050,2.425693084
343.20100,5.782831568
343.20150,1.51010986
343.20200,-5.814555924
343.20250,-7.645722371
343.20300,-5.814555924
343.20350,-6.730139148
343.20400,-7.035333555
343.20450,0.2893322296
343.20500,13.41269176
343.20550,19.21138551
343.20600,14.02308058
343.20650,7.308803607
343.20700,6.088025976
343.20750,6.088025976
343.20800,3.951665122
343.20850,2.425693084
343.20900,3.036081899
343.20950,1.204915453
343.21000,-4.593778294
343.21050,-7.035333555
343.21100,-0.6262509935
343.21150,7.308803607
343.21200,7.919192422
343.21250,3.036081899
343.21300,0.2893322296
343.21350,0.899721045
343.21400,-0.01586217811
343.21450,-2.45741744
343.21500,-3.983389478
343.21550,-3.983389478
343.21600,-4.593778294
343.21650,-6.119750332
343.21700,-7.035333555
343.21750,-6.730139148
343.21800,-6.42494474
343.21850,-3.373000663
343.21900,3.036081899
343.21950,10.05555328
343.22000,11.58152531
343.22050,7.308803607
343.22100,1.204915453
343.22150,-3.067806255
343.22200,-5.509361517
343.22250,-5.509361517
343.22300,-3.373000663
343.22350,-1.541834217
343.22400,-1.236639809
343.22450,-1.236639809
343.22500,-0.3210565858
343.22550,1.204915453
343.22600,1.815304268
343.22650,1.51010986
343.22700,1.815304268
343.22750,2.730887491
343.22800,2.120498676
343.22850,0.899721045
343.22900,0.2893322296
343.22950,0.5945266373
343.23000,1.51010986
343.23050,2.120498676
343.23100,2.730887491
343.23150,1.204915453
343.23200,-2.152223032
343.23250,-4.898972701
343.23300,-3.983389478
343.23350,-2.45741744
343.23400,-2.762611847
343.23450,-3.678195071
343.23500,-2.45741744
343.23550,-1.236639809
343.23600,-2.762611847
343.23650,-4.593778294
343.23700,-1.847028624
343.23750,2.730887491
343.23800,3.341276307
343.23850,0.5945266373
343.23900,3.036081899
343.23950,13.10749735
343.24000,21.65294077
343.24050,21.04255195
343.24100,14.9386638
343.24150,12.49710854
343.24200,12.80230295
343.24250,7.613998014
343.24300,-6.730139148
343.24350,-24.12622039
343.24400,-35.72360788
343.24450,-37.55477433
343.24500,-32.06127499
343.24550,-25.34699802
343.24600,-22.29505394
343.24650,-23.51583157
343.24700,-23.21063716
343.24750,-16.19116579
343.24800,-6.42494474
343.24850,-1.847028624
343.24900,-5.204167109
343.24950,-11.61324967
343.25000,-14.97038816
343.25050,-11.30805526
343.25100,0.899721045
343.25150,17.38021906
343.25200,24.70488485
343.25250,13.10749735
343.25300,-6.119750332
343.25350,-7.645722371
343.25400,21.04255195
343.25450,60.10743614
343.25500,79.02948942
343.25550,71.09443482
343.25600,52.17238154
343.25650,37.21785556
343.25700,26.53605129
343.25750,16.76983025
343.25800,9.139970053
343.25850,-0.01586217811
343.25900,-18.93791546
343.25950,-42.43788485
343.26000,-54.03527234
343.26050,-44.5742457
343.26100,-27.17816446
343.26150,-17.71713782
343.26200,-16.19116579
343.26250,-12.52883289
343.26300,-5.814555924
343.26350,-3.678195071
343.26400,-6.42494474
343.26450,-7.645722371
343.26500,-5.814555924
343.26550,-4.898972701
343.26600,-6.119750332
343.26650,-3.678195071
343.26700,3.341276307
343.26750,9.750358868
343.26800,11.27633091
343.26850,8.834775645
343.26900,5.477637161
343.26950,2.425693084
343.27000,0.2893322296
343.27050,0.2893322296
343.27100,1.204915453
343.27150,0.5945266373
343.27200,-2.152223032
343.27250,-4.898972701
343.27300,-4.593778294
343.27350,-1.541834217
343.27400,2.425693084
343.27450,5.172442753
343.27500,4.867248345
343.27550,2.425693084
343.27600,0.5945266373
343.27650,0.2893322296
343.27700,0.2893322296
343.27750,-0.3210565858
343.27800,-1.541834217
343.27850,-1.847028624
343.27900,-1.236639809
343.27950,-0.6262509935
343.28000,-0.01586217811
343.28050,0.899721045
343.28100,2.425693084
343.28150,4.867248345
343.28200,7.308803607
343.28250,7.613998014
343.28300,4.562053937
343.28350,-0.01586217811
343.28400,-0.9314454012
343.28450,0.899721045
343.28500,3.341276307
343.28550,3.341276307
343.28600,3.951665122
343.28650,7.613998014
343.28700,10.66594209
343.28750,8.834775645
343.28800,3.646470714
343.28850,0.5945266373
343.28900,0.2893322296
343.28950,0.899721045
343.29000,1.51010986
343.29050,3.036081899
343.29100,3.951665122
343.29150,1.815304268
343.29200,-1.847028624
343.29250,-4.288583886
343.29300,-4.288583886
343.29350,-4.593778294
343.29400,-6.730139148
343.29450,-8.866500001
343.29500,-8.866500001
343.29550,-7.950916778
343.29600,-7.035333555
343.29650,-7.950916778
343.29700,-11.30805526
343.29750,-15.27558256
343.29800,-14.05480493
343.29850,-5.204167109
343.29900,4.867248345
343.29950,10.05555328
343.30000,11.88671972
343.30050,15.85424702
343.30100,19.82177432
343.30150,15.54905261
343.30200,2.425693084
343.30250,-9.171694409
343.30300,-13.74961052
343.30350,-13.44441612
343.30400,-11.61324967
343.30450,-4.898972701
343.30500,7.003609199
343.30550,16.46463584
343.30600,17.07502465
343.30650,12.80230295
343.30700,11.88671972
343.30750,14.9386638
343.30800,16.15944143
343.30850,12.80230295
343.30900,7.613998014
343.30950,3.646470714
343.31000,0.5945266373
343.31050,-1.541834217
343.31100,-3.067806255
343.31150,-4.898972701
343.31200,-7.035333555
343.31250,-7.035333555
343.31300,-3.373000663
343.31350,-0.01586217811
343.31400,-0.3210565858
343.31450,-4.898972701
343.31500,-7.645722371
343.31550,-5.509361517
343.31600,-2.45741744
343.31650,-1.541834217
343.31700,-2.152223032
343.31750,-0.6262509935
343.31800,2.425693084
343.31850,3.646470714
343.31900,1.204915453
343.31950,-3.067806255
343.32000,-6.119750332
343.32050,-7.950916778
343.32100,-8.866500001
343.32150,-8.561305594
343.32200,-4.898972701
343.32250,1.815304268
343.32300,8.22438683
343.32350,9.750358868
343.32400,6.088025976
343.32450,0.5945266373
343.32500,-2.762611847
343.32550,-4.593778294
343.32600,-5.814555924
343.32650,-4.288583886
343.32700,0.2893322296
343.32750,6.088025976
343.32800,7.613998014
343.32850,3.951665122
343.32900,1.204915453
343.32950,2.730887491
343.33000,5.172442753
343.33050,3.646470714
343.33100,-0.6262509935
343.33150,-3.983389478
343.33200,-4.593778294
343.33250,-3.373000663
343.33300,-1.847028624
343.33350,-0.01586217811
343.33400,-1.236639809
343.33450,-6.730139148
343.33500,-12.8340273
343.33550,-14.35999934
343.33600,-11.91844408
343.33650,-10.69766645
343.33700,-11.91844408
343.33750,-11.61324967
343.33800,-9.171694409
343.33850,-7.950916778
343.33900,-9.782083225
343.33950,-11.30805526
343.34000,-9.782083225
343.34050,-7.340527963
343.34100,-5.204167109
343.34150,-0.01586217811
343.34200,9.139970053
343.34250,18.60099669
343.34300,20.73735755
343.34350,16.46463584
343.34400,11.58152531
343.34450,8.834775645
343.34500,5.477637161
343.34550,-0.01586217811
343.34600,-5.204167109
343.34650,-4.593778294
343.34700,0.2893322296
343.34750,4.25685953
343.34800,3.951665122
343.34850,0.2893322296
343.34900,-1.847028624
343.34950,-0.9314454012
343.35000,0.899721045
343.35050,2.730887491
343.35100,4.25685953
343.35150,5.477637161
343.35200,6.088025976
343.35250,4.25685953
343.35300,0.5945266373
343.35350,-2.45741744
343.35400,-4.898972701
343.35450,-6.730139148
343.35500,-7.035333555
343.35550,-6.42494474
343.35600,-4.593778294
343.35650,-3.373000663
343.35700,-4.593778294
343.35750,-9.476888817
343.35800,-15.27558256
343.35850,-18.02233223
343.35900,-14.97038816
343.35950,-12.22363849
343.36000,-16.49636019
343.36050,-21.07427631
343.36100,-10.39247204
343.36150,19.82177432
343.36200,49.12043746
343.36250,53.39315917
343.36300,32.63993945
343.36350,9.139970053
343.36400,-1.847028624
343.36450,-3.983389478
343.36500,-5.509361517
343.36550,-4.898972701
343.36600,-0.3210565858
343.36650,2.425693084
343.36700,-1.541834217
343.36750,-6.730139148
343.36800,-2.45741744
343.36850,9.445164461
343.36900,18.29580228
343.36950,19.21138551
343.37000,16.15944143
343.37050,12.80230295
343.37100,6.088025976
343.37150,-4.288583886
343.37200,-13.13922171
343.37250,-14.35999934
343.37300,-9.782083225
343.37350,-5.509361517
343.37400,-3.983389478
343.37450,-3.373000663
343.37500,-3.373000663
343.37550,-3.373000663
343.37600,-3.983389478
343.37650,-3.678195071
343.37700,-3.067806255
343.37750,-2.45741744
343.37800,-1.847028624
343.37850,-1.847028624
343.37900,-2.762611847
343.37950,-1.541834217
343.38000,4.562053937
343.38050,13.10749735
343.38100,14.9386638
343.38150,5.782831568
343.38200,-6.42494474
343.38250,-10.69766645
343.38300,-5.204167109
343.38350,2.120498676
343.38400,6.088025976
343.38450,8.529581238
343.38500,11.27633091
343.38550,10.9711365
343.38600,5.477637161
343.38650,-0.01586217811
343.38700,-1.541834217
343.38750,-1.236639809
343.38800,-5.509361517
343.38850,-14.05480493
343.38900,-20.46388749
343.38950,-19.24310986
343.39000,-13.74961052
343.39050,-9.476888817
343.39100,-7.035333555
343.39150,-4.593778294
343.39200,-2.152223032
343.39250,-2.45741744
343.39300,-5.204167109
343.39350,-5.509361517
343.39400,-1.541834217
343.39450,2.730887491
343.39500,3.341276307
343.39550,-0.01586217811
343.39600,-1.541834217
343.39650,0.2893322296
343.39700,4.867248345
343.39750,10.9711365
343.39800,16.76983025
343.39850,18.29580228
343.39900,12.80230295
343.39950,3.646470714
343.40000,-2.152223032
343.40050,-2.45741744
343.40100,-0.9314454012
343.40150,-1.236639809
343.40200,-2.45741744
343.40250,-4.288583886
343.40300,-7.340527963
343.40350,-7.645722371
343.40400,-0.9314454012
343.40450,8.834775645
343.40500,12.49710854
343.40550,7.308803607
343.40600,2.730887491
343.40650,3.951665122
343.40700,5.782831568
343.40750,2.425693084
343.40800,-1.236639809
343.40850,0.2893322296
343.40900,4.25685953
343.40950,4.562053937
343.41000,2.730887491
343.41050,5.477637161
343.41100,11.27633091
343.41150,15.54905261
343.41200,20.12696873
343.41250,27.75682892
343.41300,31.41916182
343.41350,17.38021906
343.41400,-11.30805526
343.41450,-37.24957992
343.41500,-45.79502333
343.41550,-40.91191281
343.41600,-33.89244143
343.41650,-27.48335887
343.41700,-18.02233223
343.41750,-7.340527963
343.41800,-1.236639809
343.41850,-1.541834217
343.41900,-4.288583886
343.41950,-5.814555924
343.42000,-5.204167109
343.42050,-3.373000663
343.42100,0.2893322296
343.42150,4.867248345
343.42200,7.003609199
343.42250,5.782831568
343.42300,3.036081899
343.42350,2.120498676
343.42400,3.951665122
343.42450,4.867248345
343.42500,3.341276307
343.42550,1.51010986
343.42600,1.204915453
343.42650,2.120498676
343.42700,3.341276307
343.42750,3.951665122
343.42800,5.477637161
343.42850,7.003609199
343.42900,7.003609199
343.42950,4.562053937
343.43000,1.815304268
343.43050,1.204915453
343.43100,3.341276307
343.43150,7.613998014
343.43200,10.36074768
343.43250,7.919192422
343.43300,2.120498676
343.43350,-1.236639809
343.43400,-0.01586217811
343.43450,0.899721045
343.43500,-2.45741744
343.43550,-7.645722371
343.43600,-8.256111186
343.43650,-5.204167109
343.43700,-4.288583886
343.43750,-5.204167109
343.43800,0.2893322296
343.43850,15.85424702
343.43900,30.808773
343.43950,31.11396741
343.44000,15.85424702
343.44050,-0.9314454012
343.44100,-8.561305594
343.44150,-7.340527963
343.44200,-5.204167109
343.44250,-4.288583886
343.44300,-2.762611847
343.44350,-0.01586217811
343.44400,-1.541834217
343.44450,-8.866500001
343.44500,-14.35999934
343.44550,-11.91844408
343.44600,-5.814555924
343.44650,-5.204167109
343.44700,-8.561305594
343.44750,-5.814555924
343.44800,3.646470714
343.44850,7.308803607
343.44900,-2.762611847
343.44950,-16.8015546
343.45000,-20.46388749
343.45050,-18.32752664
343.45100,-23.21063716
343.45150,-31.75608058
343.45200,-22.90544276
343.45250,9.750358868
343.45300,46.37368779
343.45350,59.80224173
343.45400,46.6788822
343.45450,25.01007925
343.45500,12.19191413
343.45550,9.750358868
343.45600,10.36074768
343.45650,7.613998014
343.45700,3.036081899
343.45750,1.51010986
343.45800,4.867248345
343.45850,5.782831568
343.45900,-2.762611847
343.45950,-17.10674901
343.46000,-22.60024835
343.46050,-13.44441612
343.46100,-1.847028624
343.46150,-0.6262509935
343.46200,-5.814555924
343.46250,-6.119750332
343.46300,0.5945266373
343.46350,5.172442753
343.46400,2.425693084
343.46450,-1.236639809
343.46500,-0.3210565858
343.46550,3.646470714
343.46600,6.088025976
343.46650,5.782831568
343.46700,6.698414791
343.46750,8.834775645
343.46800,9.750358868
343.46850,6.088025976
343.46900,-1.236639809
343.46950,-9.476888817
343.47000,-15.27558256
343.47050,-18.32752664
343.47100,-18.63272105
343.47150,-15.27558256
343.47200,-8.866500001
343.47250,-4.898972701
343.47300,-6.730139148
343.47350,-11.30805526
343.47400,-11.61324967
343.47450,-7.645722371
343.47500,-3.983389478
343.47550,-2.45741744
343.47600,-0.01586217811
343.47650,5.477637161
343.47700,10.9711365
343.47750,13.71788617
343.47800,14.02308058
343.47850,11.27633091
343.47900,2.120498676
343.47950,-11.91844408
343.48000,-23.82102598
343.48050,-26.87297006
343.48100,-22.60024835
343.48150,-16.8015546
343.48200,-11.30805526
343.48250,-3.983389478
343.48300,4.25685953
343.48350,10.36074768
343.48400,12.19191413
343.48450,11.88671972
343.48500,10.9711365
343.48550,10.05555328
343.48600,7.003609199
343.48650,2.120498676
343.48700,-1.541834217
343.48750,-4.288583886
343.48800,-7.645722371
343.48850,-11.91844408
343.48900,-12.52883289
343.48950,-6.42494474
343.49000,2.120498676
343.49050,5.172442753
343.49100,2.730887491
343.49150,1.51010986
343.49200,5.477637161
343.49250,9.139970053
343.49300,8.22438683
343.49350,4.867248345
343.49400,3.036081899
343.49450,2.120498676
343.49500,0.2893322296
343.49550,-0.9314454012
343.49600,-2.45741744
343.49650,-6.42494474
343.49700,-13.13922171
343.49750,-15.27558256
343.49800,-8.866500001
343.49850,1.204915453
343.49900,7.613998014
343.49950,8.22438683
343.50000,6.393220384
343.50050,3.951665122
343.50100,0.899721045
343.50150,-0.6262509935
343.50200,0.2893322296
343.50250,3.646470714
343.50300,7.308803607
343.50350,10.9711365
343.50400,14.02308058
343.50450,15.24385821
343.50500,15.24385821
343.50550,16.76983025
343.50600,18.60099669
343.50650,17.99060788
343.50700,16.76983025
343.50750,15.85424702
343.50800,9.139970053
343.50850,-11.00286086
343.50900,-39.08074636
343.50950,-54.64566116
343.51000,-45.48982893
343.51050,-23.21063716
343.51100,-7.035333555
343.51150,-1.541834217
343.51200,0.2893322296
343.51250,3.951665122
343.51300,4.562053937
343.51350,1.204915453
343.51400,-1.236639809
343.51450,-0.6262509935
343.51500,0.2893322296
343.51550,-0.01586217811
343.51600,0.2893322296
343.51650,2.120498676
343.51700,2.425693084
343.51750,-0.3210565858
343.51800,-0.9314454012
343.51850,5.172442753
343.51900,14.9386638
343.51950,20.73735755
343.52000,19.21138551
343.52050,14.02308058
343.52100,7.308803607
343.52150,-0.9314454012
343.52200,-11.30805526
343.52250,-18.02233223
343.52300,-16.19116579
343.52350,-7.645722371
343.52400,-0.01586217811
343.52450,0.899721045
343.52500,-3.373000663
343.52550,-7.340527963
343.52600,-7.340527963
343.52650,-3.678195071
343.52700,-0.01586217811
343.52750,1.51010986
343.52800,1.815304268
343.52850,2.120498676
343.52900,2.425693084
343.52950,2.120498676
343.53000,1.51010986
343.53050,1.51010986
343.53100,2.120498676
343.53150,2.425693084
343.53200,1.815304268
343.53250,1.51010986
343.53300,2.120498676
343.53350,3.646470714
343.53400,5.782831568
343.53450,8.529581238
343.53500,10.05555328
343.53550,9.139970053
343.53600,6.088025976
343.53650,3.341276307
343.53700,0.899721045
343.53750,-2.45741744
343.53800,-7.035333555
343.53850,-7.645722371
343.53900,-4.288583886
343.53950,-1.541834217
343.54000,-4.288583886
343.54050,-10.69766645
343.54100,-14.05480493
343.54150,-10.39247204
343.54200,0.5945266373
343.54250,14.9386638
343.54300,25.01007925
343.54350,25.01007925
343.54400,17.07502465
343.54450,9.139970053
343.54500,6.393220384
343.54550,5.172442753
343.54600,2.730887491
343.54650,-0.01586217811
343.54700,-3.678195071
343.54750,-10.39247204
343.54800,-18.02233223
343.54850,-20.15869309
343.54900,-18.02233223
343.54950,-19.24310986
343.55000,-22.29505394
343.55050,-11.61324967
343.55100,19.82177432
343.55150,53.39315917
343.55200,61.63340818
343.55250,42.7113549
343.55300,19.51657991
343.55350,10.05555328
343.55400,10.05555328
343.55450,7.308803607
343.55500,-0.01586217811
343.55550,-5.814555924
343.55600,-8.866500001
343.55650,-10.69766645
343.55700,-12.52883289
343.55750,-13.74961052
343.55800,-14.66519375
343.55850,-14.35999934
343.55900,-11.91844408
343.55950,-5.814555924
343.56000,2.120498676
343.56050,9.445164461
343.56100,12.80230295
343.56150,12.19191413
343.56200,9.139970053
343.56250,5.782831568
343.56300,1.815304268
343.56350,-2.45741744
343.56400,-5.204167109
343.56450,-4.593778294
343.56500,-2.45741744
343.56550,-1.236639809
343.56600,-1.236639809
343.56650,-0.01586217811
343.56700,3.036081899
343.56750,5.477637161
343.56800,5.782831568
343.56850,3.646470714
343.56900,-0.01586217811
343.56950,-3.678195071
343.57000,-5.509361517
343.57050,-4.288583886
343.57100,-3.373000663
343.57150,-5.204167109
343.57200,-7.645722371
343.57250,-9.782083225
343.57300,-13.44441612
343.57350,-20.7690819
343.57400,-26.26258124
343.57450,-21.98985953
343.57500,-8.561305594
343.57550,3.036081899
343.57600,4.25685953
343.57650,-3.678195071
343.57700,-14.35999934
343.57750,-20.7690819
343.57800,-19.85349868
343.57850,-12.8340273
343.57900,-5.204167109
343.57950,-3.067806255
343.58000,-5.814555924
343.58050,-6.730139148
343.58100,-2.152223032
343.58150,3.341276307
343.58200,3.341276307
343.58250,-1.236639809
343.58300,-5.204167109
343.58350,-6.119750332
343.58400,-5.814555924
343.58450,-6.42494474
343.58500,-7.340527963
343.58550,-8.256111186
343.58600,-7.950916778
343.58650,-4.593778294
343.58700,2.730887491
343.58750,11.58152531
343.58800,18.29580228
343.58850,22.56852399
343.58900,27.14644011
343.58950,31.41916182
343.59000,29.28280096
343.59050,20.12696873
343.59100,11.58152531
343.59150,10.36074768
343.59200,12.49710854
343.59250,8.22438683
343.59300,-3.983389478
343.59350,-14.97038816
343.59400,-16.8015546
343.59450,-11.91844408
343.59500,-7.950916778
343.59550,-7.645722371
343.59600,-8.866500001
343.59650,-9.171694409
343.59700,-7.950916778
343.59750,-4.288583886
343.59800,0.5945266373
343.59850,4.25685953
343.59900,3.646470714
343.59950,0.5945266373
343.60000,-1.236639809
343.60050,-0.9314454012
343.60100,2.425693084
343.60150,7.003609199
343.60200,8.834775645
343.60250,6.088025976
343.60300,2.730887491
343.60350,5.172442753
343.60400,12.19191413
343.60450,16.76983025
343.60500,17.99060788
343.60550,17.99060788
343.60600,13.41269176
343.60650,-5.509361517
343.60700,-36.6391911
343.60750,-57.39241083
343.60800,-51.59371708
343.60850,-27.78855328
343.60900,-8.561305594
343.60950,-3.067806255
343.61000,-3.067806255
343.61050,-1.236639809
343.61100,-0.6262509935
343.61150,-2.152223032
343.61200,-1.541834217
343.61250,1.51010986
343.61300,3.036081899
343.61350,0.899721045
343.61400,-0.01586217811
343.61450,1.815304268
343.61500,3.036081899
343.61550,0.899721045
343.61600,-1.236639809
343.61650,-0.9314454012
343.61700,0.899721045
343.61750,1.815304268
343.61800,0.899721045
343.61850,-0.01586217811
343.61900,0.5945266373
343.61950,3.951665122
343.62000,8.834775645
343.62050,13.10749735
343.62100,14.63346939
343.62150,12.80230295
343.62200,9.445164461
343.62250,7.003609199
343.62300,5.782831568
343.62350,4.25685953
343.62400,0.2893322296
343.62450,-5.509361517
343.62500,-11.00286086
343.62550,-11.91844408
343.62600,-9.782083225
343.62650,-9.171694409
343.62700,-11.61324967
343.62750,-14.97038816
343.62800,-17.71713782
343.62850,-18.32752664
343.62900,-15.27558256
343.62950,-4.898972701
343.63000,10.05555328
343.63050,21.34774636
343.63100,23.48410721
343.63150,20.43216314
343.63200,19.82177432
343.63250,20.12696873
343.63300,16.76983025
343.63350,10.05555328
