"type","name","time_units","begin_time","frequency","count","units"
"signal","Ultium EMG-EXT.DIG. RT","s",296.92000,2000,22000,"uV"

"time","value"
296.92000,-1.040345355
296.92050,-1.65073417
296.92100,-0.1247621317
296.92150,1.096015499
296.92200,1.401209907
296.92250,0.4856266837
296.92300,-0.1247621317
296.92350,-0.7351509471
296.92400,-2.566317393
296.92450,-3.176706209
296.92500,-1.955928578
296.92550,-0.4299565394
296.92600,-0.1247621317
296.92650,-0.1247621317
296.92700,0.4856266837
296.92750,2.011598722
296.92800,3.842765168
296.92850,5.063542799
296.92900,5.368737207
296.92950,5.368737207
296.93000,5.368737207
296.93050,5.368737207
296.93100,5.063542799
296.93150,3.232376353
296.93200,1.401209907
296.93250,0.4856266837
296.93300,0.180432276
296.93350,0.7908210914
296.93400,2.31679313
296.93450,5.063542799
296.93500,7.199903653
296.93550,6.589514838
296.93600,3.842765168
296.93650,1.096015499
296.93700,0.7908210914
296.93750,2.31679313
296.93800,4.147959576
296.93850,4.758348392
296.93900,3.842765168
296.93950,2.621987538
296.94000,2.621987538
296.94050,2.621987538
296.94100,1.401209907
296.94150,-1.345539762
296.94200,-3.176706209
296.94250,-2.261122986
296.94300,-1.040345355
296.94350,-2.261122986
296.94400,-4.39748384
296.94450,-5.313067063
296.94500,-3.787095024
296.94550,-2.566317393
296.94600,-2.871511801
296.94650,-3.176706209
296.94700,-2.871511801
296.94750,-2.261122986
296.94800,-1.955928578
296.94850,-2.261122986
296.94900,-2.566317393
296.94950,-3.176706209
296.95000,-4.092289432
296.95050,-4.092289432
296.95100,-3.481900616
296.95150,-2.871511801
296.95200,-2.871511801
296.95250,-2.871511801
296.95300,-3.176706209
296.95350,-3.481900616
296.95400,-4.092289432
296.95450,-4.39748384
296.95500,-3.787095024
296.95550,-3.481900616
296.95600,-3.176706209
296.95650,-2.566317393
296.95700,-1.345539762
296.95750,-0.7351509471
296.95800,-0.1247621317
296.95850,-0.1247621317
296.95900,-0.1247621317
296.95950,-0.7351509471
296.96000,-1.040345355
296.96050,-1.040345355
296.96100,-1.040345355
296.96150,-1.65073417
296.96200,-2.566317393
296.96250,-2.261122986
296.96300,-1.345539762
296.96350,-0.1247621317
296.96400,1.096015499
296.96450,2.927181945
296.96500,4.758348392
296.96550,5.063542799
296.96600,4.453153984
296.96650,4.147959576
296.96700,4.453153984
296.96750,4.147959576
296.96800,1.706404315
296.96850,-0.7351509471
296.96900,-1.955928578
296.96950,-2.261122986
296.97000,-3.481900616
296.97050,-7.449427917
296.97100,-13.24812166
296.97150,-16.91045456
296.97200,-15.68967692
296.97250,-9.58578877
296.97300,-4.092289432
296.97350,-2.261122986
296.97400,-1.955928578
296.97450,-0.1247621317
296.97500,2.31679313
296.97550,2.621987538
296.97600,1.096015499
296.97650,3.232376353
296.97700,9.336264507
296.97750,14.82976385
296.97800,16.05054148
296.97850,14.21937503
296.97900,11.47262536
296.97950,7.810292469
296.98000,4.453153984
296.98050,4.758348392
296.98100,9.946653322
296.98150,16.66093029
296.98200,20.01806878
296.98250,20.62845759
296.98300,20.01806878
296.98350,16.66093029
296.98400,9.641458915
296.98450,1.706404315
296.98500,-2.261122986
296.98550,-2.261122986
296.98600,-0.4299565394
296.98650,1.096015499
296.98700,3.537570761
296.98750,5.063542799
296.98800,5.368737207
296.98850,4.453153984
296.98900,2.621987538
296.98950,-0.1247621317
296.99000,-3.176706209
296.99050,-4.39748384
296.99100,-1.955928578
296.99150,0.4856266837
296.99200,-0.7351509471
296.99250,-4.39748384
296.99300,-5.61826147
296.99350,-3.176706209
296.99400,-0.1247621317
296.99450,1.401209907
296.99500,1.401209907
296.99550,1.706404315
296.99600,1.706404315
296.99650,1.096015499
296.99700,0.4856266837
296.99750,-0.1247621317
296.99800,-1.955928578
296.99850,-6.228650286
296.99900,-10.50137199
296.99950,-12.94292726
297.00000,-12.94292726
297.00050,-11.72214962
297.00100,-10.19617759
297.00150,-8.975399955
297.00200,-8.36501114
297.00250,-7.144233509
297.00300,-4.092289432
297.00350,0.180432276
297.00400,4.147959576
297.00450,5.673931615
297.00500,5.368737207
297.00550,4.147959576
297.00600,2.31679313
297.00650,0.180432276
297.00700,-1.345539762
297.00750,-1.65073417
297.00800,-0.7351509471
297.00850,-0.1247621317
297.00900,-0.1247621317
297.00950,-0.4299565394
297.01000,-0.1247621317
297.01050,1.401209907
297.01100,2.621987538
297.01150,2.621987538
297.01200,1.706404315
297.01250,2.011598722
297.01300,2.621987538
297.01350,-0.1247621317
297.01400,-6.533844693
297.01450,-13.55331607
297.01500,-15.99487133
297.01550,-13.55331607
297.01600,-8.36501114
297.01650,-3.176706209
297.01700,1.096015499
297.01750,4.758348392
297.01800,5.368737207
297.01850,3.842765168
297.01900,1.706404315
297.01950,0.4856266837
297.02000,0.180432276
297.02050,-0.4299565394
297.02100,-2.261122986
297.02150,-5.313067063
297.02200,-8.670205547
297.02250,-10.19617759
297.02300,-8.975399955
297.02350,-7.144233509
297.02400,-5.923455878
297.02450,-5.61826147
297.02500,-4.702678247
297.02550,-3.481900616
297.02600,-2.871511801
297.02650,-3.481900616
297.02700,-3.787095024
297.02750,-3.787095024
297.02800,-3.787095024
297.02850,-4.39748384
297.02900,-3.787095024
297.02950,-2.871511801
297.03000,-2.261122986
297.03050,-1.955928578
297.03100,-1.345539762
297.03150,-0.1247621317
297.03200,0.180432276
297.03250,-0.1247621317
297.03300,-0.7351509471
297.03350,-0.4299565394
297.03400,0.180432276
297.03450,1.096015499
297.03500,1.401209907
297.03550,1.706404315
297.03600,2.011598722
297.03650,2.31679313
297.03700,2.927181945
297.03750,3.537570761
297.03800,2.927181945
297.03850,0.7908210914
297.03900,-0.4299565394
297.03950,-0.4299565394
297.04000,1.096015499
297.04050,2.927181945
297.04100,3.842765168
297.04150,4.147959576
297.04200,3.842765168
297.04250,3.232376353
297.04300,2.31679313
297.04350,1.706404315
297.04400,1.706404315
297.04450,1.401209907
297.04500,0.4856266837
297.04550,-0.7351509471
297.04600,-1.955928578
297.04650,-1.65073417
297.04700,-0.7351509471
297.04750,-0.4299565394
297.04800,-1.345539762
297.04850,-1.65073417
297.04900,-1.345539762
297.04950,-1.040345355
297.05000,-1.040345355
297.05050,-0.7351509471
297.05100,0.180432276
297.05150,1.401209907
297.05200,1.401209907
297.05250,0.7908210914
297.05300,0.180432276
297.05350,0.4856266837
297.05400,2.011598722
297.05450,2.927181945
297.05500,2.927181945
297.05550,2.011598722
297.05600,1.706404315
297.05650,2.31679313
297.05700,3.232376353
297.05750,2.927181945
297.05800,2.621987538
297.05850,2.927181945
297.05900,3.842765168
297.05950,4.758348392
297.06000,5.368737207
297.06050,5.673931615
297.06100,5.368737207
297.06150,3.232376353
297.06200,-0.1247621317
297.06250,-2.871511801
297.06300,-4.39748384
297.06350,-5.923455878
297.06400,-8.670205547
297.06450,-10.50137199
297.06500,-9.280594363
297.06550,-5.007872655
297.06600,-1.345539762
297.06650,-0.1247621317
297.06700,-1.040345355
297.06750,-2.261122986
297.06800,-3.176706209
297.06850,-4.092289432
297.06900,-3.787095024
297.06950,-1.955928578
297.07000,0.180432276
297.07050,2.31679313
297.07100,3.232376353
297.07150,2.621987538
297.07200,1.096015499
297.07250,-0.4299565394
297.07300,-1.65073417
297.07350,-2.261122986
297.07400,-1.345539762
297.07450,0.180432276
297.07500,2.31679313
297.07550,3.842765168
297.07600,4.453153984
297.07650,5.368737207
297.07700,6.894709245
297.07750,7.505098061
297.07800,7.505098061
297.07850,7.199903653
297.07900,7.199903653
297.07950,6.894709245
297.08000,4.758348392
297.08050,1.096015499
297.08100,-1.955928578
297.08150,-2.566317393
297.08200,-0.7351509471
297.08250,1.401209907
297.08300,3.232376353
297.08350,2.927181945
297.08400,1.401209907
297.08450,0.180432276
297.08500,-0.1247621317
297.08550,-0.1247621317
297.08600,-0.1247621317
297.08650,-1.040345355
297.08700,-2.261122986
297.08750,-2.871511801
297.08800,-2.871511801
297.08850,-2.566317393
297.08900,-1.65073417
297.08950,-0.7351509471
297.09000,-1.040345355
297.09050,-2.261122986
297.09100,-3.176706209
297.09150,-1.955928578
297.09200,-0.4299565394
297.09250,-0.1247621317
297.09300,-1.65073417
297.09350,-2.566317393
297.09400,-1.955928578
297.09450,-1.955928578
297.09500,-3.481900616
297.09550,-4.39748384
297.09600,-3.176706209
297.09650,0.180432276
297.09700,2.927181945
297.09750,4.453153984
297.09800,4.147959576
297.09850,2.927181945
297.09900,1.706404315
297.09950,1.706404315
297.10000,3.842765168
297.10050,5.979126022
297.10100,5.673931615
297.10150,3.232376353
297.10200,1.706404315
297.10250,2.927181945
297.10300,4.147959576
297.10350,2.011598722
297.10400,-2.871511801
297.10450,-6.839039101
297.10500,-6.839039101
297.10550,-3.176706209
297.10600,0.7908210914
297.10650,2.927181945
297.10700,1.401209907
297.10750,-2.566317393
297.10800,-6.228650286
297.10850,-6.228650286
297.10900,-2.871511801
297.10950,0.4856266837
297.11000,1.706404315
297.11050,2.31679313
297.11100,3.232376353
297.11150,4.453153984
297.11200,6.28432043
297.11250,9.641458915
297.11300,15.74534707
297.11350,20.32326318
297.11400,17.57651352
297.11450,7.199903653
297.11500,-3.176706209
297.11550,-8.36501114
297.11600,-9.280594363
297.11650,-11.41695522
297.11700,-14.16370489
297.11750,-13.85851048
297.11800,-8.059816732
297.11850,-1.040345355
297.11900,3.232376353
297.11950,4.147959576
297.12000,2.927181945
297.12050,1.401209907
297.12100,0.7908210914
297.12150,-0.1247621317
297.12200,-2.566317393
297.12250,-5.313067063
297.12300,-6.228650286
297.12350,-5.007872655
297.12400,-3.481900616
297.12450,-3.176706209
297.12500,-2.566317393
297.12550,-1.345539762
297.12600,-0.7351509471
297.12650,-1.65073417
297.12700,-3.481900616
297.12750,-4.702678247
297.12800,-4.702678247
297.12850,-4.092289432
297.12900,-2.261122986
297.12950,0.7908210914
297.13000,3.232376353
297.13050,3.232376353
297.13100,2.31679313
297.13150,1.706404315
297.13200,0.7908210914
297.13250,-0.4299565394
297.13300,-1.955928578
297.13350,-1.345539762
297.13400,-0.1247621317
297.13450,0.4856266837
297.13500,0.180432276
297.13550,-0.1247621317
297.13600,0.180432276
297.13650,0.180432276
297.13700,-0.1247621317
297.13750,-0.4299565394
297.13800,-0.1247621317
297.13850,-0.1247621317
297.13900,0.4856266837
297.13950,0.7908210914
297.14000,0.7908210914
297.14050,0.4856266837
297.14100,0.4856266837
297.14150,1.096015499
297.14200,0.4856266837
297.14250,-0.7351509471
297.14300,-2.261122986
297.14350,-2.566317393
297.14400,-2.566317393
297.14450,-2.261122986
297.14500,-2.261122986
297.14550,-1.955928578
297.14600,-1.040345355
297.14650,-0.1247621317
297.14700,1.401209907
297.14750,2.31679313
297.14800,2.011598722
297.14850,0.7908210914
297.14900,-0.1247621317
297.14950,-0.7351509471
297.15000,-1.65073417
297.15050,-2.871511801
297.15100,-3.787095024
297.15150,-3.481900616
297.15200,-1.955928578
297.15250,0.180432276
297.15300,2.011598722
297.15350,2.927181945
297.15400,2.31679313
297.15450,0.7908210914
297.15500,0.180432276
297.15550,0.4856266837
297.15600,0.180432276
297.15650,-1.345539762
297.15700,-3.787095024
297.15750,-6.533844693
297.15800,-8.059816732
297.15850,-8.36501114
297.15900,-6.533844693
297.15950,-4.092289432
297.16000,-3.176706209
297.16050,-3.481900616
297.16100,-3.481900616
297.16150,-2.261122986
297.16200,-0.7351509471
297.16250,-0.7351509471
297.16300,-1.040345355
297.16350,-0.4299565394
297.16400,0.7908210914
297.16450,1.096015499
297.16500,-0.1247621317
297.16550,-1.345539762
297.16600,-1.040345355
297.16650,-0.1247621317
297.16700,0.7908210914
297.16750,1.096015499
297.16800,0.7908210914
297.16850,0.180432276
297.16900,-0.1247621317
297.16950,-0.1247621317
297.17000,0.180432276
297.17050,0.4856266837
297.17100,1.096015499
297.17150,1.401209907
297.17200,1.706404315
297.17250,1.096015499
297.17300,0.4856266837
297.17350,0.7908210914
297.17400,1.096015499
297.17450,1.401209907
297.17500,2.621987538
297.17550,4.758348392
297.17600,5.368737207
297.17650,3.842765168
297.17700,1.096015499
297.17750,-0.1247621317
297.17800,-0.1247621317
297.17850,-0.1247621317
297.17900,-1.040345355
297.17950,-1.955928578
297.18000,-3.481900616
297.18050,-5.61826147
297.18100,-7.754622324
297.18150,-8.36501114
297.18200,-7.754622324
297.18250,-6.839039101
297.18300,-5.61826147
297.18350,-3.481900616
297.18400,-1.345539762
297.18450,-0.1247621317
297.18500,1.096015499
297.18550,2.621987538
297.18600,3.842765168
297.18650,4.147959576
297.18700,4.453153984
297.18750,6.28432043
297.18800,7.810292469
297.18850,7.199903653
297.18900,4.758348392
297.18950,2.621987538
297.19000,1.706404315
297.19050,2.011598722
297.19100,2.31679313
297.19150,3.232376353
297.19200,4.147959576
297.19250,4.147959576
297.19300,3.232376353
297.19350,2.31679313
297.19400,2.011598722
297.19450,2.011598722
297.19500,1.096015499
297.19550,0.7908210914
297.19600,0.7908210914
297.19650,1.096015499
297.19700,1.401209907
297.19750,0.7908210914
297.19800,-0.1247621317
297.19850,-0.1247621317
297.19900,-0.7351509471
297.19950,-2.566317393
297.20000,-5.007872655
297.20050,-5.923455878
297.20100,-4.092289432
297.20150,-0.7351509471
297.20200,1.096015499
297.20250,0.4856266837
297.20300,-0.7351509471
297.20350,-1.65073417
297.20400,-2.261122986
297.20450,-2.566317393
297.20500,-2.566317393
297.20550,-1.955928578
297.20600,-1.345539762
297.20650,-0.7351509471
297.20700,-0.1247621317
297.20750,0.7908210914
297.20800,1.096015499
297.20850,1.096015499
297.20900,2.011598722
297.20950,3.537570761
297.21000,3.232376353
297.21050,1.706404315
297.21100,1.401209907
297.21150,2.621987538
297.21200,3.232376353
297.21250,2.011598722
297.21300,0.7908210914
297.21350,1.096015499
297.21400,2.011598722
297.21450,1.401209907
297.21500,-0.1247621317
297.21550,-0.7351509471
297.21600,-1.345539762
297.21650,-1.955928578
297.21700,-2.871511801
297.21750,-2.871511801
297.21800,-3.176706209
297.21850,-4.092289432
297.21900,-3.787095024
297.21950,-1.955928578
297.22000,0.180432276
297.22050,0.180432276
297.22100,-1.040345355
297.22150,-2.566317393
297.22200,-3.481900616
297.22250,-4.39748384
297.22300,-5.007872655
297.22350,-4.702678247
297.22400,-3.787095024
297.22450,-2.871511801
297.22500,-1.955928578
297.22550,-0.7351509471
297.22600,1.096015499
297.22650,2.927181945
297.22700,3.232376353
297.22750,2.31679313
297.22800,1.096015499
297.22850,1.096015499
297.22900,2.011598722
297.22950,2.927181945
297.23000,2.927181945
297.23050,0.4856266837
297.23100,-2.566317393
297.23150,-5.313067063
297.23200,-5.61826147
297.23250,-5.007872655
297.23300,-5.007872655
297.23350,-4.39748384
297.23400,-2.871511801
297.23450,-1.040345355
297.23500,-0.4299565394
297.23550,-1.65073417
297.23600,-2.566317393
297.23650,-1.65073417
297.23700,0.4856266837
297.23750,1.706404315
297.23800,1.706404315
297.23850,1.401209907
297.23900,1.401209907
297.23950,1.706404315
297.24000,0.7908210914
297.24050,-0.4299565394
297.24100,-1.040345355
297.24150,-1.040345355
297.24200,-0.7351509471
297.24250,-1.040345355
297.24300,-1.955928578
297.24350,-2.871511801
297.24400,-2.566317393
297.24450,-1.65073417
297.24500,-1.040345355
297.24550,-1.040345355
297.24600,-1.040345355
297.24650,-0.7351509471
297.24700,-0.1247621317
297.24750,0.4856266837
297.24800,1.096015499
297.24850,1.706404315
297.24900,0.7908210914
297.24950,-0.7351509471
297.25000,-1.65073417
297.25050,-0.7351509471
297.25100,-0.7351509471
297.25150,-2.566317393
297.25200,-3.787095024
297.25250,-0.7351509471
297.25300,4.147959576
297.25350,7.199903653
297.25400,5.368737207
297.25450,2.011598722
297.25500,1.401209907
297.25550,3.232376353
297.25600,5.368737207
297.25650,6.589514838
297.25700,7.505098061
297.25750,7.810292469
297.25800,7.199903653
297.25850,6.28432043
297.25900,5.673931615
297.25950,5.979126022
297.26000,5.673931615
297.26050,4.453153984
297.26100,2.621987538
297.26150,1.096015499
297.26200,0.180432276
297.26250,-0.1247621317
297.26300,-0.7351509471
297.26350,-1.955928578
297.26400,-2.261122986
297.26450,-0.7351509471
297.26500,0.7908210914
297.26550,1.706404315
297.26600,1.401209907
297.26650,1.706404315
297.26700,2.621987538
297.26750,2.621987538
297.26800,2.011598722
297.26850,1.096015499
297.26900,1.096015499
297.26950,1.706404315
297.27000,2.011598722
297.27050,2.621987538
297.27100,3.232376353
297.27150,3.537570761
297.27200,4.147959576
297.27250,5.063542799
297.27300,5.979126022
297.27350,5.368737207
297.27400,3.537570761
297.27450,2.31679313
297.27500,1.401209907
297.27550,-0.1247621317
297.27600,-1.65073417
297.27650,-1.65073417
297.27700,-0.1247621317
297.27750,0.7908210914
297.27800,-0.1247621317
297.27850,-1.040345355
297.27900,-0.4299565394
297.27950,0.7908210914
297.28000,1.706404315
297.28050,1.096015499
297.28100,0.7908210914
297.28150,1.096015499
297.28200,1.401209907
297.28250,1.706404315
297.28300,0.4856266837
297.28350,-1.955928578
297.28400,-5.61826147
297.28450,-7.449427917
297.28500,-6.839039101
297.28550,-5.61826147
297.28600,-5.923455878
297.28650,-7.449427917
297.28700,-8.975399955
297.28750,-9.280594363
297.28800,-9.280594363
297.28850,-9.890983178
297.28900,-10.50137199
297.28950,-9.890983178
297.29000,-7.449427917
297.29050,-4.702678247
297.29100,-2.261122986
297.29150,-0.7351509471
297.29200,0.7908210914
297.29250,1.706404315
297.29300,2.011598722
297.29350,3.232376353
297.29400,7.505098061
297.29450,12.38820858
297.29500,13.30379181
297.29550,8.725875692
297.29600,2.31679313
297.29650,-1.65073417
297.29700,-2.566317393
297.29750,-2.566317393
297.29800,-2.566317393
297.29850,-2.261122986
297.29900,-0.4299565394
297.29950,1.096015499
297.30000,1.706404315
297.30050,0.7908210914
297.30100,-0.1247621317
297.30150,-1.345539762
297.30200,-1.955928578
297.30250,-1.65073417
297.30300,-1.65073417
297.30350,-2.261122986
297.30400,-3.176706209
297.30450,-3.787095024
297.30500,-3.481900616
297.30550,-2.566317393
297.30600,-1.65073417
297.30650,-0.1247621317
297.30700,1.096015499
297.30750,2.621987538
297.30800,3.232376353
297.30850,2.927181945
297.30900,0.4856266837
297.30950,-2.871511801
297.31000,-6.228650286
297.31050,-7.754622324
297.31100,-8.059816732
297.31150,-7.754622324
297.31200,-6.533844693
297.31250,-3.787095024
297.31300,-0.7351509471
297.31350,1.401209907
297.31400,3.842765168
297.31450,5.979126022
297.31500,7.810292469
297.31550,7.505098061
297.31600,6.589514838
297.31650,5.979126022
297.31700,6.28432043
297.31750,5.673931615
297.31800,4.758348392
297.31850,3.842765168
297.31900,3.842765168
297.31950,3.232376353
297.32000,2.621987538
297.32050,2.31679313
297.32100,2.011598722
297.32150,1.706404315
297.32200,0.7908210914
297.32250,0.4856266837
297.32300,-0.1247621317
297.32350,-1.65073417
297.32400,-4.092289432
297.32450,-5.313067063
297.32500,-5.007872655
297.32550,-4.092289432
297.32600,-3.787095024
297.32650,-3.176706209
297.32700,-1.65073417
297.32750,-1.345539762
297.32800,-2.261122986
297.32850,-3.481900616
297.32900,-3.176706209
297.32950,-2.566317393
297.33000,-2.566317393
297.33050,-2.871511801
297.33100,-1.65073417
297.33150,-0.4299565394
297.33200,-0.4299565394
297.33250,-1.040345355
297.33300,-1.345539762
297.33350,-1.345539762
297.33400,-1.955928578
297.33450,-2.261122986
297.33500,-1.65073417
297.33550,-0.4299565394
297.33600,-0.1247621317
297.33650,-0.1247621317
297.33700,0.7908210914
297.33750,2.31679313
297.33800,2.31679313
297.33850,1.706404315
297.33900,0.7908210914
297.33950,0.4856266837
297.34000,-0.1247621317
297.34050,-0.4299565394
297.34100,-0.1247621317
297.34150,-0.1247621317
297.34200,-1.955928578
297.34250,-4.092289432
297.34300,-3.787095024
297.34350,-2.261122986
297.34400,-3.176706209
297.34450,-5.313067063
297.34500,-5.61826147
297.34550,-4.092289432
297.34600,-2.871511801
297.34650,-3.481900616
297.34700,-3.481900616
297.34750,-1.040345355
297.34800,0.7908210914
297.34850,0.4856266837
297.34900,0.7908210914
297.34950,2.927181945
297.35000,5.368737207
297.35050,5.368737207
297.35100,3.537570761
297.35150,1.401209907
297.35200,0.4856266837
297.35250,0.7908210914
297.35300,3.232376353
297.35350,5.979126022
297.35400,5.673931615
297.35450,2.621987538
297.35500,-0.1247621317
297.35550,-0.1247621317
297.35600,-0.1247621317
297.35650,-3.787095024
297.35700,-8.975399955
297.35750,-10.50137199
297.35800,-7.449427917
297.35850,-4.092289432
297.35900,-3.176706209
297.35950,-3.787095024
297.36000,-4.39748384
297.36050,-4.39748384
297.36100,-4.092289432
297.36150,-1.955928578
297.36200,1.096015499
297.36250,2.927181945
297.36300,2.011598722
297.36350,-0.1247621317
297.36400,-0.1247621317
297.36450,0.7908210914
297.36500,1.096015499
297.36550,0.4856266837
297.36600,0.4856266837
297.36650,0.7908210914
297.36700,-0.1247621317
297.36750,-2.566317393
297.36800,-2.566317393
297.36850,-0.1247621317
297.36900,2.31679313
297.36950,1.096015499
297.37000,-0.7351509471
297.37050,-0.1247621317
297.37100,2.927181945
297.37150,4.758348392
297.37200,4.453153984
297.37250,3.842765168
297.37300,3.842765168
297.37350,2.011598722
297.37400,-1.040345355
297.37450,-2.871511801
297.37500,-1.040345355
297.37550,1.706404315
297.37600,3.537570761
297.37650,3.232376353
297.37700,2.31679313
297.37750,1.401209907
297.37800,0.4856266837
297.37850,-0.1247621317
297.37900,-0.7351509471
297.37950,-0.7351509471
297.38000,-0.4299565394
297.38050,0.180432276
297.38100,1.706404315
297.38150,2.621987538
297.38200,2.31679313
297.38250,1.706404315
297.38300,1.096015499
297.38350,0.7908210914
297.38400,1.401209907
297.38450,3.537570761
297.38500,5.063542799
297.38550,2.621987538
297.38600,-2.566317393
297.38650,-7.144233509
297.38700,-6.228650286
297.38750,-2.261122986
297.38800,-0.1247621317
297.38850,-1.345539762
297.38900,-3.176706209
297.38950,-3.176706209
297.39000,-2.566317393
297.39050,-2.871511801
297.39100,-4.702678247
297.39150,-6.228650286
297.39200,-6.228650286
297.39250,-4.702678247
297.39300,-2.261122986
297.39350,-1.040345355
297.39400,-2.261122986
297.39450,-4.39748384
297.39500,-4.39748384
297.39550,-1.040345355
297.39600,3.232376353
297.39650,5.673931615
297.39700,5.063542799
297.39750,4.147959576
297.39800,5.063542799
297.39850,7.505098061
297.39900,9.641458915
297.39950,8.725875692
297.40000,5.368737207
297.40050,1.096015499
297.40100,-1.345539762
297.40150,-1.65073417
297.40200,-0.4299565394
297.40250,0.4856266837
297.40300,0.7908210914
297.40350,-0.1247621317
297.40400,-0.7351509471
297.40450,-1.65073417
297.40500,-3.481900616
297.40550,-6.839039101
297.40600,-10.50137199
297.40650,-12.94292726
297.40700,-13.24812166
297.40750,-11.41695522
297.40800,-8.059816732
297.40850,-4.092289432
297.40900,-1.040345355
297.40950,-0.7351509471
297.41000,-1.345539762
297.41050,0.7908210914
297.41100,8.115486876
297.41150,14.82976385
297.41200,15.74534707
297.41250,11.16743095
297.41300,7.199903653
297.41350,6.589514838
297.41400,6.589514838
297.41450,4.758348392
297.41500,2.31679313
297.41550,1.706404315
297.41600,2.621987538
297.41650,3.842765168
297.41700,3.842765168
297.41750,3.232376353
297.41800,2.31679313
297.41850,2.011598722
297.41900,4.147959576
297.41950,7.810292469
297.42000,9.641458915
297.42050,6.28432043
297.42100,-0.1247621317
297.42150,-5.61826147
297.42200,-7.144233509
297.42250,-5.61826147
297.42300,-3.481900616
297.42350,-3.176706209
297.42400,-4.092289432
297.42450,-4.702678247
297.42500,-3.787095024
297.42550,-2.261122986
297.42600,-1.345539762
297.42650,-1.345539762
297.42700,-1.345539762
297.42750,-1.040345355
297.42800,-1.040345355
297.42850,-1.345539762
297.42900,-1.345539762
297.42950,-1.040345355
297.43000,-0.4299565394
297.43050,-0.4299565394
297.43100,-0.4299565394
297.43150,-0.1247621317
297.43200,-0.4299565394
297.43250,-0.4299565394
297.43300,0.4856266837
297.43350,2.011598722
297.43400,2.31679313
297.43450,0.7908210914
297.43500,-0.4299565394
297.43550,-0.4299565394
297.43600,0.180432276
297.43650,0.4856266837
297.43700,-0.1247621317
297.43750,-0.1247621317
297.43800,0.180432276
297.43850,-0.1247621317
297.43900,-0.4299565394
297.43950,-0.1247621317
297.44000,0.7908210914
297.44050,-0.1247621317
297.44100,-1.345539762
297.44150,-1.040345355
297.44200,0.7908210914
297.44250,1.401209907
297.44300,-0.1247621317
297.44350,-1.65073417
297.44400,-1.65073417
297.44450,-1.955928578
297.44500,-3.176706209
297.44550,-2.871511801
297.44600,-0.4299565394
297.44650,1.401209907
297.44700,0.7908210914
297.44750,-0.4299565394
297.44800,-1.040345355
297.44850,-1.345539762
297.44900,-2.871511801
297.44950,-4.39748384
297.45000,-3.787095024
297.45050,-1.345539762
297.45100,-0.7351509471
297.45150,-1.955928578
297.45200,-2.261122986
297.45250,-1.345539762
297.45300,-0.4299565394
297.45350,-0.1247621317
297.45400,0.4856266837
297.45450,1.706404315
297.45500,2.31679313
297.45550,2.011598722
297.45600,1.096015499
297.45650,0.4856266837
297.45700,-0.1247621317
297.45750,-0.4299565394
297.45800,-0.1247621317
297.45850,-0.1247621317
297.45900,-0.7351509471
297.45950,-3.481900616
297.46000,-6.228650286
297.46050,-8.059816732
297.46100,-8.670205547
297.46150,-8.36501114
297.46200,-8.059816732
297.46250,-8.059816732
297.46300,-6.839039101
297.46350,-4.39748384
297.46400,-2.261122986
297.46450,-2.871511801
297.46500,-4.092289432
297.46550,-1.345539762
297.46600,5.979126022
297.46650,14.21937503
297.46700,17.57651352
297.46750,15.44015266
297.46800,10.55704214
297.46850,4.758348392
297.46900,0.4856266837
297.46950,-0.4299565394
297.47000,0.180432276
297.47050,0.4856266837
297.47100,-0.4299565394
297.47150,-0.4299565394
297.47200,1.401209907
297.47250,2.927181945
297.47300,1.706404315
297.47350,0.7908210914
297.47400,2.927181945
297.47450,5.673931615
297.47500,5.979126022
297.47550,5.063542799
297.47600,5.368737207
297.47650,5.979126022
297.47700,4.453153984
297.47750,2.011598722
297.47800,1.706404315
297.47850,3.537570761
297.47900,3.842765168
297.47950,2.31679313
297.48000,1.096015499
297.48050,1.096015499
297.48100,0.7908210914
297.48150,-0.1247621317
297.48200,-1.65073417
297.48250,-3.176706209
297.48300,-3.787095024
297.48350,-3.176706209
297.48400,0.180432276
297.48450,5.063542799
297.48500,7.505098061
297.48550,7.199903653
297.48600,5.979126022
297.48650,4.758348392
297.48700,2.621987538
297.48750,0.180432276
297.48800,-1.345539762
297.48850,-2.871511801
297.48900,-5.007872655
297.48950,-7.449427917
297.49000,-8.059816732
297.49050,-6.533844693
297.49100,-4.702678247
297.49150,-4.39748384
297.49200,-3.787095024
297.49250,-2.566317393
297.49300,-1.040345355
297.49350,-1.040345355
297.49400,-1.955928578
297.49450,-1.955928578
297.49500,-1.65073417
297.49550,-1.955928578
297.49600,-2.871511801
297.49650,-3.176706209
297.49700,-3.787095024
297.49750,-4.702678247
297.49800,-4.702678247
297.49850,-3.787095024
297.49900,-2.261122986
297.49950,-1.955928578
297.50000,-1.65073417
297.50050,-0.1247621317
297.50100,3.232376353
297.50150,6.28432043
297.50200,6.589514838
297.50250,3.842765168
297.50300,-0.1247621317
297.50350,-3.787095024
297.50400,-5.61826147
297.50450,-5.007872655
297.50500,-2.871511801
297.50550,-0.1247621317
297.50600,2.621987538
297.50650,2.011598722
297.50700,-3.176706209
297.50750,-10.50137199
297.50800,-13.85851048
297.50850,-11.11176081
297.50900,-6.533844693
297.50950,-3.481900616
297.51000,-1.65073417
297.51050,0.4856266837
297.51100,2.927181945
297.51150,3.842765168
297.51200,3.232376353
297.51250,1.706404315
297.51300,-0.4299565394
297.51350,-3.481900616
297.51400,-5.313067063
297.51450,-3.481900616
297.51500,-0.1247621317
297.51550,1.401209907
297.51600,1.096015499
297.51650,0.4856266837
297.51700,2.621987538
297.51750,5.979126022
297.51800,8.115486876
297.51850,5.673931615
297.51900,0.180432276
297.51950,-3.787095024
297.52000,-4.39748384
297.52050,-2.566317393
297.52100,-1.65073417
297.52150,-2.261122986
297.52200,-3.176706209
297.52250,-3.481900616
297.52300,-4.39748384
297.52350,-5.007872655
297.52400,-4.39748384
297.52450,-3.481900616
297.52500,-3.176706209
297.52550,-2.566317393
297.52600,0.4856266837
297.52650,5.979126022
297.52700,9.336264507
297.52750,8.420681284
297.52800,5.979126022
297.52850,4.453153984
297.52900,4.453153984
297.52950,4.453153984
297.53000,4.453153984
297.53050,4.453153984
297.53100,5.063542799
297.53150,5.368737207
297.53200,5.673931615
297.53250,5.368737207
297.53300,2.927181945
297.53350,0.4856266837
297.53400,-0.1247621317
297.53450,0.7908210914
297.53500,2.011598722
297.53550,1.706404315
297.53600,1.096015499
297.53650,1.096015499
297.53700,1.401209907
297.53750,0.7908210914
297.53800,0.4856266837
297.53850,0.7908210914
297.53900,1.401209907
297.53950,1.096015499
297.54000,0.180432276
297.54050,-0.7351509471
297.54100,-2.261122986
297.54150,-3.176706209
297.54200,-3.481900616
297.54250,-3.481900616
297.54300,-3.176706209
297.54350,-2.566317393
297.54400,-1.345539762
297.54450,-0.1247621317
297.54500,0.7908210914
297.54550,-0.1247621317
297.54600,-1.65073417
297.54650,-2.566317393
297.54700,-1.955928578
297.54750,-1.040345355
297.54800,-1.955928578
297.54850,-5.007872655
297.54900,-7.449427917
297.54950,-7.449427917
297.55000,-5.61826147
297.55050,-3.787095024
297.55100,-2.566317393
297.55150,-1.040345355
297.55200,0.7908210914
297.55250,2.011598722
297.55300,2.927181945
297.55350,4.147959576
297.55400,6.28432043
297.55450,8.115486876
297.55500,7.810292469
297.55550,6.589514838
297.55600,5.368737207
297.55650,5.063542799
297.55700,4.758348392
297.55750,4.147959576
297.55800,2.927181945
297.55850,1.706404315
297.55900,0.4856266837
297.55950,-0.1247621317
297.56000,-0.7351509471
297.56050,-1.955928578
297.56100,-3.176706209
297.56150,-4.39748384
297.56200,-4.702678247
297.56250,-3.176706209
297.56300,-0.1247621317
297.56350,2.31679313
297.56400,1.706404315
297.56450,-1.65073417
297.56500,-5.313067063
297.56550,-6.533844693
297.56600,-5.61826147
297.56650,-5.007872655
297.56700,-4.702678247
297.56750,-3.787095024
297.56800,-1.955928578
297.56850,-0.1247621317
297.56900,1.096015499
297.56950,1.096015499
297.57000,0.7908210914
297.57050,1.401209907
297.57100,2.011598722
297.57150,2.011598722
297.57200,0.7908210914
297.57250,-1.65073417
297.57300,-5.313067063
297.57350,-9.58578877
297.57400,-12.94292726
297.57450,-13.55331607
297.57500,-12.02734403
297.57550,-9.280594363
297.57600,-6.839039101
297.57650,-3.481900616
297.57700,0.4856266837
297.57750,3.842765168
297.57800,4.758348392
297.57850,5.979126022
297.57900,11.47262536
297.57950,20.933652
297.58000,26.42715134
297.58050,22.76481845
297.58100,12.9985974
297.58150,4.147959576
297.58200,-0.1247621317
297.58250,-1.345539762
297.58300,-2.261122986
297.58350,-1.345539762
297.58400,0.7908210914
297.58450,2.31679313
297.58500,0.7908210914
297.58550,-1.040345355
297.58600,-3.176706209
297.58650,-5.007872655
297.58700,-6.839039101
297.58750,-7.144233509
297.58800,-5.313067063
297.58850,-2.566317393
297.58900,-2.871511801
297.58950,-5.007872655
297.59000,-5.923455878
297.59050,-3.481900616
297.59100,-0.1247621317
297.59150,0.180432276
297.59200,-1.040345355
297.59250,-1.955928578
297.59300,-1.040345355
297.59350,0.4856266837
297.59400,1.401209907
297.59450,1.096015499
297.59500,0.180432276
297.59550,-0.4299565394
297.59600,-0.7351509471
297.59650,-0.1247621317
297.59700,0.7908210914
297.59750,1.401209907
297.59800,1.706404315
297.59850,1.401209907
297.59900,1.401209907
297.59950,0.7908210914
297.60000,0.180432276
297.60050,0.180432276
297.60100,0.4856266837
297.60150,0.4856266837
297.60200,-0.1247621317
297.60250,-1.955928578
297.60300,-3.481900616
297.60350,-3.481900616
297.60400,-2.566317393
297.60450,-1.345539762
297.60500,-1.040345355
297.60550,-1.040345355
297.60600,-0.4299565394
297.60650,0.180432276
297.60700,0.7908210914
297.60750,0.7908210914
297.60800,0.4856266837
297.60850,-0.1247621317
297.60900,-3.176706209
297.60950,-8.36501114
297.61000,-12.63773285
297.61050,-12.94292726
297.61100,-9.890983178
297.61150,-6.839039101
297.61200,-5.313067063
297.61250,-4.39748384
297.61300,-2.871511801
297.61350,-1.345539762
297.61400,-0.1247621317
297.61450,0.4856266837
297.61500,1.401209907
297.61550,2.927181945
297.61600,4.147959576
297.61650,4.147959576
297.61700,3.232376353
297.61750,2.31679313
297.61800,1.706404315
297.61850,1.401209907
297.61900,1.401209907
297.61950,1.096015499
297.62000,1.096015499
297.62050,1.706404315
297.62100,2.31679313
297.62150,1.706404315
297.62200,0.7908210914
297.62250,1.401209907
297.62300,3.232376353
297.62350,5.063542799
297.62400,6.28432043
297.62450,6.28432043
297.62500,5.368737207
297.62550,4.147959576
297.62600,3.232376353
297.62650,2.621987538
297.62700,2.011598722
297.62750,0.180432276
297.62800,-1.345539762
297.62850,-1.955928578
297.62900,-1.345539762
297.62950,-1.040345355
297.63000,-1.040345355
297.63050,0.180432276
297.63100,3.232376353
297.63150,6.28432043
297.63200,6.894709245
297.63250,5.979126022
297.63300,5.063542799
297.63350,4.453153984
297.63400,3.842765168
297.63450,3.537570761
297.63500,3.232376353
297.63550,1.706404315
297.63600,-0.1247621317
297.63650,-1.345539762
297.63700,-0.7351509471
297.63750,-0.1247621317
297.63800,-1.040345355
297.63850,-2.871511801
297.63900,-2.261122986
297.63950,-0.1247621317
297.64000,1.401209907
297.64050,1.401209907
297.64100,0.7908210914
297.64150,0.7908210914
297.64200,0.7908210914
297.64250,-0.4299565394
297.64300,-1.955928578
297.64350,-2.871511801
297.64400,-3.481900616
297.64450,-5.007872655
297.64500,-6.839039101
297.64550,-8.059816732
297.64600,-7.449427917
297.64650,-5.313067063
297.64700,-3.481900616
297.64750,-2.871511801
297.64800,-3.176706209
297.64850,-3.176706209
297.64900,-1.955928578
297.64950,-0.4299565394
297.65000,0.4856266837
297.65050,1.096015499
297.65100,1.401209907
297.65150,0.180432276
297.65200,-1.345539762
297.65250,-2.261122986
297.65300,-0.4299565394
297.65350,1.096015499
297.65400,0.7908210914
297.65450,-0.4299565394
297.65500,-0.7351509471
297.65550,0.180432276
297.65600,1.706404315
297.65650,2.011598722
297.65700,2.31679313
297.65750,2.31679313
297.65800,1.096015499
297.65850,-0.4299565394
297.65900,-1.65073417
297.65950,-1.65073417
297.66000,-1.65073417
297.66050,-1.65073417
297.66100,-1.040345355
297.66150,-0.4299565394
297.66200,-0.1247621317
297.66250,0.7908210914
297.66300,2.31679313
297.66350,4.147959576
297.66400,5.368737207
297.66450,5.368737207
297.66500,5.063542799
297.66550,4.147959576
297.66600,2.31679313
297.66650,0.7908210914
297.66700,1.401209907
297.66750,2.621987538
297.66800,2.927181945
297.66850,2.621987538
297.66900,3.232376353
297.66950,4.758348392
297.67000,5.063542799
297.67050,3.232376353
297.67100,-0.4299565394
297.67150,-6.533844693
297.67200,-13.55331607
297.67250,-17.52084337
297.67300,-15.07928811
297.67350,-7.754622324
297.67400,-1.955928578
297.67450,-0.7351509471
297.67500,-0.1247621317
297.67550,2.31679313
297.67600,4.758348392
297.67650,3.842765168
297.67700,0.7908210914
297.67750,-1.345539762
297.67800,-1.65073417
297.67850,-1.040345355
297.67900,1.096015499
297.67950,4.453153984
297.68000,5.979126022
297.68050,3.232376353
297.68100,-1.955928578
297.68150,-5.313067063
297.68200,-5.923455878
297.68250,-6.533844693
297.68300,-8.670205547
297.68350,-9.890983178
297.68400,-8.975399955
297.68450,-7.144233509
297.68500,-4.702678247
297.68550,-2.261122986
297.68600,-0.4299565394
297.68650,-0.1247621317
297.68700,1.706404315
297.68750,7.505098061
297.68800,15.13495825
297.68850,18.49209674
297.68900,14.82976385
297.68950,8.115486876
297.69000,3.842765168
297.69050,2.621987538
297.69100,1.096015499
297.69150,-1.040345355
297.69200,-3.176706209
297.69250,-2.566317393
297.69300,-0.1247621317
297.69350,3.537570761
297.69400,7.199903653
297.69450,9.031070099
297.69500,8.115486876
297.69550,5.979126022
297.69600,5.368737207
297.69650,7.199903653
297.69700,8.115486876
297.69750,5.979126022
297.69800,2.927181945
297.69850,2.011598722
297.69900,2.927181945
297.69950,2.621987538
297.70000,-0.1247621317
297.70050,-1.955928578
297.70100,-1.955928578
297.70150,-0.7351509471
297.70200,-1.040345355
297.70250,-2.566317393
297.70300,-2.261122986
297.70350,-1.345539762
297.70400,-2.871511801
297.70450,-7.754622324
297.70500,-13.85851048
297.70550,-16.60526015
297.70600,-15.07928811
297.70650,-10.19617759
297.70700,-5.313067063
297.70750,-2.871511801
297.70800,-3.481900616
297.70850,-5.007872655
297.70900,-5.923455878
297.70950,-5.61826147
297.71000,-5.007872655
297.71050,-3.481900616
297.71100,-0.7351509471
297.71150,1.706404315
297.71200,3.232376353
297.71250,3.537570761
297.71300,4.758348392
297.71350,4.758348392
297.71400,0.7908210914
297.71450,-4.702678247
297.71500,-7.144233509
297.71550,-2.566317393
297.71600,3.842765168
297.71650,7.199903653
297.71700,6.28432043
297.71750,3.842765168
297.71800,1.706404315
297.71850,-0.1247621317
297.71900,-1.345539762
297.71950,-2.261122986
297.72000,-1.955928578
297.72050,-1.955928578
297.72100,-2.261122986
297.72150,-3.176706209
297.72200,-4.39748384
297.72250,-4.702678247
297.72300,-4.092289432
297.72350,-4.092289432
297.72400,-5.007872655
297.72450,-6.533844693
297.72500,-5.923455878
297.72550,-3.787095024
297.72600,-2.871511801
297.72650,-3.176706209
297.72700,-2.566317393
297.72750,-0.1247621317
297.72800,2.621987538
297.72850,3.232376353
297.72900,2.31679313
297.72950,1.401209907
297.73000,1.401209907
297.73050,1.096015499
297.73100,0.7908210914
297.73150,0.7908210914
297.73200,1.401209907
297.73250,2.927181945
297.73300,4.758348392
297.73350,5.673931615
297.73400,4.453153984
297.73450,2.621987538
297.73500,2.621987538
297.73550,4.758348392
297.73600,5.979126022
297.73650,4.758348392
297.73700,2.31679313
297.73750,0.7908210914
297.73800,0.4856266837
297.73850,0.4856266837
297.73900,-0.1247621317
297.73950,-1.345539762
297.74000,-3.176706209
297.74050,-5.007872655
297.74100,-5.313067063
297.74150,-3.481900616
297.74200,-1.955928578
297.74250,-2.566317393
297.74300,-5.61826147
297.74350,-8.36501114
297.74400,-8.975399955
297.74450,-7.449427917
297.74500,-5.007872655
297.74550,-3.481900616
297.74600,-3.481900616
297.74650,-5.007872655
297.74700,-6.228650286
297.74750,-6.533844693
297.74800,-6.228650286
297.74850,-5.61826147
297.74900,-4.39748384
297.74950,-2.871511801
297.75000,-1.65073417
297.75050,-0.7351509471
297.75100,-0.1247621317
297.75150,1.401209907
297.75200,2.927181945
297.75250,4.147959576
297.75300,5.063542799
297.75350,5.673931615
297.75400,5.979126022
297.75450,6.589514838
297.75500,7.199903653
297.75550,7.199903653
297.75600,5.368737207
297.75650,1.706404315
297.75700,-0.4299565394
297.75750,0.180432276
297.75800,2.927181945
297.75850,4.758348392
297.75900,4.147959576
297.75950,2.31679313
297.76000,0.4856266837
297.76050,-0.1247621317
297.76100,0.180432276
297.76150,0.7908210914
297.76200,1.401209907
297.76250,1.706404315
297.76300,1.706404315
297.76350,1.706404315
297.76400,1.096015499
297.76450,1.096015499
297.76500,1.401209907
297.76550,1.706404315
297.76600,-0.1247621317
297.76650,-4.092289432
297.76700,-7.754622324
297.76750,-8.670205547
297.76800,-7.144233509
297.76850,-3.787095024
297.76900,-0.4299565394
297.76950,2.011598722
297.77000,1.706404315
297.77050,-0.1247621317
297.77100,-2.261122986
297.77150,-2.871511801
297.77200,-2.566317393
297.77250,-2.566317393
297.77300,-2.566317393
297.77350,-1.345539762
297.77400,0.180432276
297.77450,1.401209907
297.77500,1.401209907
297.77550,1.706404315
297.77600,2.31679313
297.77650,2.927181945
297.77700,2.927181945
297.77750,2.927181945
297.77800,3.232376353
297.77850,3.232376353
297.77900,2.927181945
297.77950,3.842765168
297.78000,5.673931615
297.78050,6.589514838
297.78100,4.758348392
297.78150,0.7908210914
297.78200,-1.65073417
297.78250,-1.955928578
297.78300,-0.4299565394
297.78350,0.180432276
297.78400,-0.1247621317
297.78450,-0.1247621317
297.78500,0.4856266837
297.78550,2.011598722
297.78600,2.927181945
297.78650,3.842765168
297.78700,4.453153984
297.78750,3.842765168
297.78800,2.011598722
297.78850,0.7908210914
297.78900,2.31679313
297.78950,5.063542799
297.79000,6.589514838
297.79050,5.673931615
297.79100,3.842765168
297.79150,2.011598722
297.79200,0.4856266837
297.79250,-0.4299565394
297.79300,-1.040345355
297.79350,-1.345539762
297.79400,-2.261122986
297.79450,-3.787095024
297.79500,-4.092289432
297.79550,-2.261122986
297.79600,-1.040345355
297.79650,-3.481900616
297.79700,-8.975399955
297.79750,-13.55331607
297.79800,-14.46889929
297.79850,-11.11176081
297.79900,-5.007872655
297.79950,2.31679313
297.80000,8.420681284
297.80050,11.16743095
297.80100,10.55704214
297.80150,9.031070099
297.80200,9.031070099
297.80250,9.946653322
297.80300,9.946653322
297.80350,9.336264507
297.80400,8.725875692
297.80450,8.420681284
297.80500,6.589514838
297.80550,3.842765168
297.80600,1.401209907
297.80650,0.4856266837
297.80700,0.180432276
297.80750,-0.4299565394
297.80800,-1.345539762
297.80850,-1.345539762
297.80900,-0.4299565394
297.80950,-0.1247621317
297.81000,-1.040345355
297.81050,-1.955928578
297.81100,-2.566317393
297.81150,-2.566317393
297.81200,-2.566317393
297.81250,-3.176706209
297.81300,-3.481900616
297.81350,-3.176706209
297.81400,-1.65073417
297.81450,-0.4299565394
297.81500,-0.4299565394
297.81550,-1.345539762
297.81600,-1.65073417
297.81650,-0.4299565394
297.81700,0.4856266837
297.81750,1.096015499
297.81800,1.096015499
297.81850,1.401209907
297.81900,1.401209907
297.81950,0.4856266837
297.82000,-0.7351509471
297.82050,-1.955928578
297.82100,-2.566317393
297.82150,-2.566317393
297.82200,-2.261122986
297.82250,-1.040345355
297.82300,-0.1247621317
297.82350,-0.1247621317
297.82400,-1.040345355
297.82450,-1.65073417
297.82500,-1.345539762
297.82550,-1.040345355
297.82600,-1.345539762
297.82650,-1.65073417
297.82700,-2.261122986
297.82750,-2.566317393
297.82800,-1.955928578
297.82850,-1.040345355
297.82900,-1.040345355
297.82950,-1.65073417
297.83000,-1.955928578
297.83050,-0.4299565394
297.83100,0.7908210914
297.83150,0.4856266837
297.83200,-0.7351509471
297.83250,-1.040345355
297.83300,-1.040345355
297.83350,-2.871511801
297.83400,-6.228650286
297.83450,-7.754622324
297.83500,-6.533844693
297.83550,-4.092289432
297.83600,-2.871511801
297.83650,-2.261122986
297.83700,-1.65073417
297.83750,-0.7351509471
297.83800,-0.4299565394
297.83850,-0.7351509471
297.83900,-1.345539762
297.83950,-1.040345355
297.84000,-0.1247621317
297.84050,1.706404315
297.84100,2.011598722
297.84150,0.7908210914
297.84200,-0.4299565394
297.84250,-0.7351509471
297.84300,-0.1247621317
297.84350,-0.7351509471
297.84400,-2.871511801
297.84450,-3.481900616
297.84500,-2.871511801
297.84550,-1.955928578
297.84600,-2.261122986
297.84650,-2.261122986
297.84700,-1.65073417
297.84750,-1.65073417
297.84800,-2.566317393
297.84850,-3.481900616
297.84900,-3.787095024
297.84950,-4.39748384
297.85000,-5.007872655
297.85050,-5.007872655
297.85100,-3.176706209
297.85150,-1.345539762
297.85200,0.180432276
297.85250,1.706404315
297.85300,2.927181945
297.85350,3.232376353
297.85400,2.011598722
297.85450,1.401209907
297.85500,2.621987538
297.85550,3.537570761
297.85600,3.232376353
297.85650,2.621987538
297.85700,2.621987538
297.85750,1.706404315
297.85800,-0.7351509471
297.85850,-4.092289432
297.85900,-4.39748384
297.85950,-2.261122986
297.86000,-0.1247621317
297.86050,1.401209907
297.86100,2.011598722
297.86150,1.706404315
297.86200,0.180432276
297.86250,-1.345539762
297.86300,-2.871511801
297.86350,-3.176706209
297.86400,-3.481900616
297.86450,-2.871511801
297.86500,-1.65073417
297.86550,-0.1247621317
297.86600,0.4856266837
297.86650,1.706404315
297.86700,3.537570761
297.86750,5.063542799
297.86800,5.979126022
297.86850,6.589514838
297.86900,6.589514838
297.86950,5.673931615
297.87000,3.537570761
297.87050,-0.1247621317
297.87100,-4.39748384
297.87150,-10.8065664
297.87200,-17.21564896
297.87250,-19.04681541
297.87300,-15.07928811
297.87350,-8.670205547
297.87400,-4.702678247
297.87450,-3.787095024
297.87500,-3.481900616
297.87550,-2.871511801
297.87600,-1.040345355
297.87650,1.706404315
297.87700,4.758348392
297.87750,6.894709245
297.87800,6.894709245
297.87850,5.979126022
297.87900,5.979126022
297.87950,5.368737207
297.88000,3.232376353
297.88050,0.7908210914
297.88100,-0.1247621317
297.88150,-0.7351509471
297.88200,-2.261122986
297.88250,-3.176706209
297.88300,-2.261122986
297.88350,-0.4299565394
297.88400,0.4856266837
297.88450,1.096015499
297.88500,2.31679313
297.88550,2.621987538
297.88600,0.7908210914
297.88650,-0.7351509471
297.88700,-0.1247621317
297.88750,2.621987538
297.88800,4.147959576
297.88850,3.842765168
297.88900,3.842765168
297.88950,4.758348392
297.89000,4.758348392
297.89050,4.147959576
297.89100,3.232376353
297.89150,3.537570761
297.89200,3.842765168
297.89250,3.537570761
297.89300,3.232376353
297.89350,3.232376353
297.89400,2.31679313
297.89450,0.7908210914
297.89500,-0.1247621317
297.89550,-0.4299565394
297.89600,-1.65073417
297.89650,-4.092289432
297.89700,-5.313067063
297.89750,-4.702678247
297.89800,-3.481900616
297.89850,-3.176706209
297.89900,-2.871511801
297.89950,-1.65073417
297.90000,0.180432276
297.90050,1.706404315
297.90100,2.621987538
297.90150,3.537570761
297.90200,3.232376353
297.90250,1.401209907
297.90300,-0.7351509471
297.90350,-2.566317393
297.90400,-3.176706209
297.90450,-4.092289432
297.90500,-4.702678247
297.90550,-4.39748384
297.90600,-5.007872655
297.90650,-7.144233509
297.90700,-10.19617759
297.90750,-10.8065664
297.90800,-7.449427917
297.90850,-1.040345355
297.90900,5.673931615
297.90950,11.16743095
297.91000,14.21937503
297.91050,13.60898621
297.91100,9.946653322
297.91150,5.063542799
297.91200,0.7908210914
297.91250,-1.040345355
297.91300,-1.040345355
297.91350,-1.040345355
297.91400,-1.65073417
297.91450,-2.566317393
297.91500,-1.955928578
297.91550,-0.1247621317
297.91600,1.401209907
297.91650,1.706404315
297.91700,2.011598722
297.91750,2.927181945
297.91800,3.537570761
297.91850,3.232376353
297.91900,2.927181945
297.91950,3.232376353
297.92000,2.31679313
297.92050,-0.1247621317
297.92100,-1.345539762
297.92150,-0.4299565394
297.92200,-0.1247621317
297.92250,-1.345539762
297.92300,-3.481900616
297.92350,-2.871511801
297.92400,-1.345539762
297.92450,-1.040345355
297.92500,-2.566317393
297.92550,-3.176706209
297.92600,-2.261122986
297.92650,-2.261122986
297.92700,-2.566317393
297.92750,-2.871511801
297.92800,-2.261122986
297.92850,-1.955928578
297.92900,-1.65073417
297.92950,-0.7351509471
297.93000,0.7908210914
297.93050,2.31679313
297.93100,2.927181945
297.93150,3.232376353
297.93200,3.232376353
297.93250,2.011598722
297.93300,0.4856266837
297.93350,0.7908210914
297.93400,2.011598722
297.93450,3.232376353
297.93500,3.842765168
297.93550,3.537570761
297.93600,2.31679313
297.93650,0.7908210914
297.93700,0.180432276
297.93750,0.7908210914
297.93800,1.401209907
297.93850,0.7908210914
297.93900,-0.1247621317
297.93950,0.180432276
297.94000,1.706404315
297.94050,3.842765168
297.94100,5.063542799
297.94150,2.927181945
297.94200,-2.566317393
297.94250,-9.58578877
297.94300,-12.33253844
297.94350,-8.975399955
297.94400,-3.176706209
297.94450,-0.4299565394
297.94500,-1.040345355
297.94550,-1.65073417
297.94600,-1.040345355
297.94650,-0.4299565394
297.94700,-0.1247621317
297.94750,-0.1247621317
297.94800,-0.1247621317
297.94850,-0.4299565394
297.94900,-1.040345355
297.94950,-0.7351509471
297.95000,0.180432276
297.95050,0.180432276
297.95100,-0.4299565394
297.95150,-1.040345355
297.95200,-0.4299565394
297.95250,0.180432276
297.95300,1.706404315
297.95350,3.537570761
297.95400,5.368737207
297.95450,6.28432043
297.95500,6.28432043
297.95550,6.28432043
297.95600,5.673931615
297.95650,4.758348392
297.95700,4.147959576
297.95750,3.537570761
297.95800,2.011598722
297.95850,-0.4299565394
297.95900,-3.481900616
297.95950,-5.007872655
297.96000,-5.61826147
297.96050,-5.313067063
297.96100,-4.702678247
297.96150,-3.787095024
297.96200,-3.176706209
297.96250,-4.39748384
297.96300,-5.313067063
297.96350,-4.092289432
297.96400,-1.345539762
297.96450,-0.4299565394
297.96500,-1.345539762
297.96550,-2.261122986
297.96600,-1.65073417
297.96650,-2.261122986
297.96700,-4.39748384
297.96750,-6.228650286
297.96800,-5.313067063
297.96850,-3.481900616
297.96900,-3.787095024
297.96950,-4.702678247
297.97000,-3.787095024
297.97050,-1.040345355
297.97100,0.4856266837
297.97150,0.180432276
297.97200,-0.4299565394
297.97250,-0.7351509471
297.97300,0.180432276
297.97350,2.011598722
297.97400,2.927181945
297.97450,2.927181945
297.97500,3.232376353
297.97550,5.063542799
297.97600,7.810292469
297.97650,9.031070099
297.97700,7.505098061
297.97750,4.758348392
297.97800,3.537570761
297.97850,4.147959576
297.97900,5.368737207
297.97950,5.063542799
297.98000,3.232376353
297.98050,-0.1247621317
297.98100,-2.871511801
297.98150,-3.176706209
297.98200,-1.040345355
297.98250,0.4856266837
297.98300,0.4856266837
297.98350,-0.1247621317
297.98400,-0.1247621317
297.98450,-0.1247621317
297.98500,-1.345539762
297.98550,-3.481900616
297.98600,-4.39748384
297.98650,-4.092289432
297.98700,-3.481900616
297.98750,-2.566317393
297.98800,-2.871511801
297.98850,-4.39748384
297.98900,-6.533844693
297.98950,-6.839039101
297.99000,-4.39748384
297.99050,-1.955928578
297.99100,-0.4299565394
297.99150,0.4856266837
297.99200,2.927181945
297.99250,5.063542799
297.99300,5.063542799
297.99350,4.453153984
297.99400,5.979126022
297.99450,10.25184773
297.99500,12.9985974
297.99550,12.38820858
297.99600,10.25184773
297.99650,8.420681284
297.99700,6.894709245
297.99750,4.147959576
297.99800,1.096015499
297.99850,-0.4299565394
297.99900,-1.040345355
297.99950,-2.566317393
298.00000,-5.007872655
298.00050,-6.839039101
298.00100,-6.533844693
298.00150,-5.313067063
298.00200,-4.39748384
298.00250,-3.787095024
298.00300,-3.787095024
298.00350,-4.702678247
298.00400,-8.059816732
298.00450,-11.11176081
298.00500,-10.19617759
298.00550,-5.923455878
298.00600,-1.955928578
298.00650,-1.040345355
298.00700,-2.261122986
298.00750,-2.566317393
298.00800,-2.261122986
298.00850,-2.566317393
298.00900,-2.871511801
298.00950,-2.261122986
298.01000,-0.4299565394
298.01050,0.180432276
298.01100,0.180432276
298.01150,1.401209907
298.01200,3.537570761
298.01250,5.063542799
298.01300,5.368737207
298.01350,5.063542799
298.01400,5.063542799
298.01450,4.758348392
298.01500,4.147959576
298.01550,3.537570761
298.01600,2.621987538
298.01650,1.401209907
298.01700,-0.1247621317
298.01750,-0.4299565394
298.01800,-0.1247621317
298.01850,0.7908210914
298.01900,0.4856266837
298.01950,-0.1247621317
298.02000,-1.040345355
298.02050,-1.345539762
298.02100,-0.7351509471
298.02150,0.180432276
298.02200,1.706404315
298.02250,1.706404315
298.02300,0.4856266837
298.02350,-0.4299565394
298.02400,-0.7351509471
298.02450,-0.7351509471
298.02500,-1.345539762
298.02550,-1.955928578
298.02600,-1.955928578
298.02650,-1.65073417
298.02700,-1.65073417
298.02750,-2.566317393
298.02800,-3.176706209
298.02850,-2.871511801
298.02900,-1.65073417
298.02950,-0.1247621317
298.03000,1.706404315
298.03050,3.232376353
298.03100,3.537570761
298.03150,2.927181945
298.03200,1.706404315
298.03250,-0.1247621317
298.03300,-1.955928578
298.03350,-4.702678247
298.03400,-6.533844693
298.03450,-7.144233509
298.03500,-6.228650286
298.03550,-5.007872655
298.03600,-4.39748384
298.03650,-3.787095024
298.03700,-2.261122986
298.03750,-0.7351509471
298.03800,0.4856266837
298.03850,2.621987538
298.03900,6.28432043
298.03950,11.16743095
298.04000,13.60898621
298.04050,12.38820858
298.04100,8.725875692
298.04150,5.368737207
298.04200,3.232376353
298.04250,1.401209907
298.04300,-0.4299565394
298.04350,-1.955928578
298.04400,-3.176706209
298.04450,-4.092289432
298.04500,-5.313067063
298.04550,-5.313067063
298.04600,-2.871511801
298.04650,0.7908210914
298.04700,4.147959576
298.04750,5.979126022
298.04800,6.28432043
298.04850,5.979126022
298.04900,4.453153984
298.04950,1.096015499
298.05000,-2.871511801
298.05050,-4.39748384
298.05100,-4.39748384
298.05150,-5.61826147
298.05200,-9.58578877
298.05250,-12.94292726
298.05300,-12.63773285
298.05350,-8.975399955
298.05400,-5.923455878
298.05450,-4.39748384
298.05500,-2.261122986
298.05550,1.096015499
298.05600,3.842765168
298.05650,3.842765168
298.05700,2.011598722
298.05750,0.180432276
298.05800,-1.345539762
298.05850,-2.871511801
298.05900,-3.481900616
298.05950,-2.871511801
298.06000,-1.65073417
298.06050,-0.4299565394
298.06100,0.180432276
298.06150,1.706404315
298.06200,2.927181945
298.06250,2.621987538
298.06300,0.7908210914
298.06350,-0.7351509471
298.06400,-0.4299565394
298.06450,2.011598722
298.06500,5.063542799
298.06550,6.589514838
298.06600,6.28432043
298.06650,5.673931615
298.06700,5.063542799
298.06750,4.453153984
298.06800,4.147959576
298.06850,4.453153984
298.06900,5.368737207
298.06950,5.979126022
298.07000,3.842765168
298.07050,-1.040345355
298.07100,-5.61826147
298.07150,-6.533844693
298.07200,-3.176706209
298.07250,0.4856266837
298.07300,2.31679313
298.07350,2.011598722
298.07400,0.7908210914
298.07450,0.180432276
298.07500,-0.4299565394
298.07550,-1.955928578
298.07600,-3.481900616
298.07650,-3.787095024
298.07700,-2.871511801
298.07750,-1.955928578
298.07800,-1.345539762
298.07850,-1.040345355
298.07900,-0.7351509471
298.07950,-1.345539762
298.08000,-2.566317393
298.08050,-2.871511801
298.08100,-1.345539762
298.08150,-0.1247621317
298.08200,-0.7351509471
298.08250,-1.955928578
298.08300,-1.040345355
298.08350,0.7908210914
298.08400,1.096015499
298.08450,-1.345539762
298.08500,-3.787095024
298.08550,-4.092289432
298.08600,-2.871511801
298.08650,-3.481900616
298.08700,-4.39748384
298.08750,-4.092289432
298.08800,-2.566317393
298.08850,-1.345539762
298.08900,-1.345539762
298.08950,-1.040345355
298.09000,-0.7351509471
298.09050,-1.040345355
298.09100,-1.65073417
298.09150,-1.955928578
298.09200,-1.040345355
298.09250,-0.1247621317
298.09300,-0.4299565394
298.09350,-0.7351509471
298.09400,-0.1247621317
298.09450,0.4856266837
298.09500,0.180432276
298.09550,-1.345539762
298.09600,-3.176706209
298.09650,-3.176706209
298.09700,-1.65073417
298.09750,0.4856266837
298.09800,2.011598722
298.09850,3.842765168
298.09900,6.589514838
298.09950,9.336264507
298.10000,10.25184773
298.10050,9.336264507
298.10100,7.505098061
298.10150,5.673931615
298.10200,3.232376353
298.10250,-0.1247621317
298.10300,-1.955928578
298.10350,-2.261122986
298.10400,-2.261122986
298.10450,-3.787095024
298.10500,-5.61826147
298.10550,-5.313067063
298.10600,-3.787095024
298.10650,-4.39748384
298.10700,-6.228650286
298.10750,-6.839039101
298.10800,-3.481900616
298.10850,0.4856266837
298.10900,3.537570761
298.10950,4.453153984
298.11000,3.537570761
298.11050,1.401209907
298.11100,-0.1247621317
298.11150,-1.345539762
298.11200,-0.7351509471
298.11250,0.4856266837
298.11300,1.706404315
298.11350,2.011598722
298.11400,0.7908210914
298.11450,-0.7351509471
298.11500,-0.4299565394
298.11550,2.927181945
298.11600,7.810292469
298.11650,9.336264507
298.11700,6.28432043
298.11750,2.621987538
298.11800,1.706404315
298.11850,2.621987538
298.11900,2.927181945
298.11950,3.232376353
298.12000,3.842765168
298.12050,5.063542799
298.12100,4.453153984
298.12150,2.621987538
298.12200,1.096015499
298.12250,1.096015499
298.12300,1.096015499
298.12350,0.180432276
298.12400,-1.955928578
298.12450,-4.092289432
298.12500,-4.092289432
298.12550,-2.566317393
298.12600,-3.787095024
298.12650,-10.50137199
298.12700,-17.52084337
298.12750,-18.13123219
298.12800,-10.50137199
298.12850,-1.345539762
298.12900,3.232376353
298.12950,4.147959576
298.13000,3.842765168
298.13050,2.927181945
298.13100,1.096015499
298.13150,-0.1247621317
298.13200,0.4856266837
298.13250,-0.1247621317
298.13300,-6.533844693
298.13350,-14.46889929
298.13400,-16.91045456
298.13450,-12.94292726
298.13500,-7.754622324
298.13550,-5.61826147
298.13600,-5.313067063
298.13650,-5.007872655
298.13700,-4.092289432
298.13750,-4.092289432
298.13800,-3.787095024
298.13850,-1.65073417
298.13900,0.4856266837
298.13950,1.401209907
298.14000,1.401209907
298.14050,1.706404315
298.14100,2.621987538
298.14150,2.011598722
298.14200,1.401209907
298.14250,1.706404315
298.14300,2.621987538
298.14350,3.232376353
298.14400,3.842765168
298.14450,5.368737207
298.14500,6.589514838
298.14550,5.063542799
298.14600,1.096015499
298.14650,-1.65073417
298.14700,-2.566317393
298.14750,-3.176706209
298.14800,-5.007872655
298.14850,-6.533844693
298.14900,-5.61826147
298.14950,-4.39748384
298.15000,-3.481900616
298.15050,-2.566317393
298.15100,-0.1247621317
298.15150,3.842765168
298.15200,9.031070099
298.15250,14.82976385
298.15300,20.32326318
298.15350,22.76481845
298.15400,20.933652
298.15450,16.9661247
298.15500,13.91418062
298.15550,11.77781977
298.15600,9.946653322
298.15650,8.725875692
298.15700,8.420681284
298.15750,8.420681284
298.15800,7.505098061
298.15850,5.673931615
298.15900,4.758348392
298.15950,4.453153984
298.16000,2.621987538
298.16050,-1.345539762
298.16100,-5.61826147
298.16150,-7.754622324
298.16200,-7.449427917
298.16250,-6.228650286
298.16300,-4.092289432
298.16350,-2.871511801
298.16400,-1.955928578
298.16450,-1.955928578
298.16500,-1.65073417
298.16550,-1.345539762
298.16600,-1.040345355
298.16650,-1.345539762
298.16700,-1.65073417
298.16750,-1.040345355
298.16800,-0.4299565394
298.16850,-0.7351509471
298.16900,-2.566317393
298.16950,-5.313067063
298.17000,-7.449427917
298.17050,-8.975399955
298.17100,-10.8065664
298.17150,-12.33253844
298.17200,-12.02734403
298.17250,-9.280594363
298.17300,-6.228650286
298.17350,-4.702678247
298.17400,-4.702678247
298.17450,-5.007872655
298.17500,-3.787095024
298.17550,-1.65073417
298.17600,-0.1247621317
298.17650,-0.1247621317
298.17700,-1.040345355
298.17750,-1.040345355
298.17800,0.4856266837
298.17850,2.011598722
298.17900,2.31679313
298.17950,1.096015499
298.18000,0.4856266837
298.18050,1.096015499
298.18100,1.096015499
298.18150,0.4856266837
298.18200,0.4856266837
298.18250,1.096015499
298.18300,2.011598722
298.18350,2.011598722
298.18400,1.706404315
298.18450,1.401209907
298.18500,0.4856266837
298.18550,-1.345539762
298.18600,-4.39748384
298.18650,-6.533844693
298.18700,-6.533844693
298.18750,-4.39748384
298.18800,-1.345539762
298.18850,1.096015499
298.18900,2.31679313
298.18950,2.011598722
298.19000,-0.1247621317
298.19050,-1.65073417
298.19100,-1.65073417
298.19150,0.180432276
298.19200,1.706404315
298.19250,1.401209907
298.19300,0.7908210914
298.19350,1.401209907
298.19400,1.401209907
298.19450,-0.4299565394
298.19500,-2.871511801
298.19550,-1.345539762
298.19600,3.232376353
298.19650,7.810292469
298.19700,9.031070099
298.19750,9.031070099
298.19800,9.336264507
298.19850,9.031070099
298.19900,7.505098061
298.19950,6.28432043
298.20000,5.979126022
298.20050,5.368737207
298.20100,3.537570761
298.20150,2.011598722
298.20200,1.401209907
298.20250,2.621987538
298.20300,3.537570761
298.20350,3.232376353
298.20400,1.706404315
298.20450,0.4856266837
298.20500,0.180432276
298.20550,0.180432276
298.20600,-1.345539762
298.20650,-3.787095024
298.20700,-4.39748384
298.20750,-1.955928578
298.20800,0.7908210914
298.20850,1.096015499
298.20900,-1.345539762
298.20950,-4.702678247
298.21000,-5.61826147
298.21050,-4.39748384
298.21100,-2.871511801
298.21150,-2.871511801
298.21200,-3.787095024
298.21250,-4.39748384
298.21300,-3.481900616
298.21350,-3.176706209
298.21400,-3.176706209
298.21450,-2.566317393
298.21500,-0.4299565394
298.21550,-0.7351509471
298.21600,-5.923455878
298.21650,-11.72214962
298.21700,-11.11176081
298.21750,-4.702678247
298.21800,1.096015499
298.21850,2.31679313
298.21900,1.401209907
298.21950,1.096015499
298.22000,1.096015499
298.22050,-0.4299565394
298.22100,-2.871511801
298.22150,-4.092289432
298.22200,-4.702678247
298.22250,-5.923455878
298.22300,-7.449427917
298.22350,-8.670205547
298.22400,-8.670205547
298.22450,-8.36501114
298.22500,-7.754622324
298.22550,-6.839039101
298.22600,-5.313067063
298.22650,-3.787095024
298.22700,-2.871511801
298.22750,-1.65073417
298.22800,1.401209907
298.22850,7.505098061
298.22900,13.91418062
298.22950,16.66093029
298.23000,14.52456944
298.23050,10.86223655
298.23100,7.810292469
298.23150,5.368737207
298.23200,2.31679313
298.23250,0.180432276
298.23300,-0.1247621317
298.23350,0.180432276
298.23400,-0.1247621317
298.23450,-0.7351509471
298.23500,-0.1247621317
298.23550,0.4856266837
298.23600,0.180432276
298.23650,-0.4299565394
298.23700,-1.65073417
298.23750,-2.566317393
298.23800,-4.702678247
298.23850,-5.61826147
298.23900,-3.176706209
298.23950,1.096015499
298.24000,4.147959576
298.24050,2.927181945
298.24100,-0.1247621317
298.24150,-1.040345355
298.24200,-0.1247621317
298.24250,0.180432276
298.24300,-0.7351509471
298.24350,-1.955928578
298.24400,-1.955928578
298.24450,-1.65073417
298.24500,-2.871511801
298.24550,-4.702678247
298.24600,-5.313067063
298.24650,-4.39748384
298.24700,-4.702678247
298.24750,-6.533844693
298.24800,-7.449427917
298.24850,-5.923455878
298.24900,-3.481900616
298.24950,-2.566317393
298.25000,-2.261122986
298.25050,-1.040345355
298.25100,-0.1247621317
298.25150,-0.7351509471
298.25200,-2.261122986
298.25250,-2.261122986
298.25300,-0.1247621317
298.25350,2.31679313
298.25400,2.927181945
298.25450,4.147959576
298.25500,7.199903653
298.25550,10.55704214
298.25600,12.08301418
298.25650,11.16743095
298.25700,8.420681284
298.25750,4.147959576
298.25800,-0.7351509471
298.25850,-4.39748384
298.25900,-4.39748384
298.25950,-2.566317393
298.26000,-2.871511801
298.26050,-5.313067063
298.26100,-6.533844693
298.26150,-5.007872655
298.26200,-2.261122986
298.26250,-1.040345355
298.26300,-1.65073417
298.26350,-2.261122986
298.26400,-1.65073417
298.26450,-0.4299565394
298.26500,-0.1247621317
298.26550,-0.1247621317
298.26600,-0.1247621317
298.26650,0.180432276
298.26700,1.096015499
298.26750,1.401209907
298.26800,1.096015499
298.26850,0.7908210914
298.26900,1.096015499
298.26950,2.011598722
298.27000,2.621987538
298.27050,2.927181945
298.27100,2.621987538
298.27150,2.31679313
298.27200,1.401209907
298.27250,0.7908210914
298.27300,0.4856266837
298.27350,0.7908210914
298.27400,1.401209907
298.27450,2.011598722
298.27500,2.927181945
298.27550,4.147959576
298.27600,4.453153984
298.27650,3.537570761
298.27700,2.011598722
298.27750,1.096015499
298.27800,1.706404315
298.27850,2.927181945
298.27900,3.842765168
298.27950,3.232376353
298.28000,2.621987538
298.28050,2.31679313
298.28100,1.706404315
298.28150,0.180432276
298.28200,-0.7351509471
298.28250,-1.040345355
298.28300,-1.040345355
298.28350,-1.955928578
298.28400,-3.176706209
298.28450,-3.481900616
298.28500,-2.871511801
298.28550,-2.566317393
298.28600,-3.787095024
298.28650,-4.39748384
298.28700,-3.481900616
298.28750,-1.040345355
298.28800,0.7908210914
298.28850,2.31679313
298.28900,4.147959576
298.28950,5.979126022
298.29000,7.810292469
298.29050,9.946653322
298.29100,11.16743095
298.29150,11.47262536
298.29200,10.86223655
298.29250,8.725875692
298.29300,6.28432043
298.29350,4.758348392
298.29400,4.453153984
298.29450,4.758348392
298.29500,3.537570761
298.29550,0.7908210914
298.29600,-0.7351509471
298.29650,-0.4299565394
298.29700,1.096015499
298.29750,2.621987538
298.29800,2.31679313
298.29850,-0.7351509471
298.29900,-5.923455878
298.29950,-10.50137199
298.30000,-11.11176081
298.30050,-8.059816732
298.30100,-5.313067063
298.30150,-4.39748384
298.30200,-3.481900616
298.30250,-1.345539762
298.30300,0.180432276
298.30350,-0.4299565394
298.30400,-2.566317393
298.30450,-3.176706209
298.30500,-3.176706209
298.30550,-4.092289432
298.30600,-6.228650286
298.30650,-7.754622324
298.30700,-7.754622324
298.30750,-5.313067063
298.30800,-0.4299565394
298.30850,3.537570761
298.30900,3.232376353
298.30950,0.4856266837
298.31000,-0.1247621317
298.31050,2.011598722
298.31100,2.011598722
298.31150,-1.65073417
298.31200,-5.313067063
298.31250,-4.39748384
298.31300,-1.040345355
298.31350,0.4856266837
298.31400,0.4856266837
298.31450,-0.4299565394
298.31500,-5.313067063
298.31550,-13.85851048
298.31600,-19.96239863
298.31650,-17.21564896
298.31700,-7.144233509
298.31750,3.232376353
298.31800,9.946653322
298.31850,14.52456944
298.31900,19.40767996
298.31950,24.29079048
298.32000,26.73234575
298.32050,24.29079048
298.32100,16.9661247
298.32150,9.031070099
298.32200,5.368737207
298.32250,6.589514838
298.32300,7.505098061
298.32350,4.758348392
298.32400,1.096015499
298.32450,-1.040345355
298.32500,-4.092289432
298.32550,-9.280594363
298.32600,-13.55331607
298.32650,-14.7740937
298.32700,-16.30006574
298.32750,-21.48837067
298.32800,-27.89745323
298.32850,-28.50784205
298.32900,-22.7091483
298.32950,-15.68967692
298.33000,-11.11176081
298.33050,-7.144233509
298.33100,-1.040345355
298.33150,4.758348392
298.33200,8.725875692
298.33250,9.336264507
298.33300,7.810292469
298.33350,5.368737207
298.33400,3.232376353
298.33450,2.621987538
298.33500,3.232376353
298.33550,2.927181945
298.33600,1.096015499
298.33650,-0.4299565394
298.33700,-0.1247621317
298.33750,0.7908210914
298.33800,0.7908210914
298.33850,0.4856266837
298.33900,1.096015499
298.33950,2.31679313
298.34000,2.011598722
298.34050,0.180432276
298.34100,-1.040345355
298.34150,-1.65073417
298.34200,-3.481900616
298.34250,-7.754622324
298.34300,-10.8065664
298.34350,-10.50137199
298.34400,-7.754622324
298.34450,-5.007872655
298.34500,-3.787095024
298.34550,-3.481900616
298.34600,-4.092289432
298.34650,-3.787095024
298.34700,-1.955928578
298.34750,1.706404315
298.34800,5.673931615
298.34850,8.115486876
298.34900,8.115486876
298.34950,7.199903653
298.35000,5.368737207
298.35050,2.621987538
298.35100,-0.1247621317
298.35150,-0.7351509471
298.35200,-0.1247621317
298.35250,-0.1247621317
298.35300,-0.1247621317
298.35350,-0.1247621317
298.35400,-0.1247621317
298.35450,0.4856266837
298.35500,1.096015499
298.35550,2.31679313
298.35600,4.453153984
298.35650,8.115486876
298.35700,11.47262536
298.35750,12.9985974
298.35800,11.77781977
298.35850,8.725875692
298.35900,5.673931615
298.35950,4.147959576
298.36000,3.537570761
298.36050,2.31679313
298.36100,0.7908210914
298.36150,-0.1247621317
298.36200,-1.040345355
298.36250,-2.261122986
298.36300,-3.481900616
298.36350,-3.176706209
298.36400,-1.65073417
298.36450,-0.7351509471
298.36500,-0.7351509471
298.36550,-0.4299565394
298.36600,-0.1247621317
298.36650,-1.040345355
298.36700,-3.787095024
298.36750,-7.754622324
298.36800,-10.50137199
298.36850,-12.33253844
298.36900,-13.24812166
298.36950,-13.24812166
298.37000,-11.72214962
298.37050,-8.975399955
298.37100,-6.228650286
298.37150,-3.481900616
298.37200,0.7908210914
298.37250,6.589514838
298.37300,11.16743095
298.37350,12.69340299
298.37400,12.69340299
298.37450,12.69340299
298.37500,11.47262536
298.37550,7.505098061
298.37600,3.232376353
298.37650,2.31679313
298.37700,4.147959576
298.37750,5.368737207
298.37800,4.453153984
298.37850,2.31679313
298.37900,0.7908210914
298.37950,-2.261122986
298.38000,-7.754622324
298.38050,-12.63773285
298.38100,-12.94292726
298.38150,-10.50137199
298.38200,-8.36501114
298.38250,-7.449427917
298.38300,-5.923455878
298.38350,-4.702678247
298.38400,-6.533844693
298.38450,-9.890983178
298.38500,-9.890983178
298.38550,-3.481900616
298.38600,5.063542799
298.38650,9.641458915
298.38700,8.115486876
298.38750,4.758348392
298.38800,4.147959576
298.38850,5.673931615
298.38900,8.115486876
298.38950,9.641458915
298.39000,10.25184773
298.39050,9.336264507
298.39100,7.505098061
298.39150,6.894709245
298.39200,7.505098061
298.39250,7.810292469
298.39300,6.28432043
298.39350,2.621987538
298.39400,-1.345539762
298.39450,-5.007872655
298.39500,-7.449427917
298.39550,-8.36501114
298.39600,-7.754622324
298.39650,-8.670205547
298.39700,-13.24812166
298.39750,-17.82603778
298.39800,-16.30006574
298.39850,-8.975399955
298.39900,-3.481900616
298.39950,-3.787095024
298.40000,-4.702678247
298.40050,0.7908210914
298.40100,12.08301418
298.40150,20.62845759
298.40200,22.76481845
298.40250,22.45962404
298.40300,22.15442963
298.40350,20.01806878
298.40400,14.21937503
298.40450,9.031070099
298.40500,7.810292469
298.40550,10.86223655
298.40600,13.60898621
298.40650,12.38820858
298.40700,5.063542799
298.40750,-8.36501114
298.40800,-24.23512034
298.40850,-34.6117302
298.40900,-36.13770224
298.40950,-30.94939731
298.41000,-25.45589797
298.41050,-20.87798186
298.41100,-15.99487133
298.41150,-11.11176081
298.41200,-8.975399955
298.41250,-8.975399955
298.41300,-8.059816732
298.41350,-5.313067063
298.41400,-2.566317393
298.41450,-1.345539762
298.41500,-0.1247621317
298.41550,4.758348392
298.41600,10.55704214
298.41650,12.69340299
298.41700,9.641458915
298.41750,4.147959576
298.41800,0.4856266837
298.41850,-0.1247621317
298.41900,0.4856266837
298.41950,1.401209907
298.42000,1.706404315
298.42050,1.096015499
298.42100,0.180432276
298.42150,-0.7351509471
298.42200,-1.955928578
298.42250,-2.871511801
298.42300,-1.65073417
298.42350,0.7908210914
298.42400,3.232376353
298.42450,4.147959576
298.42500,3.842765168
298.42550,3.232376353
298.42600,3.232376353
298.42650,3.232376353
298.42700,3.232376353
298.42750,2.31679313
298.42800,0.180432276
298.42850,-1.65073417
298.42900,-3.176706209
298.42950,-3.176706209
298.43000,-1.65073417
298.43050,0.180432276
298.43100,2.31679313
298.43150,3.232376353
298.43200,2.011598722
298.43250,-1.040345355
298.43300,-4.092289432
298.43350,-5.007872655
298.43400,-5.007872655
298.43450,-4.092289432
298.43500,-2.566317393
298.43550,-0.7351509471
298.43600,-0.4299565394
298.43650,-1.955928578
298.43700,-2.566317393
298.43750,0.180432276
298.43800,6.28432043
298.43850,12.38820858
298.43900,16.66093029
298.43950,18.18690233
298.44000,16.66093029
298.44050,12.08301418
298.44100,7.505098061
298.44150,4.147959576
298.44200,2.31679313
298.44250,0.7908210914
298.44300,-0.1247621317
298.44350,-1.040345355
298.44400,-2.261122986
298.44450,-3.481900616
298.44500,-3.787095024
298.44550,-1.955928578
298.44600,-0.1247621317
298.44650,1.096015499
298.44700,2.011598722
298.44750,4.147959576
298.44800,6.28432043
298.44850,5.673931615
298.44900,1.706404315
298.44950,-1.65073417
298.45000,-2.871511801
298.45050,-2.566317393
298.45100,-2.566317393
298.45150,-3.787095024
298.45200,-4.39748384
298.45250,-3.481900616
298.45300,-0.7351509471
298.45350,2.011598722
298.45400,4.147959576
298.45450,4.147959576
298.45500,2.621987538
298.45550,1.096015499
298.45600,1.096015499
298.45650,2.31679313
298.45700,3.537570761
298.45750,4.758348392
298.45800,5.063542799
298.45850,3.842765168
298.45900,0.7908210914
298.45950,-2.871511801
298.46000,-5.61826147
298.46050,-6.533844693
298.46100,-6.228650286
298.46150,-5.61826147
298.46200,-5.313067063
298.46250,-5.61826147
298.46300,-6.839039101
298.46350,-8.975399955
298.46400,-10.8065664
298.46450,-11.72214962
298.46500,-10.8065664
298.46550,-8.975399955
298.46600,-7.144233509
298.46650,-5.923455878
298.46700,-5.313067063
298.46750,-4.092289432
298.46800,-1.345539762
298.46850,2.927181945
298.46900,7.505098061
298.46950,10.25184773
298.47000,10.25184773
298.47050,8.115486876
298.47100,5.673931615
298.47150,3.842765168
298.47200,1.706404315
298.47250,-0.1247621317
298.47300,-0.7351509471
298.47350,-0.1247621317
298.47400,1.401209907
298.47450,2.31679313
298.47500,2.927181945
298.47550,4.758348392
298.47600,7.810292469
298.47650,10.25184773
298.47700,10.55704214
298.47750,9.031070099
298.47800,7.199903653
298.47850,5.673931615
298.47900,4.147959576
298.47950,1.706404315
298.48000,-0.7351509471
298.48050,-2.566317393
298.48100,-3.176706209
298.48150,-2.871511801
298.48200,-2.261122986
298.48250,-2.871511801
298.48300,-4.39748384
298.48350,-5.61826147
298.48400,-4.092289432
298.48450,-1.345539762
298.48500,-0.1247621317
298.48550,-1.040345355
298.48600,-1.65073417
298.48650,-0.1247621317
298.48700,2.31679313
298.48750,2.31679313
298.48800,0.180432276
298.48850,-1.65073417
298.48900,-1.955928578
298.48950,-2.261122986
298.49000,-3.481900616
298.49050,-4.702678247
298.49100,-4.092289432
298.49150,-2.566317393
298.49200,-1.65073417
298.49250,-2.261122986
298.49300,-3.176706209
298.49350,-3.787095024
298.49400,-4.39748384
298.49450,-4.702678247
298.49500,-4.39748384
298.49550,-4.092289432
298.49600,-3.787095024
298.49650,-3.787095024
298.49700,-3.787095024
298.49750,-2.871511801
298.49800,-1.040345355
298.49850,0.4856266837
298.49900,1.401209907
298.49950,0.7908210914
298.50000,-0.4299565394
298.50050,-0.7351509471
298.50100,0.7908210914
298.50150,2.621987538
298.50200,2.31679313
298.50250,0.4856266837
298.50300,-1.345539762
298.50350,-2.566317393
298.50400,-4.092289432
298.50450,-5.007872655
298.50500,-4.092289432
298.50550,-2.261122986
298.50600,-1.040345355
298.50650,-1.65073417
298.50700,-3.176706209
298.50750,-3.481900616
298.50800,-2.871511801
298.50850,-2.871511801
298.50900,-3.787095024
298.50950,-4.702678247
298.51000,-5.313067063
298.51050,-5.007872655
298.51100,-4.39748384
298.51150,-2.871511801
298.51200,-1.040345355
298.51250,-0.1247621317
298.51300,0.180432276
298.51350,0.4856266837
298.51400,0.4856266837
298.51450,0.7908210914
298.51500,0.180432276
298.51550,-0.1247621317
298.51600,0.180432276
298.51650,1.706404315
298.51700,2.011598722
298.51750,0.4856266837
298.51800,-0.7351509471
298.51850,-0.7351509471
298.51900,1.096015499
298.51950,2.621987538
298.52000,2.621987538
298.52050,2.31679313
298.52100,2.927181945
298.52150,3.842765168
298.52200,4.453153984
298.52250,4.453153984
298.52300,4.758348392
298.52350,4.147959576
298.52400,3.232376353
298.52450,2.011598722
298.52500,1.706404315
298.52550,1.706404315
298.52600,1.096015499
298.52650,-0.7351509471
298.52700,-4.39748384
298.52750,-7.144233509
298.52800,-6.839039101
298.52850,-3.481900616
298.52900,0.4856266837
298.52950,2.621987538
298.53000,1.706404315
298.53050,-0.1247621317
298.53100,-2.261122986
298.53150,-4.092289432
298.53200,-5.007872655
298.53250,-4.092289432
298.53300,-2.871511801
298.53350,-1.955928578
298.53400,-1.040345355
298.53450,2.011598722
298.53500,6.28432043
298.53550,9.031070099
298.53600,8.420681284
298.53650,7.505098061
298.53700,8.115486876
298.53750,9.031070099
298.53800,7.505098061
298.53850,4.453153984
298.53900,2.31679313
298.53950,0.7908210914
298.54000,-0.4299565394
298.54050,-1.345539762
298.54100,-0.4299565394
298.54150,0.7908210914
298.54200,-0.1247621317
298.54250,-1.65073417
298.54300,-1.955928578
298.54350,-0.1247621317
298.54400,0.4856266837
298.54450,-0.4299565394
298.54500,-1.65073417
298.54550,-1.955928578
298.54600,-3.787095024
298.54650,-6.839039101
298.54700,-8.975399955
298.54750,-7.144233509
298.54800,-3.176706209
298.54850,-0.1247621317
298.54900,1.096015499
298.54950,1.401209907
298.55000,0.180432276
298.55050,-0.7351509471
298.55100,-1.345539762
298.55150,-1.345539762
298.55200,-1.955928578
298.55250,-3.481900616
298.55300,-4.092289432
298.55350,-2.871511801
298.55400,-1.040345355
298.55450,-0.1247621317
298.55500,-0.1247621317
298.55550,0.7908210914
298.55600,1.401209907
298.55650,1.401209907
298.55700,1.706404315
298.55750,2.31679313
298.55800,2.011598722
298.55850,1.096015499
298.55900,1.401209907
298.55950,3.842765168
298.56000,5.368737207
298.56050,4.453153984
298.56100,2.621987538
298.56150,2.31679313
298.56200,2.927181945
298.56250,2.621987538
298.56300,1.401209907
298.56350,1.096015499
298.56400,1.706404315
298.56450,1.706404315
298.56500,2.011598722
298.56550,3.232376353
298.56600,3.842765168
298.56650,2.31679313
298.56700,-1.040345355
298.56750,-3.481900616
298.56800,-5.313067063
298.56850,-8.36501114
298.56900,-13.55331607
298.56950,-18.741621
298.57000,-20.87798186
298.57050,-18.43642659
298.57100,-12.63773285
298.57150,-6.839039101
298.57200,-3.176706209
298.57250,-0.1247621317
298.57300,5.368737207
298.57350,12.38820858
298.57400,16.05054148
298.57450,14.52456944
298.57500,10.55704214
298.57550,8.420681284
298.57600,7.810292469
298.57650,6.28432043
298.57700,5.063542799
298.57750,5.063542799
298.57800,5.673931615
298.57850,4.453153984
298.57900,2.31679313
298.57950,1.706404315
298.58000,1.401209907
298.58050,-1.040345355
298.58100,-5.61826147
298.58150,-8.670205547
298.58200,-8.36501114
298.58250,-7.144233509
298.58300,-6.533844693
298.58350,-6.839039101
298.58400,-6.533844693
298.58450,-5.61826147
298.58500,-4.39748384
298.58550,-2.261122986
298.58600,-0.1247621317
298.58650,1.706404315
298.58700,4.453153984
298.58750,7.199903653
298.58800,8.115486876
298.58850,7.199903653
298.58900,7.199903653
298.58950,9.031070099
298.59000,9.336264507
298.59050,5.673931615
298.59100,0.7908210914
298.59150,0.4856266837
298.59200,4.147959576
298.59250,5.673931615
298.59300,2.621987538
298.59350,-0.1247621317
298.59400,0.7908210914
298.59450,3.842765168
298.59500,4.147959576
298.59550,1.706404315
298.59600,-0.4299565394
298.59650,-1.345539762
298.59700,-2.566317393
298.59750,-5.61826147
298.59800,-7.754622324
298.59850,-8.059816732
298.59900,-7.144233509
298.59950,-7.449427917
298.60000,-7.449427917
298.60050,-5.007872655
298.60100,-0.1247621317
298.60150,5.368737207
298.60200,8.420681284
298.60250,9.641458915
298.60300,10.25184773
298.60350,10.55704214
298.60400,9.641458915
298.60450,6.589514838
298.60500,2.621987538
298.60550,-2.566317393
298.60600,-10.50137199
298.60650,-17.21564896
298.60700,-19.04681541
298.60750,-15.07928811
298.60800,-9.890983178
298.60850,-7.754622324
298.60900,-6.839039101
298.60950,-2.566317393
298.61000,4.453153984
298.61050,9.641458915
298.61100,9.641458915
298.61150,6.894709245
298.61200,5.368737207
298.61250,5.673931615
298.61300,5.979126022
298.61350,7.505098061
298.61400,10.25184773
298.61450,12.08301418
298.61500,9.641458915
298.61550,4.147959576
298.61600,0.180432276
298.61650,0.180432276
298.61700,1.401209907
298.61750,0.180432276
298.61800,-3.176706209
298.61850,-6.533844693
298.61900,-8.975399955
298.61950,-11.11176081
298.62000,-13.85851048
298.62050,-15.68967692
298.62100,-15.99487133
298.62150,-13.85851048
298.62200,-10.50137199
298.62250,-8.059816732
298.62300,-6.839039101
298.62350,-5.61826147
298.62400,-2.871511801
298.62450,0.180432276
298.62500,1.401209907
298.62550,0.4856266837
298.62600,-0.1247621317
298.62650,0.180432276
298.62700,-0.1247621317
298.62750,-1.040345355
298.62800,-1.345539762
298.62850,0.180432276
298.62900,2.31679313
298.62950,2.927181945
298.63000,2.927181945
298.63050,3.842765168
298.63100,4.453153984
298.63150,2.621987538
298.63200,0.4856266837
298.63250,0.7908210914
298.63300,2.621987538
298.63350,3.232376353
298.63400,2.927181945
298.63450,4.147959576
298.63500,5.979126022
298.63550,5.979126022
298.63600,3.842765168
298.63650,1.096015499
298.63700,-0.7351509471
298.63750,-1.345539762
298.63800,-0.4299565394
298.63850,1.096015499
298.63900,1.096015499
298.63950,-0.1247621317
298.64000,-0.1247621317
298.64050,2.31679313
298.64100,5.063542799
298.64150,4.758348392
298.64200,2.927181945
298.64250,3.537570761
298.64300,5.979126022
298.64350,6.589514838
298.64400,4.147959576
298.64450,2.621987538
298.64500,3.232376353
298.64550,3.232376353
298.64600,0.180432276
298.64650,-2.871511801
298.64700,-2.566317393
298.64750,0.180432276
298.64800,1.706404315
298.64850,0.180432276
298.64900,-1.65073417
298.64950,-1.345539762
298.65000,0.4856266837
298.65050,2.011598722
298.65100,2.011598722
298.65150,0.7908210914
298.65200,-0.1247621317
298.65250,-0.1247621317
298.65300,-0.1247621317
298.65350,-0.4299565394
298.65400,-1.040345355
298.65450,-1.040345355
298.65500,-0.4299565394
298.65550,0.4856266837
298.65600,0.7908210914
298.65650,-0.1247621317
298.65700,-1.345539762
298.65750,-2.261122986
298.65800,-2.566317393
298.65850,-3.176706209
298.65900,-4.39748384
298.65950,-5.007872655
298.66000,-4.702678247
298.66050,-4.39748384
298.66100,-3.787095024
298.66150,-1.955928578
298.66200,0.180432276
298.66250,1.706404315
298.66300,1.096015499
298.66350,-0.1247621317
298.66400,-2.261122986
298.66450,-4.702678247
298.66500,-7.144233509
298.66550,-8.059816732
298.66600,-6.228650286
298.66650,-2.871511801
298.66700,-0.1247621317
298.66750,0.4856266837
298.66800,-0.1247621317
298.66850,-1.040345355
298.66900,-1.345539762
298.66950,-0.7351509471
298.67000,-0.1247621317
298.67050,-0.4299565394
298.67100,-2.261122986
298.67150,-3.787095024
298.67200,-3.176706209
298.67250,-1.65073417
298.67300,-0.1247621317
298.67350,-0.1247621317
298.67400,-0.1247621317
298.67450,0.180432276
298.67500,1.096015499
298.67550,1.706404315
298.67600,0.7908210914
298.67650,-0.4299565394
298.67700,-0.7351509471
298.67750,-0.1247621317
298.67800,-0.1247621317
298.67850,-0.7351509471
298.67900,-1.040345355
298.67950,-0.1247621317
298.68000,0.7908210914
298.68050,0.180432276
298.68100,-1.040345355
298.68150,-1.345539762
298.68200,-0.7351509471
298.68250,-0.7351509471
298.68300,-1.345539762
298.68350,-1.040345355
298.68400,-0.1247621317
298.68450,0.4856266837
298.68500,0.180432276
298.68550,-0.1247621317
298.68600,0.4856266837
298.68650,0.4856266837
298.68700,-0.1247621317
298.68750,-0.1247621317
298.68800,-0.1247621317
298.68850,0.7908210914
298.68900,2.011598722
298.68950,4.758348392
298.69000,8.115486876
298.69050,9.336264507
298.69100,6.894709245
298.69150,3.537570761
298.69200,2.31679313
298.69250,2.31679313
298.69300,1.706404315
298.69350,0.180432276
298.69400,-0.4299565394
298.69450,-0.1247621317
298.69500,-0.1247621317
298.69550,0.180432276
298.69600,0.180432276
298.69650,0.180432276
298.69700,-0.1247621317
298.69750,0.180432276
298.69800,1.096015499
298.69850,2.011598722
298.69900,2.011598722
298.69950,1.401209907
298.70000,1.401209907
298.70050,2.011598722
298.70100,2.011598722
298.70150,1.096015499
298.70200,-0.1247621317
298.70250,-2.261122986
298.70300,-5.61826147
298.70350,-8.36501114
298.70400,-8.059816732
298.70450,-5.61826147
298.70500,-2.871511801
298.70550,-0.7351509471
298.70600,1.401209907
298.70650,2.927181945
298.70700,1.706404315
298.70750,-1.955928578
298.70800,-4.39748384
298.70850,-2.566317393
298.70900,1.096015499
298.70950,4.147959576
298.71000,5.063542799
298.71050,5.368737207
298.71100,5.368737207
298.71150,3.537570761
298.71200,0.180432276
298.71250,-2.566317393
298.71300,-3.176706209
298.71350,-2.566317393
298.71400,-1.955928578
298.71450,-1.65073417
298.71500,-1.345539762
298.71550,-1.345539762
298.71600,-2.261122986
298.71650,-3.481900616
298.71700,-3.787095024
298.71750,-2.261122986
298.71800,-0.4299565394
298.71850,-0.4299565394
298.71900,-1.955928578
298.71950,-2.871511801
298.72000,-1.65073417
298.72050,-0.1247621317
298.72100,0.4856266837
298.72150,-0.1247621317
298.72200,-0.4299565394
298.72250,-0.4299565394
298.72300,-0.1247621317
298.72350,-0.1247621317
298.72400,0.180432276
298.72450,0.4856266837
298.72500,1.096015499
298.72550,0.7908210914
298.72600,-0.4299565394
298.72650,-2.871511801
298.72700,-3.481900616
298.72750,-2.566317393
298.72800,-1.65073417
298.72850,-1.955928578
298.72900,-2.871511801
298.72950,-2.261122986
298.73000,-1.040345355
298.73050,-1.040345355
298.73100,-1.65073417
298.73150,-1.345539762
298.73200,-1.345539762
298.73250,-2.871511801
298.73300,-5.007872655
298.73350,-5.313067063
298.73400,-3.481900616
298.73450,-1.65073417
298.73500,-1.345539762
298.73550,-1.040345355
298.73600,-0.1247621317
298.73650,-0.4299565394
298.73700,-0.7351509471
298.73750,-0.1247621317
298.73800,1.706404315
298.73850,1.401209907
298.73900,-1.040345355
298.73950,-2.566317393
298.74000,-1.040345355
298.74050,0.7908210914
298.74100,0.7908210914
298.74150,-0.1247621317
298.74200,-0.4299565394
298.74250,-0.1247621317
298.74300,-1.345539762
298.74350,-4.092289432
298.74400,-6.228650286
298.74450,-6.533844693
298.74500,-5.313067063
298.74550,-3.787095024
298.74600,-1.955928578
298.74650,-0.4299565394
298.74700,0.7908210914
298.74750,2.927181945
298.74800,4.453153984
298.74850,4.147959576
298.74900,2.927181945
298.74950,2.621987538
298.75000,3.537570761
298.75050,3.537570761
298.75100,2.011598722
298.75150,0.4856266837
298.75200,-0.1247621317
298.75250,-0.1247621317
298.75300,-0.1247621317
298.75350,0.4856266837
298.75400,1.096015499
298.75450,0.7908210914
298.75500,-0.4299565394
298.75550,-1.65073417
298.75600,-2.566317393
298.75650,-3.481900616
298.75700,-3.481900616
298.75750,-1.345539762
298.75800,0.7908210914
298.75850,1.401209907
298.75900,0.180432276
298.75950,0.7908210914
298.76000,3.842765168
298.76050,6.28432043
298.76100,6.28432043
298.76150,5.063542799
298.76200,5.063542799
298.76250,5.368737207
298.76300,4.147959576
298.76350,2.011598722
298.76400,0.7908210914
298.76450,-0.1247621317
298.76500,-0.4299565394
298.76550,-1.040345355
298.76600,-0.7351509471
298.76650,-0.1247621317
298.76700,-0.4299565394
298.76750,-0.4299565394
298.76800,0.4856266837
298.76850,2.927181945
298.76900,4.453153984
298.76950,4.453153984
298.77000,3.842765168
298.77050,3.232376353
298.77100,2.621987538
298.77150,1.401209907
298.77200,0.4856266837
298.77250,0.4856266837
298.77300,2.31679313
298.77350,4.453153984
298.77400,5.368737207
298.77450,4.453153984
298.77500,3.232376353
298.77550,2.927181945
298.77600,2.621987538
298.77650,1.096015499
298.77700,-0.4299565394
298.77750,-1.345539762
298.77800,-0.7351509471
298.77850,-0.4299565394
298.77900,-1.040345355
298.77950,-0.7351509471
298.78000,0.7908210914
298.78050,2.927181945
298.78100,3.232376353
298.78150,2.011598722
298.78200,0.180432276
298.78250,-0.4299565394
298.78300,-1.65073417
298.78350,-2.261122986
298.78400,-2.261122986
298.78450,-2.261122986
298.78500,-2.871511801
298.78550,-3.481900616
298.78600,-2.261122986
298.78650,0.4856266837
298.78700,2.621987538
298.78750,2.011598722
298.78800,-0.1247621317
298.78850,-1.040345355
298.78900,-0.7351509471
298.78950,-0.1247621317
298.79000,0.180432276
298.79050,-0.4299565394
298.79100,-1.345539762
298.79150,-1.955928578
298.79200,-1.65073417
298.79250,-0.1247621317
298.79300,2.011598722
298.79350,4.453153984
298.79400,5.979126022
298.79450,5.979126022
298.79500,4.453153984
298.79550,3.842765168
298.79600,4.453153984
298.79650,5.368737207
298.79700,3.537570761
298.79750,-0.4299565394
298.79800,-4.702678247
298.79850,-5.923455878
298.79900,-5.007872655
298.79950,-3.787095024
298.80000,-2.566317393
298.80050,-1.345539762
298.80100,0.180432276
298.80150,0.7908210914
298.80200,0.7908210914
298.80250,0.4856266837
298.80300,0.180432276
298.80350,-0.1247621317
298.80400,-1.345539762
298.80450,-1.955928578
298.80500,-2.871511801
298.80550,-4.39748384
298.80600,-6.533844693
298.80650,-7.754622324
298.80700,-6.533844693
298.80750,-4.092289432
298.80800,-2.566317393
298.80850,-3.176706209
298.80900,-4.092289432
298.80950,-3.787095024
298.81000,-2.261122986
298.81050,-0.1247621317
298.81100,0.4856266837
298.81150,-0.1247621317
298.81200,-0.7351509471
298.81250,-0.7351509471
298.81300,0.4856266837
298.81350,2.927181945
298.81400,5.063542799
298.81450,6.894709245
298.81500,6.894709245
298.81550,5.063542799
298.81600,3.537570761
298.81650,3.537570761
298.81700,5.368737207
298.81750,5.979126022
298.81800,4.758348392
298.81850,3.537570761
298.81900,3.842765168
298.81950,4.758348392
298.82000,3.537570761
298.82050,1.096015499
298.82100,-0.1247621317
298.82150,-1.040345355
298.82200,-2.566317393
298.82250,-5.007872655
298.82300,-6.228650286
298.82350,-6.533844693
298.82400,-6.228650286
298.82450,-5.61826147
298.82500,-3.787095024
298.82550,-1.65073417
298.82600,-1.040345355
298.82650,-1.955928578
298.82700,-2.261122986
298.82750,-0.4299565394
298.82800,0.4856266837
298.82850,0.180432276
298.82900,-0.1247621317
298.82950,0.7908210914
298.83000,2.927181945
298.83050,3.842765168
298.83100,3.842765168
298.83150,4.147959576
298.83200,4.147959576
298.83250,2.31679313
298.83300,-0.4299565394
298.83350,-2.566317393
298.83400,-2.871511801
298.83450,-2.871511801
298.83500,-3.787095024
298.83550,-5.313067063
298.83600,-5.923455878
298.83650,-4.39748384
298.83700,-1.65073417
298.83750,1.096015499
298.83800,2.31679313
298.83850,2.011598722
298.83900,1.401209907
298.83950,2.621987538
298.84000,3.842765168
298.84050,2.31679313
298.84100,-1.345539762
298.84150,-4.092289432
298.84200,-2.566317393
298.84250,0.4856266837
298.84300,1.706404315
298.84350,-0.4299565394
298.84400,-3.176706209
298.84450,-5.007872655
298.84500,-5.923455878
298.84550,-5.61826147
298.84600,-3.481900616
298.84650,-0.4299565394
298.84700,1.096015499
298.84750,0.7908210914
298.84800,-0.1247621317
298.84850,-1.040345355
298.84900,-1.955928578
298.84950,-2.871511801
298.85000,-2.871511801
298.85050,-1.955928578
298.85100,-1.040345355
298.85150,-1.040345355
298.85200,-1.040345355
298.85250,-0.7351509471
298.85300,-0.7351509471
298.85350,-1.345539762
298.85400,-1.955928578
298.85450,-2.261122986
298.85500,-3.176706209
298.85550,-4.092289432
298.85600,-3.176706209
298.85650,-0.4299565394
298.85700,0.4856266837
298.85750,-0.7351509471
298.85800,-2.261122986
298.85850,-1.955928578
298.85900,-0.7351509471
298.85950,-0.7351509471
298.86000,-1.345539762
298.86050,-1.040345355
298.86100,-0.1247621317
298.86150,-1.040345355
298.86200,-2.871511801
298.86250,-3.481900616
298.86300,-2.566317393
298.86350,-1.65073417
298.86400,-1.955928578
298.86450,-2.261122986
298.86500,-2.261122986
298.86550,-1.955928578
298.86600,-2.261122986
298.86650,-2.566317393
298.86700,-2.566317393
298.86750,-2.261122986
298.86800,-1.65073417
298.86850,-0.4299565394
298.86900,0.7908210914
298.86950,1.706404315
298.87000,1.401209907
298.87050,0.7908210914
298.87100,-0.1247621317
298.87150,-0.1247621317
298.87200,0.4856266837
298.87250,2.011598722
298.87300,1.401209907
298.87350,-1.040345355
298.87400,-2.566317393
298.87450,-0.7351509471
298.87500,2.621987538
298.87550,4.147959576
298.87600,2.927181945
298.87650,1.401209907
298.87700,1.096015499
298.87750,0.7908210914
298.87800,-0.1247621317
298.87850,-1.345539762
298.87900,-1.040345355
298.87950,-0.7351509471
298.88000,-1.345539762
298.88050,-2.566317393
298.88100,-2.871511801
298.88150,-1.65073417
298.88200,-0.1247621317
298.88250,0.180432276
298.88300,-0.1247621317
298.88350,-0.7351509471
298.88400,-1.345539762
298.88450,-1.65073417
298.88500,-1.040345355
298.88550,-0.7351509471
298.88600,-0.4299565394
298.88650,-0.7351509471
298.88700,-0.4299565394
298.88750,-0.1247621317
298.88800,0.7908210914
298.88850,2.31679313
298.88900,3.537570761
298.88950,4.147959576
298.89000,3.232376353
298.89050,1.706404315
298.89100,0.7908210914
298.89150,0.7908210914
298.89200,1.096015499
298.89250,1.401209907
298.89300,2.621987538
298.89350,4.147959576
298.89400,4.147959576
298.89450,2.621987538
298.89500,0.4856266837
298.89550,-0.1247621317
298.89600,0.180432276
298.89650,1.401209907
298.89700,2.927181945
298.89750,3.842765168
298.89800,3.842765168
298.89850,2.927181945
298.89900,1.706404315
298.89950,2.011598722
298.90000,2.927181945
298.90050,3.232376353
298.90100,2.011598722
298.90150,0.4856266837
298.90200,-0.1247621317
298.90250,-0.4299565394
298.90300,-1.040345355
298.90350,-1.040345355
298.90400,-0.4299565394
298.90450,-0.1247621317
298.90500,-0.7351509471
298.90550,-2.261122986
298.90600,-1.955928578
298.90650,-0.7351509471
298.90700,-0.1247621317
298.90750,-0.1247621317
298.90800,-0.7351509471
298.90850,-0.7351509471
298.90900,-0.1247621317
298.90950,0.180432276
298.91000,0.7908210914
298.91050,0.7908210914
298.91100,-0.4299565394
298.91150,-3.481900616
298.91200,-5.923455878
298.91250,-7.144233509
298.91300,-7.449427917
298.91350,-6.533844693
298.91400,-4.702678247
298.91450,-2.871511801
298.91500,-1.955928578
298.91550,-0.7351509471
298.91600,1.401209907
298.91650,3.842765168
298.91700,4.147959576
298.91750,3.537570761
298.91800,5.368737207
298.91850,9.641458915
298.91900,12.38820858
298.91950,12.69340299
298.92000,12.38820858
298.92050,11.77781977
298.92100,7.810292469
298.92150,-0.1247621317
298.92200,-4.702678247
298.92250,-2.566317393
298.92300,2.31679313
298.92350,3.537570761
298.92400,-0.1247621317
298.92450,-3.787095024
298.92500,-5.923455878
298.92550,-6.228650286
298.92600,-5.313067063
298.92650,-3.481900616
298.92700,-1.345539762
298.92750,-0.4299565394
298.92800,-0.7351509471
298.92850,-1.345539762
298.92900,-2.261122986
298.92950,-2.261122986
298.93000,-0.1247621317
298.93050,4.147959576
298.93100,6.894709245
298.93150,6.28432043
298.93200,4.453153984
298.93250,3.537570761
298.93300,3.232376353
298.93350,2.31679313
298.93400,1.096015499
298.93450,1.096015499
298.93500,1.401209907
298.93550,0.4856266837
298.93600,-1.040345355
298.93650,-1.345539762
298.93700,-0.7351509471
298.93750,0.180432276
298.93800,1.401209907
298.93850,2.621987538
298.93900,3.232376353
298.93950,2.927181945
298.94000,2.011598722
298.94050,1.096015499
298.94100,-0.4299565394
298.94150,-1.955928578
298.94200,-1.955928578
298.94250,-0.1247621317
298.94300,2.011598722
298.94350,2.31679313
298.94400,1.096015499
298.94450,0.4856266837
298.94500,1.401209907
298.94550,1.096015499
298.94600,-1.040345355
298.94650,-5.007872655
298.94700,-8.059816732
298.94750,-9.890983178
298.94800,-10.50137199
298.94850,-10.50137199
298.94900,-10.19617759
298.94950,-8.975399955
298.95000,-7.754622324
298.95050,-6.839039101
298.95100,-5.923455878
298.95150,-5.313067063
298.95200,-4.39748384
298.95250,-2.261122986
298.95300,1.096015499
298.95350,6.589514838
298.95400,11.16743095
298.95450,13.91418062
298.95500,12.69340299
298.95550,8.115486876
298.95600,2.31679313
298.95650,-1.345539762
298.95700,-2.871511801
298.95750,-2.871511801
298.95800,-3.481900616
298.95850,-2.871511801
298.95900,-0.1247621317
298.95950,2.927181945
298.96000,3.842765168
298.96050,2.31679313
298.96100,0.4856266837
298.96150,-0.1247621317
298.96200,-1.040345355
298.96250,-1.040345355
298.96300,0.180432276
298.96350,1.706404315
298.96400,1.096015499
298.96450,-0.1247621317
298.96500,-0.4299565394
298.96550,-0.1247621317
298.96600,-1.955928578
298.96650,-4.39748384
298.96700,-5.61826147
298.96750,-5.007872655
298.96800,-5.61826147
298.96850,-6.533844693
298.96900,-5.007872655
298.96950,-1.955928578
298.97000,-1.345539762
298.97050,-3.176706209
298.97100,-3.787095024
298.97150,-2.566317393
298.97200,-2.871511801
298.97250,-5.007872655
298.97300,-5.61826147
298.97350,-1.955928578
298.97400,2.011598722
298.97450,2.621987538
298.97500,1.401209907
298.97550,0.4856266837
298.97600,0.4856266837
298.97650,0.180432276
298.97700,-0.4299565394
298.97750,-1.65073417
298.97800,-3.787095024
298.97850,-5.61826147
298.97900,-6.228650286
298.97950,-5.313067063
298.98000,-2.871511801
298.98050,0.180432276
298.98100,3.537570761
298.98150,5.063542799
298.98200,3.842765168
298.98250,1.706404315
298.98300,1.096015499
298.98350,1.096015499
298.98400,-0.4299565394
298.98450,-3.787095024
298.98500,-5.007872655
298.98550,-2.261122986
298.98600,0.4856266837
298.98650,0.4856266837
298.98700,-0.4299565394
298.98750,-0.4299565394
298.98800,-0.1247621317
298.98850,0.4856266837
298.98900,0.7908210914
298.98950,2.31679313
298.99000,3.232376353
298.99050,2.621987538
298.99100,1.096015499
298.99150,0.7908210914
298.99200,2.011598722
298.99250,2.31679313
298.99300,0.7908210914
298.99350,-0.1247621317
298.99400,-0.1247621317
298.99450,1.401209907
298.99500,3.537570761
298.99550,5.673931615
298.99600,7.505098061
298.99650,6.894709245
298.99700,4.453153984
298.99750,2.31679313
298.99800,2.31679313
298.99850,3.232376353
298.99900,3.232376353
298.99950,2.31679313
299.00000,1.401209907
299.00050,0.7908210914
299.00100,-0.1247621317
299.00150,-1.65073417
299.00200,-1.65073417
299.00250,-0.1247621317
299.00300,0.7908210914
299.00350,0.180432276
299.00400,-0.7351509471
299.00450,-1.040345355
299.00500,-1.040345355
299.00550,-1.65073417
299.00600,-2.566317393
299.00650,-2.566317393
299.00700,-1.955928578
299.00750,-1.955928578
299.00800,-2.871511801
299.00850,-4.39748384
299.00900,-5.923455878
299.00950,-6.839039101
299.01000,-5.61826147
299.01050,-2.261122986
299.01100,0.4856266837
299.01150,2.31679313
299.01200,2.621987538
299.01250,2.927181945
299.01300,2.927181945
299.01350,1.401209907
299.01400,-0.7351509471
299.01450,-1.65073417
299.01500,-0.7351509471
299.01550,-0.1247621317
299.01600,-0.7351509471
299.01650,-3.481900616
299.01700,-4.39748384
299.01750,-1.955928578
299.01800,1.706404315
299.01850,4.147959576
299.01900,3.232376353
299.01950,1.096015499
299.02000,0.180432276
299.02050,1.401209907
299.02100,2.927181945
299.02150,2.927181945
299.02200,2.621987538
299.02250,2.927181945
299.02300,4.453153984
299.02350,6.589514838
299.02400,8.420681284
299.02450,8.420681284
299.02500,5.673931615
299.02550,2.011598722
299.02600,-0.1247621317
299.02650,-0.1247621317
299.02700,1.096015499
299.02750,1.096015499
299.02800,0.4856266837
299.02850,0.180432276
299.02900,0.7908210914
299.02950,1.401209907
299.03000,1.096015499
299.03050,0.4856266837
299.03100,-0.1247621317
299.03150,-1.040345355
299.03200,-2.261122986
299.03250,-1.955928578
299.03300,0.4856266837
299.03350,4.758348392
299.03400,7.199903653
299.03450,6.894709245
299.03500,5.063542799
299.03550,4.453153984
299.03600,4.758348392
299.03650,4.453153984
299.03700,1.706404315
299.03750,-2.261122986
299.03800,-5.923455878
299.03850,-6.228650286
299.03900,-3.481900616
299.03950,-0.4299565394
299.04000,-0.1247621317
299.04050,-1.65073417
299.04100,-2.261122986
299.04150,-1.040345355
299.04200,0.4856266837
299.04250,0.7908210914
299.04300,0.7908210914
299.04350,0.7908210914
299.04400,0.180432276
299.04450,-1.345539762
299.04500,-2.871511801
299.04550,-2.261122986
299.04600,-1.040345355
299.04650,-0.7351509471
299.04700,-2.261122986
299.04750,-4.39748384
299.04800,-6.228650286
299.04850,-7.144233509
299.04900,-6.533844693
299.04950,-4.092289432
299.05000,-2.261122986
299.05050,-2.261122986
299.05100,-3.176706209
299.05150,-2.566317393
299.05200,-0.4299565394
299.05250,0.180432276
299.05300,-1.345539762
299.05350,-3.787095024
299.05400,-4.702678247
299.05450,-4.702678247
299.05500,-4.702678247
299.05550,-6.228650286
299.05600,-8.059816732
299.05650,-9.280594363
299.05700,-9.280594363
299.05750,-9.280594363
299.05800,-11.11176081
299.05850,-12.63773285
299.05900,-9.58578877
299.05950,-0.4299565394
299.06000,9.946653322
299.06050,15.74534707
299.06100,15.74534707
299.06150,12.9985974
299.06200,9.641458915
299.06250,5.368737207
299.06300,1.401209907
299.06350,-0.1247621317
299.06400,1.096015499
299.06450,2.621987538
299.06500,2.927181945
299.06550,2.011598722
299.06600,1.096015499
299.06650,0.180432276
299.06700,-1.040345355
299.06750,-4.092289432
299.06800,-7.754622324
299.06850,-11.72214962
299.06900,-13.55331607
299.06950,-12.94292726
299.07000,-11.72214962
299.07050,-11.11176081
299.07100,-10.50137199
299.07150,-9.280594363
299.07200,-6.839039101
299.07250,-3.787095024
299.07300,-1.040345355
299.07350,1.706404315
299.07400,4.453153984
299.07450,5.063542799
299.07500,3.842765168
299.07550,2.621987538
299.07600,1.706404315
299.07650,0.4856266837
299.07700,-0.1247621317
299.07750,-0.1247621317
299.07800,-0.1247621317
299.07850,-0.1247621317
299.07900,-1.040345355
299.07950,-0.7351509471
299.08000,-0.1247621317
299.08050,-0.4299565394
299.08100,-1.345539762
299.08150,-1.345539762
299.08200,-0.4299565394
299.08250,-0.1247621317
299.08300,-0.1247621317
299.08350,-0.4299565394
299.08400,-1.040345355
299.08450,-1.955928578
299.08500,-2.871511801
299.08550,-1.65073417
299.08600,0.7908210914
299.08650,2.621987538
299.08700,1.706404315
299.08750,-0.1247621317
299.08800,-0.7351509471
299.08850,-0.1247621317
299.08900,0.180432276
299.08950,0.4856266837
299.09000,0.7908210914
299.09050,1.401209907
299.09100,1.096015499
299.09150,1.096015499
299.09200,1.706404315
299.09250,2.621987538
299.09300,2.927181945
299.09350,2.31679313
299.09400,2.621987538
299.09450,3.842765168
299.09500,4.453153984
299.09550,4.147959576
299.09600,3.232376353
299.09650,2.31679313
299.09700,2.011598722
299.09750,2.621987538
299.09800,3.537570761
299.09850,3.842765168
299.09900,3.842765168
299.09950,3.537570761
299.10000,2.621987538
299.10050,1.401209907
299.10100,0.4856266837
299.10150,0.7908210914
299.10200,1.401209907
299.10250,-0.1247621317
299.10300,-2.871511801
299.10350,-4.702678247
299.10400,-5.313067063
299.10450,-5.61826147
299.10500,-6.228650286
299.10550,-5.007872655
299.10600,-2.261122986
299.10650,-0.1247621317
299.10700,-0.1247621317
299.10750,0.7908210914
299.10800,4.453153984
299.10850,8.725875692
299.10900,10.86223655
299.10950,9.031070099
299.11000,5.673931615
299.11050,2.621987538
299.11100,1.401209907
299.11150,1.706404315
299.11200,2.31679313
299.11250,1.706404315
299.11300,0.180432276
299.11350,-1.040345355
299.11400,-2.566317393
299.11450,-4.702678247
299.11500,-5.923455878
299.11550,-3.176706209
299.11600,3.842765168
299.11650,11.47262536
299.11700,14.82976385
299.11750,13.30379181
299.11800,10.55704214
299.11850,9.336264507
299.11900,8.115486876
299.11950,5.368737207
299.12000,1.401209907
299.12050,-1.345539762
299.12100,-3.176706209
299.12150,-3.481900616
299.12200,-1.955928578
299.12250,-0.1247621317
299.12300,1.706404315
299.12350,1.096015499
299.12400,-1.040345355
299.12450,-1.65073417
299.12500,1.096015499
299.12550,5.979126022
299.12600,9.641458915
299.12650,10.86223655
299.12700,12.38820858
299.12750,14.21937503
299.12800,13.91418062
299.12850,11.47262536
299.12900,8.115486876
299.12950,2.927181945
299.13000,-5.007872655
299.13050,-13.85851048
299.13100,-16.91045456
299.13150,-14.16370489
299.13200,-11.41695522
299.13250,-12.94292726
299.13300,-15.07928811
299.13350,-12.94292726
299.13400,-8.36501114
299.13450,-5.313067063
299.13500,-4.092289432
299.13550,-2.566317393
299.13600,-1.345539762
299.13650,-1.65073417
299.13700,-2.566317393
299.13750,-2.566317393
299.13800,-1.345539762
299.13850,-1.345539762
299.13900,-1.040345355
299.13950,-0.1247621317
299.14000,0.7908210914
299.14050,0.4856266837
299.14100,-0.1247621317
299.14150,0.180432276
299.14200,-0.7351509471
299.14250,-5.313067063
299.14300,-10.50137199
299.14350,-12.02734403
299.14400,-9.890983178
299.14450,-6.839039101
299.14500,-4.702678247
299.14550,-3.481900616
299.14600,-2.871511801
299.14650,-3.787095024
299.14700,-5.313067063
299.14750,-5.313067063
299.14800,-3.787095024
299.14850,-2.566317393
299.14900,-1.65073417
299.14950,-0.1247621317
299.15000,2.927181945
299.15050,5.368737207
299.15100,5.368737207
299.15150,4.147959576
299.15200,4.453153984
299.15250,5.063542799
299.15300,4.758348392
299.15350,3.842765168
299.15400,3.842765168
299.15450,4.758348392
299.15500,4.147959576
299.15550,0.7908210914
299.15600,-3.481900616
299.15650,-5.007872655
299.15700,-2.871511801
299.15750,-0.1247621317
299.15800,0.7908210914
299.15850,-0.4299565394
299.15900,-1.345539762
299.15950,-0.1247621317
299.16000,2.011598722
299.16050,2.011598722
299.16100,0.7908210914
299.16150,0.180432276
299.16200,0.180432276
299.16250,-0.1247621317
299.16300,-1.345539762
299.16350,-1.345539762
299.16400,0.180432276
299.16450,2.621987538
299.16500,2.621987538
299.16550,1.096015499
299.16600,0.4856266837
299.16650,1.096015499
299.16700,1.401209907
299.16750,0.180432276
299.16800,-0.7351509471
299.16850,-0.4299565394
299.16900,0.7908210914
299.16950,1.706404315
299.17000,1.706404315
299.17050,0.4856266837
299.17100,-0.7351509471
299.17150,-1.345539762
299.17200,-0.4299565394
299.17250,1.096015499
299.17300,2.011598722
299.17350,1.401209907
299.17400,0.7908210914
299.17450,0.7908210914
299.17500,0.4856266837
299.17550,-0.4299565394
299.17600,-2.261122986
299.17650,-2.566317393
299.17700,-1.955928578
299.17750,-1.040345355
299.17800,-0.7351509471
299.17850,-1.040345355
299.17900,-1.345539762
299.17950,-1.955928578
299.18000,-2.261122986
299.18050,-2.261122986
299.18100,-1.345539762
299.18150,-0.7351509471
299.18200,-0.7351509471
299.18250,-1.65073417
299.18300,-2.871511801
299.18350,-3.176706209
299.18400,-3.481900616
299.18450,-3.787095024
299.18500,-4.39748384
299.18550,-4.39748384
299.18600,-3.176706209
299.18650,-1.65073417
299.18700,-0.4299565394
299.18750,-0.4299565394
299.18800,-0.1247621317
299.18850,-0.1247621317
299.18900,0.4856266837
299.18950,1.096015499
299.19000,1.401209907
299.19050,1.706404315
299.19100,2.011598722
299.19150,2.31679313
299.19200,3.842765168
299.19250,4.758348392
299.19300,4.147959576
299.19350,3.537570761
299.19400,3.537570761
299.19450,3.842765168
299.19500,2.927181945
299.19550,1.401209907
299.19600,1.401209907
299.19650,2.621987538
299.19700,2.31679313
299.19750,-0.4299565394
299.19800,-2.261122986
299.19850,-1.345539762
299.19900,-0.1247621317
299.19950,-0.4299565394
299.20000,-1.65073417
299.20050,-0.1247621317
299.20100,2.621987538
299.20150,2.31679313
299.20200,-1.65073417
299.20250,-6.533844693
299.20300,-8.059816732
299.20350,-7.449427917
299.20400,-7.144233509
299.20450,-7.144233509
299.20500,-5.923455878
299.20550,-4.092289432
299.20600,-2.261122986
299.20650,-0.7351509471
299.20700,0.7908210914
299.20750,1.706404315
299.20800,2.31679313
299.20850,4.453153984
299.20900,9.031070099
299.20950,13.60898621
299.21000,15.44015266
299.21050,13.60898621
299.21100,10.55704214
299.21150,8.115486876
299.21200,5.979126022
299.21250,5.063542799
299.21300,5.368737207
299.21350,5.673931615
299.21400,3.537570761
299.21450,-0.1247621317
299.21500,-2.261122986
299.21550,-1.65073417
299.21600,-0.1247621317
299.21650,1.096015499
299.21700,1.096015499
299.21750,1.096015499
299.21800,1.401209907
299.21850,1.096015499
299.21900,0.180432276
299.21950,-1.040345355
299.22000,-1.65073417
299.22050,-1.955928578
299.22100,-1.345539762
299.22150,-1.345539762
299.22200,-1.955928578
299.22250,-2.566317393
299.22300,-3.176706209
299.22350,-3.176706209
299.22400,-2.871511801
299.22450,-2.261122986
299.22500,-1.345539762
299.22550,-1.955928578
299.22600,-4.702678247
299.22650,-7.449427917
299.22700,-7.449427917
299.22750,-4.702678247
299.22800,-1.955928578
299.22850,-0.7351509471
299.22900,-0.1247621317
299.22950,1.096015499
299.23000,2.927181945
299.23050,4.147959576
299.23100,4.147959576
299.23150,4.453153984
299.23200,5.063542799
299.23250,5.368737207
299.23300,3.842765168
299.23350,1.401209907
299.23400,-0.1247621317
299.23450,0.7908210914
299.23500,2.927181945
299.23550,4.147959576
299.23600,4.453153984
299.23650,5.673931615
299.23700,8.725875692
299.23750,9.031070099
299.23800,3.232376353
299.23850,-6.228650286
299.23900,-12.63773285
299.23950,-11.72214962
299.24000,-7.449427917
299.24050,-5.313067063
299.24100,-5.61826147
299.24150,-5.923455878
299.24200,-4.702678247
299.24250,-3.176706209
299.24300,-2.261122986
299.24350,-2.566317393
299.24400,-2.871511801
299.24450,-3.176706209
299.24500,-3.176706209
299.24550,-3.176706209
299.24600,-2.261122986
299.24650,-1.040345355
299.24700,-0.4299565394
299.24750,-0.1247621317
299.24800,-0.4299565394
299.24850,-1.65073417
299.24900,-2.871511801
299.24950,-3.787095024
299.25000,-2.871511801
299.25050,-1.040345355
299.25100,-0.4299565394
299.25150,-1.955928578
299.25200,-3.481900616
299.25250,-2.566317393
299.25300,-0.1247621317
299.25350,2.011598722
299.25400,2.927181945
299.25450,4.147959576
299.25500,6.589514838
299.25550,8.420681284
299.25600,7.810292469
299.25650,6.28432043
299.25700,6.28432043
299.25750,7.199903653
299.25800,6.28432043
299.25850,3.232376353
299.25900,1.096015499
299.25950,1.096015499
299.26000,1.401209907
299.26050,1.096015499
299.26100,-0.1247621317
299.26150,-1.65073417
299.26200,-5.61826147
299.26250,-11.41695522
299.26300,-15.99487133
299.26350,-17.21564896
299.26400,-14.16370489
299.26450,-9.890983178
299.26500,-6.228650286
299.26550,-4.702678247
299.26600,-5.007872655
299.26650,-5.313067063
299.26700,-4.092289432
299.26750,-1.345539762
299.26800,1.096015499
299.26850,2.011598722
299.26900,1.706404315
299.26950,1.096015499
299.27000,1.096015499
299.27050,1.401209907
299.27100,2.011598722
299.27150,1.401209907
299.27200,0.180432276
299.27250,-0.7351509471
299.27300,-1.040345355
299.27350,-0.4299565394
299.27400,0.4856266837
299.27450,1.401209907
299.27500,1.401209907
299.27550,0.4856266837
299.27600,-0.4299565394
299.27650,-0.7351509471
299.27700,0.4856266837
299.27750,2.011598722
299.27800,2.011598722
299.27850,1.401209907
299.27900,0.7908210914
299.27950,0.180432276
299.28000,-0.4299565394
299.28050,-0.7351509471
299.28100,-0.1247621317
299.28150,-0.1247621317
299.28200,-1.345539762
299.28250,-2.871511801
299.28300,-1.955928578
299.28350,0.4856266837
299.28400,0.7908210914
299.28450,-1.345539762
299.28500,-3.481900616
299.28550,-2.871511801
299.28600,-0.7351509471
299.28650,-1.040345355
299.28700,-2.566317393
299.28750,-2.871511801
299.28800,-2.261122986
299.28850,-1.955928578
299.28900,-2.261122986
299.28950,-1.955928578
299.29000,-0.7351509471
299.29050,-0.4299565394
299.29100,-0.4299565394
299.29150,-0.7351509471
299.29200,-1.345539762
299.29250,-2.261122986
299.29300,-3.176706209
299.29350,-1.955928578
299.29400,1.401209907
299.29450,5.368737207
299.29500,7.199903653
299.29550,6.589514838
299.29600,5.063542799
299.29650,4.453153984
299.29700,4.758348392
299.29750,5.368737207
299.29800,3.842765168
299.29850,0.4856266837
299.29900,-2.566317393
299.29950,-3.481900616
299.30000,-2.566317393
299.30050,-1.955928578
299.30100,-1.955928578
299.30150,-1.65073417
299.30200,-2.566317393
299.30250,-5.923455878
299.30300,-10.50137199
299.30350,-11.72214962
299.30400,-7.144233509
299.30450,1.706404315
299.30500,10.55704214
299.30550,16.9661247
299.30600,19.71287437
299.30650,18.18690233
299.30700,13.60898621
299.30750,7.810292469
299.30800,4.147959576
299.30850,2.927181945
299.30900,2.621987538
299.30950,1.706404315
299.31000,0.7908210914
299.31050,-0.1247621317
299.31100,-0.1247621317
299.31150,-0.1247621317
299.31200,-0.1247621317
299.31250,0.4856266837
299.31300,0.7908210914
299.31350,0.4856266837
299.31400,-0.1247621317
299.31450,-1.345539762
299.31500,-2.871511801
299.31550,-3.481900616
299.31600,-3.481900616
299.31650,-2.566317393
299.31700,-1.65073417
299.31750,-0.4299565394
299.31800,0.180432276
299.31850,0.180432276
299.31900,-0.7351509471
299.31950,-1.65073417
299.32000,-1.65073417
299.32050,-1.65073417
299.32100,-2.566317393
299.32150,-3.787095024
299.32200,-3.787095024
299.32250,-2.261122986
299.32300,-0.1247621317
299.32350,0.4856266837
299.32400,0.180432276
299.32450,-0.1247621317
299.32500,-0.4299565394
299.32550,-1.345539762
299.32600,-2.261122986
299.32650,-2.261122986
299.32700,-0.7351509471
299.32750,1.706404315
299.32800,4.453153984
299.32850,5.368737207
299.32900,5.063542799
299.32950,3.537570761
299.33000,0.7908210914
299.33050,-2.261122986
299.33100,-4.092289432
299.33150,-3.481900616
299.33200,-0.7351509471
299.33250,0.4856266837
299.33300,-0.7351509471
299.33350,-3.176706209
299.33400,-3.787095024
299.33450,-2.261122986
299.33500,-1.65073417
299.33550,-1.65073417
299.33600,-0.7351509471
299.33650,1.096015499
299.33700,2.621987538
299.33750,2.621987538
299.33800,1.401209907
299.33850,-1.040345355
299.33900,-4.702678247
299.33950,-6.839039101
299.34000,-5.923455878
299.34050,-3.481900616
299.34100,-2.261122986
299.34150,-1.955928578
299.34200,-0.4299565394
299.34250,2.011598722
299.34300,3.232376353
299.34350,2.621987538
299.34400,2.621987538
299.34450,2.927181945
299.34500,2.011598722
299.34550,0.7908210914
299.34600,2.31679313
299.34650,5.063542799
299.34700,2.621987538
299.34750,-5.61826147
299.34800,-12.63773285
299.34850,-12.02734403
299.34900,-5.923455878
299.34950,-1.955928578
299.35000,-1.65073417
299.35050,-2.566317393
299.35100,-1.65073417
299.35150,-0.1247621317
299.35200,1.401209907
299.35250,1.706404315
299.35300,0.180432276
299.35350,-1.345539762
299.35400,-1.955928578
299.35450,-0.1247621317
299.35500,1.706404315
299.35550,2.927181945
299.35600,2.927181945
299.35650,2.011598722
299.35700,-0.1247621317
299.35750,-0.4299565394
299.35800,2.621987538
299.35850,7.810292469
299.35900,9.946653322
299.35950,6.894709245
299.36000,2.621987538
299.36050,1.401209907
299.36100,1.706404315
299.36150,0.7908210914
299.36200,-1.345539762
299.36250,-4.092289432
299.36300,-6.839039101
299.36350,-8.975399955
299.36400,-8.975399955
299.36450,-6.533844693
299.36500,-5.007872655
299.36550,-5.61826147
299.36600,-5.313067063
299.36650,-2.261122986
299.36700,0.4856266837
299.36750,1.096015499
299.36800,2.31679313
299.36850,8.115486876
299.36900,15.44015266
299.36950,18.79729115
299.37000,17.27131911
299.37050,13.91418062
299.37100,10.86223655
299.37150,6.28432043
299.37200,1.401209907
299.37250,-1.040345355
299.37300,-1.65073417
299.37350,-2.261122986
299.37400,-4.702678247
299.37450,-7.144233509
299.37500,-7.144233509
299.37550,-4.092289432
299.37600,0.180432276
299.37650,3.232376353
299.37700,2.927181945
299.37750,0.7908210914
299.37800,0.7908210914
299.37850,3.842765168
299.37900,7.505098061
299.37950,9.641458915
299.38000,10.86223655
299.38050,12.08301418
299.38100,11.77781977
299.38150,8.420681284
299.38200,3.842765168
299.38250,1.096015499
299.38300,0.180432276
299.38350,-0.1247621317
299.38400,-1.65073417
299.38450,-3.176706209
299.38500,-3.176706209
299.38550,-1.040345355
299.38600,1.401209907
299.38650,2.621987538
299.38700,2.31679313
299.38750,2.621987538
299.38800,4.758348392
299.38850,7.199903653
299.38900,7.505098061
299.38950,5.673931615
299.39000,2.621987538
299.39050,-2.871511801
299.39100,-12.94292726
299.39150,-23.62473152
299.39200,-27.89745323
299.39250,-23.62473152
299.39300,-16.91045456
299.39350,-14.46889929
299.39400,-16.91045456
299.39450,-18.43642659
299.39500,-15.07928811
299.39550,-8.36501114
299.39600,-1.955928578
299.39650,1.096015499
299.39700,1.096015499
299.39750,-0.7351509471
299.39800,-3.787095024
299.39850,-6.533844693
299.39900,-7.449427917
299.39950,-6.228650286
299.40000,-5.007872655
299.40050,-4.702678247
299.40100,-3.787095024
299.40150,-0.1247621317
299.40200,4.758348392
299.40250,6.894709245
299.40300,4.453153984
299.40350,0.4856266837
299.40400,-0.7351509471
299.40450,-0.1247621317
299.40500,0.4856266837
299.40550,-0.1247621317
299.40600,-1.040345355
299.40650,-1.040345355
299.40700,-0.1247621317
299.40750,0.180432276
299.40800,-0.4299565394
299.40850,-1.955928578
299.40900,-2.566317393
299.40950,-1.345539762
299.41000,0.180432276
299.41050,1.401209907
299.41100,1.096015499
299.41150,1.096015499
299.41200,1.706404315
299.41250,2.621987538
299.41300,2.927181945
299.41350,2.927181945
299.41400,3.232376353
299.41450,2.927181945
299.41500,2.011598722
299.41550,1.706404315
299.41600,2.31679313
299.41650,3.842765168
299.41700,4.453153984
299.41750,3.842765168
299.41800,2.927181945
299.41850,1.706404315
299.41900,0.4856266837
299.41950,-0.4299565394
299.42000,-0.1247621317
299.42050,0.7908210914
299.42100,2.011598722
299.42150,2.011598722
299.42200,2.011598722
299.42250,2.621987538
299.42300,1.706404315
299.42350,-2.566317393
299.42400,-8.975399955
299.42450,-12.02734403
299.42500,-8.975399955
299.42550,-2.871511801
299.42600,2.31679313
299.42650,5.368737207
299.42700,6.589514838
299.42750,5.368737207
299.42800,2.927181945
299.42850,1.096015499
299.42900,2.621987538
299.42950,5.673931615
299.43000,6.894709245
299.43050,4.453153984
299.43100,0.4856266837
299.43150,-1.040345355
299.43200,-0.4299565394
299.43250,-0.1247621317
299.43300,-1.345539762
299.43350,-5.313067063
299.43400,-9.890983178
299.43450,-12.63773285
299.43500,-12.33253844
299.43550,-10.50137199
299.43600,-10.8065664
299.43650,-12.33253844
299.43700,-10.50137199
299.43750,-4.39748384
299.43800,0.7908210914
299.43850,0.4856266837
299.43900,-2.261122986
299.43950,-3.176706209
299.44000,-2.566317393
299.44050,-4.39748384
299.44100,-6.533844693
299.44150,-1.955928578
299.44200,9.336264507
299.44250,18.49209674
299.44300,17.27131911
299.44350,9.031070099
299.44400,2.011598722
299.44450,-1.040345355
299.44500,-4.092289432
299.44550,-7.754622324
299.44600,-8.059816732
299.44650,-5.007872655
299.44700,-1.65073417
299.44750,-0.1247621317
299.44800,0.7908210914
299.44850,3.232376353
299.44900,6.28432043
299.44950,8.420681284
299.45000,9.336264507
299.45050,8.115486876
299.45100,5.063542799
299.45150,1.401209907
299.45200,0.7908210914
299.45250,2.927181945
299.45300,5.673931615
299.45350,6.894709245
299.45400,6.589514838
299.45450,6.894709245
299.45500,7.505098061
299.45550,6.589514838
299.45600,4.147959576
299.45650,1.706404315
299.45700,1.096015499
299.45750,2.31679313
299.45800,3.537570761
299.45850,3.842765168
299.45900,2.31679313
299.45950,1.096015499
299.46000,1.096015499
299.46050,2.011598722
299.46100,2.927181945
299.46150,3.537570761
299.46200,3.842765168
299.46250,3.232376353
299.46300,1.096015499
299.46350,-0.4299565394
299.46400,-1.040345355
299.46450,-0.7351509471
299.46500,-1.65073417
299.46550,-2.871511801
299.46600,-2.261122986
299.46650,-0.1247621317
299.46700,0.7908210914
299.46750,0.4856266837
299.46800,0.7908210914
299.46850,2.621987538
299.46900,2.621987538
299.46950,-1.65073417
299.47000,-9.280594363
299.47050,-14.7740937
299.47100,-14.46889929
299.47150,-9.280594363
299.47200,-3.787095024
299.47250,-0.4299565394
299.47300,0.4856266837
299.47350,2.621987538
299.47400,6.894709245
299.47450,10.86223655
299.47500,11.16743095
299.47550,7.505098061
299.47600,2.31679313
299.47650,-1.345539762
299.47700,-3.481900616
299.47750,-4.092289432
299.47800,-3.787095024
299.47850,-2.871511801
299.47900,-2.261122986
299.47950,-1.955928578
299.48000,-0.7351509471
299.48050,2.011598722
299.48100,4.758348392
299.48150,5.368737207
299.48200,5.063542799
299.48250,4.758348392
299.48300,3.842765168
299.48350,1.706404315
299.48400,0.7908210914
299.48450,2.927181945
299.48500,7.810292469
299.48550,11.77781977
299.48600,12.08301418
299.48650,10.25184773
299.48700,7.810292469
299.48750,5.979126022
299.48800,5.368737207
299.48850,5.063542799
299.48900,4.453153984
299.48950,2.31679313
299.49000,-0.1247621317
299.49050,-1.955928578
299.49100,-1.955928578
299.49150,-2.261122986
299.49200,-3.481900616
299.49250,-6.228650286
299.49300,-10.8065664
299.49350,-16.60526015
299.49400,-20.87798186
299.49450,-19.35200982
299.49500,-13.85851048
299.49550,-8.975399955
299.49600,-7.144233509
299.49650,-6.228650286
299.49700,-3.787095024
299.49750,-1.345539762
299.49800,-0.7351509471
299.49850,-0.7351509471
299.49900,1.401209907
299.49950,5.673931615
299.50000,8.420681284
299.50050,8.725875692
299.50100,7.810292469
299.50150,6.894709245
299.50200,4.147959576
299.50250,-0.4299565394
299.50300,-5.313067063
299.50350,-8.059816732
299.50400,-8.059816732
299.50450,-7.144233509
299.50500,-5.61826147
299.50550,-4.39748384
299.50600,-4.092289432
299.50650,-4.702678247
299.50700,-5.007872655
299.50750,-5.007872655
299.50800,-5.313067063
299.50850,-5.923455878
299.50900,-5.923455878
299.50950,-5.923455878
299.51000,-5.923455878
299.51050,-5.007872655
299.51100,-1.955928578
299.51150,-0.1247621317
299.51200,-1.345539762
299.51250,-5.007872655
299.51300,-5.923455878
299.51350,-3.481900616
299.51400,-0.4299565394
299.51450,2.621987538
299.51500,10.86223655
299.51550,23.98559608
299.51600,33.44662272
299.51650,34.36220594
299.51700,29.17390101
299.51750,23.07001285
299.51800,14.52456944
299.51850,0.7908210914
299.51900,-11.41695522
299.51950,-13.55331607
299.52000,-5.313067063
299.52050,4.453153984
299.52100,8.725875692
299.52150,7.810292469
299.52200,4.453153984
299.52250,0.4856266837
299.52300,-1.955928578
299.52350,-2.261122986
299.52400,-1.040345355
299.52450,-1.040345355
299.52500,-3.176706209
299.52550,-6.839039101
299.52600,-11.41695522
299.52650,-15.68967692
299.52700,-18.13123219
299.52750,-17.21564896
299.52800,-14.16370489
299.52850,-11.11176081
299.52900,-8.36501114
299.52950,-6.228650286
299.53000,-5.923455878
299.53050,-7.449427917
299.53100,-8.670205547
299.53150,-6.839039101
299.53200,-3.176706209
299.53250,-1.345539762
299.53300,-2.566317393
299.53350,-4.092289432
299.53400,-2.871511801
299.53450,-0.1247621317
299.53500,1.401209907
299.53550,0.7908210914
299.53600,-1.040345355
299.53650,-2.566317393
299.53700,-3.176706209
299.53750,-3.176706209
299.53800,-2.871511801
299.53850,-1.955928578
299.53900,-0.4299565394
299.53950,0.7908210914
299.54000,0.7908210914
299.54050,-0.1247621317
299.54100,-0.1247621317
299.54150,0.4856266837
299.54200,2.011598722
299.54250,0.4856266837
299.54300,-4.39748384
299.54350,-10.50137199
299.54400,-13.55331607
299.54450,-12.94292726
299.54500,-12.02734403
299.54550,-11.41695522
299.54600,-7.449427917
299.54650,-0.1247621317
299.54700,5.368737207
299.54750,5.673931615
299.54800,7.810292469
299.54850,19.40767996
299.54900,34.66740035
299.54950,38.02453883
299.55000,25.81676252
299.55050,11.77781977
299.55100,6.894709245
299.55150,5.979126022
299.55200,-0.4299565394
299.55250,-10.19617759
299.55300,-13.24812166
299.55350,-9.890983178
299.55400,-8.975399955
299.55450,-12.02734403
299.55500,-11.72214962
299.55550,-3.787095024
299.55600,3.537570761
299.55650,4.453153984
299.55700,-0.1247621317
299.55750,-2.261122986
299.55800,-0.7351509471
299.55850,1.706404315
299.55900,2.31679313
299.55950,1.096015499
299.56000,-0.7351509471
299.56050,-2.566317393
299.56100,-2.566317393
299.56150,-0.4299565394
299.56200,1.706404315
299.56250,2.927181945
299.56300,2.927181945
299.56350,3.232376353
299.56400,3.842765168
299.56450,3.537570761
299.56500,2.621987538
299.56550,1.096015499
299.56600,0.180432276
