"type","name","time_units","begin_time","frequency","count","units"
"signal","Ultium EMG-BRACHIORAD. RT","s",296.92000,2000,22000,"uV"

"time","value"
296.92000,3.167859994
296.92050,0.115915917
296.92100,-3.546416975
296.92150,-5.377583422
296.92200,-5.377583422
296.92250,-4.767194606
296.92300,-4.156805791
296.92350,-2.93602816
296.92400,-1.715250529
296.92450,-1.410056122
296.92500,-2.325639345
296.92550,-3.546416975
296.92600,-5.072389014
296.92650,-4.462000199
296.92700,-1.104861714
296.92750,3.167859994
296.92800,8.050970517
296.92850,13.84966426
296.92900,23.61588531
296.92950,34.90807839
296.93000,39.1808001
296.93050,32.16132873
296.93100,19.3431636
296.93150,8.96655374
296.93200,4.388637625
296.93250,3.473054402
296.93300,2.252276771
296.93350,0.4211103247
296.93400,-2.325639345
296.93450,-5.682777829
296.93500,-7.208749868
296.93550,-5.377583422
296.93600,-2.93602816
296.93650,-1.104861714
296.93700,0.115915917
296.93750,1.641887955
296.93800,2.862665586
296.93850,2.557471179
296.93900,1.336693548
296.93950,1.947082363
296.94000,4.693832032
296.94050,6.524998479
296.94100,5.914609663
296.94150,4.693832032
296.94200,4.083443217
296.94250,3.167859994
296.94300,1.336693548
296.94350,-1.410056122
296.94400,-5.072389014
296.94450,-9.650305129
296.94500,-14.53341565
296.94550,-17.58535973
296.94600,-18.19574855
296.94650,-16.97497091
296.94700,-14.22822125
296.94750,-11.17627717
296.94800,-8.429527499
296.94850,-6.598361052
296.94900,-5.072389014
296.94950,-2.630833752
296.95000,-1.104861714
296.95050,-0.7996673061
296.95100,-1.104861714
296.95150,-1.104861714
296.95200,-0.1892784907
296.95250,0.4211103247
296.95300,0.4211103247
296.95350,0.115915917
296.95400,-0.7996673061
296.95450,-1.410056122
296.95500,-2.020444937
296.95550,-2.325639345
296.95600,-2.630833752
296.95650,-2.325639345
296.95700,-0.7996673061
296.95750,1.336693548
296.95800,3.167859994
296.95850,3.778248809
296.95900,3.778248809
296.95950,4.083443217
296.96000,4.083443217
296.96050,4.388637625
296.96100,5.304220848
296.96150,5.609415256
296.96200,4.693832032
296.96250,2.862665586
296.96300,1.336693548
296.96350,0.4211103247
296.96400,-0.7996673061
296.96450,-2.325639345
296.96500,-3.546416975
296.96550,-4.462000199
296.96600,-6.90355546
296.96650,-9.955499537
296.96700,-10.87108276
296.96750,-8.734721906
296.96800,-5.377583422
296.96850,-2.630833752
296.96900,-0.1892784907
296.96950,2.557471179
296.97000,5.914609663
296.97050,9.271748148
296.97100,12.62888663
296.97150,14.46005308
296.97200,12.32369223
296.97250,5.609415256
296.97300,-0.7996673061
296.97350,-3.241222568
296.97400,-1.715250529
296.97450,0.4211103247
296.97500,2.252276771
296.97550,3.167859994
296.97600,2.862665586
296.97650,0.7263047324
296.97700,-1.410056122
296.97750,-1.715250529
296.97800,0.7263047324
296.97850,4.083443217
296.97900,5.914609663
296.97950,4.99902644
296.98000,1.03149914
296.98050,-4.462000199
296.98100,-11.17627717
296.98150,-16.66977651
296.98200,-18.80613736
296.98250,-15.44899888
296.98300,-7.208749868
296.98350,0.7263047324
296.98400,4.388637625
296.98450,4.388637625
296.98500,4.388637625
296.98550,5.609415256
296.98600,4.388637625
296.98650,-0.1892784907
296.98700,-5.072389014
296.98750,-7.208749868
296.98800,-8.429527499
296.98850,-9.345110722
296.98900,-4.462000199
296.98950,7.135387294
296.99000,18.12238597
296.99050,17.81719156
296.99100,9.271748148
296.99150,4.083443217
296.99200,8.356164925
296.99250,14.15485867
296.99300,13.23927545
296.99350,6.219804071
296.99400,-0.1892784907
296.99450,-2.93602816
296.99500,-2.93602816
296.99550,-2.325639345
296.99600,-3.546416975
296.99650,-6.90355546
296.99700,-9.039916314
296.99750,-7.819138683
296.99800,-2.93602816
296.99850,1.947082363
296.99900,5.914609663
296.99950,8.96655374
297.00000,10.49252578
297.00050,10.18733137
297.00100,8.356164925
297.00150,7.74577611
297.00200,8.050970517
297.00250,6.219804071
297.00300,2.252276771
297.00350,-2.020444937
297.00400,-5.072389014
297.00450,-7.513944276
297.00500,-8.429527499
297.00550,-7.208749868
297.00600,-4.767194606
297.00650,-3.851611383
297.00700,-4.156805791
297.00750,-4.156805791
297.00800,-3.241222568
297.00850,-2.93602816
297.00900,-4.156805791
297.00950,-6.598361052
297.01000,-9.955499537
297.01050,-15.44899888
297.01100,-20.63730381
297.01150,-22.16327585
297.01200,-20.94249821
297.01250,-22.16327585
297.01300,-24.60483111
297.01350,-19.11133177
297.01400,-0.7996673061
297.01450,20.86913564
297.01500,33.68730076
297.01550,33.38210636
297.01600,27.2782182
297.01650,21.17433005
297.01700,14.76524749
297.01750,7.440581702
297.01800,2.557471179
297.01850,2.557471179
297.01900,4.693832032
297.01950,5.304220848
297.02000,3.473054402
297.02050,1.947082363
297.02100,2.862665586
297.02150,5.914609663
297.02200,11.10291459
297.02250,15.68083071
297.02300,15.68083071
297.02350,9.882136963
297.02400,2.252276771
297.02450,-1.715250529
297.02500,-2.630833752
297.02550,-3.241222568
297.02600,-5.682777829
297.02650,-7.513944276
297.02700,-6.90355546
297.02750,-3.851611383
297.02800,-0.4944728984
297.02850,1.03149914
297.02900,1.336693548
297.02950,0.7263047324
297.03000,0.115915917
297.03050,-0.7996673061
297.03100,-1.410056122
297.03150,-2.325639345
297.03200,-2.93602816
297.03250,-3.851611383
297.03300,-4.156805791
297.03350,-4.462000199
297.03400,-4.767194606
297.03450,-5.072389014
297.03500,-5.682777829
297.03550,-6.598361052
297.03600,-7.513944276
297.03650,-7.819138683
297.03700,-7.208749868
297.03750,-5.682777829
297.03800,-4.462000199
297.03850,-2.93602816
297.03900,-1.715250529
297.03950,-0.7996673061
297.04000,-0.7996673061
297.04050,-1.410056122
297.04100,-2.325639345
297.04150,-3.241222568
297.04200,-4.156805791
297.04250,-3.241222568
297.04300,-0.1892784907
297.04350,2.862665586
297.04400,3.778248809
297.04450,2.557471179
297.04500,2.252276771
297.04550,4.083443217
297.04600,4.99902644
297.04650,3.778248809
297.04700,1.947082363
297.04750,2.252276771
297.04800,3.778248809
297.04850,4.99902644
297.04900,4.693832032
297.04950,3.473054402
297.05000,1.641887955
297.05050,0.115915917
297.05100,-1.410056122
297.05150,-1.715250529
297.05200,-1.715250529
297.05250,-1.715250529
297.05300,-2.325639345
297.05350,-2.93602816
297.05400,-4.156805791
297.05450,-4.767194606
297.05500,-4.462000199
297.05550,-2.93602816
297.05600,-2.325639345
297.05650,-3.546416975
297.05700,-4.462000199
297.05750,-4.156805791
297.05800,-2.630833752
297.05850,-2.325639345
297.05900,-3.546416975
297.05950,-5.072389014
297.06000,-5.377583422
297.06050,-4.767194606
297.06100,-3.241222568
297.06150,-1.715250529
297.06200,0.115915917
297.06250,2.557471179
297.06300,6.219804071
297.06350,9.882136963
297.06400,11.408109
297.06450,9.576942556
297.06500,4.693832032
297.06550,-0.1892784907
297.06600,-4.156805791
297.06650,-4.767194606
297.06700,-1.410056122
297.06750,3.167859994
297.06800,6.219804071
297.06850,5.609415256
297.06900,3.167859994
297.06950,1.03149914
297.07000,0.4211103247
297.07050,-0.1892784907
297.07100,-1.410056122
297.07150,-2.020444937
297.07200,-1.410056122
297.07250,0.115915917
297.07300,2.252276771
297.07350,4.083443217
297.07400,4.083443217
297.07450,1.336693548
297.07500,-0.7996673061
297.07550,-1.715250529
297.07600,-1.715250529
297.07650,-3.241222568
297.07700,-6.598361052
297.07750,-9.955499537
297.07800,-12.09186039
297.07850,-12.3970548
297.07900,-13.00744361
297.07950,-13.92302684
297.08000,-13.61783243
297.08050,-7.819138683
297.08100,2.557471179
297.08150,12.62888663
297.08200,15.98602512
297.08250,11.71330341
297.08300,5.914609663
297.08350,4.388637625
297.08400,6.524998479
297.08450,8.356164925
297.08500,7.74577611
297.08550,5.304220848
297.08600,4.083443217
297.08650,4.388637625
297.08700,5.304220848
297.08750,5.609415256
297.08800,4.693832032
297.08850,3.167859994
297.08900,2.557471179
297.08950,3.167859994
297.09000,4.388637625
297.09050,4.99902644
297.09100,4.693832032
297.09150,3.473054402
297.09200,1.641887955
297.09250,0.115915917
297.09300,-0.1892784907
297.09350,-0.7996673061
297.09400,-2.020444937
297.09450,-2.325639345
297.09500,-0.4944728984
297.09550,1.03149914
297.09600,0.115915917
297.09650,-3.241222568
297.09700,-5.987972237
297.09750,-5.987972237
297.09800,-4.462000199
297.09850,-3.241222568
297.09900,-2.020444937
297.09950,-1.410056122
297.10000,-2.020444937
297.10050,-3.851611383
297.10100,-4.462000199
297.10150,-2.630833752
297.10200,-1.715250529
297.10250,-2.630833752
297.10300,-3.241222568
297.10350,0.4211103247
297.10400,7.135387294
297.10450,10.79772019
297.10500,6.524998479
297.10550,-2.020444937
297.10600,-9.039916314
297.10650,-10.87108276
297.10700,-8.429527499
297.10750,-5.682777829
297.10800,-5.377583422
297.10850,-5.682777829
297.10900,-5.072389014
297.10950,-3.851611383
297.11000,-2.93602816
297.11050,-1.715250529
297.11100,0.115915917
297.11150,1.641887955
297.11200,1.03149914
297.11250,-0.4944728984
297.11300,-1.410056122
297.11350,0.4211103247
297.11400,3.778248809
297.11450,6.830192886
297.11500,8.96655374
297.11550,8.050970517
297.11600,3.778248809
297.11650,-0.4944728984
297.11700,-1.715250529
297.11750,-0.4944728984
297.11800,-2.020444937
297.11850,-8.124333091
297.11900,-13.61783243
297.11950,-14.22822125
297.12000,-11.78666598
297.12050,-11.48147158
297.12100,-13.61783243
297.12150,-12.3970548
297.12200,-3.546416975
297.12250,10.49252578
297.12300,22.39510768
297.12350,26.05744057
297.12400,20.56394123
297.12450,12.62888663
297.12500,8.661359333
297.12550,9.576942556
297.12600,10.79772019
297.12650,8.96655374
297.12700,7.135387294
297.12750,8.96655374
297.12800,12.93408104
297.12850,13.84966426
297.12900,10.18733137
297.12950,6.219804071
297.13000,3.778248809
297.13050,2.557471179
297.13100,2.252276771
297.13150,3.167859994
297.13200,4.99902644
297.13250,5.304220848
297.13300,4.388637625
297.13350,4.083443217
297.13400,4.388637625
297.13450,4.693832032
297.13500,3.778248809
297.13550,2.252276771
297.13600,0.7263047324
297.13650,0.115915917
297.13700,0.4211103247
297.13750,1.947082363
297.13800,2.252276771
297.13850,0.7263047324
297.13900,-1.410056122
297.13950,-2.325639345
297.14000,-2.020444937
297.14050,-2.020444937
297.14100,-3.546416975
297.14150,-4.462000199
297.14200,-4.156805791
297.14250,-3.241222568
297.14300,-2.93602816
297.14350,-2.325639345
297.14400,-0.4944728984
297.14450,1.336693548
297.14500,3.167859994
297.14550,3.473054402
297.14600,1.947082363
297.14650,0.115915917
297.14700,-0.7996673061
297.14750,-0.7996673061
297.14800,-0.4944728984
297.14850,-0.7996673061
297.14900,-0.7996673061
297.14950,0.115915917
297.15000,1.336693548
297.15050,1.641887955
297.15100,0.115915917
297.15150,-2.630833752
297.15200,-8.124333091
297.15250,-14.83861006
297.15300,-19.72172058
297.15350,-20.3321094
297.15400,-16.97497091
297.15450,-12.3970548
297.15500,-8.124333091
297.15550,-5.072389014
297.15600,-2.93602816
297.15650,0.115915917
297.15700,5.914609663
297.15750,13.23927545
297.15800,16.90160834
297.15850,15.07044189
297.15900,9.882136963
297.15950,6.524998479
297.16000,6.830192886
297.16050,8.356164925
297.16100,8.661359333
297.16150,6.830192886
297.16200,4.99902644
297.16250,3.473054402
297.16300,1.947082363
297.16350,-0.7996673061
297.16400,-3.851611383
297.16450,-4.462000199
297.16500,-2.93602816
297.16550,-1.715250529
297.16600,-1.715250529
297.16650,-2.325639345
297.16700,-1.104861714
297.16750,0.4211103247
297.16800,0.4211103247
297.16850,-0.7996673061
297.16900,-2.020444937
297.16950,-1.715250529
297.17000,-0.7996673061
297.17050,-1.104861714
297.17100,-1.410056122
297.17150,-1.410056122
297.17200,-1.104861714
297.17250,-1.715250529
297.17300,-3.546416975
297.17350,-5.072389014
297.17400,-5.072389014
297.17450,-4.462000199
297.17500,-5.377583422
297.17550,-6.598361052
297.17600,-7.208749868
297.17650,-6.598361052
297.17700,-6.598361052
297.17750,-6.598361052
297.17800,-5.987972237
297.17850,-4.156805791
297.17900,-4.156805791
297.17950,-6.598361052
297.18000,-6.90355546
297.18050,0.115915917
297.18100,12.62888663
297.18150,23.3106909
297.18200,26.05744057
297.18250,22.39510768
297.18300,15.98602512
297.18350,9.882136963
297.18400,4.083443217
297.18450,0.115915917
297.18500,-2.020444937
297.18550,-4.462000199
297.18600,-8.124333091
297.18650,-11.48147158
297.18700,-12.70224921
297.18750,-11.48147158
297.18800,-9.650305129
297.18850,-6.90355546
297.18900,-3.546416975
297.18950,-1.104861714
297.19000,0.115915917
297.19050,-0.4944728984
297.19100,-1.104861714
297.19150,-1.715250529
297.19200,-2.020444937
297.19250,-1.715250529
297.19300,-1.410056122
297.19350,-1.104861714
297.19400,-1.410056122
297.19450,-1.104861714
297.19500,-0.4944728984
297.19550,0.4211103247
297.19600,1.641887955
297.19650,1.947082363
297.19700,1.03149914
297.19750,-0.7996673061
297.19800,-2.020444937
297.19850,-1.410056122
297.19900,0.115915917
297.19950,1.641887955
297.20000,2.252276771
297.20050,2.252276771
297.20100,1.03149914
297.20150,-1.715250529
297.20200,-5.682777829
297.20250,-8.429527499
297.20300,-8.734721906
297.20350,-9.039916314
297.20400,-9.650305129
297.20450,-9.039916314
297.20500,-5.682777829
297.20550,-1.410056122
297.20600,1.03149914
297.20650,1.641887955
297.20700,1.03149914
297.20750,0.7263047324
297.20800,0.115915917
297.20850,-1.104861714
297.20900,-2.93602816
297.20950,-3.851611383
297.21000,-4.156805791
297.21050,-4.156805791
297.21100,-3.851611383
297.21150,-2.93602816
297.21200,-1.715250529
297.21250,-0.1892784907
297.21300,0.115915917
297.21350,-0.4944728984
297.21400,-1.410056122
297.21450,-1.715250529
297.21500,-1.410056122
297.21550,-0.4944728984
297.21600,0.115915917
297.21650,0.115915917
297.21700,0.115915917
297.21750,-0.4944728984
297.21800,-0.1892784907
297.21850,1.641887955
297.21900,3.778248809
297.21950,3.778248809
297.22000,1.336693548
297.22050,-0.7996673061
297.22100,-0.1892784907
297.22150,2.862665586
297.22200,6.524998479
297.22250,9.271748148
297.22300,10.49252578
297.22350,11.10291459
297.22400,11.10291459
297.22450,11.408109
297.22500,11.408109
297.22550,9.882136963
297.22600,6.830192886
297.22650,3.473054402
297.22700,1.947082363
297.22750,1.947082363
297.22800,1.641887955
297.22850,-0.4944728984
297.22900,-3.851611383
297.22950,-6.598361052
297.23000,-7.819138683
297.23050,-7.819138683
297.23100,-5.987972237
297.23150,-3.546416975
297.23200,-1.410056122
297.23250,0.115915917
297.23300,3.473054402
297.23350,7.135387294
297.23400,8.661359333
297.23450,6.219804071
297.23500,1.03149914
297.23550,-2.93602816
297.23600,-4.767194606
297.23650,-4.462000199
297.23700,-3.546416975
297.23750,-3.851611383
297.23800,-4.767194606
297.23850,-3.546416975
297.23900,0.115915917
297.23950,3.778248809
297.24000,4.99902644
297.24050,4.083443217
297.24100,3.778248809
297.24150,5.304220848
297.24200,6.830192886
297.24250,6.219804071
297.24300,5.304220848
297.24350,5.304220848
297.24400,6.219804071
297.24450,6.830192886
297.24500,7.440581702
297.24550,7.440581702
297.24600,6.219804071
297.24650,5.304220848
297.24700,5.609415256
297.24750,5.914609663
297.24800,4.083443217
297.24850,1.03149914
297.24900,1.336693548
297.24950,4.693832032
297.25000,6.830192886
297.25050,6.524998479
297.25100,7.440581702
297.25150,9.576942556
297.25200,8.661359333
297.25250,0.7263047324
297.25300,-8.734721906
297.25350,-13.00744361
297.25400,-11.17627717
297.25450,-8.124333091
297.25500,-7.208749868
297.25550,-6.90355546
297.25600,-6.90355546
297.25650,-7.208749868
297.25700,-7.513944276
297.25750,-6.293166645
297.25800,-4.767194606
297.25850,-3.851611383
297.25900,-3.546416975
297.25950,-2.630833752
297.26000,-1.410056122
297.26050,-0.4944728984
297.26100,0.115915917
297.26150,1.03149914
297.26200,2.557471179
297.26250,3.778248809
297.26300,4.99902644
297.26350,5.914609663
297.26400,4.693832032
297.26450,2.252276771
297.26500,0.4211103247
297.26550,0.7263047324
297.26600,1.641887955
297.26650,0.7263047324
297.26700,-1.104861714
297.26750,-2.93602816
297.26800,-4.462000199
297.26850,-5.377583422
297.26900,-5.682777829
297.26950,-5.072389014
297.27000,-5.987972237
297.27050,-7.208749868
297.27100,-6.90355546
297.27150,-4.767194606
297.27200,-3.546416975
297.27250,-4.462000199
297.27300,-5.377583422
297.27350,-4.462000199
297.27400,-3.241222568
297.27450,-2.93602816
297.27500,-2.325639345
297.27550,-0.7996673061
297.27600,0.115915917
297.27650,0.115915917
297.27700,0.115915917
297.27750,1.641887955
297.27800,1.03149914
297.27850,-2.630833752
297.27900,-5.987972237
297.27950,-6.598361052
297.28000,-6.293166645
297.28050,-8.429527499
297.28100,-10.56588835
297.28150,-9.345110722
297.28200,-7.208749868
297.28250,-6.90355546
297.28300,-4.767194606
297.28350,4.693832032
297.28400,18.73277479
297.28450,27.2782182
297.28500,26.36263498
297.28550,21.47952446
297.28600,19.64835801
297.28650,20.25874683
297.28700,20.86913564
297.28750,19.95355242
297.28800,18.42758038
297.28850,14.76524749
297.28900,8.050970517
297.28950,0.7263047324
297.29000,-3.241222568
297.29050,-3.546416975
297.29100,-2.020444937
297.29150,-2.020444937
297.29200,-4.462000199
297.29250,-8.124333091
297.29300,-11.78666598
297.29350,-15.14380447
297.29400,-20.63730381
297.29450,-27.35158078
297.29500,-30.09833045
297.29550,-24.60483111
297.29600,-12.70224921
297.29650,-2.325639345
297.29700,2.862665586
297.29750,6.830192886
297.29800,12.32369223
297.29850,18.42758038
297.29900,21.17433005
297.29950,18.73277479
297.30000,14.76524749
297.30050,12.32369223
297.30100,12.93408104
297.30150,14.76524749
297.30200,14.46005308
297.30250,12.01849782
297.30300,9.271748148
297.30350,7.440581702
297.30400,4.083443217
297.30450,-3.241222568
297.30500,-13.00744361
297.30550,-17.58535973
297.30600,-13.61783243
297.30650,-7.819138683
297.30700,-7.208749868
297.30750,-11.48147158
297.30800,-13.92302684
297.30850,-11.78666598
297.30900,-8.124333091
297.30950,-5.072389014
297.31000,-1.715250529
297.31050,2.557471179
297.31100,6.219804071
297.31150,6.830192886
297.31200,5.609415256
297.31250,4.693832032
297.31300,4.388637625
297.31350,2.862665586
297.31400,0.7263047324
297.31450,-1.715250529
297.31500,-4.156805791
297.31550,-5.377583422
297.31600,-4.462000199
297.31650,-2.325639345
297.31700,-0.4944728984
297.31750,-0.4944728984
297.31800,-1.104861714
297.31850,-1.715250529
297.31900,-2.630833752
297.31950,-3.546416975
297.32000,-3.241222568
297.32050,-1.715250529
297.32100,-0.7996673061
297.32150,-0.7996673061
297.32200,-0.4944728984
297.32250,0.7263047324
297.32300,2.252276771
297.32350,3.473054402
297.32400,4.99902644
297.32450,6.830192886
297.32500,5.609415256
297.32550,1.03149914
297.32600,-2.630833752
297.32650,-2.93602816
297.32700,-0.4944728984
297.32750,0.4211103247
297.32800,-0.4944728984
297.32850,-1.410056122
297.32900,-0.7996673061
297.32950,-0.1892784907
297.33000,-1.104861714
297.33050,-2.325639345
297.33100,-2.93602816
297.33150,-2.93602816
297.33200,-2.325639345
297.33250,-1.410056122
297.33300,-0.7996673061
297.33350,-1.410056122
297.33400,-1.410056122
297.33450,-1.104861714
297.33500,-0.7996673061
297.33550,-1.410056122
297.33600,-2.630833752
297.33650,-2.93602816
297.33700,-2.630833752
297.33750,-2.325639345
297.33800,-3.546416975
297.33850,-5.682777829
297.33900,-6.293166645
297.33950,-5.682777829
297.34000,-4.462000199
297.34050,-3.851611383
297.34100,-2.325639345
297.34150,0.4211103247
297.34200,4.083443217
297.34250,4.99902644
297.34300,2.862665586
297.34350,1.03149914
297.34400,2.557471179
297.34450,4.693832032
297.34500,3.167859994
297.34550,-0.1892784907
297.34600,-0.4944728984
297.34650,3.473054402
297.34700,7.135387294
297.34750,6.524998479
297.34800,2.557471179
297.34850,-1.410056122
297.34900,-5.377583422
297.34950,-8.734721906
297.35000,-10.26069394
297.35050,-9.955499537
297.35100,-8.734721906
297.35150,-8.124333091
297.35200,-6.90355546
297.35250,-5.987972237
297.35300,-7.819138683
297.35350,-11.78666598
297.35400,-13.61783243
297.35450,-12.3970548
297.35500,-11.78666598
297.35550,-12.3970548
297.35600,-8.429527499
297.35650,4.083443217
297.35700,19.03796919
297.35750,26.66782939
297.35800,25.14185735
297.35850,21.17433005
297.35900,19.64835801
297.35950,20.25874683
297.36000,20.25874683
297.36050,18.73277479
297.36100,15.98602512
297.36150,12.32369223
297.36200,8.356164925
297.36250,5.914609663
297.36300,4.99902644
297.36350,4.388637625
297.36400,4.083443217
297.36450,4.693832032
297.36500,4.083443217
297.36550,0.115915917
297.36600,-5.682777829
297.36650,-9.955499537
297.36700,-9.650305129
297.36750,-5.987972237
297.36800,-2.020444937
297.36850,0.4211103247
297.36900,1.947082363
297.36950,3.167859994
297.37000,3.778248809
297.37050,3.167859994
297.37100,1.641887955
297.37150,0.7263047324
297.37200,0.115915917
297.37250,-0.1892784907
297.37300,-0.4944728984
297.37350,0.4211103247
297.37400,2.252276771
297.37450,2.557471179
297.37500,-0.7996673061
297.37550,-6.598361052
297.37600,-10.56588835
297.37650,-12.3970548
297.37700,-13.31263802
297.37750,-13.61783243
297.37800,-12.3970548
297.37850,-8.734721906
297.37900,-4.767194606
297.37950,-2.630833752
297.38000,-2.93602816
297.38050,-4.462000199
297.38100,-6.293166645
297.38150,-7.513944276
297.38200,-8.124333091
297.38250,-7.819138683
297.38300,-5.987972237
297.38350,-5.072389014
297.38400,-8.124333091
297.38450,-13.92302684
297.38500,-16.3645821
297.38550,-9.650305129
297.38600,3.778248809
297.38650,14.15485867
297.38700,14.76524749
297.38750,9.271748148
297.38800,6.219804071
297.38850,8.661359333
297.38900,12.32369223
297.38950,12.62888663
297.39000,9.576942556
297.39050,7.74577611
297.39100,8.96655374
297.39150,11.408109
297.39200,12.62888663
297.39250,12.01849782
297.39300,9.882136963
297.39350,8.661359333
297.39400,8.96655374
297.39450,9.882136963
297.39500,8.050970517
297.39550,2.252276771
297.39600,-5.072389014
297.39650,-9.345110722
297.39700,-8.124333091
297.39750,-4.767194606
297.39800,-4.767194606
297.39850,-8.734721906
297.39900,-11.17627717
297.39950,-9.039916314
297.40000,-2.93602816
297.40050,2.252276771
297.40100,4.388637625
297.40150,3.167859994
297.40200,0.115915917
297.40250,-3.546416975
297.40300,-5.682777829
297.40350,-5.682777829
297.40400,-4.767194606
297.40450,-3.241222568
297.40500,0.115915917
297.40550,5.914609663
297.40600,12.01849782
297.40650,15.3756363
297.40700,15.68083071
297.40750,13.84966426
297.40800,9.882136963
297.40850,3.473054402
297.40900,-1.715250529
297.40950,-2.630833752
297.41000,-0.7996673061
297.41050,-1.104861714
297.41100,-6.90355546
297.41150,-13.31263802
297.41200,-14.22822125
297.41250,-9.039916314
297.41300,-2.630833752
297.41350,1.641887955
297.41400,4.99902644
297.41450,8.96655374
297.41500,11.71330341
297.41550,10.79772019
297.41600,5.609415256
297.41650,0.4211103247
297.41700,-1.715250529
297.41750,-2.020444937
297.41800,-3.851611383
297.41850,-8.734721906
297.41900,-15.14380447
297.41950,-20.3321094
297.42000,-22.16327585
297.42050,-17.58535973
297.42100,-5.072389014
297.42150,10.18733137
297.42200,19.64835801
297.42250,18.12238597
297.42300,12.01849782
297.42350,10.49252578
297.42400,14.15485867
297.42450,16.29121953
297.42500,11.71330341
297.42550,4.388637625
297.42600,0.4211103247
297.42650,0.115915917
297.42700,0.4211103247
297.42750,0.115915917
297.42800,0.115915917
297.42850,0.115915917
297.42900,-1.410056122
297.42950,-3.851611383
297.43000,-5.377583422
297.43050,-4.767194606
297.43100,-3.546416975
297.43150,-3.241222568
297.43200,-3.851611383
297.43250,-3.546416975
297.43300,-2.630833752
297.43350,-2.325639345
297.43400,-2.630833752
297.43450,-2.630833752
297.43500,-2.020444937
297.43550,-1.715250529
297.43600,-2.325639345
297.43650,-3.241222568
297.43700,-2.93602816
297.43750,-2.020444937
297.43800,-1.715250529
297.43850,-2.325639345
297.43900,-3.241222568
297.43950,-3.546416975
297.44000,-3.546416975
297.44050,-3.241222568
297.44100,-3.241222568
297.44150,-2.93602816
297.44200,-1.715250529
297.44250,0.4211103247
297.44300,3.167859994
297.44350,4.99902644
297.44400,5.304220848
297.44450,4.99902644
297.44500,3.778248809
297.44550,1.947082363
297.44600,0.115915917
297.44650,0.115915917
297.44700,0.4211103247
297.44750,0.4211103247
297.44800,0.115915917
297.44850,0.4211103247
297.44900,1.947082363
297.44950,1.336693548
297.45000,-2.93602816
297.45050,-8.734721906
297.45100,-11.17627717
297.45150,-10.26069394
297.45200,-8.734721906
297.45250,-6.90355546
297.45300,-4.462000199
297.45350,-1.715250529
297.45400,-0.4944728984
297.45450,-1.410056122
297.45500,-2.325639345
297.45550,-2.020444937
297.45600,-0.4944728984
297.45650,0.7263047324
297.45700,2.252276771
297.45750,2.862665586
297.45800,1.947082363
297.45850,1.03149914
297.45900,1.947082363
297.45950,3.473054402
297.46000,3.778248809
297.46050,2.557471179
297.46100,1.947082363
297.46150,2.557471179
297.46200,2.557471179
297.46250,1.641887955
297.46300,0.7263047324
297.46350,0.4211103247
297.46400,0.7263047324
297.46450,1.641887955
297.46500,2.557471179
297.46550,2.557471179
297.46600,1.336693548
297.46650,-0.7996673061
297.46700,-2.630833752
297.46750,-2.020444937
297.46800,0.4211103247
297.46850,4.693832032
297.46900,8.661359333
297.46950,10.18733137
297.47000,9.576942556
297.47050,9.271748148
297.47100,11.10291459
297.47150,12.32369223
297.47200,9.576942556
297.47250,3.778248809
297.47300,-0.7996673061
297.47350,-3.241222568
297.47400,-5.377583422
297.47450,-8.124333091
297.47500,-9.955499537
297.47550,-10.26069394
297.47600,-11.17627717
297.47650,-13.31263802
297.47700,-15.14380447
297.47750,-14.83861006
297.47800,-13.31263802
297.47850,-11.78666598
297.47900,-9.345110722
297.47950,-6.293166645
297.48000,-5.072389014
297.48050,-5.682777829
297.48100,-5.377583422
297.48150,-1.715250529
297.48200,2.557471179
297.48250,5.304220848
297.48300,5.609415256
297.48350,4.693832032
297.48400,1.947082363
297.48450,-2.93602816
297.48500,-7.513944276
297.48550,-8.429527499
297.48600,-6.293166645
297.48650,-4.156805791
297.48700,-2.325639345
297.48750,0.115915917
297.48800,2.252276771
297.48850,4.693832032
297.48900,8.661359333
297.48950,13.84966426
297.49000,15.68083071
297.49050,11.10291459
297.49100,3.473054402
297.49150,0.4211103247
297.49200,3.473054402
297.49250,7.135387294
297.49300,7.440581702
297.49350,6.219804071
297.49400,5.914609663
297.49450,5.914609663
297.49500,4.99902644
297.49550,4.99902644
297.49600,6.524998479
297.49650,7.440581702
297.49700,6.524998479
297.49750,4.693832032
297.49800,3.473054402
297.49850,1.947082363
297.49900,-0.1892784907
297.49950,-2.630833752
297.50000,-5.072389014
297.50050,-9.039916314
297.50100,-16.05938769
297.50150,-22.77366466
297.50200,-24.2996367
297.50250,-19.41652618
297.50300,-8.429527499
297.50350,4.693832032
297.50400,15.98602512
297.50450,20.56394123
297.50500,18.12238597
297.50550,13.23927545
297.50600,10.79772019
297.50650,10.49252578
297.50700,10.18733137
297.50750,9.271748148
297.50800,10.18733137
297.50850,10.49252578
297.50900,7.74577611
297.50950,2.252276771
297.51000,-1.410056122
297.51050,-1.410056122
297.51100,-0.4944728984
297.51150,-2.325639345
297.51200,-5.072389014
297.51250,-5.072389014
297.51300,-2.325639345
297.51350,0.115915917
297.51400,0.115915917
297.51450,-2.325639345
297.51500,-7.208749868
297.51550,-12.09186039
297.51600,-15.14380447
297.51650,-15.44899888
297.51700,-16.05938769
297.51750,-19.11133177
297.51800,-20.02691499
297.51850,-12.09186039
297.51900,3.778248809
297.51950,17.81719156
297.52000,20.86913564
297.52050,14.76524749
297.52100,9.271748148
297.52150,8.96655374
297.52200,11.408109
297.52250,12.93408104
297.52300,12.32369223
297.52350,10.79772019
297.52400,10.18733137
297.52450,11.408109
297.52500,13.54446986
297.52550,13.23927545
297.52600,8.661359333
297.52650,1.641887955
297.52700,-2.630833752
297.52750,-4.156805791
297.52800,-3.546416975
297.52850,-2.93602816
297.52900,-2.630833752
297.52950,-2.325639345
297.53000,-2.93602816
297.53050,-4.767194606
297.53100,-6.598361052
297.53150,-7.513944276
297.53200,-6.293166645
297.53250,-4.156805791
297.53300,-2.325639345
297.53350,-2.020444937
297.53400,-2.325639345
297.53450,-1.410056122
297.53500,0.115915917
297.53550,1.03149914
297.53600,0.4211103247
297.53650,0.115915917
297.53700,0.4211103247
297.53750,0.115915917
297.53800,-1.410056122
297.53850,-3.241222568
297.53900,-3.851611383
297.53950,-3.546416975
297.54000,-3.546416975
297.54050,-3.241222568
297.54100,-2.020444937
297.54150,-0.7996673061
297.54200,0.115915917
297.54250,0.7263047324
297.54300,1.641887955
297.54350,0.7263047324
297.54400,-1.104861714
297.54450,-2.325639345
297.54500,-1.410056122
297.54550,0.115915917
297.54600,0.115915917
297.54650,-0.1892784907
297.54700,0.115915917
297.54750,0.4211103247
297.54800,0.4211103247
297.54850,0.7263047324
297.54900,3.167859994
297.54950,5.914609663
297.55000,5.609415256
297.55050,3.167859994
297.55100,1.03149914
297.55150,-0.1892784907
297.55200,-2.93602816
297.55250,-5.987972237
297.55300,-6.598361052
297.55350,-5.682777829
297.55400,-6.293166645
297.55450,-9.955499537
297.55500,-12.3970548
297.55550,-11.78666598
297.55600,-10.26069394
297.55650,-9.650305129
297.55700,-9.039916314
297.55750,-6.293166645
297.55800,-2.93602816
297.55850,-2.020444937
297.55900,-2.325639345
297.55950,-1.104861714
297.56000,1.947082363
297.56050,5.304220848
297.56100,6.524998479
297.56150,6.219804071
297.56200,5.609415256
297.56250,5.914609663
297.56300,5.914609663
297.56350,4.99902644
297.56400,3.473054402
297.56450,3.167859994
297.56500,5.609415256
297.56550,8.661359333
297.56600,8.356164925
297.56650,4.388637625
297.56700,-0.1892784907
297.56750,-2.630833752
297.56800,-3.241222568
297.56850,-2.630833752
297.56900,-1.410056122
297.56950,0.115915917
297.57000,1.03149914
297.57050,0.7263047324
297.57100,0.4211103247
297.57150,1.03149914
297.57200,1.641887955
297.57250,1.947082363
297.57300,2.862665586
297.57350,4.99902644
297.57400,5.304220848
297.57450,1.947082363
297.57500,-2.93602816
297.57550,-7.513944276
297.57600,-11.17627717
297.57650,-14.53341565
297.57700,-16.66977651
297.57750,-14.53341565
297.57800,-9.039916314
297.57850,-4.767194606
297.57900,-4.156805791
297.57950,-6.90355546
297.58000,-10.87108276
297.58050,-13.00744361
297.58100,-11.48147158
297.58150,-5.377583422
297.58200,2.862665586
297.58250,8.96655374
297.58300,10.18733137
297.58350,8.050970517
297.58400,6.219804071
297.58450,6.830192886
297.58500,8.661359333
297.58550,8.96655374
297.58600,8.96655374
297.58650,11.10291459
297.58700,14.15485867
297.58750,14.76524749
297.58800,11.408109
297.58850,8.96655374
297.58900,13.23927545
297.58950,19.03796919
297.59000,15.68083071
297.59050,1.947082363
297.59100,-9.955499537
297.59150,-10.87108276
297.59200,-5.377583422
297.59250,-2.630833752
297.59300,-4.462000199
297.59350,-4.767194606
297.59400,-2.325639345
297.59450,0.115915917
297.59500,1.03149914
297.59550,3.167859994
297.59600,5.304220848
297.59650,5.304220848
297.59700,2.862665586
297.59750,1.336693548
297.59800,1.641887955
297.59850,2.252276771
297.59900,1.947082363
297.59950,2.862665586
297.60000,4.99902644
297.60050,6.219804071
297.60100,4.693832032
297.60150,1.641887955
297.60200,-0.1892784907
297.60250,0.4211103247
297.60300,2.862665586
297.60350,4.693832032
297.60400,2.557471179
297.60450,-1.715250529
297.60500,-4.156805791
297.60550,-3.851611383
297.60600,-4.767194606
297.60650,-9.345110722
297.60700,-13.31263802
297.60750,-13.92302684
297.60800,-11.78666598
297.60850,-9.650305129
297.60900,-4.767194606
297.60950,5.914609663
297.61000,18.12238597
297.61050,23.92107972
297.61100,21.47952446
297.61150,16.59641393
297.61200,14.76524749
297.61250,14.76524749
297.61300,13.23927545
297.61350,10.18733137
297.61400,7.135387294
297.61450,4.083443217
297.61500,1.03149914
297.61550,-1.410056122
297.61600,-4.156805791
297.61650,-5.682777829
297.61700,-5.377583422
297.61750,-3.851611383
297.61800,-4.156805791
297.61850,-6.90355546
297.61900,-9.039916314
297.61950,-6.293166645
297.62000,-0.7996673061
297.62050,2.252276771
297.62100,1.336693548
297.62150,-0.1892784907
297.62200,-0.1892784907
297.62250,-0.4944728984
297.62300,-3.546416975
297.62350,-7.819138683
297.62400,-10.87108276
297.62450,-10.56588835
297.62500,-7.513944276
297.62550,-5.072389014
297.62600,-4.156805791
297.62650,-3.851611383
297.62700,-2.93602816
297.62750,-1.104861714
297.62800,0.115915917
297.62850,0.115915917
297.62900,0.4211103247
297.62950,1.947082363
297.63000,2.252276771
297.63050,0.115915917
297.63100,-3.546416975
297.63150,-7.208749868
297.63200,-9.650305129
297.63250,-9.955499537
297.63300,-8.124333091
297.63350,-5.072389014
297.63400,-3.546416975
297.63450,-3.851611383
297.63500,-3.546416975
297.63550,-1.104861714
297.63600,1.03149914
297.63650,1.336693548
297.63700,0.7263047324
297.63750,1.947082363
297.63800,4.693832032
297.63850,5.609415256
297.63900,2.862665586
297.63950,-1.104861714
297.64000,-4.462000199
297.64050,-6.293166645
297.64100,-6.90355546
297.64150,-7.208749868
297.64200,-7.208749868
297.64250,-7.208749868
297.64300,-8.429527499
297.64350,-10.87108276
297.64400,-12.09186039
297.64450,-8.124333091
297.64500,1.947082363
297.64550,13.23927545
297.64600,18.73277479
297.64650,16.90160834
297.64700,12.93408104
297.64750,11.408109
297.64800,12.01849782
297.64850,10.79772019
297.64900,8.050970517
297.64950,5.304220848
297.65000,3.167859994
297.65050,1.03149914
297.65100,-0.1892784907
297.65150,-0.4944728984
297.65200,-0.7996673061
297.65250,-1.410056122
297.65300,-1.715250529
297.65350,-0.7996673061
297.65400,0.7263047324
297.65450,1.336693548
297.65500,1.03149914
297.65550,0.7263047324
297.65600,0.4211103247
297.65650,-0.4944728984
297.65700,-1.715250529
297.65750,-2.020444937
297.65800,-1.715250529
297.65850,-1.410056122
297.65900,-0.4944728984
297.65950,1.03149914
297.66000,1.641887955
297.66050,-0.4944728984
297.66100,-5.377583422
297.66150,-9.650305129
297.66200,-12.3970548
297.66250,-13.31263802
297.66300,-12.3970548
297.66350,-9.650305129
297.66400,-6.293166645
297.66450,-5.072389014
297.66500,-5.377583422
297.66550,-5.377583422
297.66600,-3.851611383
297.66650,-3.546416975
297.66700,-5.072389014
297.66750,-5.987972237
297.66800,-5.377583422
297.66850,-3.851611383
297.66900,-2.630833752
297.66950,-0.7996673061
297.67000,2.252276771
297.67050,4.99902644
297.67100,5.609415256
297.67150,6.830192886
297.67200,10.18733137
297.67250,12.62888663
297.67300,10.18733137
297.67350,3.778248809
297.67400,-0.7996673061
297.67450,-2.630833752
297.67500,-3.851611383
297.67550,-5.072389014
297.67600,-3.851611383
297.67650,-0.7996673061
297.67700,1.03149914
297.67750,0.4211103247
297.67800,-0.7996673061
297.67850,-2.020444937
297.67900,-5.682777829
297.67950,-13.00744361
297.68000,-19.11133177
297.68050,-19.41652618
297.68100,-15.14380447
297.68150,-10.26069394
297.68200,-6.598361052
297.68250,-3.546416975
297.68300,-0.1892784907
297.68350,2.557471179
297.68400,4.99902644
297.68450,6.219804071
297.68500,7.135387294
297.68550,9.271748148
297.68600,13.23927545
297.68650,16.29121953
297.68700,13.54446986
297.68750,6.219804071
297.68800,0.115915917
297.68850,-1.104861714
297.68900,0.115915917
297.68950,0.115915917
297.69000,-2.020444937
297.69050,-2.630833752
297.69100,-0.7996673061
297.69150,0.115915917
297.69200,-0.1892784907
297.69250,-2.020444937
297.69300,-3.851611383
297.69350,-6.90355546
297.69400,-10.56588835
297.69450,-12.09186039
297.69500,-8.124333091
297.69550,-2.020444937
297.69600,0.7263047324
297.69650,-0.4944728984
297.69700,-2.020444937
297.69750,0.115915917
297.69800,4.693832032
297.69850,7.440581702
297.69900,7.74577611
297.69950,8.96655374
297.70000,12.01849782
297.70050,14.15485867
297.70100,13.84966426
297.70150,13.54446986
297.70200,14.46005308
297.70250,15.98602512
297.70300,17.51199716
297.70350,18.73277479
297.70400,19.95355242
297.70450,20.56394123
297.70500,19.95355242
297.70550,17.20680275
297.70600,10.79772019
297.70650,1.03149914
297.70700,-7.208749868
297.70750,-8.734721906
297.70800,-5.072389014
297.70850,-1.715250529
297.70900,-2.020444937
297.70950,-1.715250529
297.71000,0.115915917
297.71050,0.7263047324
297.71100,-1.715250529
297.71150,-5.072389014
297.71200,-6.293166645
297.71250,-5.987972237
297.71300,-5.072389014
297.71350,-3.241222568
297.71400,0.7263047324
297.71450,3.473054402
297.71500,1.947082363
297.71550,-0.7996673061
297.71600,-2.325639345
297.71650,-1.410056122
297.71700,-0.4944728984
297.71750,-0.7996673061
297.71800,-0.7996673061
297.71850,0.115915917
297.71900,0.7263047324
297.71950,0.4211103247
297.72000,0.4211103247
297.72050,1.336693548
297.72100,3.167859994
297.72150,4.693832032
297.72200,5.609415256
297.72250,6.219804071
297.72300,7.135387294
297.72350,7.440581702
297.72400,6.524998479
297.72450,4.693832032
297.72500,4.388637625
297.72550,5.914609663
297.72600,6.524998479
297.72650,3.778248809
297.72700,-1.104861714
297.72750,-5.682777829
297.72800,-6.90355546
297.72850,-5.987972237
297.72900,-4.462000199
297.72950,-2.93602816
297.73000,-1.410056122
297.73050,-1.715250529
297.73100,-4.156805791
297.73150,-6.598361052
297.73200,-7.208749868
297.73250,-6.598361052
297.73300,-7.208749868
297.73350,-8.429527499
297.73400,-9.039916314
297.73450,-8.734721906
297.73500,-8.429527499
297.73550,-7.819138683
297.73600,-5.987972237
297.73650,-3.851611383
297.73700,-3.241222568
297.73750,-4.767194606
297.73800,-5.377583422
297.73850,-3.546416975
297.73900,-0.4944728984
297.73950,0.4211103247
297.74000,-1.104861714
297.74050,-4.767194606
297.74100,-8.124333091
297.74150,-9.345110722
297.74200,-6.293166645
297.74250,1.03149914
297.74300,10.79772019
297.74350,18.12238597
297.74400,19.95355242
297.74450,17.20680275
297.74500,14.15485867
297.74550,12.62888663
297.74600,13.23927545
297.74650,14.15485867
297.74700,15.07044189
297.74750,15.68083071
297.74800,14.46005308
297.74850,11.10291459
297.74900,6.830192886
297.74950,2.557471179
297.75000,-1.715250529
297.75050,-8.429527499
297.75100,-14.83861006
297.75150,-17.58535973
297.75200,-16.3645821
297.75250,-15.14380447
297.75300,-15.75419328
297.75350,-16.05938769
297.75400,-15.44899888
297.75450,-16.05938769
297.75500,-17.58535973
297.75550,-14.53341565
297.75600,-2.93602816
297.75650,11.10291459
297.75700,17.20680275
297.75750,12.32369223
297.75800,2.557471179
297.75850,-3.851611383
297.75900,-4.767194606
297.75950,-1.715250529
297.76000,1.641887955
297.76050,2.557471179
297.76100,1.03149914
297.76150,-0.4944728984
297.76200,-1.104861714
297.76250,-1.104861714
297.76300,-1.410056122
297.76350,-1.104861714
297.76400,0.4211103247
297.76450,1.947082363
297.76500,1.03149914
297.76550,-0.4944728984
297.76600,1.03149914
297.76650,7.135387294
297.76700,12.01849782
297.76750,10.79772019
297.76800,4.083443217
297.76850,-3.546416975
297.76900,-9.955499537
297.76950,-12.09186039
297.77000,-9.650305129
297.77050,-3.546416975
297.77100,1.336693548
297.77150,2.862665586
297.77200,1.641887955
297.77250,1.336693548
297.77300,3.778248809
297.77350,5.914609663
297.77400,5.609415256
297.77450,3.778248809
297.77500,2.557471179
297.77550,2.252276771
297.77600,-0.1892784907
297.77650,-5.682777829
297.77700,-11.48147158
297.77750,-14.53341565
297.77800,-15.75419328
297.77850,-17.58535973
297.77900,-19.41652618
297.77950,-20.63730381
297.78000,-20.94249821
297.78050,-19.72172058
297.78100,-14.22822125
297.78150,-2.020444937
297.78200,11.408109
297.78250,19.3431636
297.78300,18.12238597
297.78350,13.54446986
297.78400,12.01849782
297.78450,12.93408104
297.78500,11.71330341
297.78550,7.74577611
297.78600,3.473054402
297.78650,1.641887955
297.78700,1.947082363
297.78750,2.862665586
297.78800,3.473054402
297.78850,3.167859994
297.78900,1.947082363
297.78950,0.115915917
297.79000,-2.325639345
297.79050,-2.93602816
297.79100,-2.020444937
297.79150,-0.4944728984
297.79200,0.4211103247
297.79250,1.03149914
297.79300,1.947082363
297.79350,4.083443217
297.79400,4.388637625
297.79450,1.947082363
297.79500,-1.715250529
297.79550,-4.156805791
297.79600,-3.851611383
297.79650,-2.020444937
297.79700,0.115915917
297.79750,2.557471179
297.79800,5.609415256
297.79850,7.440581702
297.79900,7.135387294
297.79950,5.914609663
297.80000,6.219804071
297.80050,8.661359333
297.80100,10.18733137
297.80150,8.96655374
297.80200,4.99902644
297.80250,0.115915917
297.80300,-2.630833752
297.80350,-4.462000199
297.80400,-5.987972237
297.80450,-7.819138683
297.80500,-8.429527499
297.80550,-6.90355546
297.80600,-3.851611383
297.80650,-1.104861714
297.80700,0.115915917
297.80750,0.4211103247
297.80800,1.03149914
297.80850,1.641887955
297.80900,1.641887955
297.80950,1.641887955
297.81000,1.947082363
297.81050,3.473054402
297.81100,5.609415256
297.81150,7.440581702
297.81200,8.050970517
297.81250,5.914609663
297.81300,1.336693548
297.81350,-3.241222568
297.81400,-6.293166645
297.81450,-7.208749868
297.81500,-7.208749868
297.81550,-7.819138683
297.81600,-7.819138683
297.81650,-6.598361052
297.81700,-4.156805791
297.81750,-2.630833752
297.81800,-2.020444937
297.81850,-2.020444937
297.81900,-1.410056122
297.81950,0.115915917
297.82000,2.557471179
297.82050,4.693832032
297.82100,6.219804071
297.82150,6.219804071
297.82200,6.219804071
297.82250,6.219804071
297.82300,6.219804071
297.82350,4.99902644
297.82400,3.167859994
297.82450,1.641887955
297.82500,0.7263047324
297.82550,1.336693548
297.82600,2.557471179
297.82650,3.778248809
297.82700,4.693832032
297.82750,4.99902644
297.82800,4.083443217
297.82850,1.947082363
297.82900,0.115915917
297.82950,-0.7996673061
297.83000,-0.1892784907
297.83050,0.115915917
297.83100,0.115915917
297.83150,0.115915917
297.83200,0.4211103247
297.83250,0.4211103247
297.83300,-0.1892784907
297.83350,-0.1892784907
297.83400,1.947082363
297.83450,4.388637625
297.83500,3.778248809
297.83550,0.7263047324
297.83600,-1.104861714
297.83650,-0.4944728984
297.83700,0.115915917
297.83750,-0.7996673061
297.83800,-2.93602816
297.83850,-3.851611383
297.83900,-3.851611383
297.83950,-3.546416975
297.84000,-3.546416975
297.84050,-2.93602816
297.84100,-2.020444937
297.84150,-2.020444937
297.84200,-3.241222568
297.84250,-3.851611383
297.84300,-2.630833752
297.84350,-0.4944728984
297.84400,1.641887955
297.84450,3.473054402
297.84500,5.609415256
297.84550,7.74577611
297.84600,8.96655374
297.84650,8.661359333
297.84700,7.135387294
297.84750,5.914609663
297.84800,6.219804071
297.84850,6.219804071
297.84900,5.304220848
297.84950,3.473054402
297.85000,2.252276771
297.85050,2.252276771
297.85100,0.7263047324
297.85150,-3.546416975
297.85200,-10.87108276
297.85250,-17.28016532
297.85300,-20.02691499
297.85350,-17.89055414
297.85400,-13.00744361
297.85450,-8.429527499
297.85500,-5.377583422
297.85550,-4.767194606
297.85600,-5.377583422
297.85650,-5.682777829
297.85700,-4.462000199
297.85750,-2.630833752
297.85800,-2.630833752
297.85850,-3.851611383
297.85900,-4.462000199
297.85950,-3.241222568
297.86000,-2.020444937
297.86050,-3.546416975
297.86100,-5.377583422
297.86150,-4.462000199
297.86200,-1.104861714
297.86250,0.115915917
297.86300,0.115915917
297.86350,1.03149914
297.86400,3.167859994
297.86450,3.473054402
297.86500,1.947082363
297.86550,1.641887955
297.86600,3.167859994
297.86650,2.862665586
297.86700,-0.7996673061
297.86750,-5.377583422
297.86800,-8.429527499
297.86850,-10.56588835
297.86900,-12.70224921
297.86950,-12.3970548
297.87000,-8.734721906
297.87050,-3.851611383
297.87100,3.167859994
297.87150,16.90160834
297.87200,34.29768958
297.87250,44.06391063
297.87300,37.65482806
297.87350,22.39510768
297.87400,11.408109
297.87450,8.356164925
297.87500,7.440581702
297.87550,5.609415256
297.87600,3.778248809
297.87650,1.641887955
297.87700,-3.241222568
297.87750,-10.56588835
297.87800,-15.14380447
297.87850,-15.44899888
297.87900,-13.92302684
297.87950,-12.70224921
297.88000,-10.56588835
297.88050,-8.429527499
297.88100,-8.124333091
297.88150,-7.513944276
297.88200,-1.715250529
297.88250,8.356164925
297.88300,16.90160834
297.88350,17.51199716
297.88400,11.10291459
297.88450,4.388637625
297.88500,1.641887955
297.88550,2.557471179
297.88600,4.99902644
297.88650,4.99902644
297.88700,1.947082363
297.88750,-2.630833752
297.88800,-5.682777829
297.88850,-5.987972237
297.88900,-5.072389014
297.88950,-5.682777829
297.89000,-6.90355546
297.89050,-7.208749868
297.89100,-5.682777829
297.89150,-3.851611383
297.89200,-2.93602816
297.89250,-3.241222568
297.89300,-3.851611383
297.89350,-2.630833752
297.89400,0.4211103247
297.89450,3.473054402
297.89500,4.388637625
297.89550,3.473054402
297.89600,2.252276771
297.89650,2.557471179
297.89700,4.083443217
297.89750,5.304220848
297.89800,5.914609663
297.89850,4.693832032
297.89900,1.947082363
297.89950,-0.7996673061
297.90000,-2.020444937
297.90050,-3.546416975
297.90100,-6.598361052
297.90150,-10.56588835
297.90200,-12.3970548
297.90250,-11.48147158
297.90300,-10.26069394
297.90350,-9.955499537
297.90400,-8.429527499
297.90450,-5.072389014
297.90500,-2.630833752
297.90550,-2.93602816
297.90600,-2.325639345
297.90650,3.778248809
297.90700,14.76524749
297.90750,22.08991327
297.90800,21.17433005
297.90850,15.07044189
297.90900,9.882136963
297.90950,8.356164925
297.91000,8.050970517
297.91050,7.74577611
297.91100,7.440581702
297.91150,6.830192886
297.91200,7.135387294
297.91250,8.050970517
297.91300,9.576942556
297.91350,9.882136963
297.91400,7.440581702
297.91450,3.473054402
297.91500,-0.4944728984
297.91550,-3.851611383
297.91600,-5.987972237
297.91650,-6.598361052
297.91700,-6.598361052
297.91750,-6.598361052
297.91800,-7.513944276
297.91850,-9.039916314
297.91900,-10.26069394
297.91950,-9.955499537
297.92000,-8.124333091
297.92050,-5.682777829
297.92100,-3.546416975
297.92150,-2.020444937
297.92200,-0.7996673061
297.92250,0.7263047324
297.92300,1.947082363
297.92350,1.336693548
297.92400,0.115915917
297.92450,-0.7996673061
297.92500,-0.4944728984
297.92550,0.115915917
297.92600,0.115915917
297.92650,0.115915917
297.92700,0.4211103247
297.92750,0.7263047324
297.92800,0.4211103247
297.92850,0.115915917
297.92900,0.115915917
297.92950,0.4211103247
297.93000,0.4211103247
297.93050,-0.4944728984
297.93100,-2.325639345
297.93150,-3.546416975
297.93200,-3.851611383
297.93250,-2.93602816
297.93300,-1.715250529
297.93350,0.115915917
297.93400,1.641887955
297.93450,2.557471179
297.93500,0.7263047324
297.93550,-2.020444937
297.93600,-3.241222568
297.93650,-1.715250529
297.93700,0.115915917
297.93750,0.7263047324
297.93800,1.641887955
297.93850,3.473054402
297.93900,3.778248809
297.93950,0.115915917
297.94000,-5.377583422
297.94050,-9.345110722
297.94100,-11.48147158
297.94150,-13.31263802
297.94200,-14.53341565
297.94250,-11.48147158
297.94300,-5.377583422
297.94350,-0.1892784907
297.94400,0.7263047324
297.94450,-0.1892784907
297.94500,-1.104861714
297.94550,-0.7996673061
297.94600,-0.7996673061
297.94650,-0.4944728984
297.94700,-0.4944728984
297.94750,-0.1892784907
297.94800,0.4211103247
297.94850,1.947082363
297.94900,2.557471179
297.94950,1.641887955
297.95000,0.115915917
297.95050,-0.4944728984
297.95100,0.115915917
297.95150,1.03149914
297.95200,1.641887955
297.95250,1.641887955
297.95300,0.4211103247
297.95350,-2.020444937
297.95400,-5.682777829
297.95450,-8.429527499
297.95500,-9.345110722
297.95550,-9.955499537
297.95600,-9.955499537
297.95650,-9.039916314
297.95700,-8.734721906
297.95750,-9.955499537
297.95800,-8.734721906
297.95850,-0.4944728984
297.95900,12.62888663
297.95950,22.08991327
297.96000,22.08991327
297.96050,17.20680275
297.96100,15.3756363
297.96150,16.59641393
297.96200,16.29121953
297.96250,13.23927545
297.96300,10.79772019
297.96350,9.271748148
297.96400,7.135387294
297.96450,4.388637625
297.96500,3.167859994
297.96550,4.083443217
297.96600,4.99902644
297.96650,4.388637625
297.96700,3.778248809
297.96750,4.388637625
297.96800,4.693832032
297.96850,3.167859994
297.96900,0.7263047324
297.96950,-1.715250529
297.97000,-4.767194606
297.97050,-9.039916314
297.97100,-13.00744361
297.97150,-13.61783243
297.97200,-11.17627717
297.97250,-7.513944276
297.97300,-5.682777829
297.97350,-5.377583422
297.97400,-4.767194606
297.97450,-2.325639345
297.97500,-0.7996673061
297.97550,-2.325639345
297.97600,-6.90355546
297.97650,-9.650305129
297.97700,-8.734721906
297.97750,-5.377583422
297.97800,-3.241222568
297.97850,-3.546416975
297.97900,-5.072389014
297.97950,-5.682777829
297.98000,-3.241222568
297.98050,0.7263047324
297.98100,4.693832032
297.98150,4.99902644
297.98200,1.947082363
297.98250,-0.1892784907
297.98300,1.336693548
297.98350,6.219804071
297.98400,9.882136963
297.98450,10.79772019
297.98500,11.71330341
297.98550,12.93408104
297.98600,14.15485867
297.98650,15.3756363
297.98700,16.59641393
297.98750,15.3756363
297.98800,11.408109
297.98850,9.271748148
297.98900,11.71330341
297.98950,14.76524749
297.99000,10.79772019
297.99050,0.115915917
297.99100,-8.734721906
297.99150,-11.78666598
297.99200,-12.70224921
297.99250,-14.53341565
297.99300,-14.22822125
297.99350,-10.26069394
297.99400,-8.429527499
297.99450,-13.92302684
297.99500,-21.85808144
297.99550,-24.60483111
297.99600,-21.55288703
297.99650,-17.89055414
297.99700,-15.75419328
297.99750,-11.48147158
297.99800,-7.208749868
297.99850,-6.90355546
297.99900,-9.955499537
297.99950,-8.734721906
298.00000,0.115915917
298.00050,11.71330341
298.00100,18.73277479
298.00150,19.03796919
298.00200,16.29121953
298.00250,14.15485867
298.00300,14.15485867
298.00350,15.68083071
298.00400,16.90160834
298.00450,16.29121953
298.00500,13.84966426
298.00550,10.49252578
298.00600,7.440581702
298.00650,4.388637625
298.00700,1.947082363
298.00750,1.03149914
298.00800,1.03149914
298.00850,1.03149914
298.00900,1.336693548
298.00950,3.167859994
298.01000,4.99902644
298.01050,5.304220848
298.01100,4.083443217
298.01150,3.778248809
298.01200,3.778248809
298.01250,2.557471179
298.01300,0.4211103247
298.01350,-0.1892784907
298.01400,0.115915917
298.01450,0.4211103247
298.01500,0.115915917
298.01550,0.115915917
298.01600,1.03149914
298.01650,1.03149914
298.01700,0.115915917
298.01750,-1.104861714
298.01800,-0.4944728984
298.01850,0.115915917
298.01900,-0.1892784907
298.01950,-1.410056122
298.02000,-1.410056122
298.02050,-0.1892784907
298.02100,1.03149914
298.02150,1.03149914
298.02200,0.7263047324
298.02250,0.4211103247
298.02300,0.4211103247
298.02350,0.4211103247
298.02400,0.4211103247
298.02450,1.03149914
298.02500,1.641887955
298.02550,2.252276771
298.02600,2.557471179
298.02650,3.473054402
298.02700,4.99902644
298.02750,6.524998479
298.02800,6.830192886
298.02850,6.219804071
298.02900,4.388637625
298.02950,2.252276771
298.03000,0.115915917
298.03050,-2.020444937
298.03100,-3.241222568
298.03150,-2.93602816
298.03200,-1.715250529
298.03250,-0.7996673061
298.03300,-1.410056122
298.03350,-2.93602816
298.03400,-4.767194606
298.03450,-7.513944276
298.03500,-10.87108276
298.03550,-12.70224921
298.03600,-11.78666598
298.03650,-9.650305129
298.03700,-8.124333091
298.03750,-6.90355546
298.03800,-4.767194606
298.03850,-2.325639345
298.03900,-1.715250529
298.03950,-2.325639345
298.04000,-3.546416975
298.04050,-4.767194606
298.04100,-6.293166645
298.04150,-5.987972237
298.04200,-3.546416975
298.04250,-0.7996673061
298.04300,-0.4944728984
298.04350,-1.410056122
298.04400,-0.1892784907
298.04450,2.557471179
298.04500,4.388637625
298.04550,3.778248809
298.04600,1.03149914
298.04650,-2.325639345
298.04700,-6.598361052
298.04750,-10.26069394
298.04800,-12.09186039
298.04850,-12.3970548
298.04900,-12.70224921
298.04950,-12.3970548
298.05000,-11.17627717
298.05050,-10.26069394
298.05100,-9.345110722
298.05150,-4.156805791
298.05200,6.524998479
298.05250,19.64835801
298.05300,26.97302379
298.05350,26.66782939
298.05400,23.00549649
298.05450,20.25874683
298.05500,18.12238597
298.05550,14.15485867
298.05600,8.356164925
298.05650,3.167859994
298.05700,0.7263047324
298.05750,0.115915917
298.05800,-0.1892784907
298.05850,-2.325639345
298.05900,-5.072389014
298.05950,-6.90355546
298.06000,-6.90355546
298.06050,-6.598361052
298.06100,-7.208749868
298.06150,-9.039916314
298.06200,-9.955499537
298.06250,-8.429527499
298.06300,-3.851611383
298.06350,0.4211103247
298.06400,1.03149914
298.06450,-3.851611383
298.06500,-10.87108276
298.06550,-13.92302684
298.06600,-12.3970548
298.06650,-9.345110722
298.06700,-8.124333091
298.06750,-6.598361052
298.06800,-3.546416975
298.06850,-1.104861714
298.06900,-1.410056122
298.06950,-1.410056122
298.07000,2.252276771
298.07050,9.271748148
298.07100,15.3756363
298.07150,16.59641393
298.07200,13.23927545
298.07250,8.050970517
298.07300,3.778248809
298.07350,2.862665586
298.07400,4.99902644
298.07450,7.74577611
298.07500,8.050970517
298.07550,6.219804071
298.07600,4.693832032
298.07650,4.388637625
298.07700,3.473054402
298.07750,1.03149914
298.07800,-1.104861714
298.07850,-1.410056122
298.07900,-0.4944728984
298.07950,0.115915917
298.08000,0.4211103247
298.08050,0.4211103247
298.08100,1.336693548
298.08150,1.641887955
298.08200,0.115915917
298.08250,-1.104861714
298.08300,-1.410056122
298.08350,-0.4944728984
298.08400,-0.1892784907
298.08450,-1.104861714
298.08500,-1.104861714
298.08550,-0.1892784907
298.08600,0.4211103247
298.08650,0.4211103247
298.08700,-0.1892784907
298.08750,-0.7996673061
298.08800,-1.410056122
298.08850,-2.325639345
298.08900,-2.020444937
298.08950,-0.1892784907
298.09000,1.336693548
298.09050,2.252276771
298.09100,2.252276771
298.09150,2.557471179
298.09200,2.557471179
298.09250,1.947082363
298.09300,2.557471179
298.09350,4.693832032
298.09400,6.219804071
298.09450,5.609415256
298.09500,4.083443217
298.09550,3.778248809
298.09600,3.778248809
298.09650,1.641887955
298.09700,-3.546416975
298.09750,-11.17627717
298.09800,-19.72172058
298.09850,-27.65677518
298.09900,-31.92949689
298.09950,-31.31910808
298.10000,-27.04638637
298.10050,-21.85808144
298.10100,-15.44899888
298.10150,-6.90355546
298.10200,2.862665586
298.10250,10.79772019
298.10300,14.15485867
298.10350,13.84966426
298.10400,12.93408104
298.10450,12.62888663
298.10500,12.01849782
298.10550,11.71330341
298.10600,11.10291459
298.10650,11.10291459
298.10700,10.18733137
298.10750,7.74577611
298.10800,3.778248809
298.10850,0.115915917
298.10900,-2.325639345
298.10950,-2.630833752
298.11000,-2.020444937
298.11050,-1.410056122
298.11100,-1.715250529
298.11150,-2.93602816
298.11200,-5.377583422
298.11250,-7.208749868
298.11300,-6.293166645
298.11350,-2.325639345
298.11400,1.336693548
298.11450,1.336693548
298.11500,-1.410056122
298.11550,-3.851611383
298.11600,-2.630833752
298.11650,0.4211103247
298.11700,3.778248809
298.11750,6.524998479
298.11800,8.050970517
298.11850,7.74577611
298.11900,5.609415256
298.11950,2.862665586
298.12000,2.252276771
298.12050,3.167859994
298.12100,4.693832032
298.12150,5.914609663
298.12200,6.219804071
298.12250,5.914609663
298.12300,6.524998479
298.12350,9.576942556
298.12400,13.54446986
298.12450,13.84966426
298.12500,9.576942556
298.12550,4.99902644
298.12600,4.388637625
298.12650,5.914609663
298.12700,4.083443217
298.12750,-2.93602816
298.12800,-13.00744361
298.12850,-21.24769262
298.12900,-24.60483111
298.12950,-23.07885907
298.13000,-20.02691499
298.13050,-20.02691499
298.13100,-25.82560874
298.13150,-32.2346913
298.13200,-28.87755281
298.13250,-11.48147158
298.13300,11.71330341
298.13350,29.10938465
298.13400,34.90807839
298.13450,31.55093991
298.13500,26.05744057
298.13550,22.39510768
298.13600,21.17433005
298.13650,21.17433005
298.13700,19.3431636
298.13750,15.07044189
298.13800,10.49252578
298.13850,8.050970517
298.13900,9.271748148
298.13950,10.79772019
298.14000,10.49252578
298.14050,7.440581702
298.14100,4.388637625
298.14150,1.947082363
298.14200,0.4211103247
298.14250,-1.104861714
298.14300,-2.93602816
298.14350,-4.462000199
298.14400,-5.987972237
298.14450,-8.124333091
298.14500,-9.039916314
298.14550,-7.513944276
298.14600,-4.156805791
298.14650,-1.715250529
298.14700,-1.104861714
298.14750,-0.7996673061
298.14800,0.115915917
298.14850,0.4211103247
298.14900,-0.4944728984
298.14950,-2.93602816
298.15000,-4.156805791
298.15050,-5.072389014
298.15100,-7.208749868
298.15150,-9.650305129
298.15200,-10.87108276
298.15250,-10.26069394
298.15300,-9.955499537
298.15350,-10.26069394
298.15400,-9.345110722
298.15450,-6.90355546
298.15500,-5.377583422
298.15550,-5.987972237
298.15600,-7.819138683
298.15650,-8.734721906
298.15700,-8.429527499
298.15750,-8.124333091
298.15800,-8.429527499
298.15850,-8.124333091
298.15900,-6.90355546
298.15950,-4.156805791
298.16000,-0.1892784907
298.16050,4.083443217
298.16100,7.74577611
298.16150,8.96655374
298.16200,7.135387294
298.16250,3.167859994
298.16300,-0.4944728984
298.16350,-2.020444937
298.16400,-1.410056122
298.16450,0.4211103247
298.16500,1.947082363
298.16550,1.947082363
298.16600,1.03149914
298.16650,0.115915917
298.16700,-0.1892784907
298.16750,0.115915917
298.16800,1.336693548
298.16850,1.641887955
298.16900,1.641887955
298.16950,1.641887955
298.17000,2.252276771
298.17050,3.167859994
298.17100,4.083443217
298.17150,4.693832032
298.17200,4.388637625
298.17250,2.252276771
298.17300,-1.410056122
298.17350,-5.682777829
298.17400,-8.429527499
298.17450,-9.955499537
298.17500,-11.17627717
298.17550,-13.00744361
298.17600,-13.61783243
298.17650,-12.3970548
298.17700,-9.650305129
298.17750,-6.598361052
298.17800,-4.156805791
298.17850,-2.020444937
298.17900,0.115915917
298.17950,2.252276771
298.18000,4.388637625
298.18050,6.524998479
298.18100,8.661359333
298.18150,9.576942556
298.18200,9.271748148
298.18250,8.356164925
298.18300,7.74577611
298.18350,6.830192886
298.18400,5.609415256
298.18450,4.99902644
298.18500,6.524998479
298.18550,8.96655374
298.18600,9.882136963
298.18650,6.219804071
298.18700,-1.104861714
298.18750,-10.56588835
298.18800,-18.80613736
298.18850,-23.38405348
298.18900,-22.16327585
298.18950,-16.3645821
298.19000,-9.955499537
298.19050,-5.987972237
298.19100,-4.767194606
298.19150,-4.462000199
298.19200,-3.241222568
298.19250,-1.410056122
298.19300,0.4211103247
298.19350,2.252276771
298.19400,3.778248809
298.19450,4.083443217
298.19500,1.641887955
298.19550,-2.325639345
298.19600,-4.767194606
298.19650,-3.851611383
298.19700,-0.4944728984
298.19750,1.336693548
298.19800,1.947082363
298.19850,2.252276771
298.19900,2.862665586
298.19950,2.252276771
298.20000,0.7263047324
298.20050,0.115915917
298.20100,1.641887955
298.20150,3.167859994
298.20200,1.641887955
298.20250,-1.104861714
298.20300,-2.020444937
298.20350,0.115915917
298.20400,2.557471179
298.20450,2.252276771
298.20500,0.7263047324
298.20550,1.03149914
298.20600,1.641887955
298.20650,0.7263047324
298.20700,-1.715250529
298.20750,-3.546416975
298.20800,-4.767194606
298.20850,-5.377583422
298.20900,-2.630833752
298.20950,5.609415256
298.21000,17.81719156
298.21050,25.75224616
298.21100,26.66782939
298.21150,25.44705176
298.21200,26.97302379
298.21250,28.49899583
298.21300,26.36263498
298.21350,22.39510768
298.21400,20.56394123
298.21450,19.03796919
298.21500,14.76524749
298.21550,9.271748148
298.21600,6.830192886
298.21650,5.914609663
298.21700,1.336693548
298.21750,-7.513944276
298.21800,-15.44899888
298.21850,-18.19574855
298.21900,-18.19574855
298.21950,-16.97497091
298.22000,-13.92302684
298.22050,-8.124333091
298.22100,-2.630833752
298.22150,-1.104861714
298.22200,-2.020444937
298.22250,-2.325639345
298.22300,-0.7996673061
298.22350,0.115915917
298.22400,0.115915917
298.22450,0.4211103247
298.22500,1.03149914
298.22550,1.336693548
298.22600,1.03149914
298.22650,1.336693548
298.22700,1.947082363
298.22750,1.336693548
298.22800,-0.4944728984
298.22850,-2.630833752
298.22900,-2.630833752
298.22950,-1.410056122
298.23000,-1.104861714
298.23050,-1.410056122
298.23100,-2.020444937
298.23150,-2.020444937
298.23200,-2.020444937
298.23250,-1.715250529
298.23300,-0.7996673061
298.23350,0.7263047324
298.23400,2.557471179
298.23450,4.083443217
298.23500,5.304220848
298.23550,5.914609663
298.23600,6.219804071
298.23650,6.830192886
298.23700,7.74577611
298.23750,7.74577611
298.23800,5.609415256
298.23850,0.7263047324
298.23900,-3.851611383
298.23950,-6.90355546
298.24000,-8.429527499
298.24050,-8.734721906
298.24100,-8.734721906
298.24150,-7.208749868
298.24200,-4.767194606
298.24250,-2.630833752
298.24300,-1.715250529
298.24350,-1.410056122
298.24400,-0.4944728984
298.24450,1.336693548
298.24500,2.862665586
298.24550,3.167859994
298.24600,2.862665586
298.24650,3.473054402
298.24700,4.083443217
298.24750,4.083443217
298.24800,3.778248809
298.24850,3.473054402
298.24900,3.167859994
298.24950,1.03149914
298.25000,-1.715250529
298.25050,-2.93602816
298.25100,-3.546416975
298.25150,-4.767194606
298.25200,-7.513944276
298.25250,-10.26069394
298.25300,-12.09186039
298.25350,-13.92302684
298.25400,-16.97497091
298.25450,-20.02691499
298.25500,-24.2996367
298.25550,-29.18274722
298.25600,-30.70871926
298.25650,-23.99444229
298.25700,-8.734721906
298.25750,7.440581702
298.25800,16.59641393
298.25850,17.20680275
298.25900,13.84966426
298.25950,12.32369223
298.26000,15.3756363
298.26050,20.86913564
298.26100,23.61588531
298.26150,21.47952446
298.26200,16.90160834
298.26250,14.15485867
298.26300,13.84966426
298.26350,13.23927545
298.26400,11.408109
298.26450,9.271748148
298.26500,6.830192886
298.26550,4.083443217
298.26600,0.4211103247
298.26650,-1.715250529
298.26700,-2.93602816
298.26750,-3.851611383
298.26800,-3.546416975
298.26850,-2.325639345
298.26900,-1.410056122
298.26950,-2.630833752
298.27000,-5.987972237
298.27050,-7.513944276
298.27100,-5.987972237
298.27150,-4.156805791
298.27200,-4.156805791
298.27250,-4.767194606
298.27300,-3.546416975
298.27350,-1.410056122
298.27400,-0.7996673061
298.27450,-2.020444937
298.27500,-2.93602816
298.27550,-2.630833752
298.27600,-2.020444937
298.27650,-2.630833752
298.27700,-4.156805791
298.27750,-5.377583422
298.27800,-5.682777829
298.27850,-5.682777829
298.27900,-4.462000199
298.27950,-2.020444937
298.28000,0.115915917
298.28050,0.7263047324
298.28100,0.115915917
298.28150,0.4211103247
298.28200,3.167859994
298.28250,7.135387294
298.28300,10.18733137
298.28350,11.408109
298.28400,11.408109
298.28450,11.10291459
298.28500,11.71330341
298.28550,13.54446986
298.28600,15.07044189
298.28650,12.32369223
298.28700,3.473054402
298.28750,-7.513944276
298.28800,-13.31263802
298.28850,-11.48147158
298.28900,-10.26069394
298.28950,-16.3645821
298.29000,-27.35158078
298.29050,-33.45546893
298.29100,-31.31910808
298.29150,-25.82560874
298.29200,-22.46847025
298.29250,-19.41652618
298.29300,-15.14380447
298.29350,-12.09186039
298.29400,-12.70224921
298.29450,-12.09186039
298.29500,-3.851611383
298.29550,8.661359333
298.29600,17.20680275
298.29650,16.90160834
298.29700,13.23927545
298.29750,12.62888663
298.29800,15.3756363
298.29850,17.81719156
298.29900,18.12238597
298.29950,14.76524749
298.30000,8.356164925
298.30050,0.4211103247
298.30100,-4.156805791
298.30150,-5.072389014
298.30200,-5.682777829
298.30250,-7.208749868
298.30300,-6.598361052
298.30350,-3.546416975
298.30400,-1.410056122
298.30450,-4.156805791
298.30500,-7.819138683
298.30550,-7.819138683
298.30600,-4.156805791
298.30650,-1.104861714
298.30700,-0.1892784907
298.30750,-1.104861714
298.30800,-2.630833752
298.30850,-3.851611383
298.30900,-2.93602816
298.30950,-0.1892784907
298.31000,1.641887955
298.31050,1.03149914
298.31100,-0.1892784907
298.31150,0.4211103247
298.31200,3.778248809
298.31250,6.219804071
298.31300,6.219804071
298.31350,6.524998479
298.31400,8.356164925
298.31450,11.10291459
298.31500,14.15485867
298.31550,16.59641393
298.31600,16.59641393
298.31650,13.54446986
298.31700,8.661359333
298.31750,4.99902644
298.31800,3.473054402
298.31850,1.947082363
298.31900,-0.1892784907
298.31950,-2.630833752
298.32000,-3.546416975
298.32050,-4.462000199
298.32100,-5.377583422
298.32150,-7.208749868
298.32200,-9.039916314
298.32250,-10.56588835
298.32300,-10.56588835
298.32350,-8.124333091
298.32400,-4.767194606
298.32450,-2.020444937
298.32500,0.115915917
298.32550,2.557471179
298.32600,6.219804071
298.32650,9.576942556
298.32700,11.10291459
298.32750,10.79772019
298.32800,10.79772019
298.32850,10.79772019
298.32900,9.882136963
298.32950,8.050970517
298.33000,5.914609663
298.33050,4.693832032
298.33100,1.641887955
298.33150,-4.156805791
298.33200,-11.78666598
298.33250,-16.05938769
298.33300,-14.83861006
298.33350,-10.56588835
298.33400,-7.208749868
298.33450,-5.682777829
298.33500,-5.682777829
298.33550,-5.987972237
298.33600,-5.377583422
298.33650,-3.241222568
298.33700,-0.7996673061
298.33750,0.4211103247
298.33800,0.115915917
298.33850,-1.104861714
298.33900,-1.715250529
298.33950,-2.020444937
298.34000,-2.325639345
298.34050,-2.325639345
298.34100,-1.410056122
298.34150,0.115915917
298.34200,2.252276771
298.34250,6.830192886
298.34300,12.93408104
298.34350,15.3756363
298.34400,11.71330341
298.34450,5.914609663
298.34500,2.862665586
298.34550,3.778248809
298.34600,5.304220848
298.34650,5.914609663
298.34700,6.524998479
298.34750,5.609415256
298.34800,3.167859994
298.34850,0.4211103247
298.34900,0.115915917
298.34950,0.4211103247
298.35000,-0.4944728984
298.35050,-2.630833752
298.35100,-2.630833752
298.35150,-1.104861714
298.35200,-1.104861714
298.35250,-3.241222568
298.35300,-3.241222568
298.35350,-0.4944728984
298.35400,1.336693548
298.35450,1.03149914
298.35500,0.4211103247
298.35550,1.641887955
298.35600,3.473054402
298.35650,3.167859994
298.35700,2.252276771
298.35750,1.947082363
298.35800,0.4211103247
298.35850,-2.93602816
298.35900,-5.682777829
298.35950,-4.767194606
298.36000,-2.020444937
298.36050,-0.4944728984
298.36100,-0.4944728984
298.36150,0.115915917
298.36200,1.947082363
298.36250,3.167859994
298.36300,3.778248809
298.36350,4.693832032
298.36400,5.304220848
298.36450,4.99902644
298.36500,3.167859994
298.36550,1.641887955
298.36600,1.336693548
298.36650,1.947082363
298.36700,3.167859994
298.36750,3.167859994
298.36800,1.947082363
298.36850,0.7263047324
298.36900,0.7263047324
298.36950,-0.1892784907
298.37000,-4.156805791
298.37050,-9.345110722
298.37100,-12.70224921
298.37150,-13.92302684
298.37200,-16.97497091
298.37250,-20.94249821
298.37300,-20.63730381
298.37350,-12.70224921
298.37400,-2.020444937
298.37450,6.219804071
298.37500,14.76524749
298.37550,25.75224616
298.37600,34.60288399
298.37650,35.2132728
298.37700,28.80419024
298.37750,22.70030209
298.37800,20.86913564
298.37850,19.3431636
298.37900,13.84966426
298.37950,5.304220848
298.38000,-2.325639345
298.38050,-7.819138683
298.38100,-9.650305129
298.38150,-7.513944276
298.38200,-3.546416975
298.38250,-0.7996673061
298.38300,0.115915917
298.38350,1.641887955
298.38400,5.609415256
298.38450,9.882136963
298.38500,10.79772019
298.38550,7.135387294
298.38600,0.4211103247
298.38650,-5.377583422
298.38700,-7.208749868
298.38750,-6.293166645
298.38800,-7.208749868
298.38850,-13.31263802
298.38900,-20.94249821
298.38950,-25.52041433
298.39000,-27.65677518
298.39050,-29.18274722
298.39100,-28.267164
298.39150,-21.24769262
298.39200,-9.650305129
298.39250,-1.715250529
298.39300,-0.1892784907
298.39350,0.115915917
298.39400,3.167859994
298.39450,7.440581702
298.39500,7.440581702
298.39550,3.167859994
298.39600,-1.104861714
298.39650,-2.93602816
298.39700,-1.715250529
298.39750,0.4211103247
298.39800,1.336693548
298.39850,-0.4944728984
298.39900,-3.546416975
298.39950,-1.715250529
298.40000,4.693832032
298.40050,10.49252578
298.40100,9.576942556
298.40150,4.083443217
298.40200,0.115915917
298.40250,-1.715250529
298.40300,-3.546416975
298.40350,-5.377583422
298.40400,-4.767194606
298.40450,-1.715250529
298.40500,-0.1892784907
298.40550,-1.715250529
298.40600,-4.156805791
298.40650,-5.682777829
298.40700,-7.819138683
298.40750,-10.87108276
298.40800,-12.09186039
298.40850,-9.345110722
298.40900,-4.462000199
298.40950,-1.104861714
298.41000,0.115915917
298.41050,1.336693548
298.41100,1.947082363
298.41150,1.641887955
298.41200,1.336693548
298.41250,2.862665586
298.41300,4.693832032
298.41350,5.304220848
298.41400,3.778248809
298.41450,1.947082363
298.41500,0.115915917
298.41550,-1.715250529
298.41600,-3.851611383
298.41650,-4.767194606
298.41700,-3.241222568
298.41750,0.115915917
298.41800,4.083443217
298.41850,6.524998479
298.41900,6.219804071
298.41950,2.862665586
298.42000,-1.410056122
298.42050,-4.156805791
298.42100,-3.546416975
298.42150,0.115915917
298.42200,4.083443217
298.42250,7.135387294
298.42300,7.135387294
298.42350,4.083443217
298.42400,1.03149914
298.42450,0.115915917
298.42500,1.336693548
298.42550,3.167859994
298.42600,3.778248809
298.42650,3.167859994
298.42700,2.252276771
298.42750,1.641887955
298.42800,2.557471179
298.42850,4.693832032
298.42900,5.609415256
298.42950,4.083443217
298.43000,1.947082363
298.43050,1.336693548
298.43100,1.641887955
298.43150,0.4211103247
298.43200,-1.715250529
298.43250,-2.93602816
298.43300,-1.715250529
298.43350,-0.4944728984
298.43400,-1.104861714
298.43450,-2.020444937
298.43500,-1.104861714
298.43550,0.7263047324
298.43600,2.252276771
298.43650,2.557471179
298.43700,2.252276771
298.43750,2.252276771
298.43800,2.252276771
298.43850,2.252276771
298.43900,1.641887955
298.43950,0.4211103247
298.44000,-0.1892784907
298.44050,0.115915917
298.44100,1.03149914
298.44150,2.252276771
298.44200,2.862665586
298.44250,3.473054402
298.44300,3.473054402
298.44350,2.862665586
298.44400,2.252276771
298.44450,2.862665586
298.44500,4.083443217
298.44550,3.778248809
298.44600,2.252276771
298.44650,0.115915917
298.44700,-2.630833752
298.44750,-5.377583422
298.44800,-7.819138683
298.44850,-9.039916314
298.44900,-8.429527499
298.44950,-5.987972237
298.45000,-3.546416975
298.45050,-3.546416975
298.45100,-6.598361052
298.45150,-6.90355546
298.45200,-0.4944728984
298.45250,8.96655374
298.45300,12.62888663
298.45350,7.440581702
298.45400,0.7263047324
298.45450,0.115915917
298.45500,4.083443217
298.45550,6.524998479
298.45600,4.693832032
298.45650,2.557471179
298.45700,2.862665586
298.45750,3.778248809
298.45800,3.473054402
298.45850,2.252276771
298.45900,0.7263047324
298.45950,0.115915917
298.46000,0.115915917
298.46050,1.03149914
298.46100,1.947082363
298.46150,0.115915917
298.46200,-4.156805791
298.46250,-7.819138683
298.46300,-7.513944276
298.46350,-3.851611383
298.46400,1.336693548
298.46450,6.219804071
298.46500,9.882136963
298.46550,11.408109
298.46600,11.408109
298.46650,10.79772019
298.46700,9.882136963
298.46750,8.356164925
298.46800,4.99902644
298.46850,0.115915917
298.46900,-5.987972237
298.46950,-10.87108276
298.47000,-12.09186039
298.47050,-9.955499537
298.47100,-5.987972237
298.47150,-2.93602816
298.47200,-0.7996673061
298.47250,1.641887955
298.47300,5.304220848
298.47350,6.219804071
298.47400,1.641887955
298.47450,-5.682777829
298.47500,-11.78666598
298.47550,-15.75419328
298.47600,-19.11133177
298.47650,-22.77366466
298.47700,-24.2996367
298.47750,-22.16327585
298.47800,-18.19574855
298.47850,-14.83861006
298.47900,-12.09186039
298.47950,-9.039916314
298.48000,-5.682777829
298.48050,-3.546416975
298.48100,-2.630833752
298.48150,-2.93602816
298.48200,-2.630833752
298.48250,0.7263047324
298.48300,8.96655374
298.48350,17.20680275
298.48400,19.3431636
298.48450,15.07044189
298.48500,9.882136963
298.48550,8.356164925
298.48600,9.271748148
298.48650,7.74577611
298.48700,3.778248809
298.48750,0.115915917
298.48800,-0.1892784907
298.48850,1.641887955
298.48900,3.473054402
298.48950,4.388637625
298.49000,4.693832032
298.49050,5.304220848
298.49100,4.99902644
298.49150,3.473054402
298.49200,1.641887955
298.49250,1.03149914
298.49300,2.252276771
298.49350,4.083443217
298.49400,4.693832032
298.49450,4.388637625
298.49500,4.693832032
298.49550,6.219804071
298.49600,7.440581702
298.49650,7.440581702
298.49700,4.693832032
298.49750,0.7263047324
298.49800,-2.325639345
298.49850,-3.546416975
298.49900,-3.241222568
298.49950,-2.630833752
298.50000,-2.630833752
298.50050,-2.325639345
298.50100,-2.630833752
298.50150,-4.462000199
298.50200,-6.90355546
298.50250,-7.208749868
298.50300,-3.851611383
298.50350,-0.4944728984
298.50400,-0.1892784907
298.50450,-1.715250529
298.50500,-2.020444937
298.50550,-0.7996673061
298.50600,0.4211103247
298.50650,2.252276771
298.50700,5.609415256
298.50750,8.96655374
298.50800,10.49252578
298.50850,9.576942556
298.50900,9.271748148
298.50950,9.882136963
298.51000,9.882136963
298.51050,7.74577611
298.51100,5.304220848
298.51150,3.473054402
298.51200,1.947082363
298.51250,0.115915917
298.51300,-0.7996673061
298.51350,-1.104861714
298.51400,-0.7996673061
298.51450,-0.7996673061
298.51500,-0.7996673061
298.51550,-1.410056122
298.51600,-2.020444937
298.51650,-1.104861714
298.51700,2.252276771
298.51750,5.609415256
298.51800,5.914609663
298.51850,3.167859994
298.51900,0.4211103247
298.51950,-0.1892784907
298.52000,-1.104861714
298.52050,-2.93602816
298.52100,-4.462000199
298.52150,-4.767194606
298.52200,-4.767194606
298.52250,-5.072389014
298.52300,-4.767194606
298.52350,-3.546416975
298.52400,-2.020444937
298.52450,-1.104861714
298.52500,0.115915917
298.52550,1.641887955
298.52600,3.778248809
298.52650,7.135387294
298.52700,12.32369223
298.52750,16.59641393
298.52800,15.3756363
298.52850,8.356164925
298.52900,1.336693548
298.52950,-1.410056122
298.53000,-1.104861714
298.53050,-0.1892784907
298.53100,0.115915917
298.53150,0.4211103247
298.53200,0.115915917
298.53250,-0.7996673061
298.53300,-1.410056122
298.53350,-0.1892784907
298.53400,-0.1892784907
298.53450,-3.546416975
298.53500,-8.429527499
298.53550,-10.87108276
298.53600,-11.17627717
298.53650,-12.09186039
298.53700,-13.31263802
298.53750,-13.31263802
298.53800,-11.17627717
298.53850,-8.734721906
298.53900,-6.293166645
298.53950,-3.546416975
298.54000,-1.715250529
298.54050,-2.93602816
298.54100,-5.987972237
298.54150,-6.90355546
298.54200,-5.682777829
298.54250,-5.682777829
298.54300,-8.734721906
298.54350,-11.48147158
298.54400,-11.78666598
298.54450,-11.48147158
298.54500,-12.09186039
298.54550,-9.650305129
298.54600,0.115915917
298.54650,15.3756363
298.54700,26.05744057
298.54750,26.05744057
298.54800,19.3431636
298.54850,13.23927545
298.54900,11.10291459
298.54950,11.10291459
298.55000,10.18733137
298.55050,8.96655374
298.55100,8.356164925
298.55150,8.356164925
298.55200,7.74577611
298.55250,5.914609663
298.55300,2.557471179
298.55350,-1.104861714
298.55400,-6.293166645
298.55450,-12.09186039
298.55500,-16.66977651
298.55550,-17.89055414
298.55600,-14.83861006
298.55650,-9.955499537
298.55700,-5.987972237
298.55750,-3.851611383
298.55800,-2.93602816
298.55850,-3.241222568
298.55900,-4.156805791
298.55950,-4.462000199
298.56000,-2.93602816
298.56050,-0.7996673061
298.56100,-0.1892784907
298.56150,-1.410056122
298.56200,-2.020444937
298.56250,0.115915917
298.56300,2.557471179
298.56350,3.778248809
298.56400,2.862665586
298.56450,0.7263047324
298.56500,-1.410056122
298.56550,-5.377583422
298.56600,-9.955499537
298.56650,-12.3970548
298.56700,-10.56588835
298.56750,-5.987972237
298.56800,-1.410056122
298.56850,2.252276771
298.56900,5.914609663
298.56950,9.576942556
298.57000,10.79772019
298.57050,8.661359333
298.57100,5.609415256
298.57150,4.693832032
298.57200,5.914609663
298.57250,5.914609663
298.57300,4.693832032
298.57350,2.862665586
298.57400,2.252276771
298.57450,2.557471179
298.57500,1.947082363
298.57550,0.115915917
298.57600,-4.156805791
298.57650,-8.734721906
298.57700,-11.48147158
298.57750,-11.48147158
298.57800,-9.650305129
298.57850,-9.039916314
298.57900,-8.734721906
298.57950,-5.987972237
298.58000,0.115915917
298.58050,6.830192886
298.58100,11.10291459
298.58150,12.62888663
298.58200,13.54446986
298.58250,13.23927545
298.58300,11.71330341
298.58350,9.882136963
298.58400,9.882136963
298.58450,10.49252578
298.58500,8.96655374
298.58550,5.304220848
298.58600,2.557471179
298.58650,1.03149914
298.58700,-0.1892784907
298.58750,-1.715250529
298.58800,-1.715250529
298.58850,0.115915917
298.58900,1.336693548
298.58950,0.4211103247
298.59000,0.115915917
298.59050,0.7263047324
298.59100,-0.1892784907
298.59150,-5.682777829
298.59200,-11.48147158
298.59250,-13.00744361
298.59300,-11.17627717
298.59350,-12.09186039
298.59400,-16.97497091
298.59450,-20.63730381
298.59500,-19.11133177
298.59550,-15.44899888
298.59600,-12.70224921
298.59650,-9.650305129
298.59700,-2.325639345
298.59750,9.271748148
298.59800,19.64835801
298.59850,23.92107972
298.59900,23.92107972
298.59950,22.39510768
298.60000,19.03796919
298.60050,10.49252578
298.60100,-1.715250529
298.60150,-13.00744361
298.60200,-19.41652618
298.60250,-21.85808144
298.60300,-22.16327585
298.60350,-20.94249821
298.60400,-17.89055414
298.60450,-13.31263802
298.60500,-4.767194606
298.60550,10.18733137
298.60600,29.41457906
298.60650,42.23274418
298.60700,40.70677214
298.60750,30.63535669
298.60800,23.3106909
298.60850,22.08991327
298.60900,18.73277479
298.60950,8.050970517
298.61000,-4.156805791
298.61050,-9.345110722
298.61100,-6.598361052
298.61150,-2.020444937
298.61200,-0.4944728984
298.61250,-2.630833752
298.61300,-7.208749868
298.61350,-13.00744361
298.61400,-18.19574855
298.61450,-21.24769262
298.61500,-20.3321094
298.61550,-16.97497091
298.61600,-14.53341565
298.61650,-13.92302684
298.61700,-13.00744361
298.61750,-6.90355546
298.61800,6.219804071
298.61850,20.86913564
298.61900,27.58341261
298.61950,24.83666294
298.62000,19.64835801
298.62050,18.42758038
298.62100,20.25874683
298.62150,19.3431636
298.62200,14.76524749
298.62250,10.79772019
298.62300,8.661359333
298.62350,6.830192886
298.62400,3.473054402
298.62450,0.7263047324
298.62500,1.336693548
298.62550,3.167859994
298.62600,3.473054402
298.62650,2.557471179
298.62700,2.252276771
298.62750,2.252276771
298.62800,0.4211103247
298.62850,-2.630833752
298.62900,-5.072389014
298.62950,-5.377583422
298.63000,-5.377583422
298.63050,-5.987972237
298.63100,-5.377583422
298.63150,-2.93602816
298.63200,-0.1892784907
298.63250,1.03149914
298.63300,1.641887955
298.63350,1.336693548
298.63400,0.115915917
298.63450,-3.241222568
298.63500,-6.293166645
298.63550,-5.987972237
298.63600,-3.241222568
298.63650,-0.1892784907
298.63700,1.03149914
298.63750,-0.1892784907
298.63800,-4.767194606
298.63850,-9.955499537
298.63900,-12.3970548
298.63950,-10.26069394
298.64000,-6.598361052
298.64050,-5.377583422
298.64100,-5.987972237
298.64150,-4.462000199
298.64200,-1.715250529
298.64250,-1.715250529
298.64300,-5.987972237
298.64350,-10.87108276
298.64400,-12.70224921
298.64450,-12.3970548
298.64500,-10.87108276
298.64550,-6.598361052
298.64600,-0.4944728984
298.64650,3.778248809
298.64700,3.167859994
298.64750,-1.104861714
298.64800,-4.156805791
298.64850,-3.851611383
298.64900,-2.325639345
298.64950,-2.93602816
298.65000,-6.598361052
298.65050,-10.56588835
298.65100,-11.78666598
298.65150,-10.56588835
298.65200,-9.039916314
298.65250,-7.819138683
298.65300,-6.90355546
298.65350,-5.072389014
298.65400,-2.020444937
298.65450,-0.1892784907
298.65500,0.115915917
298.65550,-1.104861714
298.65600,-2.325639345
298.65650,-2.325639345
298.65700,-0.4944728984
298.65750,2.557471179
298.65800,6.219804071
298.65850,8.661359333
298.65900,9.576942556
298.65950,9.882136963
298.66000,10.49252578
298.66050,10.79772019
298.66100,10.18733137
298.66150,8.050970517
298.66200,5.304220848
298.66250,3.778248809
298.66300,4.083443217
298.66350,5.304220848
298.66400,6.524998479
298.66450,8.96655374
298.66500,12.01849782
298.66550,13.84966426
298.66600,10.49252578
298.66650,3.473054402
298.66700,-2.325639345
298.66750,-3.851611383
298.66800,-2.93602816
298.66850,-2.630833752
298.66900,-3.241222568
298.66950,-2.630833752
298.67000,0.115915917
298.67050,1.641887955
298.67100,2.252276771
298.67150,1.947082363
298.67200,1.336693548
298.67250,0.115915917
298.67300,-0.7996673061
298.67350,-1.410056122
298.67400,-1.104861714
298.67450,-1.104861714
298.67500,-2.325639345
298.67550,-4.156805791
298.67600,-5.072389014
298.67650,-4.156805791
298.67700,-2.93602816
298.67750,-2.325639345
298.67800,-2.630833752
298.67850,-3.241222568
298.67900,-3.546416975
298.67950,-3.241222568
298.68000,-2.325639345
298.68050,-0.1892784907
298.68100,1.947082363
298.68150,3.473054402
298.68200,4.083443217
298.68250,3.778248809
298.68300,2.862665586
298.68350,1.336693548
298.68400,0.115915917
298.68450,0.115915917
298.68500,0.4211103247
298.68550,0.7263047324
298.68600,0.115915917
298.68650,-0.4944728984
298.68700,0.7263047324
298.68750,2.252276771
298.68800,1.03149914
298.68850,-1.715250529
298.68900,-3.851611383
298.68950,-4.767194606
298.69000,-6.598361052
298.69050,-8.124333091
298.69100,-6.598361052
298.69150,-2.325639345
298.69200,0.7263047324
298.69250,0.4211103247
298.69300,-1.715250529
298.69350,-2.630833752
298.69400,-1.104861714
298.69450,0.7263047324
298.69500,1.641887955
298.69550,1.947082363
298.69600,1.947082363
298.69650,1.947082363
298.69700,1.03149914
298.69750,-0.1892784907
298.69800,-0.7996673061
298.69850,-0.4944728984
298.69900,0.115915917
298.69950,-0.1892784907
298.70000,-1.104861714
298.70050,-0.4944728984
298.70100,1.336693548
298.70150,2.557471179
298.70200,3.167859994
298.70250,5.609415256
298.70300,10.49252578
298.70350,12.93408104
298.70400,10.18733137
298.70450,4.083443217
298.70500,-1.104861714
298.70550,-5.987972237
298.70600,-10.56588835
298.70650,-10.26069394
298.70700,-2.020444937
298.70750,10.79772019
298.70800,18.42758038
298.70850,15.3756363
298.70900,6.219804071
298.70950,-0.4944728984
298.71000,-3.546416975
298.71050,-4.767194606
298.71100,-6.293166645
298.71150,-5.377583422
298.71200,1.03149914
298.71250,12.62888663
298.71300,22.70030209
298.71350,25.14185735
298.71400,19.03796919
298.71450,9.882136963
298.71500,4.388637625
298.71550,4.083443217
298.71600,5.304220848
298.71650,5.304220848
298.71700,3.473054402
298.71750,1.03149914
298.71800,0.115915917
298.71850,0.7263047324
298.71900,3.473054402
298.71950,5.304220848
298.72000,4.083443217
298.72050,1.03149914
298.72100,-2.020444937
298.72150,-4.156805791
298.72200,-5.377583422
298.72250,-5.987972237
298.72300,-5.377583422
298.72350,-4.767194606
298.72400,-4.767194606
298.72450,-5.682777829
298.72500,-6.293166645
298.72550,-6.293166645
298.72600,-5.377583422
298.72650,-4.156805791
298.72700,-2.325639345
298.72750,-1.410056122
298.72800,-1.410056122
298.72850,-1.715250529
298.72900,-1.104861714
298.72950,-0.1892784907
298.73000,-0.1892784907
298.73050,-1.410056122
298.73100,-2.325639345
298.73150,-2.93602816
298.73200,-2.630833752
298.73250,-2.020444937
298.73300,-0.7996673061
298.73350,-1.715250529
298.73400,-5.682777829
298.73450,-10.56588835
298.73500,-12.3970548
298.73550,-9.650305129
298.73600,-5.682777829
298.73650,-2.93602816
298.73700,-2.020444937
298.73750,-2.020444937
298.73800,-2.325639345
298.73850,-2.93602816
298.73900,-2.93602816
298.73950,-2.020444937
298.74000,-1.410056122
298.74050,-2.630833752
298.74100,-5.987972237
298.74150,-9.955499537
298.74200,-12.70224921
298.74250,-11.48147158
298.74300,-6.293166645
298.74350,0.115915917
298.74400,4.693832032
298.74450,5.914609663
298.74500,4.693832032
298.74550,3.473054402
298.74600,2.557471179
298.74650,1.336693548
298.74700,-0.1892784907
298.74750,-1.410056122
298.74800,-1.715250529
298.74850,-1.104861714
298.74900,-1.104861714
298.74950,-2.325639345
298.75000,-3.546416975
298.75050,-3.546416975
298.75100,-2.020444937
298.75150,0.115915917
298.75200,1.947082363
298.75250,3.473054402
298.75300,4.388637625
298.75350,4.388637625
298.75400,5.304220848
298.75450,6.524998479
298.75500,8.050970517
298.75550,8.356164925
298.75600,7.74577611
298.75650,6.830192886
298.75700,5.609415256
298.75750,3.778248809
298.75800,1.641887955
298.75850,1.03149914
298.75900,1.336693548
298.75950,1.336693548
298.76000,-0.7996673061
298.76050,-4.767194606
298.76100,-8.124333091
298.76150,-9.955499537
298.76200,-9.650305129
298.76250,-7.513944276
298.76300,-3.241222568
298.76350,0.4211103247
298.76400,1.947082363
298.76450,0.115915917
298.76500,-2.630833752
298.76550,-4.156805791
298.76600,-2.325639345
298.76650,0.7263047324
298.76700,2.862665586
298.76750,2.557471179
298.76800,1.641887955
298.76850,1.336693548
298.76900,1.03149914
298.76950,0.115915917
298.77000,-1.104861714
298.77050,-1.715250529
298.77100,-2.020444937
298.77150,-2.93602816
298.77200,-4.767194606
298.77250,-6.598361052
298.77300,-8.734721906
298.77350,-11.48147158
298.77400,-12.09186039
298.77450,-7.208749868
298.77500,1.641887955
298.77550,10.18733137
298.77600,13.84966426
298.77650,12.32369223
298.77700,9.882136963
298.77750,8.96655374
298.77800,9.271748148
298.77850,9.882136963
298.77900,9.576942556
298.77950,7.74577611
298.78000,5.304220848
298.78050,4.083443217
298.78100,5.304220848
298.78150,8.050970517
298.78200,9.882136963
298.78250,10.49252578
298.78300,11.10291459
298.78350,11.71330341
298.78400,11.408109
298.78450,10.49252578
298.78500,9.882136963
298.78550,9.271748148
298.78600,7.74577611
298.78650,4.693832032
298.78700,1.336693548
298.78750,0.115915917
298.78800,0.4211103247
298.78850,1.641887955
298.78900,2.252276771
298.78950,1.641887955
298.79000,1.03149914
298.79050,1.336693548
298.79100,2.557471179
298.79150,3.167859994
298.79200,1.03149914
298.79250,-3.241222568
298.79300,-7.208749868
298.79350,-10.26069394
298.79400,-13.31263802
298.79450,-16.3645821
298.79500,-16.97497091
298.79550,-15.44899888
298.79600,-15.14380447
298.79650,-16.97497091
298.79700,-15.75419328
298.79750,-5.377583422
298.79800,9.576942556
298.79850,19.3431636
298.79900,19.64835801
298.79950,15.68083071
298.80000,13.23927545
298.80050,12.32369223
298.80100,8.96655374
298.80150,4.083443217
298.80200,0.7263047324
298.80250,0.4211103247
298.80300,1.03149914
298.80350,1.641887955
298.80400,2.557471179
298.80450,4.083443217
298.80500,4.99902644
298.80550,5.914609663
298.80600,7.135387294
298.80650,7.440581702
298.80700,5.304220848
298.80750,1.947082363
298.80800,0.7263047324
298.80850,2.557471179
298.80900,5.609415256
298.80950,6.219804071
298.81000,4.083443217
298.81050,0.115915917
298.81100,-2.325639345
298.81150,-2.630833752
298.81200,-1.715250529
298.81250,-2.325639345
298.81300,-5.072389014
298.81350,-8.429527499
298.81400,-10.56588835
298.81450,-10.56588835
298.81500,-9.955499537
298.81550,-9.650305129
298.81600,-9.650305129
298.81650,-9.650305129
298.81700,-9.039916314
298.81750,-7.513944276
298.81800,-5.072389014
298.81850,-3.241222568
298.81900,-3.851611383
298.81950,-5.682777829
298.82000,-5.987972237
298.82050,-3.546416975
298.82100,-0.1892784907
298.82150,1.03149914
298.82200,1.947082363
298.82250,2.252276771
298.82300,1.947082363
298.82350,0.7263047324
298.82400,-0.4944728984
298.82450,-1.410056122
298.82500,-2.020444937
298.82550,-2.630833752
298.82600,-1.715250529
298.82650,0.4211103247
298.82700,2.862665586
298.82750,4.083443217
298.82800,4.99902644
298.82850,6.524998479
298.82900,7.440581702
298.82950,5.914609663
298.83000,2.862665586
298.83050,0.115915917
298.83100,-2.93602816
298.83150,-7.208749868
298.83200,-12.09186039
298.83250,-14.53341565
298.83300,-13.31263802
298.83350,-10.87108276
298.83400,-9.955499537
298.83450,-10.56588835
298.83500,-11.48147158
298.83550,-11.17627717
298.83600,-9.955499537
298.83650,-9.345110722
298.83700,-9.955499537
298.83750,-10.26069394
298.83800,-7.513944276
298.83850,-3.241222568
298.83900,-1.104861714
298.83950,-2.325639345
298.84000,-3.851611383
298.84050,-3.851611383
298.84100,-5.072389014
298.84150,-9.955499537
298.84200,-14.83861006
298.84250,-14.53341565
298.84300,-9.039916314
298.84350,-3.546416975
298.84400,-0.7996673061
298.84450,1.336693548
298.84500,5.304220848
298.84550,8.050970517
298.84600,5.609415256
298.84650,0.7263047324
298.84700,-0.4944728984
298.84750,1.336693548
298.84800,3.778248809
298.84850,4.693832032
298.84900,4.99902644
298.84950,6.830192886
298.85000,8.661359333
298.85050,8.050970517
298.85100,4.388637625
298.85150,0.4211103247
298.85200,-1.104861714
298.85250,-0.1892784907
298.85300,1.641887955
298.85350,3.473054402
298.85400,4.388637625
298.85450,4.388637625
298.85500,4.083443217
298.85550,3.473054402
298.85600,3.473054402
298.85650,4.083443217
298.85700,4.388637625
298.85750,4.083443217
298.85800,3.473054402
298.85850,3.167859994
298.85900,3.167859994
298.85950,2.252276771
298.86000,1.641887955
298.86050,2.557471179
298.86100,4.388637625
298.86150,5.304220848
298.86200,4.083443217
298.86250,3.167859994
298.86300,4.083443217
298.86350,6.524998479
298.86400,8.050970517
298.86450,8.356164925
298.86500,7.440581702
298.86550,6.524998479
298.86600,5.914609663
298.86650,5.609415256
298.86700,5.304220848
298.86750,4.388637625
298.86800,3.778248809
298.86850,3.167859994
298.86900,2.557471179
298.86950,1.947082363
298.87000,1.947082363
298.87050,2.252276771
298.87100,2.557471179
298.87150,1.947082363
298.87200,0.7263047324
298.87250,0.4211103247
298.87300,2.252276771
298.87350,4.083443217
298.87400,4.083443217
298.87450,0.7263047324
298.87500,-3.851611383
298.87550,-7.513944276
298.87600,-8.124333091
298.87650,-5.987972237
298.87700,-2.93602816
298.87750,-1.410056122
298.87800,-1.410056122
298.87850,-0.7996673061
298.87900,1.641887955
298.87950,4.388637625
298.88000,5.304220848
298.88050,4.388637625
298.88100,2.862665586
298.88150,2.252276771
298.88200,1.641887955
298.88250,0.4211103247
298.88300,-0.1892784907
298.88350,0.115915917
298.88400,1.336693548
298.88450,1.336693548
298.88500,0.7263047324
298.88550,0.4211103247
298.88600,0.115915917
298.88650,0.7263047324
298.88700,1.947082363
298.88750,2.252276771
298.88800,0.115915917
298.88850,-2.325639345
298.88900,-3.241222568
298.88950,-1.104861714
298.89000,1.03149914
298.89050,1.336693548
298.89100,1.03149914
298.89150,1.336693548
298.89200,1.947082363
298.89250,1.336693548
298.89300,0.115915917
298.89350,0.115915917
298.89400,-0.1892784907
298.89450,-0.4944728984
298.89500,-0.1892784907
298.89550,1.641887955
298.89600,3.473054402
298.89650,2.557471179
298.89700,0.115915917
298.89750,-2.325639345
298.89800,-3.851611383
298.89850,-5.682777829
298.89900,-7.513944276
298.89950,-7.819138683
298.90000,-5.987972237
298.90050,-4.767194606
298.90100,-4.767194606
298.90150,-5.377583422
298.90200,-5.682777829
298.90250,-4.462000199
298.90300,-2.325639345
298.90350,-1.410056122
298.90400,-2.93602816
298.90450,-6.598361052
298.90500,-8.124333091
298.90550,-5.987972237
298.90600,-2.325639345
298.90650,-0.7996673061
298.90700,-2.020444937
298.90750,-3.241222568
298.90800,-2.630833752
298.90850,-1.104861714
298.90900,-1.715250529
298.90950,-4.767194606
298.91000,-7.513944276
298.91050,-7.513944276
298.91100,-5.377583422
298.91150,-3.851611383
298.91200,-1.715250529
298.91250,4.083443217
298.91300,14.46005308
298.91350,21.47952446
298.91400,20.25874683
298.91450,13.23927545
298.91500,7.74577611
298.91550,5.304220848
298.91600,3.778248809
298.91650,1.947082363
298.91700,1.336693548
298.91750,0.7263047324
298.91800,-3.241222568
298.91850,-10.26069394
298.91900,-14.83861006
298.91950,-15.14380447
298.92000,-14.53341565
298.92050,-13.61783243
298.92100,-8.734721906
298.92150,-0.1892784907
298.92200,3.473054402
298.92250,-0.4944728984
298.92300,-5.682777829
298.92350,-1.104861714
298.92400,11.408109
298.92450,22.70030209
298.92500,26.05744057
298.92550,24.53146853
298.92600,21.78471886
298.92650,18.12238597
298.92700,13.84966426
298.92750,10.49252578
298.92800,8.050970517
298.92850,5.304220848
298.92900,1.336693548
298.92950,-2.93602816
298.93000,-8.429527499
298.93050,-14.53341565
298.93100,-19.72172058
298.93150,-20.02691499
298.93200,-16.05938769
298.93250,-11.17627717
298.93300,-7.819138683
298.93350,-5.377583422
298.93400,-2.93602816
298.93450,-1.104861714
298.93500,0.4211103247
298.93550,3.473054402
298.93600,5.609415256
298.93650,3.473054402
298.93700,-2.630833752
298.93750,-8.124333091
298.93800,-8.734721906
298.93850,-6.598361052
298.93900,-5.682777829
298.93950,-5.377583422
298.94000,-2.630833752
298.94050,1.641887955
298.94100,4.693832032
298.94150,4.388637625
298.94200,3.167859994
298.94250,2.557471179
298.94300,2.862665586
298.94350,2.557471179
298.94400,1.336693548
298.94450,0.115915917
298.94500,-0.7996673061
298.94550,0.115915917
298.94600,3.167859994
298.94650,6.219804071
298.94700,6.830192886
298.94750,5.914609663
298.94800,4.693832032
298.94850,4.693832032
298.94900,4.693832032
298.94950,4.99902644
298.95000,4.99902644
298.95050,3.473054402
298.95100,-1.104861714
298.95150,-6.293166645
298.95200,-9.039916314
298.95250,-7.208749868
298.95300,-4.462000199
298.95350,-3.546416975
298.95400,-4.156805791
298.95450,-3.241222568
298.95500,0.115915917
298.95550,4.388637625
298.95600,6.524998479
298.95650,6.524998479
298.95700,6.524998479
298.95750,9.271748148
298.95800,11.408109
298.95850,9.271748148
298.95900,3.167859994
298.95950,-1.104861714
298.96000,-1.104861714
298.96050,0.115915917
298.96100,-0.4944728984
298.96150,-2.630833752
298.96200,-3.546416975
298.96250,-3.546416975
298.96300,-5.377583422
298.96350,-7.819138683
298.96400,-7.513944276
298.96450,-4.156805791
298.96500,-2.020444937
298.96550,-1.715250529
298.96600,-0.1892784907
298.96650,3.778248809
298.96700,6.524998479
298.96750,5.304220848
298.96800,3.167859994
298.96850,2.862665586
298.96900,3.778248809
298.96950,3.778248809
298.97000,3.473054402
298.97050,4.083443217
298.97100,4.388637625
298.97150,4.083443217
298.97200,3.778248809
298.97250,3.167859994
298.97300,0.7263047324
298.97350,-2.630833752
298.97400,-5.377583422
298.97450,-6.293166645
298.97500,-7.208749868
298.97550,-8.429527499
298.97600,-8.429527499
298.97650,-6.598361052
298.97700,-6.293166645
298.97750,-8.124333091
298.97800,-6.598361052
298.97850,1.641887955
298.97900,12.62888663
298.97950,16.90160834
298.98000,12.93408104
298.98050,6.524998479
298.98100,3.473054402
298.98150,3.473054402
298.98200,3.778248809
298.98250,2.557471179
298.98300,0.4211103247
298.98350,-0.1892784907
298.98400,2.862665586
298.98450,9.576942556
298.98500,14.15485867
298.98550,12.32369223
298.98600,5.914609663
298.98650,1.947082363
298.98700,2.557471179
298.98750,4.693832032
298.98800,4.693832032
298.98850,3.167859994
298.98900,1.641887955
298.98950,-0.1892784907
298.99000,-3.241222568
298.99050,-4.767194606
298.99100,-3.546416975
298.99150,-2.020444937
298.99200,-2.630833752
298.99250,-4.462000199
298.99300,-4.767194606
298.99350,-2.630833752
298.99400,-1.410056122
298.99450,-2.630833752
298.99500,-5.377583422
298.99550,-7.208749868
298.99600,-8.124333091
298.99650,-7.819138683
298.99700,-6.293166645
298.99750,-4.156805791
298.99800,-2.93602816
298.99850,-3.241222568
298.99900,-3.546416975
298.99950,-3.241222568
299.00000,-2.020444937
299.00050,-1.715250529
299.00100,-1.104861714
299.00150,0.115915917
299.00200,1.03149914
299.00250,0.7263047324
299.00300,-1.715250529
299.00350,-3.546416975
299.00400,-2.325639345
299.00450,1.03149914
299.00500,3.473054402
299.00550,4.083443217
299.00600,3.167859994
299.00650,2.557471179
299.00700,1.947082363
299.00750,1.947082363
299.00800,2.557471179
299.00850,4.388637625
299.00900,5.304220848
299.00950,3.473054402
299.01000,0.115915917
299.01050,-2.93602816
299.01100,-4.767194606
299.01150,-5.377583422
299.01200,-5.682777829
299.01250,-5.072389014
299.01300,-3.241222568
299.01350,-0.4944728984
299.01400,1.947082363
299.01450,2.862665586
299.01500,1.641887955
299.01550,0.115915917
299.01600,0.115915917
299.01650,2.252276771
299.01700,4.693832032
299.01750,4.693832032
299.01800,2.252276771
299.01850,0.4211103247
299.01900,1.03149914
299.01950,2.862665586
299.02000,2.862665586
299.02050,0.115915917
299.02100,-3.241222568
299.02150,-5.377583422
299.02200,-6.598361052
299.02250,-6.598361052
299.02300,-6.598361052
299.02350,-8.124333091
299.02400,-12.70224921
299.02450,-16.97497091
299.02500,-16.3645821
299.02550,-11.17627717
299.02600,-6.598361052
299.02650,-6.598361052
299.02700,-9.039916314
299.02750,-9.955499537
299.02800,-8.124333091
299.02850,-6.598361052
299.02900,-5.682777829
299.02950,-4.767194606
299.03000,-3.241222568
299.03050,-1.104861714
299.03100,2.862665586
299.03150,9.271748148
299.03200,15.98602512
299.03250,17.51199716
299.03300,12.62888663
299.03350,5.609415256
299.03400,1.947082363
299.03450,2.862665586
299.03500,4.693832032
299.03550,4.693832032
299.03600,2.862665586
299.03650,2.557471179
299.03700,4.693832032
299.03750,5.914609663
299.03800,3.473054402
299.03850,-2.630833752
299.03900,-9.039916314
299.03950,-11.48147158
299.04000,-9.650305129
299.04050,-5.072389014
299.04100,-0.4944728984
299.04150,1.336693548
299.04200,0.115915917
299.04250,-2.325639345
299.04300,-1.410056122
299.04350,2.252276771
299.04400,4.388637625
299.04450,3.778248809
299.04500,2.862665586
299.04550,3.778248809
299.04600,4.388637625
299.04650,2.862665586
299.04700,1.641887955
299.04750,3.473054402
299.04800,6.219804071
299.04850,6.830192886
299.04900,4.083443217
299.04950,1.641887955
299.05000,1.336693548
299.05050,1.947082363
299.05100,2.862665586
299.05150,3.778248809
299.05200,3.167859994
299.05250,0.115915917
299.05300,-2.93602816
299.05350,-4.462000199
299.05400,-3.851611383
299.05450,-4.462000199
299.05500,-6.293166645
299.05550,-7.208749868
299.05600,-6.90355546
299.05650,-6.598361052
299.05700,-5.377583422
299.05750,0.115915917
299.05800,12.01849782
299.05850,23.00549649
299.05900,25.14185735
299.05950,17.20680275
299.06000,6.219804071
299.06050,-0.1892784907
299.06100,-2.020444937
299.06150,-1.715250529
299.06200,-2.020444937
299.06250,-2.325639345
299.06300,-2.325639345
299.06350,-3.241222568
299.06400,-6.293166645
299.06450,-9.955499537
299.06500,-11.78666598
299.06550,-11.78666598
299.06600,-13.31263802
299.06650,-16.05938769
299.06700,-14.83861006
299.06750,-5.682777829
299.06800,8.356164925
299.06850,19.95355242
299.06900,24.53146853
299.06950,23.61588531
299.07000,22.08991327
299.07050,20.86913564
299.07100,19.95355242
299.07150,17.51199716
299.07200,13.23927545
299.07250,7.74577611
299.07300,1.947082363
299.07350,-1.715250529
299.07400,-3.546416975
299.07450,-4.767194606
299.07500,-7.208749868
299.07550,-9.955499537
299.07600,-11.78666598
299.07650,-11.17627717
299.07700,-9.345110722
299.07750,-7.819138683
299.07800,-6.293166645
299.07850,-4.767194606
299.07900,-3.241222568
299.07950,-2.020444937
299.08000,-0.7996673061
299.08050,0.4211103247
299.08100,1.947082363
299.08150,3.473054402
299.08200,4.388637625
299.08250,3.778248809
299.08300,1.947082363
299.08350,0.4211103247
299.08400,1.336693548
299.08450,4.083443217
299.08500,5.609415256
299.08550,4.693832032
299.08600,2.862665586
299.08650,1.947082363
299.08700,1.336693548
299.08750,0.4211103247
299.08800,-0.1892784907
299.08850,0.4211103247
299.08900,1.641887955
299.08950,1.336693548
299.09000,0.115915917
299.09050,0.4211103247
299.09100,1.03149914
299.09150,0.7263047324
299.09200,-1.410056122
299.09250,-2.630833752
299.09300,-1.715250529
299.09350,-0.4944728984
299.09400,-1.104861714
299.09450,-3.546416975
299.09500,-4.767194606
299.09550,-4.767194606
299.09600,-4.156805791
299.09650,-4.156805791
299.09700,-3.851611383
299.09750,-3.851611383
299.09800,-4.462000199
299.09850,-5.682777829
299.09900,-6.293166645
299.09950,-6.598361052
299.10000,-7.208749868
299.10050,-8.124333091
299.10100,-8.124333091
299.10150,-6.598361052
299.10200,-3.851611383
299.10250,-0.4944728984
299.10300,2.862665586
299.10350,6.830192886
299.10400,11.10291459
299.10450,13.84966426
299.10500,13.84966426
299.10550,11.408109
299.10600,8.661359333
299.10650,7.440581702
299.10700,6.830192886
299.10750,3.473054402
299.10800,-2.93602816
299.10850,-8.734721906
299.10900,-10.56588835
299.10950,-8.124333091
299.11000,-3.546416975
299.11050,0.115915917
299.11100,1.947082363
299.11150,1.336693548
299.11200,-0.4944728984
299.11250,-0.4944728984
299.11300,1.641887955
299.11350,4.693832032
299.11400,6.219804071
299.11450,7.135387294
299.11500,8.050970517
299.11550,5.304220848
299.11600,-3.241222568
299.11650,-14.53341565
299.11700,-21.24769262
299.11750,-21.55288703
299.11800,-19.11133177
299.11850,-16.05938769
299.11900,-12.3970548
299.11950,-6.90355546
299.12000,0.115915917
299.12050,6.524998479
299.12100,13.23927545
299.12150,16.59641393
299.12200,13.84966426
299.12250,7.135387294
299.12300,2.252276771
299.12350,1.641887955
299.12400,2.557471179
299.12450,1.336693548
299.12500,0.115915917
299.12550,1.03149914
299.12600,1.947082363
299.12650,-0.1892784907
299.12700,-4.462000199
299.12750,-6.90355546
299.12800,-5.072389014
299.12850,-1.104861714
299.12900,1.641887955
299.12950,2.557471179
299.13000,0.7263047324
299.13050,-2.93602816
299.13100,-7.208749868
299.13150,-10.56588835
299.13200,-11.78666598
299.13250,-10.87108276
299.13300,-8.734721906
299.13350,-6.598361052
299.13400,-5.072389014
299.13450,-3.851611383
299.13500,-2.325639345
299.13550,-0.4944728984
299.13600,0.115915917
299.13650,-0.4944728984
299.13700,-0.1892784907
299.13750,0.7263047324
299.13800,2.252276771
299.13850,2.862665586
299.13900,3.167859994
299.13950,4.083443217
299.14000,4.99902644
299.14050,4.693832032
299.14100,4.693832032
299.14150,5.914609663
299.14200,8.356164925
299.14250,10.49252578
299.14300,11.10291459
299.14350,10.49252578
299.14400,9.576942556
299.14450,9.576942556
299.14500,9.882136963
299.14550,9.882136963
299.14600,7.135387294
299.14650,1.947082363
299.14700,-2.020444937
299.14750,-2.93602816
299.14800,-2.020444937
299.14850,-2.020444937
299.14900,-3.241222568
299.14950,-4.462000199
299.15000,-5.072389014
299.15050,-5.987972237
299.15100,-7.819138683
299.15150,-9.345110722
299.15200,-11.17627717
299.15250,-13.00744361
299.15300,-13.00744361
299.15350,-9.955499537
299.15400,-7.513944276
299.15450,-8.429527499
299.15500,-9.650305129
299.15550,-3.241222568
299.15600,10.79772019
299.15650,23.61588531
299.15700,26.05744057
299.15750,20.86913564
299.15800,16.90160834
299.15850,18.12238597
299.15900,19.3431636
299.15950,15.3756363
299.16000,8.356164925
299.16050,3.167859994
299.16100,1.336693548
299.16150,1.641887955
299.16200,2.862665586
299.16250,4.083443217
299.16300,5.304220848
299.16350,5.304220848
299.16400,4.388637625
299.16450,2.862665586
299.16500,1.947082363
299.16550,1.641887955
299.16600,1.336693548
299.16650,1.03149914
299.16700,0.115915917
299.16750,-0.4944728984
299.16800,-1.410056122
299.16850,-1.715250529
299.16900,-2.020444937
299.16950,-3.241222568
299.17000,-4.462000199
299.17050,-4.767194606
299.17100,-2.630833752
299.17150,-1.104861714
299.17200,-1.715250529
299.17250,-4.767194606
299.17300,-7.513944276
299.17350,-8.429527499
299.17400,-8.124333091
299.17450,-6.90355546
299.17500,-5.682777829
299.17550,-4.156805791
299.17600,-3.546416975
299.17650,-3.241222568
299.17700,-2.93602816
299.17750,-1.715250529
299.17800,-0.4944728984
299.17850,0.4211103247
299.17900,0.7263047324
299.17950,0.7263047324
299.18000,1.03149914
299.18050,1.947082363
299.18100,2.557471179
299.18150,2.252276771
299.18200,1.641887955
299.18250,1.336693548
299.18300,1.947082363
299.18350,2.557471179
299.18400,2.557471179
299.18450,1.641887955
299.18500,1.336693548
299.18550,1.947082363
299.18600,1.947082363
299.18650,0.7263047324
299.18700,-0.7996673061
299.18750,-2.325639345
299.18800,-2.630833752
299.18850,-2.325639345
299.18900,-1.104861714
299.18950,0.115915917
299.19000,0.115915917
299.19050,-2.020444937
299.19100,-4.462000199
299.19150,-5.377583422
299.19200,-3.851611383
299.19250,-1.715250529
299.19300,-1.104861714
299.19350,-2.325639345
299.19400,-3.241222568
299.19450,-2.630833752
299.19500,-1.104861714
299.19550,-0.7996673061
299.19600,-2.325639345
299.19650,-2.630833752
299.19700,0.115915917
299.19750,4.083443217
299.19800,5.609415256
299.19850,4.083443217
299.19900,2.557471179
299.19950,4.388637625
299.20000,7.135387294
299.20050,8.356164925
299.20100,7.74577611
299.20150,7.135387294
299.20200,7.135387294
299.20250,6.219804071
299.20300,4.083443217
299.20350,2.862665586
299.20400,3.167859994
299.20450,4.693832032
299.20500,5.609415256
299.20550,2.862665586
299.20600,-3.546416975
299.20650,-11.48147158
299.20700,-16.66977651
299.20750,-16.05938769
299.20800,-11.48147158
299.20850,-6.598361052
299.20900,-3.241222568
299.20950,-0.7996673061
299.21000,0.115915917
299.21050,0.4211103247
299.21100,-0.4944728984
299.21150,-3.241222568
299.21200,-6.293166645
299.21250,-8.429527499
299.21300,-7.513944276
299.21350,-4.767194606
299.21400,-2.020444937
299.21450,-0.4944728984
299.21500,0.4211103247
299.21550,1.641887955
299.21600,1.947082363
299.21650,0.4211103247
299.21700,-0.1892784907
299.21750,1.336693548
299.21800,4.083443217
299.21850,5.304220848
299.21900,4.693832032
299.21950,3.473054402
299.22000,2.252276771
299.22050,0.115915917
299.22100,-1.715250529
299.22150,-2.630833752
299.22200,-2.93602816
299.22250,-2.630833752
299.22300,-2.325639345
299.22350,-2.020444937
299.22400,-3.241222568
299.22450,-4.767194606
299.22500,-2.325639345
299.22550,6.524998479
299.22600,17.81719156
299.22650,22.70030209
299.22700,19.3431636
299.22750,12.93408104
299.22800,9.576942556
299.22850,7.440581702
299.22900,3.473054402
299.22950,-0.7996673061
299.23000,-2.630833752
299.23050,-1.715250529
299.23100,-0.1892784907
299.23150,0.115915917
299.23200,-0.1892784907
299.23250,-0.7996673061
299.23300,-0.4944728984
299.23350,1.336693548
299.23400,4.99902644
299.23450,6.524998479
299.23500,3.473054402
299.23550,-0.7996673061
299.23600,-2.630833752
299.23650,-2.93602816
299.23700,-6.598361052
299.23750,-13.31263802
299.23800,-16.97497091
299.23850,-13.92302684
299.23900,-9.039916314
299.23950,-6.598361052
299.24000,-5.682777829
299.24050,-2.630833752
299.24100,0.7263047324
299.24150,0.7263047324
299.24200,-2.630833752
299.24250,-5.377583422
299.24300,-4.462000199
299.24350,-1.410056122
299.24400,0.115915917
299.24450,0.7263047324
299.24500,0.4211103247
299.24550,0.115915917
299.24600,-0.1892784907
299.24650,-0.1892784907
299.24700,0.115915917
299.24750,0.115915917
299.24800,0.115915917
299.24850,0.115915917
299.24900,0.115915917
299.24950,-0.7996673061
299.25000,-1.410056122
299.25050,-0.1892784907
299.25100,1.03149914
299.25150,1.641887955
299.25200,1.641887955
299.25250,1.03149914
299.25300,0.115915917
299.25350,-1.104861714
299.25400,-0.7996673061
299.25450,0.115915917
299.25500,0.115915917
299.25550,-1.715250529
299.25600,-2.93602816
299.25650,-1.104861714
299.25700,0.115915917
299.25750,-2.325639345
299.25800,-5.072389014
299.25850,-2.93602816
299.25900,1.336693548
299.25950,0.7263047324
299.26000,-5.987972237
299.26050,-11.78666598
299.26100,-11.78666598
299.26150,-9.955499537
299.26200,-11.78666598
299.26250,-12.70224921
299.26300,-5.987972237
299.26350,6.524998479
299.26400,15.3756363
299.26450,15.3756363
299.26500,10.79772019
299.26550,9.882136963
299.26600,12.01849782
299.26650,13.23927545
299.26700,11.10291459
299.26750,8.050970517
299.26800,6.219804071
299.26850,5.609415256
299.26900,5.304220848
299.26950,5.304220848
299.27000,3.167859994
299.27050,-0.1892784907
299.27100,-3.241222568
299.27150,-3.546416975
299.27200,-2.325639345
299.27250,-2.93602816
299.27300,-5.377583422
299.27350,-5.682777829
299.27400,-3.241222568
299.27450,-1.104861714
299.27500,-1.715250529
299.27550,-3.241222568
299.27600,-2.630833752
299.27650,-2.020444937
299.27700,-3.851611383
299.27750,-6.598361052
299.27800,-6.90355546
299.27850,-4.462000199
299.27900,-2.93602816
299.27950,-2.020444937
299.28000,0.115915917
299.28050,3.778248809
299.28100,5.609415256
299.28150,4.99902644
299.28200,3.473054402
299.28250,3.473054402
299.28300,3.167859994
299.28350,1.947082363
299.28400,1.03149914
299.28450,1.641887955
299.28500,3.473054402
299.28550,3.778248809
299.28600,2.862665586
299.28650,2.557471179
299.28700,3.167859994
299.28750,4.693832032
299.28800,6.219804071
299.28850,7.440581702
299.28900,7.74577611
299.28950,7.135387294
299.29000,6.830192886
299.29050,6.830192886
299.29100,7.135387294
299.29150,7.135387294
299.29200,8.050970517
299.29250,9.271748148
299.29300,8.96655374
299.29350,6.219804071
299.29400,2.252276771
299.29450,-0.7996673061
299.29500,-4.156805791
299.29550,-8.124333091
299.29600,-11.78666598
299.29650,-13.92302684
299.29700,-13.92302684
299.29750,-12.3970548
299.29800,-9.955499537
299.29850,-6.90355546
299.29900,-3.546416975
299.29950,-1.410056122
299.30000,0.115915917
299.30050,2.862665586
299.30100,4.693832032
299.30150,4.693832032
299.30200,3.167859994
299.30250,2.252276771
299.30300,2.252276771
299.30350,1.336693548
299.30400,-1.104861714
299.30450,-5.377583422
299.30500,-9.650305129
299.30550,-13.00744361
299.30600,-13.92302684
299.30650,-12.70224921
299.30700,-10.56588835
299.30750,-8.734721906
299.30800,-6.293166645
299.30850,-2.630833752
299.30900,-0.1892784907
299.30950,-0.7996673061
299.31000,-2.325639345
299.31050,-1.104861714
299.31100,1.03149914
299.31150,0.7263047324
299.31200,-2.020444937
299.31250,-4.462000199
299.31300,-5.072389014
299.31350,-5.682777829
299.31400,-6.90355546
299.31450,-5.987972237
299.31500,-2.630833752
299.31550,-0.4944728984
299.31600,-1.715250529
299.31650,-4.156805791
299.31700,-4.767194606
299.31750,-4.156805791
299.31800,-1.715250529
299.31850,4.388637625
299.31900,13.54446986
299.31950,18.42758038
299.32000,13.54446986
299.32050,4.388637625
299.32100,0.115915917
299.32150,1.336693548
299.32200,2.557471179
299.32250,0.4211103247
299.32300,-2.630833752
299.32350,-3.241222568
299.32400,-2.020444937
299.32450,-0.1892784907
299.32500,1.641887955
299.32550,3.778248809
299.32600,4.693832032
299.32650,4.693832032
299.32700,4.388637625
299.32750,3.778248809
299.32800,2.252276771
299.32850,0.7263047324
299.32900,1.336693548
299.32950,3.778248809
299.33000,5.914609663
299.33050,5.609415256
299.33100,4.388637625
299.33150,2.862665586
299.33200,2.252276771
299.33250,2.252276771
299.33300,2.862665586
299.33350,3.473054402
299.33400,2.557471179
299.33450,1.03149914
299.33500,1.03149914
299.33550,2.557471179
299.33600,3.778248809
299.33650,3.778248809
299.33700,2.557471179
299.33750,1.03149914
299.33800,-0.7996673061
299.33850,-3.546416975
299.33900,-5.987972237
299.33950,-7.513944276
299.34000,-7.513944276
299.34050,-5.682777829
299.34100,-3.851611383
299.34150,-3.851611383
299.34200,-5.987972237
299.34250,-7.208749868
299.34300,-6.293166645
299.34350,-3.851611383
299.34400,0.115915917
299.34450,6.219804071
299.34500,14.15485867
299.34550,19.64835801
299.34600,19.3431636
299.34650,15.68083071
299.34700,13.84966426
299.34750,13.23927545
299.34800,10.49252578
299.34850,4.99902644
299.34900,1.336693548
299.34950,1.03149914
299.35000,2.862665586
299.35050,3.473054402
299.35100,2.862665586
299.35150,1.336693548
299.35200,-0.1892784907
299.35250,-0.1892784907
299.35300,1.336693548
299.35350,3.473054402
299.35400,3.473054402
299.35450,0.4211103247
299.35500,-1.715250529
299.35550,-2.020444937
299.35600,-0.7996673061
299.35650,-0.4944728984
299.35700,-2.93602816
299.35750,-8.734721906
299.35800,-16.66977651
299.35850,-20.63730381
299.35900,-14.83861006
299.35950,-0.1892784907
299.36000,13.54446986
299.36050,19.03796919
299.36100,17.20680275
299.36150,15.07044189
299.36200,14.46005308
299.36250,13.23927545
299.36300,10.18733137
299.36350,7.74577611
299.36400,6.219804071
299.36450,4.388637625
299.36500,1.641887955
299.36550,-0.1892784907
299.36600,-0.4944728984
299.36650,-0.1892784907
299.36700,-1.410056122
299.36750,-2.020444937
299.36800,-1.104861714
299.36850,-0.1892784907
299.36900,-0.1892784907
299.36950,-0.7996673061
299.37000,-0.4944728984
299.37050,0.4211103247
299.37100,1.03149914
299.37150,1.336693548
299.37200,2.252276771
299.37250,2.862665586
299.37300,2.862665586
299.37350,2.862665586
299.37400,3.473054402
299.37450,3.473054402
299.37500,1.03149914
299.37550,-4.156805791
299.37600,-10.26069394
299.37650,-15.75419328
299.37700,-19.11133177
299.37750,-19.72172058
299.37800,-17.28016532
299.37850,-14.83861006
299.37900,-16.3645821
299.37950,-21.24769262
299.38000,-25.21521992
299.38050,-25.21521992
299.38100,-22.77366466
299.38150,-20.3321094
299.38200,-16.3645821
299.38250,-8.124333091
299.38300,2.862665586
299.38350,13.54446986
299.38400,19.3431636
299.38450,19.95355242
299.38500,17.81719156
299.38550,15.07044189
299.38600,13.23927545
299.38650,12.93408104
299.38700,12.62888663
299.38750,9.576942556
299.38800,3.778248809
299.38850,-2.93602816
299.38900,-8.734721906
299.38950,-11.48147158
299.39000,-10.56588835
299.39050,-5.682777829
299.39100,1.03149914
299.39150,5.914609663
299.39200,4.388637625
299.39250,-1.715250529
299.39300,-7.819138683
299.39350,-9.650305129
299.39400,-8.734721906
299.39450,-8.734721906
299.39500,-10.56588835
299.39550,-11.78666598
299.39600,-10.26069394
299.39650,-6.90355546
299.39700,-2.325639345
299.39750,1.641887955
299.39800,4.693832032
299.39850,5.609415256
299.39900,5.609415256
299.39950,6.830192886
299.40000,8.96655374
299.40050,8.356164925
299.40100,3.167859994
299.40150,-3.851611383
299.40200,-6.90355546
299.40250,-4.462000199
299.40300,0.115915917
299.40350,2.557471179
299.40400,1.03149914
299.40450,-1.104861714
299.40500,-0.7996673061
299.40550,1.641887955
299.40600,3.473054402
299.40650,1.947082363
299.40700,-0.4944728984
299.40750,-0.7996673061
299.40800,1.641887955
299.40850,4.083443217
299.40900,4.388637625
299.40950,2.557471179
299.41000,1.947082363
299.41050,2.252276771
299.41100,2.252276771
299.41150,1.336693548
299.41200,0.115915917
299.41250,0.115915917
299.41300,-0.1892784907
299.41350,-0.7996673061
299.41400,-1.104861714
299.41450,-1.410056122
299.41500,-0.7996673061
299.41550,-0.1892784907
299.41600,0.115915917
299.41650,0.115915917
299.41700,0.115915917
299.41750,0.7263047324
299.41800,2.557471179
299.41850,4.083443217
299.41900,4.388637625
299.41950,4.693832032
299.42000,4.693832032
299.42050,4.388637625
299.42100,3.473054402
299.42150,2.252276771
299.42200,1.336693548
299.42250,1.336693548
299.42300,2.557471179
299.42350,4.99902644
299.42400,6.830192886
299.42450,7.440581702
299.42500,6.830192886
299.42550,6.830192886
299.42600,7.135387294
299.42650,6.830192886
299.42700,6.219804071
299.42750,6.219804071
299.42800,5.304220848
299.42850,1.947082363
299.42900,-2.93602816
299.42950,-5.987972237
299.43000,-5.682777829
299.43050,-3.851611383
299.43100,-3.241222568
299.43150,-4.156805791
299.43200,-4.156805791
299.43250,-3.546416975
299.43300,-3.546416975
299.43350,-3.851611383
299.43400,-4.156805791
299.43450,-4.156805791
299.43500,-5.072389014
299.43550,-5.682777829
299.43600,-6.90355546
299.43650,-9.955499537
299.43700,-14.53341565
299.43750,-16.97497091
299.43800,-14.83861006
299.43850,-11.78666598
299.43900,-11.17627717
299.43950,-9.955499537
299.44000,-1.104861714
299.44050,14.15485867
299.44100,25.14185735
299.44150,24.53146853
299.44200,16.90160834
299.44250,12.01849782
299.44300,11.10291459
299.44350,10.18733137
299.44400,7.74577611
299.44450,6.830192886
299.44500,7.440581702
299.44550,6.524998479
299.44600,3.167859994
299.44650,0.4211103247
299.44700,0.115915917
299.44750,0.115915917
299.44800,-2.630833752
299.44850,-5.682777829
299.44900,-7.513944276
299.44950,-9.039916314
299.45000,-10.26069394
299.45050,-9.039916314
299.45100,-4.156805791
299.45150,0.7263047324
299.45200,2.862665586
299.45250,1.641887955
299.45300,-0.1892784907
299.45350,-1.410056122
299.45400,-2.93602816
299.45450,-4.462000199
299.45500,-5.377583422
299.45550,-4.767194606
299.45600,-2.630833752
299.45650,-0.4944728984
299.45700,0.4211103247
299.45750,0.7263047324
299.45800,0.4211103247
299.45850,0.4211103247
299.45900,-0.4944728984
299.45950,-3.851611383
299.46000,-7.513944276
299.46050,-8.124333091
299.46100,-6.598361052
299.46150,-5.072389014
299.46200,-2.325639345
299.46250,4.083443217
299.46300,14.46005308
299.46350,22.39510768
299.46400,23.00549649
299.46450,19.03796919
299.46500,15.68083071
299.46550,14.76524749
299.46600,13.84966426
299.46650,9.882136963
299.46700,3.167859994
299.46750,-4.462000199
299.46800,-10.87108276
299.46850,-13.00744361
299.46900,-11.17627717
299.46950,-7.513944276
299.47000,-3.546416975
299.47050,0.4211103247
299.47100,3.473054402
299.47150,4.388637625
299.47200,1.947082363
299.47250,-0.7996673061
299.47300,-2.93602816
299.47350,-4.156805791
299.47400,-4.767194606
299.47450,-4.462000199
299.47500,-1.715250529
299.47550,1.641887955
299.47600,3.473054402
299.47650,4.083443217
299.47700,4.99902644
299.47750,4.693832032
299.47800,2.252276771
299.47850,-0.7996673061
299.47900,-1.410056122
299.47950,0.115915917
299.48000,0.115915917
299.48050,-2.020444937
299.48100,-3.546416975
299.48150,-2.020444937
299.48200,0.115915917
299.48250,1.03149914
299.48300,1.336693548
299.48350,1.947082363
299.48400,0.115915917
299.48450,-6.293166645
299.48500,-14.53341565
299.48550,-18.19574855
299.48600,-16.05938769
299.48650,-11.48147158
299.48700,-8.734721906
299.48750,-7.513944276
299.48800,-6.598361052
299.48850,-5.072389014
299.48900,-3.546416975
299.48950,-2.93602816
299.49000,-2.325639345
299.49050,-1.715250529
299.49100,-0.4944728984
299.49150,0.115915917
299.49200,0.4211103247
299.49250,0.115915917
299.49300,1.03149914
299.49350,2.862665586
299.49400,4.083443217
299.49450,3.167859994
299.49500,1.336693548
299.49550,0.4211103247
299.49600,0.4211103247
299.49650,0.4211103247
299.49700,0.115915917
299.49750,-1.410056122
299.49800,-4.462000199
299.49850,-6.90355546
299.49900,-7.513944276
299.49950,-6.90355546
299.50000,-7.208749868
299.50050,-9.345110722
299.50100,-10.87108276
299.50150,-10.56588835
299.50200,-9.039916314
299.50250,-5.072389014
299.50300,3.473054402
299.50350,15.3756363
299.50400,24.22627413
299.50450,25.14185735
299.50500,20.86913564
299.50550,16.90160834
299.50600,15.07044189
299.50650,12.62888663
299.50700,9.882136963
299.50750,8.356164925
299.50800,8.050970517
299.50850,5.914609663
299.50900,1.641887955
299.50950,-2.630833752
299.51000,-6.293166645
299.51050,-11.17627717
299.51100,-18.19574855
299.51150,-21.55288703
299.51200,-14.53341565
299.51250,0.4211103247
299.51300,12.93408104
299.51350,16.59641393
299.51400,13.54446986
299.51450,10.79772019
299.51500,9.882136963
299.51550,6.830192886
299.51600,1.03149914
299.51650,-3.546416975
299.51700,-4.156805791
299.51750,-2.325639345
299.51800,-0.4944728984
299.51850,1.947082363
299.51900,5.914609663
299.51950,8.661359333
299.52000,7.135387294
299.52050,1.336693548
299.52100,-4.462000199
299.52150,-7.208749868
299.52200,-6.90355546
299.52250,-6.598361052
299.52300,-6.90355546
299.52350,-7.513944276
299.52400,-6.90355546
299.52450,-4.767194606
299.52500,0.4211103247
299.52550,8.96655374
299.52600,15.07044189
299.52650,14.15485867
299.52700,6.524998479
299.52750,-2.93602816
299.52800,-9.955499537
299.52850,-13.61783243
299.52900,-13.61783243
299.52950,-10.26069394
299.53000,-5.377583422
299.53050,-2.020444937
299.53100,-2.325639345
299.53150,-3.546416975
299.53200,-3.851611383
299.53250,-2.630833752
299.53300,0.115915917
299.53350,3.167859994
299.53400,4.083443217
299.53450,1.336693548
299.53500,-2.325639345
299.53550,-3.241222568
299.53600,-1.104861714
299.53650,1.336693548
299.53700,3.167859994
299.53750,4.693832032
299.53800,4.693832032
299.53850,2.252276771
299.53900,-2.020444937
299.53950,-4.156805791
299.54000,-2.630833752
299.54050,-0.1892784907
299.54100,0.115915917
299.54150,-0.1892784907
299.54200,-0.4944728984
299.54250,-1.715250529
299.54300,-4.462000199
299.54350,-8.734721906
299.54400,-11.78666598
299.54450,-13.61783243
299.54500,-13.00744361
299.54550,-9.650305129
299.54600,-5.377583422
299.54650,-2.630833752
299.54700,-2.020444937
299.54750,-1.104861714
299.54800,1.03149914
299.54850,2.862665586
299.54900,3.167859994
299.54950,3.473054402
299.55000,5.304220848
299.55050,8.050970517
299.55100,10.79772019
299.55150,12.01849782
299.55200,12.01849782
299.55250,10.49252578
299.55300,7.74577611
299.55350,5.609415256
299.55400,5.304220848
299.55450,6.219804071
299.55500,6.524998479
299.55550,5.609415256
299.55600,4.083443217
299.55650,3.778248809
299.55700,4.99902644
299.55750,7.74577611
299.55800,9.882136963
299.55850,9.576942556
299.55900,7.74577611
299.55950,5.914609663
299.56000,5.914609663
299.56050,6.830192886
299.56100,7.135387294
299.56150,5.304220848
299.56200,1.947082363
299.56250,-0.4944728984
299.56300,-2.020444937
299.56350,-1.715250529
299.56400,-2.020444937
299.56450,-3.851611383
299.56500,-5.682777829
299.56550,-4.767194606
299.56600,-1.410056122
299.56650,1.336693548
299.56700,0.115915917
299.56750,-4.462000199
299.56800,-9.650305129
299.56850,-12.70224921
299.56900,-13.31263802
299.56950,-11.78666598
299.57000,-8.734721906
299.57050,-5.377583422
299.57100,-3.546416975
299.57150,-3.546416975
299.57200,-5.072389014
299.57250,-6.598361052
299.57300,-7.208749868
299.57350,-5.987972237
299.57400,-3.851611383
299.57450,-0.4944728984
299.57500,1.947082363
299.57550,3.473054402
299.57600,2.862665586
299.57650,1.641887955
299.57700,1.336693548
299.57750,1.03149914
299.57800,-2.325639345
299.57850,-9.039916314
299.57900,-14.22822125
299.57950,-14.22822125
299.58000,-13.00744361
299.58050,-13.61783243
299.58100,-13.31263802
299.58150,-6.90355546
299.58200,3.473054402
