"type","name","time_units","begin_time","frequency","count","units"
"signal","Ultium EMG-FLEX.CARP.R RT","s",439.92000,2000,22000,"uV"

"time","value"
439.92000,3.903315983
439.92050,4.208510391
439.92100,4.208510391
439.92150,3.903315983
439.92200,4.208510391
439.92250,5.429288021
439.92300,6.650065652
439.92350,6.039676837
439.92400,3.292927168
439.92450,0.5461774982
439.92500,-0.06421131716
439.92550,0.2409830905
439.92600,1.156566314
439.92650,1.461760721
439.92700,1.461760721
439.92750,1.461760721
439.92800,0.8513719059
439.92850,-0.6746001326
439.92900,-2.200572171
439.92950,-2.200572171
439.93000,-2.505766579
439.93050,-3.421349802
439.93100,-4.642127433
439.93150,-4.94732184
439.93200,-4.642127433
439.93250,-4.94732184
439.93300,-5.557710656
439.93350,-5.862905063
439.93400,-5.557710656
439.93450,-5.557710656
439.93500,-5.862905063
439.93550,-6.168099471
439.93600,-5.252516248
439.93650,-4.031738617
439.93700,-3.116155394
439.93750,-3.116155394
439.93800,-2.810960986
439.93850,-1.895377763
439.93900,-0.6746001326
439.93950,0.2409830905
439.94000,1.156566314
439.94050,2.072149537
439.94100,2.98773276
439.94150,3.598121575
439.94200,2.98773276
439.94250,1.461760721
439.94300,0.5461774982
439.94350,0.8513719059
439.94400,2.377343944
439.94450,2.98773276
439.94500,2.98773276
439.94550,2.98773276
439.94600,2.98773276
439.94650,1.766955129
439.94700,-0.06421131716
439.94750,-1.284988948
439.94800,-0.9797945403
439.94850,-1.284988948
439.94900,-3.116155394
439.94950,-5.557710656
439.95000,-6.778488287
439.95050,-6.473293879
439.95100,-5.862905063
439.95150,-5.252516248
439.95200,-4.642127433
439.95250,-4.642127433
439.95300,-5.252516248
439.95350,-5.252516248
439.95400,-4.336933025
439.95450,-3.72654421
439.95500,-3.421349802
439.95550,-2.200572171
439.95600,-0.6746001326
439.95650,-0.06421131716
439.95700,-0.3694057249
439.95750,-0.6746001326
439.95800,0.5461774982
439.95850,2.377343944
439.95900,1.766955129
439.95950,0.2409830905
439.96000,0.5461774982
439.96050,2.682538352
439.96100,3.598121575
439.96150,2.682538352
439.96200,1.766955129
439.96250,2.377343944
439.96300,2.98773276
439.96350,2.98773276
439.96400,3.292927168
439.96450,4.513704798
439.96500,5.124093614
439.96550,3.598121575
439.96600,1.156566314
439.96650,0.2409830905
439.96700,-0.3694057249
439.96750,-3.72654421
439.96800,-8.609654733
439.96850,-11.3564044
439.96900,-10.13562677
439.96950,-7.388877102
439.97000,-4.94732184
439.97050,-3.116155394
439.97100,-1.284988948
439.97150,-0.6746001326
439.97200,-1.590183356
439.97250,-2.505766579
439.97300,-2.200572171
439.97350,-1.895377763
439.97400,-3.116155394
439.97450,-4.336933025
439.97500,-4.031738617
439.97550,-2.505766579
439.97600,-1.590183356
439.97650,-0.9797945403
439.97700,-0.06421131716
439.97750,1.156566314
439.97800,1.766955129
439.97850,1.156566314
439.97900,1.156566314
439.97950,0.8513719059
439.98000,0.2409830905
439.98050,-0.06421131716
439.98100,0.8513719059
439.98150,1.766955129
439.98200,2.072149537
439.98250,1.461760721
439.98300,0.8513719059
439.98350,0.5461774982
439.98400,0.2409830905
439.98450,0.5461774982
439.98500,1.461760721
439.98550,2.98773276
439.98600,4.208510391
439.98650,4.208510391
439.98700,3.292927168
439.98750,1.766955129
439.98800,0.5461774982
439.98850,0.2409830905
439.98900,0.5461774982
439.98950,-0.06421131716
439.99000,-1.590183356
439.99050,-3.72654421
439.99100,-4.94732184
439.99150,-4.94732184
439.99200,-4.031738617
439.99250,-3.116155394
439.99300,-1.590183356
439.99350,-0.9797945403
439.99400,-0.9797945403
439.99450,-1.284988948
439.99500,-0.9797945403
439.99550,-0.06421131716
439.99600,0.2409830905
439.99650,0.5461774982
439.99700,0.8513719059
439.99750,1.156566314
439.99800,1.461760721
439.99850,1.766955129
439.99900,2.072149537
439.99950,2.377343944
440.00000,2.98773276
440.00050,3.598121575
440.00100,4.818899206
440.00150,5.734482429
440.00200,4.818899206
440.00250,3.292927168
440.00300,2.377343944
440.00350,2.377343944
440.00400,2.682538352
440.00450,2.377343944
440.00500,1.766955129
440.00550,0.5461774982
440.00600,-0.6746001326
440.00650,-1.590183356
440.00700,-1.590183356
440.00750,-0.6746001326
440.00800,-0.3694057249
440.00850,-1.895377763
440.00900,-4.336933025
440.00950,-5.252516248
440.01000,-4.336933025
440.01050,-3.421349802
440.01100,-3.72654421
440.01150,-4.94732184
440.01200,-5.252516248
440.01250,-3.72654421
440.01300,-1.895377763
440.01350,-2.200572171
440.01400,-4.336933025
440.01450,-5.862905063
440.01500,-4.94732184
440.01550,-2.505766579
440.01600,-0.6746001326
440.01650,-0.6746001326
440.01700,-1.284988948
440.01750,-1.284988948
440.01800,-0.9797945403
440.01850,-0.3694057249
440.01900,0.2409830905
440.01950,0.8513719059
440.02000,1.156566314
440.02050,1.156566314
440.02100,1.461760721
440.02150,2.377343944
440.02200,4.208510391
440.02250,6.039676837
440.02300,6.344871245
440.02350,5.124093614
440.02400,3.292927168
440.02450,2.98773276
440.02500,3.598121575
440.02550,3.903315983
440.02600,2.98773276
440.02650,2.377343944
440.02700,2.072149537
440.02750,1.766955129
440.02800,0.8513719059
440.02850,0.2409830905
440.02900,-0.3694057249
440.02950,-2.505766579
440.03000,-5.252516248
440.03050,-7.083682694
440.03100,-7.083682694
440.03150,-6.778488287
440.03200,-6.473293879
440.03250,-5.252516248
440.03300,-3.116155394
440.03350,-1.895377763
440.03400,-2.810960986
440.03450,-3.72654421
440.03500,-2.200572171
440.03550,0.5461774982
440.03600,2.682538352
440.03650,2.377343944
440.03700,1.156566314
440.03750,0.5461774982
440.03800,1.156566314
440.03850,2.682538352
440.03900,3.903315983
440.03950,3.903315983
440.04000,2.98773276
440.04050,2.682538352
440.04100,3.903315983
440.04150,4.513704798
440.04200,3.292927168
440.04250,1.766955129
440.04300,1.766955129
440.04350,2.377343944
440.04400,1.766955129
440.04450,-0.6746001326
440.04500,-3.421349802
440.04550,-4.642127433
440.04600,-4.94732184
440.04650,-4.94732184
440.04700,-4.642127433
440.04750,-3.421349802
440.04800,-3.116155394
440.04850,-4.031738617
440.04900,-4.94732184
440.04950,-4.94732184
440.05000,-4.642127433
440.05050,-4.336933025
440.05100,-4.031738617
440.05150,-3.72654421
440.05200,-2.505766579
440.05250,-1.590183356
440.05300,-1.284988948
440.05350,-1.284988948
440.05400,-0.9797945403
440.05450,-0.06421131716
440.05500,-0.06421131716
440.05550,-0.06421131716
440.05600,-0.3694057249
440.05650,-0.3694057249
440.05700,-0.06421131716
440.05750,0.2409830905
440.05800,-0.06421131716
440.05850,-1.284988948
440.05900,-1.895377763
440.05950,-1.284988948
440.06000,-0.3694057249
440.06050,-0.06421131716
440.06100,0.8513719059
440.06150,2.377343944
440.06200,2.98773276
440.06250,1.766955129
440.06300,0.2409830905
440.06350,-0.06421131716
440.06400,2.072149537
440.06450,4.513704798
440.06500,5.429288021
440.06550,4.513704798
440.06600,3.598121575
440.06650,2.98773276
440.06700,2.377343944
440.06750,-0.06421131716
440.06800,-3.72654421
440.06850,-6.778488287
440.06900,-7.388877102
440.06950,-5.862905063
440.07000,-4.336933025
440.07050,-3.72654421
440.07100,-3.116155394
440.07150,-2.200572171
440.07200,-1.284988948
440.07250,-1.590183356
440.07300,-1.590183356
440.07350,-1.284988948
440.07400,-1.284988948
440.07450,-1.895377763
440.07500,-2.505766579
440.07550,-1.895377763
440.07600,-1.284988948
440.07650,-1.590183356
440.07700,-1.895377763
440.07750,-0.3694057249
440.07800,1.766955129
440.07850,2.072149537
440.07900,-0.06421131716
440.07950,-0.6746001326
440.08000,0.2409830905
440.08050,1.766955129
440.08100,1.461760721
440.08150,0.5461774982
440.08200,2.072149537
440.08250,5.429288021
440.08300,7.260454468
440.08350,6.344871245
440.08400,4.818899206
440.08450,4.513704798
440.08500,5.124093614
440.08550,4.818899206
440.08600,3.598121575
440.08650,2.377343944
440.08700,0.8513719059
440.08750,-0.6746001326
440.08800,-2.810960986
440.08850,-3.421349802
440.08900,-2.505766579
440.08950,-1.590183356
440.09000,-1.895377763
440.09050,-2.810960986
440.09100,-3.421349802
440.09150,-3.421349802
440.09200,-2.810960986
440.09250,-2.200572171
440.09300,-1.284988948
440.09350,-0.3694057249
440.09400,-0.06421131716
440.09450,0.2409830905
440.09500,0.2409830905
440.09550,0.8513719059
440.09600,1.461760721
440.09650,2.072149537
440.09700,2.072149537
440.09750,2.377343944
440.09800,2.98773276
440.09850,4.513704798
440.09900,5.429288021
440.09950,5.124093614
440.10000,4.208510391
440.10050,3.903315983
440.10100,5.124093614
440.10150,6.650065652
440.10200,7.565648875
440.10250,7.870843283
440.10300,7.870843283
440.10350,7.870843283
440.10400,7.565648875
440.10450,7.870843283
440.10500,8.786426506
440.10550,8.786426506
440.10600,7.870843283
440.10650,6.344871245
440.10700,5.124093614
440.10750,3.903315983
440.10800,2.682538352
440.10850,1.461760721
440.10900,1.766955129
440.10950,2.377343944
440.11000,1.766955129
440.11050,0.5461774982
440.11100,-0.06421131716
440.11150,0.2409830905
440.11200,-0.06421131716
440.11250,-0.9797945403
440.11300,-1.590183356
440.11350,-1.284988948
440.11400,-1.895377763
440.11450,-3.421349802
440.11500,-4.031738617
440.11550,-2.810960986
440.11600,-1.284988948
440.11650,-1.284988948
440.11700,-1.895377763
440.11750,-0.9797945403
440.11800,1.156566314
440.11850,2.072149537
440.11900,1.461760721
440.11950,0.2409830905
440.12000,-0.06421131716
440.12050,0.2409830905
440.12100,0.5461774982
440.12150,0.8513719059
440.12200,1.766955129
440.12250,2.377343944
440.12300,2.377343944
440.12350,1.766955129
440.12400,0.8513719059
440.12450,0.5461774982
440.12500,0.2409830905
440.12550,0.5461774982
440.12600,1.156566314
440.12650,1.461760721
440.12700,1.461760721
440.12750,0.8513719059
440.12800,-0.6746001326
440.12850,-3.116155394
440.12900,-5.252516248
440.12950,-6.168099471
440.13000,-6.778488287
440.13050,-8.304460325
440.13100,-9.525237956
440.13150,-9.830432364
440.13200,-9.525237956
440.13250,-9.525237956
440.13300,-9.525237956
440.13350,-7.69407151
440.13400,-4.94732184
440.13450,-1.895377763
440.13500,-0.06421131716
440.13550,0.2409830905
440.13600,-0.06421131716
440.13650,-0.3694057249
440.13700,-0.6746001326
440.13750,-0.9797945403
440.13800,-0.9797945403
440.13850,-0.6746001326
440.13900,-0.06421131716
440.13950,1.461760721
440.14000,2.072149537
440.14050,1.156566314
440.14100,-0.06421131716
440.14150,-0.6746001326
440.14200,0.5461774982
440.14250,2.98773276
440.14300,4.208510391
440.14350,3.292927168
440.14400,1.461760721
440.14450,1.156566314
440.14500,2.072149537
440.14550,2.98773276
440.14600,2.682538352
440.14650,2.072149537
440.14700,1.156566314
440.14750,-0.06421131716
440.14800,-2.505766579
440.14850,-4.031738617
440.14900,-2.810960986
440.14950,-0.9797945403
440.15000,-0.3694057249
440.15050,-0.6746001326
440.15100,-0.9797945403
440.15150,-1.284988948
440.15200,-1.590183356
440.15250,-2.200572171
440.15300,-2.505766579
440.15350,-2.200572171
440.15400,-1.895377763
440.15450,-2.200572171
440.15500,-2.810960986
440.15550,-4.336933025
440.15600,-5.557710656
440.15650,-4.94732184
440.15700,-2.810960986
440.15750,-1.284988948
440.15800,-0.9797945403
440.15850,-0.9797945403
440.15900,-0.3694057249
440.15950,-0.06421131716
440.16000,0.8513719059
440.16050,2.682538352
440.16100,4.208510391
440.16150,4.208510391
440.16200,2.377343944
440.16250,1.156566314
440.16300,1.766955129
440.16350,2.682538352
440.16400,2.682538352
440.16450,2.072149537
440.16500,2.682538352
440.16550,3.292927168
440.16600,1.461760721
440.16650,-1.895377763
440.16700,-5.557710656
440.16750,-7.69407151
440.16800,-7.999265917
440.16850,-6.473293879
440.16900,-3.421349802
440.16950,-0.3694057249
440.17000,-0.06421131716
440.17050,-0.3694057249
440.17100,-0.6746001326
440.17150,-0.3694057249
440.17200,-0.06421131716
440.17250,-0.3694057249
440.17300,-0.6746001326
440.17350,-0.9797945403
440.17400,-0.9797945403
440.17450,-0.9797945403
440.17500,-1.284988948
440.17550,-1.590183356
440.17600,-1.895377763
440.17650,-1.590183356
440.17700,-0.06421131716
440.17750,1.156566314
440.17800,2.682538352
440.17850,3.903315983
440.17900,5.429288021
440.17950,5.734482429
440.18000,5.124093614
440.18050,3.292927168
440.18100,2.377343944
440.18150,2.682538352
440.18200,2.98773276
440.18250,2.98773276
440.18300,3.903315983
440.18350,5.429288021
440.18400,6.344871245
440.18450,6.650065652
440.18500,6.650065652
440.18550,6.95526006
440.18600,6.95526006
440.18650,6.344871245
440.18700,5.124093614
440.18750,4.208510391
440.18800,2.682538352
440.18850,0.5461774982
440.18900,-1.284988948
440.18950,-2.505766579
440.19000,-2.810960986
440.19050,-3.116155394
440.19100,-4.031738617
440.19150,-4.94732184
440.19200,-5.862905063
440.19250,-5.862905063
440.19300,-4.94732184
440.19350,-4.031738617
440.19400,-4.031738617
440.19450,-4.94732184
440.19500,-4.94732184
440.19550,-3.72654421
440.19600,-2.505766579
440.19650,-2.810960986
440.19700,-3.72654421
440.19750,-3.116155394
440.19800,-2.200572171
440.19850,-1.895377763
440.19900,-2.810960986
440.19950,-3.116155394
440.20000,-2.505766579
440.20050,-1.895377763
440.20100,-1.895377763
440.20150,-2.505766579
440.20200,-2.200572171
440.20250,-0.9797945403
440.20300,0.2409830905
440.20350,1.156566314
440.20400,1.156566314
440.20450,0.2409830905
440.20500,-0.3694057249
440.20550,-0.06421131716
440.20600,-0.06421131716
440.20650,-1.895377763
440.20700,-4.336933025
440.20750,-5.252516248
440.20800,-4.336933025
440.20850,-2.505766579
440.20900,-1.284988948
440.20950,-0.9797945403
440.21000,-0.3694057249
440.21050,-0.06421131716
440.21100,-0.06421131716
440.21150,-0.06421131716
440.21200,-0.06421131716
440.21250,-0.9797945403
440.21300,-1.895377763
440.21350,-2.200572171
440.21400,-1.284988948
440.21450,-0.6746001326
440.21500,-1.284988948
440.21550,-2.505766579
440.21600,-2.505766579
440.21650,-0.9797945403
440.21700,-0.06421131716
440.21750,0.2409830905
440.21800,1.156566314
440.21850,3.292927168
440.21900,4.818899206
440.21950,4.818899206
440.22000,3.598121575
440.22050,2.682538352
440.22100,2.072149537
440.22150,1.156566314
440.22200,0.2409830905
440.22250,0.8513719059
440.22300,1.766955129
440.22350,2.377343944
440.22400,2.377343944
440.22450,2.682538352
440.22500,2.377343944
440.22550,0.8513719059
440.22600,-0.06421131716
440.22650,-0.3694057249
440.22700,-0.06421131716
440.22750,-0.06421131716
440.22800,-0.9797945403
440.22850,-1.895377763
440.22900,-1.895377763
440.22950,-1.895377763
440.23000,-1.895377763
440.23050,-2.200572171
440.23100,-3.116155394
440.23150,-5.252516248
440.23200,-7.388877102
440.23250,-6.778488287
440.23300,-4.031738617
440.23350,-0.6746001326
440.23400,0.2409830905
440.23450,0.2409830905
440.23500,0.2409830905
440.23550,1.156566314
440.23600,1.766955129
440.23650,0.8513719059
440.23700,-0.06421131716
440.23750,-0.3694057249
440.23800,0.8513719059
440.23850,2.98773276
440.23900,2.98773276
440.23950,1.766955129
440.24000,0.8513719059
440.24050,1.766955129
440.24100,2.682538352
440.24150,2.682538352
440.24200,2.682538352
440.24250,3.292927168
440.24300,3.598121575
440.24350,2.072149537
440.24400,-0.06421131716
440.24450,-0.6746001326
440.24500,0.2409830905
440.24550,0.5461774982
440.24600,0.2409830905
440.24650,-0.06421131716
440.24700,-0.06421131716
440.24750,-0.6746001326
440.24800,-1.284988948
440.24850,-1.895377763
440.24900,-3.116155394
440.24950,-5.252516248
440.25000,-6.168099471
440.25050,-5.252516248
440.25100,-3.72654421
440.25150,-3.421349802
440.25200,-4.94732184
440.25250,-4.94732184
440.25300,-4.031738617
440.25350,-3.116155394
440.25400,-3.72654421
440.25450,-4.642127433
440.25500,-4.642127433
440.25550,-4.031738617
440.25600,-2.810960986
440.25650,-0.3694057249
440.25700,1.766955129
440.25750,2.377343944
440.25800,2.377343944
440.25850,2.98773276
440.25900,4.513704798
440.25950,5.124093614
440.26000,3.903315983
440.26050,2.682538352
440.26100,2.377343944
440.26150,2.377343944
440.26200,2.377343944
440.26250,2.377343944
440.26300,1.461760721
440.26350,-0.06421131716
440.26400,-2.200572171
440.26450,-2.505766579
440.26500,-1.590183356
440.26550,-0.3694057249
440.26600,0.5461774982
440.26650,1.766955129
440.26700,3.292927168
440.26750,3.598121575
440.26800,2.682538352
440.26850,2.072149537
440.26900,1.766955129
440.26950,1.156566314
440.27000,-0.06421131716
440.27050,-1.284988948
440.27100,-2.505766579
440.27150,-3.72654421
440.27200,-4.94732184
440.27250,-4.642127433
440.27300,-3.116155394
440.27350,-1.590183356
440.27400,-1.590183356
440.27450,-1.895377763
440.27500,-1.284988948
440.27550,-0.3694057249
440.27600,-0.3694057249
440.27650,-0.06421131716
440.27700,1.766955129
440.27750,4.513704798
440.27800,5.429288021
440.27850,3.903315983
440.27900,3.292927168
440.27950,4.818899206
440.28000,6.650065652
440.28050,6.039676837
440.28100,5.124093614
440.28150,6.039676837
440.28200,8.176037691
440.28250,8.481232098
440.28300,6.95526006
440.28350,5.429288021
440.28400,6.039676837
440.28450,5.734482429
440.28500,2.98773276
440.28550,-0.06421131716
440.28600,-0.3694057249
440.28650,1.766955129
440.28700,3.292927168
440.28750,2.377343944
440.28800,0.2409830905
440.28850,-0.3694057249
440.28900,0.2409830905
440.28950,1.461760721
440.29000,1.766955129
440.29050,0.5461774982
440.29100,-0.3694057249
440.29150,-1.590183356
440.29200,-2.505766579
440.29250,-2.810960986
440.29300,-2.200572171
440.29350,-1.284988948
440.29400,-0.9797945403
440.29450,-1.590183356
440.29500,-2.810960986
440.29550,-3.72654421
440.29600,-4.336933025
440.29650,-4.031738617
440.29700,-1.895377763
440.29750,1.156566314
440.29800,2.377343944
440.29850,0.2409830905
440.29900,-1.895377763
440.29950,-1.590183356
440.30000,0.8513719059
440.30050,2.98773276
440.30100,2.682538352
440.30150,1.766955129
440.30200,2.072149537
440.30250,2.072149537
440.30300,2.072149537
440.30350,2.682538352
440.30400,4.208510391
440.30450,5.124093614
440.30500,3.292927168
440.30550,0.8513719059
440.30600,-0.06421131716
440.30650,0.2409830905
440.30700,-0.06421131716
440.30750,-1.284988948
440.30800,-3.116155394
440.30850,-4.94732184
440.30900,-5.862905063
440.30950,-6.473293879
440.31000,-6.168099471
440.31050,-5.862905063
440.31100,-6.168099471
440.31150,-6.473293879
440.31200,-7.083682694
440.31250,-8.304460325
440.31300,-8.914849141
440.31350,-7.999265917
440.31400,-5.862905063
440.31450,-4.336933025
440.31500,-4.336933025
440.31550,-4.336933025
440.31600,-3.116155394
440.31650,-1.590183356
440.31700,-1.284988948
440.31750,-2.200572171
440.31800,-2.200572171
440.31850,-0.6746001326
440.31900,1.156566314
440.31950,2.377343944
440.32000,2.682538352
440.32050,3.598121575
440.32100,4.818899206
440.32150,4.818899206
440.32200,3.598121575
440.32250,2.072149537
440.32300,1.461760721
440.32350,1.156566314
440.32400,0.8513719059
440.32450,0.8513719059
440.32500,1.156566314
440.32550,2.98773276
440.32600,4.513704798
440.32650,4.818899206
440.32700,3.598121575
440.32750,2.072149537
440.32800,1.766955129
440.32850,2.377343944
440.32900,2.377343944
440.32950,0.5461774982
440.33000,-2.200572171
440.33050,-3.72654421
440.33100,-2.810960986
440.33150,-0.9797945403
440.33200,-0.06421131716
440.33250,-1.284988948
440.33300,-2.810960986
440.33350,-3.421349802
440.33400,-1.895377763
440.33450,-0.06421131716
440.33500,0.8513719059
440.33550,-0.06421131716
440.33600,-0.6746001326
440.33650,-0.6746001326
440.33700,0.5461774982
440.33750,2.377343944
440.33800,3.903315983
440.33850,4.513704798
440.33900,4.818899206
440.33950,4.818899206
440.34000,5.124093614
440.34050,5.734482429
440.34100,6.344871245
440.34150,6.650065652
440.34200,7.260454468
440.34250,7.565648875
440.34300,6.95526006
440.34350,5.429288021
440.34400,3.903315983
440.34450,3.903315983
440.34500,5.124093614
440.34550,6.344871245
440.34600,6.650065652
440.34650,6.344871245
440.34700,5.734482429
440.34750,4.513704798
440.34800,2.98773276
440.34850,2.072149537
440.34900,1.461760721
440.34950,0.5461774982
440.35000,-0.6746001326
440.35050,-1.895377763
440.35100,-2.505766579
440.35150,-3.116155394
440.35200,-3.72654421
440.35250,-3.421349802
440.35300,-1.895377763
440.35350,-1.284988948
440.35400,-3.116155394
440.35450,-5.557710656
440.35500,-5.557710656
440.35550,-3.116155394
440.35600,-0.9797945403
440.35650,-0.06421131716
440.35700,-0.06421131716
440.35750,-0.3694057249
440.35800,-0.6746001326
440.35850,-0.6746001326
440.35900,-0.06421131716
440.35950,0.2409830905
440.36000,0.2409830905
440.36050,0.5461774982
440.36100,2.072149537
440.36150,3.292927168
440.36200,3.292927168
440.36250,2.682538352
440.36300,3.598121575
440.36350,4.818899206
440.36400,3.292927168
440.36450,-0.9797945403
440.36500,-4.642127433
440.36550,-4.642127433
440.36600,-1.590183356
440.36650,0.5461774982
440.36700,0.5461774982
440.36750,-0.6746001326
440.36800,-1.590183356
440.36850,-1.895377763
440.36900,-1.284988948
440.36950,-0.9797945403
440.37000,-0.9797945403
440.37050,-1.590183356
440.37100,-2.505766579
440.37150,-3.72654421
440.37200,-4.336933025
440.37250,-4.031738617
440.37300,-2.810960986
440.37350,-2.200572171
440.37400,-2.505766579
440.37450,-3.421349802
440.37500,-3.72654421
440.37550,-3.421349802
440.37600,-3.116155394
440.37650,-2.810960986
440.37700,-2.505766579
440.37750,-2.200572171
440.37800,-1.284988948
440.37850,-0.06421131716
440.37900,0.8513719059
440.37950,1.461760721
440.38000,1.766955129
440.38050,1.766955129
440.38100,2.377343944
440.38150,2.377343944
440.38200,2.072149537
440.38250,2.072149537
440.38300,2.072149537
440.38350,1.461760721
440.38400,0.2409830905
440.38450,0.2409830905
440.38500,1.156566314
440.38550,1.156566314
440.38600,-0.06421131716
440.38650,-1.895377763
440.38700,-1.895377763
440.38750,-0.9797945403
440.38800,-0.9797945403
440.38850,-1.590183356
440.38900,-1.284988948
440.38950,-0.9797945403
440.39000,-0.6746001326
440.39050,-0.3694057249
440.39100,-0.06421131716
440.39150,-0.9797945403
440.39200,-3.72654421
440.39250,-6.168099471
440.39300,-5.862905063
440.39350,-3.72654421
440.39400,-2.810960986
440.39450,-4.031738617
440.39500,-4.94732184
440.39550,-4.642127433
440.39600,-5.252516248
440.39650,-6.473293879
440.39700,-6.778488287
440.39750,-4.94732184
440.39800,-3.116155394
440.39850,-3.421349802
440.39900,-4.336933025
440.39950,-3.421349802
440.40000,-0.3694057249
440.40050,2.682538352
440.40100,4.513704798
440.40150,4.208510391
440.40200,3.598121575
440.40250,3.598121575
440.40300,3.598121575
440.40350,2.682538352
440.40400,1.766955129
440.40450,1.461760721
440.40500,1.156566314
440.40550,0.2409830905
440.40600,-0.9797945403
440.40650,-1.284988948
440.40700,-0.06421131716
440.40750,0.8513719059
440.40800,0.2409830905
440.40850,-0.9797945403
440.40900,-1.284988948
440.40950,-0.3694057249
440.41000,-0.3694057249
440.41050,-2.200572171
440.41100,-4.336933025
440.41150,-4.94732184
440.41200,-4.336933025
440.41250,-4.336933025
440.41300,-5.557710656
440.41350,-6.778488287
440.41400,-7.083682694
440.41450,-7.083682694
440.41500,-7.083682694
440.41550,-6.473293879
440.41600,-5.252516248
440.41650,-3.72654421
440.41700,-3.116155394
440.41750,-2.810960986
440.41800,-1.895377763
440.41850,-0.06421131716
440.41900,1.461760721
440.41950,1.461760721
440.42000,0.2409830905
440.42050,-0.3694057249
440.42100,-0.06421131716
440.42150,0.5461774982
440.42200,2.072149537
440.42250,3.292927168
440.42300,3.598121575
440.42350,2.377343944
440.42400,1.461760721
440.42450,2.072149537
440.42500,2.377343944
440.42550,1.156566314
440.42600,-0.6746001326
440.42650,-0.9797945403
440.42700,0.8513719059
440.42750,2.98773276
440.42800,2.682538352
440.42850,1.156566314
440.42900,0.5461774982
440.42950,0.8513719059
440.43000,1.156566314
440.43050,0.2409830905
440.43100,-0.6746001326
440.43150,-1.284988948
440.43200,-1.895377763
440.43250,-1.895377763
440.43300,-0.6746001326
440.43350,0.2409830905
440.43400,-0.06421131716
440.43450,-2.505766579
440.43500,-4.94732184
440.43550,-4.336933025
440.43600,-2.810960986
440.43650,-2.810960986
440.43700,-3.116155394
440.43750,-2.200572171
440.43800,-0.06421131716
440.43850,1.766955129
440.43900,2.377343944
440.43950,2.682538352
440.44000,2.98773276
440.44050,2.98773276
440.44100,2.682538352
440.44150,2.682538352
440.44200,2.98773276
440.44250,2.377343944
440.44300,1.461760721
440.44350,0.5461774982
440.44400,1.156566314
440.44450,2.072149537
440.44500,2.377343944
440.44550,2.377343944
440.44600,2.682538352
440.44650,2.682538352
440.44700,2.072149537
440.44750,1.156566314
440.44800,0.5461774982
440.44850,-0.06421131716
440.44900,-0.6746001326
440.44950,-1.590183356
440.45000,-1.590183356
440.45050,-1.284988948
440.45100,-1.895377763
440.45150,-4.031738617
440.45200,-6.778488287
440.45250,-8.609654733
440.45300,-8.914849141
440.45350,-8.609654733
440.45400,-8.609654733
440.45450,-8.304460325
440.45500,-6.473293879
440.45550,-3.72654421
440.45600,-1.284988948
440.45650,-0.06421131716
440.45700,1.461760721
440.45750,2.072149537
440.45800,1.766955129
440.45850,1.461760721
440.45900,2.072149537
440.45950,4.513704798
440.46000,5.734482429
440.46050,4.513704798
440.46100,3.598121575
440.46150,4.513704798
440.46200,6.650065652
440.46250,7.565648875
440.46300,6.039676837
440.46350,4.513704798
440.46400,4.208510391
440.46450,4.513704798
440.46500,4.208510391
440.46550,3.598121575
440.46600,2.377343944
440.46650,1.766955129
440.46700,2.072149537
440.46750,2.98773276
440.46800,3.292927168
440.46850,2.377343944
440.46900,1.156566314
440.46950,0.8513719059
440.47000,1.156566314
440.47050,1.156566314
440.47100,0.2409830905
440.47150,-0.06421131716
440.47200,0.2409830905
440.47250,0.8513719059
440.47300,0.2409830905
440.47350,-0.3694057249
440.47400,-0.6746001326
440.47450,0.5461774982
440.47500,1.766955129
440.47550,1.766955129
440.47600,1.156566314
440.47650,1.461760721
440.47700,2.98773276
440.47750,3.292927168
440.47800,2.377343944
440.47850,1.461760721
440.47900,1.461760721
440.47950,1.766955129
440.48000,2.377343944
440.48050,3.292927168
440.48100,4.208510391
440.48150,4.818899206
440.48200,4.208510391
440.48250,3.598121575
440.48300,4.208510391
440.48350,4.818899206
440.48400,4.208510391
440.48450,3.598121575
440.48500,4.208510391
440.48550,5.124093614
440.48600,4.513704798
440.48650,2.98773276
440.48700,0.8513719059
440.48750,-0.3694057249
440.48800,-1.590183356
440.48850,-2.505766579
440.48900,-2.810960986
440.48950,-3.116155394
440.49000,-3.72654421
440.49050,-4.336933025
440.49100,-4.031738617
440.49150,-2.505766579
440.49200,-0.9797945403
440.49250,0.2409830905
440.49300,0.8513719059
440.49350,0.5461774982
440.49400,0.2409830905
440.49450,-0.06421131716
440.49500,-0.3694057249
440.49550,-1.590183356
440.49600,-2.810960986
440.49650,-3.116155394
440.49700,-2.810960986
440.49750,-2.810960986
440.49800,-2.200572171
440.49850,-0.6746001326
440.49900,1.156566314
440.49950,1.461760721
440.50000,0.2409830905
440.50050,0.2409830905
440.50100,1.461760721
440.50150,2.98773276
440.50200,2.377343944
440.50250,1.461760721
440.50300,1.766955129
440.50350,2.377343944
440.50400,2.377343944
440.50450,1.766955129
440.50500,2.072149537
440.50550,2.682538352
440.50600,2.682538352
440.50650,1.461760721
440.50700,-0.06421131716
440.50750,-0.6746001326
440.50800,-1.284988948
440.50850,-1.895377763
440.50900,-2.505766579
440.50950,-3.116155394
440.51000,-3.421349802
440.51050,-3.116155394
440.51100,-2.505766579
440.51150,-1.895377763
440.51200,-1.895377763
440.51250,-3.116155394
440.51300,-5.252516248
440.51350,-6.168099471
440.51400,-5.557710656
440.51450,-3.421349802
440.51500,-1.284988948
440.51550,-0.3694057249
440.51600,-0.3694057249
440.51650,-0.6746001326
440.51700,-1.284988948
440.51750,-0.9797945403
440.51800,-0.6746001326
440.51850,-0.3694057249
440.51900,-0.3694057249
440.51950,-0.06421131716
440.52000,0.8513719059
440.52050,1.156566314
440.52100,-0.06421131716
440.52150,-1.284988948
440.52200,-1.284988948
440.52250,-0.06421131716
440.52300,0.2409830905
440.52350,-0.06421131716
440.52400,-0.6746001326
440.52450,-0.06421131716
440.52500,1.766955129
440.52550,2.377343944
440.52600,1.156566314
440.52650,0.2409830905
440.52700,0.2409830905
440.52750,0.8513719059
440.52800,0.2409830905
440.52850,-1.284988948
440.52900,-2.505766579
440.52950,-2.505766579
440.53000,-3.116155394
440.53050,-4.642127433
440.53100,-6.473293879
440.53150,-6.778488287
440.53200,-5.557710656
440.53250,-4.031738617
440.53300,-2.810960986
440.53350,-1.895377763
440.53400,-1.895377763
440.53450,-2.505766579
440.53500,-2.810960986
440.53550,-1.590183356
440.53600,-0.3694057249
440.53650,-0.3694057249
440.53700,-0.6746001326
440.53750,-0.3694057249
440.53800,-0.06421131716
440.53850,-0.06421131716
440.53900,0.2409830905
440.53950,1.766955129
440.54000,3.598121575
440.54050,3.903315983
440.54100,2.682538352
440.54150,2.377343944
440.54200,3.598121575
440.54250,3.903315983
440.54300,3.292927168
440.54350,2.682538352
440.54400,3.292927168
440.54450,3.903315983
440.54500,3.903315983
440.54550,3.292927168
440.54600,2.98773276
440.54650,2.377343944
440.54700,0.8513719059
440.54750,0.2409830905
440.54800,0.8513719059
440.54850,0.8513719059
440.54900,-0.6746001326
440.54950,-3.72654421
440.55000,-4.94732184
440.55050,-4.031738617
440.55100,-2.810960986
440.55150,-2.810960986
440.55200,-3.72654421
440.55250,-3.421349802
440.55300,-2.200572171
440.55350,-1.895377763
440.55400,-2.810960986
440.55450,-4.336933025
440.55500,-4.94732184
440.55550,-4.642127433
440.55600,-4.642127433
440.55650,-4.031738617
440.55700,-2.505766579
440.55750,-1.284988948
440.55800,-0.6746001326
440.55850,-0.9797945403
440.55900,-0.3694057249
440.55950,-0.06421131716
440.56000,-0.06421131716
440.56050,-0.3694057249
440.56100,-0.3694057249
440.56150,0.2409830905
440.56200,1.766955129
440.56250,2.682538352
440.56300,3.598121575
440.56350,4.513704798
440.56400,4.513704798
440.56450,3.598121575
440.56500,2.98773276
440.56550,2.98773276
440.56600,2.98773276
440.56650,2.377343944
440.56700,1.766955129
440.56750,1.461760721
440.56800,1.461760721
440.56850,0.2409830905
440.56900,-1.284988948
440.56950,-2.810960986
440.57000,-3.421349802
440.57050,-4.031738617
440.57100,-4.336933025
440.57150,-4.336933025
440.57200,-3.72654421
440.57250,-3.116155394
440.57300,-3.116155394
440.57350,-3.421349802
440.57400,-2.810960986
440.57450,-1.895377763
440.57500,-1.284988948
440.57550,-0.6746001326
440.57600,-0.06421131716
440.57650,1.156566314
440.57700,1.766955129
440.57750,1.156566314
440.57800,-0.06421131716
440.57850,-0.6746001326
440.57900,-0.9797945403
440.57950,-0.6746001326
440.58000,-0.06421131716
440.58050,0.8513719059
440.58100,1.766955129
440.58150,1.461760721
440.58200,0.8513719059
440.58250,0.8513719059
440.58300,1.766955129
440.58350,3.292927168
440.58400,4.208510391
440.58450,5.124093614
440.58500,5.734482429
440.58550,5.734482429
440.58600,4.513704798
440.58650,3.903315983
440.58700,3.903315983
440.58750,3.903315983
440.58800,2.377343944
440.58850,0.5461774982
440.58900,-0.06421131716
440.58950,0.2409830905
440.59000,0.8513719059
440.59050,0.8513719059
440.59100,0.2409830905
440.59150,-0.9797945403
440.59200,-2.200572171
440.59250,-2.810960986
440.59300,-2.505766579
440.59350,-2.505766579
440.59400,-3.116155394
440.59450,-3.421349802
440.59500,-2.810960986
440.59550,-1.895377763
440.59600,-1.284988948
440.59650,-1.284988948
440.59700,-1.284988948
440.59750,-0.06421131716
440.59800,1.156566314
440.59850,2.377343944
440.59900,2.682538352
440.59950,2.377343944
440.60000,2.682538352
440.60050,3.903315983
440.60100,4.818899206
440.60150,3.903315983
440.60200,1.766955129
440.60250,0.8513719059
440.60300,1.766955129
440.60350,1.766955129
440.60400,-0.06421131716
440.60450,-1.590183356
440.60500,-0.6746001326
440.60550,2.682538352
440.60600,5.124093614
440.60650,5.124093614
440.60700,3.903315983
440.60750,2.682538352
440.60800,2.072149537
440.60850,1.461760721
440.60900,1.461760721
440.60950,1.461760721
440.61000,1.156566314
440.61050,0.2409830905
440.61100,-0.3694057249
440.61150,-0.9797945403
440.61200,-1.590183356
440.61250,-1.895377763
440.61300,-1.895377763
440.61350,-1.590183356
440.61400,-1.895377763
440.61450,-3.116155394
440.61500,-4.031738617
440.61550,-4.031738617
440.61600,-3.116155394
440.61650,-2.505766579
440.61700,-2.505766579
440.61750,-2.200572171
440.61800,-1.590183356
440.61850,-0.9797945403
440.61900,-0.6746001326
440.61950,-0.6746001326
440.62000,-0.3694057249
440.62050,0.2409830905
440.62100,1.156566314
440.62150,1.766955129
440.62200,2.072149537
440.62250,2.072149537
440.62300,1.461760721
440.62350,0.8513719059
440.62400,1.156566314
440.62450,2.377343944
440.62500,3.292927168
440.62550,2.98773276
440.62600,2.377343944
440.62650,1.766955129
440.62700,1.461760721
440.62750,0.2409830905
440.62800,-0.9797945403
440.62850,-1.895377763
440.62900,-2.200572171
440.62950,-1.895377763
440.63000,-1.590183356
440.63050,-1.590183356
440.63100,-1.895377763
440.63150,-2.810960986
440.63200,-3.72654421
440.63250,-3.421349802
440.63300,-1.284988948
440.63350,-0.06421131716
440.63400,-0.06421131716
440.63450,-0.3694057249
440.63500,-0.3694057249
440.63550,0.2409830905
440.63600,0.8513719059
440.63650,0.5461774982
440.63700,0.2409830905
440.63750,0.5461774982
440.63800,0.8513719059
440.63850,0.2409830905
440.63900,-0.3694057249
440.63950,-0.9797945403
440.64000,-0.6746001326
440.64050,0.2409830905
440.64100,0.8513719059
440.64150,0.8513719059
440.64200,0.2409830905
440.64250,-0.06421131716
440.64300,0.8513719059
440.64350,2.377343944
440.64400,2.98773276
440.64450,2.98773276
440.64500,2.98773276
440.64550,3.903315983
440.64600,4.208510391
440.64650,3.598121575
440.64700,2.682538352
440.64750,1.766955129
440.64800,0.8513719059
440.64850,-0.6746001326
440.64900,-2.200572171
440.64950,-2.810960986
440.65000,-2.200572171
440.65050,-1.284988948
440.65100,-0.9797945403
440.65150,-1.284988948
440.65200,-2.200572171
440.65250,-2.200572171
440.65300,-1.590183356
440.65350,-1.590183356
440.65400,-2.505766579
440.65450,-3.421349802
440.65500,-3.421349802
440.65550,-2.810960986
440.65600,-2.810960986
440.65650,-3.421349802
440.65700,-3.421349802
440.65750,-2.810960986
440.65800,-2.810960986
440.65850,-2.810960986
440.65900,-2.200572171
440.65950,-0.6746001326
440.66000,-0.06421131716
440.66050,0.2409830905
440.66100,0.5461774982
440.66150,1.766955129
440.66200,2.682538352
440.66250,2.682538352
440.66300,2.377343944
440.66350,3.292927168
440.66400,4.208510391
440.66450,4.513704798
440.66500,3.903315983
440.66550,2.98773276
440.66600,2.072149537
440.66650,2.377343944
440.66700,2.98773276
440.66750,2.682538352
440.66800,1.156566314
440.66850,-0.06421131716
440.66900,-0.9797945403
440.66950,-1.284988948
440.67000,-2.505766579
440.67050,-3.72654421
440.67100,-4.336933025
440.67150,-4.336933025
440.67200,-4.336933025
440.67250,-4.94732184
440.67300,-5.252516248
440.67350,-5.862905063
440.67400,-6.778488287
440.67450,-7.999265917
440.67500,-7.69407151
440.67550,-5.862905063
440.67600,-3.72654421
440.67650,-2.810960986
440.67700,-3.421349802
440.67750,-4.642127433
440.67800,-5.557710656
440.67850,-4.642127433
440.67900,-2.200572171
440.67950,-0.06421131716
440.68000,1.156566314
440.68050,0.8513719059
440.68100,-0.06421131716
440.68150,-0.6746001326
440.68200,-0.3694057249
440.68250,1.156566314
440.68300,2.377343944
440.68350,2.98773276
440.68400,3.598121575
440.68450,4.208510391
440.68500,3.903315983
440.68550,0.8513719059
440.68600,-2.505766579
440.68650,-3.72654421
440.68700,-1.895377763
440.68750,-0.06421131716
440.68800,-0.06421131716
440.68850,0.2409830905
440.68900,1.766955129
440.68950,2.98773276
440.69000,1.766955129
440.69050,-0.3694057249
440.69100,-0.9797945403
440.69150,-0.06421131716
440.69200,0.2409830905
440.69250,-0.3694057249
440.69300,-2.200572171
440.69350,-2.810960986
440.69400,-2.810960986
440.69450,-2.810960986
440.69500,-1.895377763
440.69550,0.2409830905
440.69600,2.98773276
440.69650,4.513704798
440.69700,4.513704798
440.69750,3.903315983
440.69800,2.98773276
440.69850,2.377343944
440.69900,2.072149537
440.69950,2.377343944
440.70000,2.682538352
440.70050,2.682538352
440.70100,2.98773276
440.70150,4.513704798
440.70200,5.429288021
440.70250,5.124093614
440.70300,4.208510391
440.70350,4.818899206
440.70400,6.344871245
440.70450,6.650065652
440.70500,5.429288021
440.70550,3.292927168
440.70600,1.461760721
440.70650,-0.06421131716
440.70700,-1.590183356
440.70750,-2.505766579
440.70800,-1.590183356
440.70850,-0.6746001326
440.70900,-0.6746001326
440.70950,-1.895377763
440.71000,-2.810960986
440.71050,-4.031738617
440.71100,-4.94732184
440.71150,-4.642127433
440.71200,-1.590183356
440.71250,0.8513719059
440.71300,1.156566314
440.71350,-0.3694057249
440.71400,-2.200572171
440.71450,-2.810960986
440.71500,-3.421349802
440.71550,-4.642127433
440.71600,-4.642127433
440.71650,-3.421349802
440.71700,-2.505766579
440.71750,-2.810960986
440.71800,-2.810960986
440.71850,-1.284988948
440.71900,0.2409830905
440.71950,1.766955129
440.72000,2.072149537
440.72050,2.072149537
440.72100,1.766955129
440.72150,0.8513719059
440.72200,0.8513719059
440.72250,1.461760721
440.72300,1.766955129
440.72350,1.156566314
440.72400,0.2409830905
440.72450,0.2409830905
440.72500,0.5461774982
440.72550,1.156566314
440.72600,1.766955129
440.72650,1.766955129
440.72700,1.156566314
440.72750,-0.06421131716
440.72800,-0.9797945403
440.72850,-0.3694057249
440.72900,0.2409830905
440.72950,0.2409830905
440.73000,-0.9797945403
440.73050,-2.200572171
440.73100,-3.421349802
440.73150,-4.642127433
440.73200,-5.557710656
440.73250,-5.557710656
440.73300,-4.642127433
440.73350,-3.72654421
440.73400,-3.72654421
440.73450,-3.72654421
440.73500,-3.421349802
440.73550,-3.421349802
440.73600,-3.421349802
440.73650,-3.72654421
440.73700,-4.336933025
440.73750,-3.72654421
440.73800,-2.505766579
440.73850,-1.284988948
440.73900,-0.6746001326
440.73950,-0.3694057249
440.74000,-0.6746001326
440.74050,-0.9797945403
440.74100,-0.3694057249
440.74150,0.5461774982
440.74200,1.461760721
440.74250,1.461760721
440.74300,0.5461774982
440.74350,0.5461774982
440.74400,1.766955129
440.74450,3.292927168
440.74500,3.598121575
440.74550,2.377343944
440.74600,1.156566314
440.74650,1.156566314
440.74700,1.461760721
440.74750,-0.06421131716
440.74800,-3.116155394
440.74850,-4.642127433
440.74900,-3.421349802
440.74950,-0.9797945403
440.75000,0.2409830905
440.75050,0.5461774982
440.75100,0.2409830905
440.75150,-0.06421131716
440.75200,-0.9797945403
440.75250,-2.200572171
440.75300,-3.116155394
440.75350,-2.505766579
440.75400,-1.284988948
440.75450,0.2409830905
440.75500,2.072149537
440.75550,2.682538352
440.75600,2.072149537
440.75650,1.156566314
440.75700,0.8513719059
440.75750,0.8513719059
440.75800,1.461760721
440.75850,2.682538352
440.75900,4.513704798
440.75950,5.124093614
440.76000,4.513704798
440.76050,3.903315983
440.76100,4.208510391
440.76150,4.513704798
440.76200,3.903315983
440.76250,3.292927168
440.76300,3.598121575
440.76350,4.208510391
440.76400,3.598121575
440.76450,2.98773276
440.76500,4.818899206
440.76550,7.565648875
440.76600,8.481232098
440.76650,7.260454468
440.76700,6.039676837
440.76750,5.734482429
440.76800,4.818899206
440.76850,2.98773276
440.76900,1.766955129
440.76950,1.461760721
440.77000,1.156566314
440.77050,-0.06421131716
440.77100,-1.284988948
440.77150,-1.284988948
440.77200,-1.895377763
440.77250,-3.421349802
440.77300,-3.72654421
440.77350,-2.505766579
440.77400,-0.9797945403
440.77450,-1.590183356
440.77500,-3.421349802
440.77550,-4.336933025
440.77600,-3.421349802
440.77650,-2.505766579
440.77700,-1.284988948
440.77750,-0.06421131716
440.77800,0.8513719059
440.77850,0.8513719059
440.77900,0.8513719059
440.77950,2.072149537
440.78000,3.903315983
440.78050,4.208510391
440.78100,2.98773276
440.78150,2.072149537
440.78200,2.377343944
440.78250,3.292927168
440.78300,3.903315983
440.78350,5.429288021
440.78400,7.260454468
440.78450,7.870843283
440.78500,6.95526006
440.78550,5.734482429
440.78600,4.818899206
440.78650,4.513704798
440.78700,3.598121575
440.78750,2.072149537
440.78800,0.8513719059
440.78850,0.2409830905
440.78900,-0.06421131716
440.78950,-1.284988948
440.79000,-2.810960986
440.79050,-3.421349802
440.79100,-3.421349802
440.79150,-2.810960986
440.79200,-2.810960986
440.79250,-3.72654421
440.79300,-3.72654421
440.79350,-3.116155394
440.79400,-2.810960986
440.79450,-3.421349802
440.79500,-3.72654421
440.79550,-2.810960986
440.79600,-1.284988948
440.79650,-0.6746001326
440.79700,-1.590183356
440.79750,-3.116155394
440.79800,-4.031738617
440.79850,-3.116155394
440.79900,-1.590183356
440.79950,-0.3694057249
440.80000,-0.6746001326
440.80050,-1.895377763
440.80100,-2.810960986
440.80150,-2.505766579
440.80200,-1.590183356
440.80250,-0.3694057249
440.80300,1.461760721
440.80350,2.98773276
440.80400,2.377343944
440.80450,1.461760721
440.80500,1.766955129
440.80550,2.377343944
440.80600,1.766955129
440.80650,-0.3694057249
440.80700,-2.200572171
440.80750,-2.505766579
440.80800,-2.810960986
440.80850,-3.72654421
440.80900,-4.031738617
440.80950,-3.421349802
440.81000,-4.031738617
440.81050,-6.168099471
440.81100,-7.999265917
440.81150,-7.388877102
440.81200,-5.557710656
440.81250,-5.252516248
440.81300,-5.252516248
440.81350,-4.642127433
440.81400,-3.421349802
440.81450,-3.116155394
440.81500,-3.421349802
440.81550,-2.810960986
440.81600,-1.895377763
440.81650,-2.200572171
440.81700,-3.116155394
440.81750,-2.200572171
440.81800,-0.06421131716
440.81850,0.5461774982
440.81900,-0.3694057249
440.81950,-1.284988948
440.82000,-0.06421131716
440.82050,2.072149537
440.82100,2.072149537
440.82150,0.5461774982
440.82200,-0.3694057249
440.82250,-0.9797945403
440.82300,-0.9797945403
440.82350,-0.9797945403
440.82400,-0.06421131716
440.82450,1.156566314
440.82500,2.98773276
440.82550,4.208510391
440.82600,4.818899206
440.82650,4.513704798
440.82700,3.903315983
440.82750,3.903315983
440.82800,4.513704798
440.82850,4.208510391
440.82900,2.072149537
440.82950,-0.6746001326
440.83000,-1.895377763
440.83050,-1.590183356
440.83100,-1.284988948
440.83150,-2.200572171
440.83200,-2.810960986
440.83250,-3.116155394
440.83300,-3.72654421
440.83350,-4.642127433
440.83400,-4.642127433
440.83450,-4.031738617
440.83500,-3.72654421
440.83550,-4.642127433
440.83600,-5.862905063
440.83650,-5.862905063
440.83700,-4.94732184
440.83750,-3.421349802
440.83800,-1.590183356
440.83850,-0.6746001326
440.83900,-1.284988948
440.83950,-1.895377763
440.84000,-1.284988948
440.84050,0.2409830905
440.84100,1.461760721
440.84150,0.5461774982
440.84200,-0.3694057249
440.84250,-0.06421131716
440.84300,2.377343944
440.84350,4.208510391
440.84400,4.513704798
440.84450,3.903315983
440.84500,2.98773276
440.84550,2.072149537
440.84600,1.461760721
440.84650,1.461760721
440.84700,1.461760721
440.84750,1.156566314
440.84800,0.2409830905
440.84850,-0.06421131716
440.84900,1.156566314
440.84950,2.377343944
440.85000,1.766955129
440.85050,-0.6746001326
440.85100,-3.421349802
440.85150,-4.336933025
440.85200,-2.200572171
440.85250,0.8513719059
440.85300,2.98773276
440.85350,2.98773276
440.85400,2.682538352
440.85450,2.072149537
440.85500,1.156566314
440.85550,-0.06421131716
440.85600,-0.06421131716
440.85650,0.8513719059
440.85700,1.766955129
440.85750,1.766955129
440.85800,1.766955129
440.85850,2.98773276
440.85900,4.513704798
440.85950,4.208510391
440.86000,3.292927168
440.86050,2.98773276
440.86100,3.292927168
440.86150,2.682538352
440.86200,2.072149537
440.86250,2.377343944
440.86300,3.903315983
440.86350,5.124093614
440.86400,5.124093614
440.86450,4.513704798
440.86500,3.903315983
440.86550,1.766955129
440.86600,-0.6746001326
440.86650,-1.895377763
440.86700,-0.3694057249
440.86750,1.766955129
440.86800,1.766955129
440.86850,-0.06421131716
440.86900,-2.200572171
440.86950,-2.810960986
440.87000,-2.505766579
440.87050,-2.505766579
440.87100,-3.421349802
440.87150,-3.72654421
440.87200,-3.116155394
440.87250,-2.810960986
440.87300,-3.116155394
440.87350,-3.116155394
440.87400,-2.505766579
440.87450,-2.200572171
440.87500,-4.031738617
440.87550,-7.083682694
440.87600,-7.69407151
440.87650,-5.557710656
440.87700,-2.810960986
440.87750,-1.895377763
440.87800,-2.200572171
440.87850,-0.9797945403
440.87900,1.461760721
440.87950,2.98773276
440.88000,2.377343944
440.88050,0.5461774982
440.88100,0.2409830905
440.88150,1.461760721
440.88200,2.682538352
440.88250,2.377343944
440.88300,1.766955129
440.88350,1.461760721
440.88400,2.072149537
440.88450,3.292927168
440.88500,3.598121575
440.88550,3.292927168
440.88600,2.072149537
440.88650,0.8513719059
440.88700,-0.06421131716
440.88750,-0.3694057249
440.88800,-0.6746001326
440.88850,-0.3694057249
440.88900,-0.3694057249
440.88950,-0.3694057249
440.89000,-0.6746001326
440.89050,-0.9797945403
440.89100,-1.284988948
440.89150,-1.284988948
440.89200,-0.6746001326
440.89250,-0.06421131716
440.89300,-0.06421131716
440.89350,-0.9797945403
440.89400,-1.590183356
440.89450,-1.895377763
440.89500,-1.590183356
440.89550,-1.590183356
440.89600,-1.895377763
440.89650,-1.590183356
440.89700,-0.6746001326
440.89750,-0.06421131716
440.89800,0.8513719059
440.89850,2.377343944
440.89900,3.903315983
440.89950,4.208510391
440.90000,4.513704798
440.90050,5.124093614
440.90100,5.429288021
440.90150,4.208510391
440.90200,3.292927168
440.90250,4.208510391
440.90300,6.344871245
440.90350,6.650065652
440.90400,5.124093614
440.90450,3.598121575
440.90500,3.292927168
440.90550,3.292927168
440.90600,2.682538352
440.90650,2.072149537
440.90700,2.377343944
440.90750,2.682538352
440.90800,2.377343944
440.90850,2.072149537
440.90900,2.072149537
440.90950,1.766955129
440.91000,0.8513719059
440.91050,-0.06421131716
440.91100,-0.06421131716
440.91150,-0.06421131716
440.91200,-1.590183356
440.91250,-3.72654421
440.91300,-5.252516248
440.91350,-4.642127433
440.91400,-3.72654421
440.91450,-2.810960986
440.91500,-2.200572171
440.91550,-1.895377763
440.91600,-1.895377763
440.91650,-1.590183356
440.91700,-0.9797945403
440.91750,-0.06421131716
440.91800,0.5461774982
440.91850,0.5461774982
440.91900,-0.06421131716
440.91950,-1.284988948
440.92000,-1.895377763
440.92050,-1.590183356
440.92100,-0.9797945403
440.92150,-0.9797945403
440.92200,-0.3694057249
440.92250,0.5461774982
440.92300,2.377343944
440.92350,2.98773276
440.92400,2.98773276
440.92450,2.98773276
440.92500,2.377343944
440.92550,1.766955129
440.92600,0.8513719059
440.92650,-0.06421131716
440.92700,-1.284988948
440.92750,-3.116155394
440.92800,-4.336933025
440.92850,-4.336933025
440.92900,-3.421349802
440.92950,-3.421349802
440.93000,-4.642127433
440.93050,-5.557710656
440.93100,-5.557710656
440.93150,-5.862905063
440.93200,-6.778488287
440.93250,-7.388877102
440.93300,-7.388877102
440.93350,-7.999265917
440.93400,-9.830432364
440.93450,-10.13562677
440.93500,-7.388877102
440.93550,-3.421349802
440.93600,-1.895377763
440.93650,-3.421349802
440.93700,-5.557710656
440.93750,-6.778488287
440.93800,-7.69407151
440.93850,-7.999265917
440.93900,-6.168099471
440.93950,-2.505766579
440.94000,-0.06421131716
440.94050,-0.06421131716
440.94100,-0.9797945403
440.94150,-0.06421131716
440.94200,1.461760721
440.94250,2.377343944
440.94300,2.072149537
440.94350,1.156566314
440.94400,0.8513719059
440.94450,0.5461774982
440.94500,0.5461774982
440.94550,1.461760721
440.94600,2.98773276
440.94650,4.208510391
440.94700,4.513704798
440.94750,4.513704798
440.94800,4.513704798
440.94850,3.292927168
440.94900,1.461760721
440.94950,-0.06421131716
440.95000,-0.3694057249
440.95050,-0.06421131716
440.95100,-0.06421131716
440.95150,-0.06421131716
440.95200,0.5461774982
440.95250,1.766955129
440.95300,1.461760721
440.95350,-1.284988948
440.95400,-4.94732184
440.95450,-6.473293879
440.95500,-6.168099471
440.95550,-4.94732184
440.95600,-3.72654421
440.95650,-1.895377763
440.95700,-0.06421131716
440.95750,0.8513719059
440.95800,0.5461774982
440.95850,-0.06421131716
440.95900,-0.06421131716
440.95950,0.5461774982
440.96000,1.461760721
440.96050,3.598121575
440.96100,5.429288021
440.96150,5.734482429
440.96200,4.513704798
440.96250,3.598121575
440.96300,3.903315983
440.96350,4.208510391
440.96400,3.598121575
440.96450,3.598121575
440.96500,4.818899206
440.96550,5.429288021
440.96600,3.598121575
440.96650,1.156566314
440.96700,0.5461774982
440.96750,1.461760721
440.96800,1.461760721
440.96850,0.2409830905
440.96900,-0.06421131716
440.96950,0.8513719059
440.97000,1.156566314
440.97050,-0.06421131716
440.97100,-0.9797945403
440.97150,-1.590183356
440.97200,-2.200572171
440.97250,-3.421349802
440.97300,-4.94732184
440.97350,-5.252516248
440.97400,-4.336933025
440.97450,-2.810960986
440.97500,-1.590183356
440.97550,-1.895377763
440.97600,-2.505766579
440.97650,-1.895377763
440.97700,-0.3694057249
440.97750,0.8513719059
440.97800,0.5461774982
440.97850,-0.06421131716
440.97900,0.2409830905
440.97950,2.377343944
440.98000,3.903315983
440.98050,4.513704798
440.98100,4.513704798
440.98150,4.818899206
440.98200,4.208510391
440.98250,3.292927168
440.98300,2.98773276
440.98350,4.208510391
440.98400,5.734482429
440.98450,6.344871245
440.98500,5.734482429
440.98550,4.818899206
440.98600,3.903315983
440.98650,2.98773276
440.98700,2.377343944
440.98750,2.682538352
440.98800,2.682538352
440.98850,1.156566314
440.98900,-0.3694057249
440.98950,-0.9797945403
440.99000,-0.3694057249
440.99050,-0.06421131716
440.99100,-0.6746001326
440.99150,-1.284988948
440.99200,-0.6746001326
440.99250,-0.3694057249
440.99300,-0.6746001326
440.99350,-0.6746001326
440.99400,-0.3694057249
440.99450,-0.3694057249
440.99500,-1.284988948
440.99550,-2.810960986
440.99600,-3.421349802
440.99650,-2.810960986
440.99700,-2.200572171
440.99750,-1.895377763
440.99800,-1.284988948
440.99850,-0.06421131716
440.99900,1.156566314
440.99950,2.377343944
441.00000,2.682538352
441.00050,2.377343944
441.00100,2.072149537
441.00150,2.682538352
441.00200,2.682538352
441.00250,2.377343944
441.00300,2.377343944
441.00350,2.072149537
441.00400,-0.06421131716
441.00450,-3.116155394
441.00500,-4.94732184
441.00550,-3.116155394
441.00600,0.2409830905
441.00650,2.072149537
441.00700,1.156566314
441.00750,0.5461774982
441.00800,1.766955129
441.00850,2.98773276
441.00900,2.072149537
441.00950,-0.3694057249
441.01000,-2.200572171
441.01050,-1.895377763
441.01100,-0.06421131716
441.01150,0.5461774982
441.01200,-0.06421131716
441.01250,-0.3694057249
441.01300,0.8513719059
441.01350,2.98773276
441.01400,2.377343944
441.01450,-1.895377763
441.01500,-6.473293879
441.01550,-6.778488287
441.01600,-4.336933025
441.01650,-1.284988948
441.01700,0.8513719059
441.01750,4.208510391
441.01800,6.039676837
441.01850,4.818899206
441.01900,1.766955129
441.01950,0.5461774982
441.02000,2.072149537
441.02050,3.903315983
441.02100,3.903315983
441.02150,3.598121575
441.02200,3.903315983
441.02250,4.513704798
441.02300,3.598121575
441.02350,2.682538352
441.02400,3.598121575
441.02450,6.039676837
441.02500,6.95526006
441.02550,5.734482429
441.02600,3.598121575
441.02650,1.766955129
441.02700,-0.06421131716
441.02750,-1.895377763
441.02800,-4.031738617
441.02850,-5.862905063
441.02900,-7.388877102
441.02950,-7.388877102
441.03000,-6.168099471
441.03050,-4.642127433
441.03100,-4.642127433
441.03150,-5.862905063
441.03200,-6.778488287
441.03250,-5.557710656
441.03300,-4.031738617
441.03350,-3.421349802
441.03400,-3.116155394
441.03450,-2.810960986
441.03500,-2.505766579
441.03550,-3.116155394
441.03600,-4.336933025
441.03650,-4.94732184
441.03700,-4.642127433
441.03750,-4.336933025
441.03800,-4.336933025
441.03850,-4.031738617
441.03900,-3.421349802
441.03950,-3.116155394
441.04000,-2.810960986
441.04050,-2.505766579
441.04100,-1.895377763
441.04150,-1.590183356
441.04200,-1.590183356
441.04250,-1.590183356
441.04300,-1.284988948
441.04350,-0.9797945403
441.04400,-0.06421131716
441.04450,1.156566314
441.04500,2.377343944
441.04550,2.377343944
441.04600,1.766955129
441.04650,1.766955129
441.04700,1.766955129
441.04750,2.072149537
441.04800,1.461760721
441.04850,0.8513719059
441.04900,-0.06421131716
441.04950,-0.9797945403
441.05000,-2.200572171
441.05050,-2.200572171
441.05100,-1.895377763
441.05150,-1.895377763
441.05200,-2.505766579
441.05250,-2.810960986
441.05300,-2.200572171
441.05350,-1.284988948
441.05400,-0.3694057249
441.05450,0.2409830905
441.05500,0.2409830905
441.05550,-0.3694057249
441.05600,-1.895377763
441.05650,-1.590183356
441.05700,0.2409830905
441.05750,2.377343944
441.05800,2.377343944
441.05850,1.156566314
441.05900,1.461760721
441.05950,3.598121575
441.06000,5.124093614
441.06050,4.513704798
441.06100,3.292927168
441.06150,3.598121575
441.06200,5.124093614
441.06250,5.124093614
441.06300,4.208510391
441.06350,3.903315983
441.06400,4.513704798
441.06450,4.513704798
441.06500,3.598121575
441.06550,2.682538352
441.06600,2.98773276
441.06650,3.292927168
441.06700,2.682538352
441.06750,2.072149537
441.06800,2.072149537
441.06850,2.072149537
441.06900,0.8513719059
441.06950,-0.6746001326
441.07000,-1.895377763
441.07050,-2.200572171
441.07100,-3.421349802
441.07150,-4.94732184
441.07200,-5.252516248
441.07250,-4.336933025
441.07300,-3.421349802
441.07350,-4.031738617
441.07400,-5.252516248
441.07450,-5.252516248
441.07500,-3.72654421
441.07550,-2.810960986
441.07600,-3.116155394
441.07650,-4.336933025
441.07700,-4.642127433
441.07750,-3.72654421
441.07800,-1.895377763
441.07850,-0.06421131716
441.07900,1.766955129
441.07950,3.292927168
441.08000,3.292927168
441.08050,2.377343944
441.08100,1.766955129
441.08150,2.682538352
441.08200,4.513704798
441.08250,4.513704798
441.08300,2.682538352
441.08350,0.8513719059
441.08400,1.461760721
441.08450,3.903315983
441.08500,5.734482429
441.08550,5.429288021
441.08600,4.208510391
441.08650,2.98773276
441.08700,2.072149537
441.08750,1.156566314
441.08800,-0.06421131716
441.08850,-0.3694057249
441.08900,-0.06421131716
441.08950,0.5461774982
441.09000,0.2409830905
441.09050,-0.9797945403
441.09100,-1.895377763
441.09150,-1.284988948
441.09200,-0.3694057249
441.09250,-0.06421131716
441.09300,-0.3694057249
441.09350,-0.9797945403
441.09400,-1.284988948
441.09450,-1.590183356
441.09500,-2.505766579
441.09550,-3.421349802
441.09600,-3.421349802
441.09650,-2.200572171
441.09700,-0.3694057249
441.09750,0.8513719059
441.09800,2.072149537
441.09850,2.98773276
441.09900,3.598121575
441.09950,2.98773276
441.10000,1.766955129
441.10050,1.156566314
441.10100,2.072149537
441.10150,2.98773276
441.10200,2.682538352
441.10250,1.156566314
441.10300,-0.3694057249
441.10350,-0.9797945403
441.10400,-0.9797945403
441.10450,-0.06421131716
441.10500,1.461760721
441.10550,2.682538352
441.10600,2.377343944
441.10650,1.461760721
441.10700,1.461760721
441.10750,2.682538352
441.10800,2.682538352
441.10850,0.8513719059
441.10900,-0.6746001326
441.10950,-1.284988948
441.11000,-0.9797945403
441.11050,-1.590183356
441.11100,-3.116155394
441.11150,-4.94732184
441.11200,-6.168099471
441.11250,-6.168099471
441.11300,-4.642127433
441.11350,-3.116155394
441.11400,-3.72654421
441.11450,-4.94732184
441.11500,-4.94732184
441.11550,-3.421349802
441.11600,-3.116155394
441.11650,-4.031738617
441.11700,-4.642127433
441.11750,-4.031738617
441.11800,-3.116155394
441.11850,-2.810960986
441.11900,-2.810960986
441.11950,-1.895377763
441.12000,-1.284988948
441.12050,-1.284988948
441.12100,-0.9797945403
441.12150,-0.06421131716
441.12200,0.5461774982
441.12250,-0.06421131716
441.12300,-0.3694057249
441.12350,0.5461774982
441.12400,2.072149537
441.12450,1.156566314
441.12500,-0.6746001326
441.12550,-1.895377763
441.12600,-0.6746001326
441.12650,0.2409830905
441.12700,1.156566314
441.12750,0.8513719059
441.12800,-0.06421131716
441.12850,-1.284988948
441.12900,-2.200572171
441.12950,-2.505766579
441.13000,-3.116155394
441.13050,-3.72654421
441.13100,-4.031738617
441.13150,-4.031738617
441.13200,-4.336933025
441.13250,-4.94732184
441.13300,-4.336933025
441.13350,-3.421349802
441.13400,-3.421349802
441.13450,-4.94732184
441.13500,-6.168099471
441.13550,-5.862905063
441.13600,-4.94732184
441.13650,-4.336933025
441.13700,-4.336933025
441.13750,-3.72654421
441.13800,-3.116155394
441.13850,-3.116155394
441.13900,-3.72654421
441.13950,-3.421349802
441.14000,-2.810960986
441.14050,-2.505766579
441.14100,-1.895377763
441.14150,-0.6746001326
441.14200,0.5461774982
441.14250,0.8513719059
441.14300,0.5461774982
441.14350,0.8513719059
441.14400,2.377343944
441.14450,4.208510391
441.14500,4.513704798
441.14550,3.903315983
441.14600,3.292927168
441.14650,2.377343944
441.14700,2.072149537
441.14750,2.377343944
441.14800,3.292927168
441.14850,3.598121575
441.14900,2.98773276
441.14950,1.156566314
441.15000,-0.6746001326
441.15050,-2.505766579
441.15100,-2.810960986
441.15150,-1.895377763
441.15200,-0.9797945403
441.15250,-0.9797945403
441.15300,-1.590183356
441.15350,-1.590183356
441.15400,-0.3694057249
441.15450,-0.06421131716
441.15500,-0.06421131716
441.15550,-0.3694057249
441.15600,0.2409830905
441.15650,0.5461774982
441.15700,-0.06421131716
441.15750,-0.9797945403
441.15800,-0.6746001326
441.15850,1.461760721
441.15900,3.903315983
441.15950,5.124093614
441.16000,5.429288021
441.16050,5.429288021
441.16100,5.124093614
441.16150,5.124093614
441.16200,6.039676837
441.16250,7.260454468
441.16300,6.650065652
441.16350,5.124093614
441.16400,4.818899206
441.16450,6.344871245
441.16500,7.260454468
441.16550,5.734482429
441.16600,3.292927168
441.16650,2.682538352
441.16700,3.903315983
441.16750,4.208510391
441.16800,2.682538352
441.16850,1.156566314
441.16900,-0.06421131716
441.16950,-1.590183356
441.17000,-2.810960986
441.17050,-2.810960986
441.17100,-2.200572171
441.17150,-1.895377763
441.17200,-1.895377763
441.17250,-2.200572171
441.17300,-2.505766579
441.17350,-3.72654421
441.17400,-4.031738617
441.17450,-3.116155394
441.17500,-1.895377763
441.17550,-1.895377763
441.17600,-2.200572171
441.17650,-0.9797945403
441.17700,0.8513719059
441.17750,1.461760721
441.17800,0.5461774982
441.17850,-0.06421131716
441.17900,2.377343944
441.17950,5.734482429
441.18000,7.260454468
441.18050,6.650065652
441.18100,5.429288021
441.18150,5.124093614
441.18200,5.124093614
441.18250,4.208510391
441.18300,3.598121575
441.18350,5.124093614
441.18400,8.481232098
441.18450,10.31239854
441.18500,8.481232098
441.18550,4.818899206
441.18600,3.292927168
441.18650,4.818899206
441.18700,6.344871245
441.18750,5.734482429
441.18800,4.513704798
441.18850,3.598121575
441.18900,1.766955129
441.18950,-0.9797945403
441.19000,-2.810960986
441.19050,-1.284988948
441.19100,0.2409830905
441.19150,-0.9797945403
441.19200,-4.94732184
441.19250,-6.168099471
441.19300,-3.116155394
441.19350,-0.06421131716
441.19400,-0.06421131716
441.19450,-1.895377763
441.19500,-2.810960986
441.19550,-1.895377763
441.19600,-1.590183356
441.19650,-2.200572171
441.19700,-2.200572171
441.19750,-0.6746001326
441.19800,0.5461774982
441.19850,1.156566314
441.19900,0.5461774982
441.19950,-0.06421131716
441.20000,-0.3694057249
441.20050,-0.06421131716
441.20100,1.156566314
441.20150,1.461760721
441.20200,0.5461774982
441.20250,-0.06421131716
441.20300,-0.3694057249
441.20350,-0.06421131716
441.20400,-0.06421131716
441.20450,0.5461774982
441.20500,1.461760721
441.20550,2.682538352
441.20600,2.98773276
441.20650,2.682538352
441.20700,2.682538352
441.20750,3.292927168
441.20800,3.598121575
441.20850,2.377343944
441.20900,1.156566314
441.20950,0.8513719059
441.21000,1.766955129
441.21050,1.766955129
441.21100,-0.06421131716
441.21150,-2.810960986
441.21200,-5.252516248
441.21250,-6.168099471
441.21300,-5.862905063
441.21350,-4.94732184
441.21400,-4.336933025
441.21450,-4.642127433
441.21500,-5.557710656
441.21550,-5.557710656
441.21600,-4.336933025
441.21650,-2.810960986
441.21700,-1.590183356
441.21750,-0.9797945403
441.21800,-0.6746001326
441.21850,-0.3694057249
441.21900,-0.06421131716
441.21950,-0.3694057249
441.22000,-2.200572171
441.22050,-4.336933025
441.22100,-5.252516248
441.22150,-3.116155394
441.22200,-0.06421131716
441.22250,2.072149537
441.22300,2.682538352
441.22350,2.377343944
441.22400,2.98773276
441.22450,4.208510391
441.22500,5.429288021
441.22550,6.344871245
441.22600,6.039676837
441.22650,5.124093614
441.22700,3.598121575
441.22750,2.377343944
441.22800,1.461760721
441.22850,0.2409830905
441.22900,-2.200572171
441.22950,-4.642127433
441.23000,-5.557710656
441.23050,-5.557710656
441.23100,-5.862905063
441.23150,-6.778488287
441.23200,-7.083682694
441.23250,-6.168099471
441.23300,-4.94732184
441.23350,-4.336933025
441.23400,-4.642127433
441.23450,-5.252516248
441.23500,-5.557710656
441.23550,-4.336933025
441.23600,-2.200572171
441.23650,-0.6746001326
441.23700,-1.284988948
441.23750,-3.72654421
441.23800,-5.557710656
441.23850,-5.252516248
441.23900,-3.421349802
441.23950,-1.590183356
441.24000,-0.6746001326
441.24050,-0.3694057249
441.24100,-0.06421131716
441.24150,0.2409830905
441.24200,0.2409830905
441.24250,-0.06421131716
441.24300,-0.3694057249
441.24350,-0.3694057249
441.24400,-0.06421131716
441.24450,0.2409830905
441.24500,0.2409830905
441.24550,-0.3694057249
441.24600,-0.6746001326
441.24650,-0.6746001326
441.24700,-0.3694057249
441.24750,-0.06421131716
441.24800,0.5461774982
441.24850,1.156566314
441.24900,0.2409830905
441.24950,-1.895377763
441.25000,-3.72654421
441.25050,-3.72654421
441.25100,-3.72654421
441.25150,-4.94732184
441.25200,-6.778488287
441.25250,-7.083682694
441.25300,-6.473293879
441.25350,-6.168099471
441.25400,-6.168099471
441.25450,-5.557710656
441.25500,-5.252516248
441.25550,-6.168099471
441.25600,-7.083682694
441.25650,-6.473293879
441.25700,-4.336933025
441.25750,-1.590183356
441.25800,0.5461774982
441.25850,2.072149537
441.25900,2.377343944
441.25950,1.156566314
441.26000,-0.06421131716
441.26050,-0.3694057249
441.26100,-0.06421131716
441.26150,-0.06421131716
441.26200,-0.06421131716
441.26250,0.8513719059
441.26300,1.766955129
441.26350,2.682538352
441.26400,2.682538352
441.26450,2.682538352
441.26500,2.377343944
441.26550,1.461760721
441.26600,1.156566314
441.26650,1.461760721
441.26700,1.461760721
441.26750,1.156566314
441.26800,0.5461774982
441.26850,0.5461774982
441.26900,0.5461774982
441.26950,0.5461774982
441.27000,0.2409830905
441.27050,-0.06421131716
441.27100,-0.6746001326
441.27150,-0.9797945403
441.27200,-0.9797945403
441.27250,-0.6746001326
441.27300,-0.9797945403
441.27350,-1.590183356
441.27400,-2.200572171
441.27450,-2.200572171
441.27500,-1.895377763
441.27550,-0.6746001326
441.27600,0.5461774982
441.27650,2.072149537
441.27700,2.072149537
441.27750,1.461760721
441.27800,1.156566314
441.27850,1.461760721
441.27900,1.461760721
441.27950,0.8513719059
441.28000,0.8513719059
441.28050,2.072149537
441.28100,4.513704798
441.28150,6.344871245
441.28200,6.344871245
441.28250,4.513704798
441.28300,3.903315983
441.28350,4.818899206
441.28400,6.039676837
441.28450,5.429288021
441.28500,4.208510391
441.28550,3.598121575
441.28600,3.598121575
441.28650,4.208510391
441.28700,4.818899206
441.28750,5.429288021
441.28800,5.429288021
441.28850,4.208510391
441.28900,2.377343944
441.28950,1.766955129
441.29000,1.766955129
441.29050,1.766955129
441.29100,2.072149537
441.29150,3.292927168
441.29200,4.208510391
441.29250,3.292927168
441.29300,1.766955129
441.29350,1.766955129
441.29400,2.072149537
441.29450,1.461760721
441.29500,-0.06421131716
441.29550,-0.3694057249
441.29600,0.2409830905
441.29650,0.5461774982
441.29700,0.5461774982
441.29750,0.8513719059
441.29800,1.766955129
441.29850,2.377343944
441.29900,2.377343944
441.29950,2.682538352
441.30000,3.292927168
441.30050,2.98773276
441.30100,1.156566314
441.30150,-0.06421131716
441.30200,-0.06421131716
441.30250,0.8513719059
441.30300,1.461760721
441.30350,1.766955129
441.30400,2.98773276
441.30450,4.818899206
441.30500,5.734482429
441.30550,5.124093614
441.30600,4.208510391
441.30650,3.292927168
441.30700,3.292927168
441.30750,2.682538352
441.30800,1.766955129
441.30850,0.8513719059
441.30900,1.156566314
441.30950,1.156566314
441.31000,-0.06421131716
441.31050,-2.505766579
441.31100,-4.031738617
441.31150,-4.031738617
441.31200,-3.421349802
441.31250,-3.421349802
441.31300,-3.72654421
441.31350,-3.116155394
441.31400,-1.895377763
441.31450,-2.200572171
441.31500,-3.421349802
441.31550,-3.116155394
441.31600,-0.6746001326
441.31650,1.461760721
441.31700,1.461760721
441.31750,-0.3694057249
441.31800,-0.9797945403
441.31850,-0.06421131716
441.31900,0.5461774982
441.31950,-0.06421131716
441.32000,-0.3694057249
441.32050,0.2409830905
441.32100,-0.06421131716
441.32150,-3.116155394
441.32200,-6.778488287
441.32250,-5.862905063
441.32300,-0.6746001326
441.32350,4.208510391
441.32400,6.344871245
441.32450,6.344871245
441.32500,5.734482429
441.32550,4.818899206
441.32600,3.598121575
441.32650,3.598121575
441.32700,4.513704798
441.32750,4.818899206
441.32800,3.598121575
441.32850,1.156566314
441.32900,0.2409830905
441.32950,0.2409830905
441.33000,0.2409830905
441.33050,-0.9797945403
441.33100,-3.116155394
441.33150,-5.557710656
441.33200,-6.778488287
441.33250,-6.473293879
441.33300,-5.252516248
441.33350,-5.557710656
441.33400,-7.083682694
441.33450,-8.914849141
441.33500,-10.13562677
441.33550,-10.13562677
441.33600,-8.914849141
441.33650,-6.168099471
441.33700,-2.200572171
441.33750,-0.06421131716
441.33800,-0.06421131716
441.33850,-0.9797945403
441.33900,-1.895377763
441.33950,-1.590183356
441.34000,-0.9797945403
441.34050,-1.284988948
441.34100,-2.810960986
441.34150,-3.72654421
441.34200,-3.421349802
441.34250,-2.200572171
441.34300,-0.9797945403
441.34350,-0.06421131716
441.34400,0.2409830905
441.34450,0.5461774982
441.34500,-0.3694057249
441.34550,-1.590183356
441.34600,-0.9797945403
441.34650,1.156566314
441.34700,2.682538352
441.34750,2.682538352
441.34800,2.072149537
441.34850,1.766955129
441.34900,1.156566314
441.34950,0.2409830905
441.35000,-0.06421131716
441.35050,0.8513719059
441.35100,0.8513719059
441.35150,-0.06421131716
441.35200,-0.6746001326
441.35250,-0.3694057249
441.35300,-0.6746001326
441.35350,-2.810960986
441.35400,-4.336933025
441.35450,-3.421349802
441.35500,-1.590183356
441.35550,-0.9797945403
441.35600,-0.6746001326
441.35650,-0.06421131716
441.35700,1.156566314
441.35750,0.2409830905
441.35800,-1.590183356
441.35850,-2.200572171
441.35900,-0.6746001326
441.35950,-0.06421131716
441.36000,-0.3694057249
441.36050,-0.06421131716
441.36100,1.766955129
441.36150,4.208510391
441.36200,4.513704798
441.36250,3.598121575
441.36300,2.682538352
441.36350,2.682538352
441.36400,2.377343944
441.36450,1.461760721
441.36500,0.5461774982
441.36550,0.5461774982
441.36600,0.5461774982
441.36650,-0.06421131716
441.36700,-1.590183356
441.36750,-2.200572171
441.36800,-1.590183356
441.36850,-0.6746001326
441.36900,-0.6746001326
441.36950,-1.284988948
441.37000,-1.895377763
441.37050,-1.895377763
441.37100,-2.200572171
441.37150,-2.810960986
441.37200,-3.72654421
441.37250,-4.94732184
441.37300,-6.168099471
441.37350,-6.473293879
441.37400,-5.252516248
441.37450,-3.72654421
441.37500,-4.031738617
441.37550,-5.862905063
441.37600,-6.778488287
441.37650,-6.473293879
441.37700,-6.168099471
441.37750,-6.168099471
441.37800,-4.94732184
441.37850,-2.505766579
441.37900,-0.6746001326
441.37950,-0.06421131716
441.38000,0.5461774982
441.38050,2.072149537
441.38100,2.072149537
441.38150,1.156566314
441.38200,1.461760721
441.38250,2.682538352
441.38300,2.072149537
441.38350,-0.06421131716
441.38400,-0.6746001326
441.38450,1.461760721
441.38500,3.903315983
441.38550,2.682538352
441.38600,1.461760721
441.38650,2.98773276
441.38700,4.818899206
441.38750,3.903315983
441.38800,1.156566314
441.38850,1.156566314
441.38900,2.682538352
441.38950,1.461760721
441.39000,-1.895377763
441.39050,-4.031738617
441.39100,-2.810960986
441.39150,-0.3694057249
441.39200,0.2409830905
441.39250,-0.3694057249
441.39300,-3.116155394
441.39350,-6.473293879
441.39400,-7.69407151
441.39450,-5.557710656
441.39500,-1.895377763
441.39550,-0.06421131716
441.39600,-0.06421131716
441.39650,-0.06421131716
441.39700,-0.06421131716
441.39750,-0.06421131716
441.39800,-0.06421131716
441.39850,1.156566314
441.39900,3.292927168
441.39950,4.818899206
441.40000,5.124093614
441.40050,4.513704798
441.40100,3.903315983
441.40150,3.903315983
441.40200,3.903315983
441.40250,4.208510391
441.40300,4.208510391
441.40350,3.903315983
441.40400,2.98773276
441.40450,2.98773276
441.40500,2.98773276
441.40550,3.292927168
441.40600,3.598121575
441.40650,3.903315983
441.40700,4.818899206
441.40750,6.039676837
441.40800,7.260454468
441.40850,6.95526006
441.40900,5.429288021
441.40950,3.598121575
441.41000,3.292927168
441.41050,4.208510391
441.41100,3.903315983
441.41150,1.461760721
441.41200,-0.3694057249
441.41250,-0.9797945403
441.41300,-1.284988948
441.41350,-1.895377763
441.41400,-2.505766579
441.41450,-2.810960986
441.41500,-3.421349802
441.41550,-5.252516248
441.41600,-5.862905063
441.41650,-4.031738617
441.41700,-1.284988948
441.41750,0.2409830905
441.41800,0.2409830905
441.41850,-0.06421131716
441.41900,-1.284988948
441.41950,-3.116155394
441.42000,-3.421349802
441.42050,-1.895377763
441.42100,0.2409830905
441.42150,1.156566314
441.42200,1.156566314
441.42250,1.461760721
441.42300,1.766955129
441.42350,1.461760721
441.42400,1.461760721
441.42450,2.98773276
441.42500,4.513704798
441.42550,4.208510391
441.42600,2.072149537
441.42650,0.2409830905
441.42700,-0.3694057249
441.42750,-0.6746001326
441.42800,-0.06421131716
441.42850,0.8513719059
441.42900,1.766955129
441.42950,-0.06421131716
441.43000,-3.116155394
441.43050,-4.642127433
441.43100,-2.505766579
441.43150,-0.06421131716
441.43200,-0.3694057249
441.43250,-3.421349802
441.43300,-5.862905063
441.43350,-4.94732184
441.43400,-1.590183356
441.43450,1.461760721
441.43500,2.682538352
441.43550,1.461760721
441.43600,-0.9797945403
441.43650,-2.200572171
441.43700,-1.590183356
441.43750,-0.6746001326
441.43800,-0.6746001326
441.43850,-0.3694057249
441.43900,0.5461774982
441.43950,1.766955129
441.44000,2.377343944
441.44050,2.377343944
441.44100,2.98773276
441.44150,3.292927168
441.44200,3.292927168
441.44250,2.98773276
441.44300,3.903315983
441.44350,4.513704798
441.44400,3.903315983
441.44450,2.682538352
441.44500,2.98773276
441.44550,4.208510391
441.44600,4.513704798
441.44650,3.598121575
441.44700,2.682538352
441.44750,2.682538352
441.44800,2.98773276
441.44850,2.98773276
441.44900,3.292927168
441.44950,3.598121575
441.45000,2.682538352
441.45050,0.5461774982
441.45100,-0.9797945403
441.45150,-1.590183356
441.45200,-1.284988948
441.45250,-0.9797945403
441.45300,-0.3694057249
441.45350,0.2409830905
441.45400,-0.06421131716
441.45450,-1.895377763
441.45500,-3.421349802
441.45550,-3.421349802
441.45600,-2.505766579
441.45650,-2.200572171
441.45700,-1.895377763
441.45750,-0.9797945403
441.45800,-0.06421131716
441.45850,-0.06421131716
441.45900,-0.3694057249
441.45950,0.2409830905
441.46000,1.461760721
441.46050,1.766955129
441.46100,0.5461774982
441.46150,-0.06421131716
441.46200,1.156566314
441.46250,2.377343944
441.46300,2.072149537
441.46350,0.8513719059
441.46400,-0.06421131716
441.46450,-0.3694057249
441.46500,-0.9797945403
441.46550,-0.9797945403
441.46600,-0.3694057249
441.46650,-0.6746001326
441.46700,-2.505766579
441.46750,-3.72654421
441.46800,-2.810960986
441.46850,-0.06421131716
441.46900,1.156566314
441.46950,0.2409830905
441.47000,-1.590183356
441.47050,-3.116155394
441.47100,-4.031738617
441.47150,-5.252516248
441.47200,-5.557710656
441.47250,-4.94732184
441.47300,-4.031738617
441.47350,-3.421349802
441.47400,-4.336933025
441.47450,-5.862905063
441.47500,-6.473293879
441.47550,-5.557710656
441.47600,-4.336933025
441.47650,-4.031738617
441.47700,-4.336933025
441.47750,-4.031738617
441.47800,-2.810960986
441.47850,-2.200572171
441.47900,-2.505766579
441.47950,-2.505766579
441.48000,-1.284988948
441.48050,-0.06421131716
441.48100,-0.06421131716
441.48150,-0.6746001326
441.48200,-0.3694057249
441.48250,0.2409830905
441.48300,1.766955129
441.48350,2.98773276
441.48400,3.598121575
441.48450,2.072149537
441.48500,-0.3694057249
441.48550,-1.590183356
441.48600,-2.200572171
441.48650,-4.031738617
441.48700,-7.388877102
441.48750,-8.914849141
441.48800,-6.473293879
441.48850,-2.200572171
441.48900,-0.3694057249
441.48950,-0.06421131716
441.49000,0.2409830905
441.49050,0.8513719059
441.49100,0.2409830905
441.49150,-0.3694057249
441.49200,-0.6746001326
441.49250,-0.06421131716
441.49300,-0.9797945403
441.49350,-2.505766579
441.49400,-1.895377763
441.49450,-0.06421131716
441.49500,-0.06421131716
441.49550,-2.200572171
441.49600,-4.642127433
441.49650,-4.94732184
441.49700,-4.031738617
441.49750,-3.116155394
441.49800,-1.590183356
441.49850,0.5461774982
441.49900,2.072149537
441.49950,1.156566314
441.50000,-0.6746001326
441.50050,-0.6746001326
441.50100,0.2409830905
441.50150,0.8513719059
441.50200,-0.06421131716
441.50250,-0.3694057249
441.50300,1.461760721
441.50350,4.208510391
441.50400,5.124093614
441.50450,4.513704798
441.50500,3.598121575
441.50550,3.598121575
441.50600,4.208510391
441.50650,4.208510391
441.50700,3.598121575
441.50750,3.292927168
441.50800,4.513704798
441.50850,5.734482429
441.50900,5.124093614
441.50950,3.292927168
441.51000,1.766955129
441.51050,1.766955129
441.51100,1.461760721
441.51150,0.8513719059
441.51200,0.2409830905
441.51250,0.5461774982
441.51300,0.5461774982
441.51350,-0.06421131716
441.51400,-0.9797945403
441.51450,-0.3694057249
441.51500,-0.06421131716
441.51550,-0.6746001326
441.51600,-1.895377763
441.51650,-1.590183356
441.51700,-0.6746001326
441.51750,-0.3694057249
441.51800,-0.3694057249
441.51850,0.2409830905
441.51900,1.461760721
441.51950,1.461760721
441.52000,1.156566314
441.52050,2.072149537
441.52100,3.903315983
441.52150,4.208510391
441.52200,2.98773276
441.52250,2.377343944
441.52300,2.682538352
441.52350,3.598121575
441.52400,3.598121575
441.52450,3.292927168
441.52500,2.682538352
441.52550,2.072149537
441.52600,1.156566314
441.52650,0.5461774982
441.52700,0.5461774982
441.52750,-0.6746001326
441.52800,-3.116155394
441.52850,-4.336933025
441.52900,-2.810960986
441.52950,-0.6746001326
441.53000,0.2409830905
441.53050,0.2409830905
441.53100,0.5461774982
441.53150,0.8513719059
441.53200,-0.06421131716
441.53250,-2.200572171
441.53300,-3.116155394
441.53350,-2.505766579
441.53400,-1.284988948
441.53450,-1.284988948
441.53500,-2.200572171
441.53550,-2.810960986
441.53600,-2.200572171
441.53650,-1.284988948
441.53700,-0.6746001326
441.53750,-0.3694057249
441.53800,-0.3694057249
441.53850,-0.06421131716
441.53900,-0.06421131716
441.53950,-1.590183356
441.54000,-3.72654421
441.54050,-4.642127433
441.54100,-4.031738617
441.54150,-1.895377763
441.54200,-0.06421131716
441.54250,1.461760721
441.54300,2.072149537
441.54350,2.377343944
441.54400,2.682538352
441.54450,4.208510391
441.54500,5.429288021
441.54550,5.124093614
441.54600,3.598121575
441.54650,2.377343944
441.54700,1.766955129
441.54750,1.156566314
441.54800,-0.06421131716
441.54850,-0.9797945403
441.54900,-0.9797945403
441.54950,-1.284988948
441.55000,-3.116155394
441.55050,-5.252516248
441.55100,-5.557710656
441.55150,-5.557710656
441.55200,-6.473293879
441.55250,-7.083682694
441.55300,-6.473293879
441.55350,-5.252516248
441.55400,-5.252516248
441.55450,-6.473293879
441.55500,-6.473293879
441.55550,-4.94732184
441.55600,-3.421349802
441.55650,-3.421349802
441.55700,-4.642127433
441.55750,-4.94732184
441.55800,-4.336933025
441.55850,-2.200572171
441.55900,-0.3694057249
441.55950,-0.06421131716
441.56000,-0.06421131716
441.56050,-0.06421131716
441.56100,1.156566314
441.56150,2.377343944
441.56200,1.766955129
441.56250,0.5461774982
441.56300,0.8513719059
441.56350,2.377343944
441.56400,2.98773276
441.56450,2.682538352
441.56500,2.98773276
441.56550,3.598121575
441.56600,3.292927168
441.56650,1.156566314
441.56700,-0.6746001326
441.56750,-0.9797945403
441.56800,-0.06421131716
441.56850,1.156566314
441.56900,2.072149537
441.56950,2.072149537
441.57000,1.766955129
441.57050,1.766955129
441.57100,2.377343944
441.57150,2.98773276
441.57200,2.682538352
441.57250,1.766955129
441.57300,0.5461774982
441.57350,-0.3694057249
441.57400,-1.590183356
441.57450,-1.895377763
441.57500,-1.590183356
441.57550,-1.590183356
441.57600,-2.200572171
441.57650,-1.590183356
441.57700,-0.06421131716
441.57750,1.156566314
441.57800,2.072149537
441.57850,2.682538352
441.57900,3.903315983
441.57950,4.818899206
441.58000,4.818899206
441.58050,4.818899206
441.58100,5.734482429
441.58150,6.650065652
441.58200,6.650065652
441.58250,5.429288021
441.58300,4.818899206
441.58350,5.124093614
441.58400,5.429288021
441.58450,5.429288021
441.58500,5.124093614
441.58550,5.429288021
441.58600,6.039676837
441.58650,5.734482429
441.58700,4.208510391
441.58750,2.98773276
441.58800,2.072149537
441.58850,1.766955129
441.58900,1.156566314
441.58950,-0.06421131716
441.59000,-0.6746001326
441.59050,-0.9797945403
441.59100,-1.284988948
441.59150,-2.200572171
441.59200,-3.116155394
441.59250,-1.284988948
441.59300,1.461760721
441.59350,3.598121575
441.59400,3.598121575
441.59450,2.377343944
441.59500,1.461760721
441.59550,-0.6746001326
441.59600,-4.031738617
441.59650,-5.557710656
441.59700,-4.336933025
441.59750,-2.200572171
441.59800,-1.284988948
441.59850,-0.9797945403
441.59900,0.8513719059
441.59950,3.598121575
441.60000,4.818899206
441.60050,4.513704798
441.60100,4.818899206
441.60150,6.039676837
441.60200,6.95526006
441.60250,6.95526006
441.60300,6.039676837
441.60350,4.818899206
441.60400,3.292927168
441.60450,2.072149537
441.60500,1.766955129
441.60550,1.156566314
441.60600,0.2409830905
441.60650,-0.3694057249
441.60700,-0.06421131716
441.60750,0.5461774982
441.60800,0.5461774982
441.60850,-0.06421131716
441.60900,-0.9797945403
441.60950,-1.895377763
441.61000,-2.810960986
441.61050,-3.116155394
441.61100,-2.810960986
441.61150,-2.810960986
441.61200,-3.116155394
441.61250,-3.421349802
441.61300,-3.72654421
441.61350,-4.642127433
441.61400,-6.168099471
441.61450,-6.778488287
441.61500,-5.252516248
441.61550,-3.72654421
441.61600,-3.421349802
441.61650,-3.421349802
441.61700,-3.116155394
441.61750,-3.421349802
441.61800,-3.72654421
441.61850,-3.116155394
441.61900,-0.06421131716
441.61950,1.461760721
441.62000,-0.06421131716
441.62050,-2.810960986
441.62100,-3.116155394
441.62150,-0.06421131716
441.62200,2.377343944
441.62250,2.072149537
441.62300,0.5461774982
441.62350,0.2409830905
441.62400,0.8513719059
441.62450,0.2409830905
441.62500,-0.3694057249
441.62550,-0.06421131716
441.62600,0.5461774982
441.62650,0.8513719059
441.62700,-0.06421131716
441.62750,-0.9797945403
441.62800,-1.284988948
441.62850,-1.284988948
441.62900,-1.590183356
441.62950,-2.200572171
441.63000,-2.200572171
441.63050,-1.895377763
441.63100,-1.590183356
441.63150,-2.505766579
441.63200,-4.336933025
441.63250,-6.168099471
441.63300,-7.083682694
441.63350,-6.473293879
441.63400,-5.252516248
441.63450,-4.642127433
441.63500,-4.336933025
441.63550,-4.336933025
441.63600,-4.031738617
441.63650,-3.72654421
441.63700,-4.031738617
441.63750,-4.94732184
441.63800,-4.642127433
441.63850,-3.116155394
441.63900,-0.3694057249
441.63950,0.8513719059
441.64000,1.766955129
441.64050,2.072149537
441.64100,2.682538352
441.64150,2.377343944
441.64200,1.766955129
441.64250,1.156566314
441.64300,0.2409830905
441.64350,-0.9797945403
441.64400,-2.810960986
441.64450,-2.200572171
441.64500,0.2409830905
441.64550,2.377343944
441.64600,1.766955129
441.64650,0.2409830905
441.64700,-0.9797945403
441.64750,-1.895377763
441.64800,-2.810960986
441.64850,-2.505766579
441.64900,-0.6746001326
441.64950,0.5461774982
441.65000,-0.06421131716
441.65050,-1.895377763
441.65100,-2.200572171
441.65150,-0.06421131716
441.65200,0.5461774982
441.65250,-0.6746001326
441.65300,-3.116155394
441.65350,-4.031738617
441.65400,-4.336933025
441.65450,-4.642127433
441.65500,-3.72654421
441.65550,-2.200572171
441.65600,-0.9797945403
441.65650,-0.9797945403
441.65700,-1.284988948
441.65750,-0.6746001326
441.65800,0.5461774982
441.65850,1.461760721
441.65900,2.377343944
441.65950,3.598121575
441.66000,4.513704798
441.66050,4.513704798
441.66100,4.208510391
441.66150,5.124093614
441.66200,6.039676837
441.66250,5.734482429
441.66300,5.429288021
441.66350,5.734482429
441.66400,6.039676837
441.66450,5.124093614
441.66500,3.292927168
441.66550,2.98773276
441.66600,3.903315983
441.66650,4.513704798
441.66700,4.513704798
441.66750,4.208510391
441.66800,3.903315983
441.66850,2.682538352
441.66900,0.2409830905
441.66950,-1.284988948
441.67000,-0.9797945403
441.67050,-0.06421131716
441.67100,-0.06421131716
441.67150,-0.6746001326
441.67200,-2.200572171
441.67250,-4.031738617
441.67300,-4.94732184
441.67350,-4.642127433
441.67400,-3.116155394
441.67450,-1.590183356
441.67500,-0.6746001326
441.67550,-0.6746001326
441.67600,-1.590183356
441.67650,-3.116155394
441.67700,-3.421349802
441.67750,-2.505766579
441.67800,-2.200572171
441.67850,-4.336933025
441.67900,-6.473293879
441.67950,-6.473293879
441.68000,-4.031738617
441.68050,-0.9797945403
441.68100,1.461760721
441.68150,4.208510391
441.68200,6.039676837
441.68250,6.039676837
441.68300,4.818899206
441.68350,4.208510391
441.68400,5.124093614
441.68450,6.039676837
441.68500,5.429288021
441.68550,3.903315983
441.68600,2.682538352
441.68650,2.377343944
441.68700,2.682538352
441.68750,3.292927168
441.68800,4.208510391
441.68850,3.903315983
441.68900,2.072149537
441.68950,-0.06421131716
441.69000,-1.284988948
441.69050,-1.590183356
441.69100,-2.200572171
441.69150,-2.505766579
441.69200,-3.116155394
441.69250,-3.72654421
441.69300,-4.336933025
441.69350,-4.94732184
441.69400,-4.642127433
441.69450,-4.642127433
441.69500,-4.94732184
441.69550,-5.557710656
441.69600,-5.252516248
441.69650,-4.642127433
441.69700,-3.72654421
441.69750,-3.421349802
441.69800,-2.810960986
441.69850,-2.505766579
441.69900,-2.200572171
441.69950,-1.895377763
441.70000,-1.284988948
441.70050,-0.9797945403
441.70100,-0.9797945403
441.70150,-0.9797945403
441.70200,-0.06421131716
441.70250,1.156566314
441.70300,1.461760721
441.70350,-0.3694057249
441.70400,-3.116155394
441.70450,-3.72654421
441.70500,-1.895377763
441.70550,0.5461774982
441.70600,2.377343944
441.70650,2.98773276
441.70700,2.377343944
441.70750,1.461760721
441.70800,0.8513719059
441.70850,0.5461774982
441.70900,-0.06421131716
441.70950,-0.9797945403
441.71000,-0.9797945403
441.71050,-0.3694057249
441.71100,-0.6746001326
441.71150,-2.200572171
441.71200,-3.421349802
441.71250,-3.421349802
441.71300,-2.810960986
441.71350,-2.505766579
441.71400,-1.590183356
441.71450,-0.6746001326
441.71500,-0.06421131716
441.71550,-0.3694057249
441.71600,-0.9797945403
441.71650,-0.3694057249
441.71700,-0.06421131716
441.71750,-0.06421131716
441.71800,-0.06421131716
441.71850,0.5461774982
441.71900,0.2409830905
441.71950,-0.9797945403
441.72000,-1.284988948
441.72050,-0.6746001326
441.72100,-0.06421131716
441.72150,-0.3694057249
441.72200,-0.06421131716
441.72250,2.682538352
441.72300,5.124093614
441.72350,4.818899206
441.72400,3.292927168
441.72450,2.377343944
441.72500,2.98773276
441.72550,2.682538352
441.72600,1.766955129
441.72650,1.461760721
441.72700,1.461760721
441.72750,1.461760721
441.72800,2.072149537
441.72850,3.598121575
441.72900,4.208510391
441.72950,2.98773276
441.73000,1.461760721
441.73050,1.461760721
441.73100,1.461760721
441.73150,-0.06421131716
441.73200,-2.200572171
441.73250,-2.200572171
441.73300,-1.284988948
441.73350,-1.590183356
441.73400,-2.505766579
441.73450,-2.200572171
441.73500,-0.6746001326
441.73550,-0.06421131716
441.73600,-0.3694057249
441.73650,-0.06421131716
441.73700,1.461760721
441.73750,1.156566314
441.73800,-0.06421131716
441.73850,-0.6746001326
441.73900,0.2409830905
441.73950,0.8513719059
441.74000,0.2409830905
441.74050,-0.06421131716
441.74100,0.8513719059
441.74150,2.377343944
441.74200,2.377343944
441.74250,2.377343944
441.74300,2.98773276
441.74350,3.903315983
441.74400,4.208510391
441.74450,4.208510391
441.74500,4.513704798
441.74550,3.903315983
441.74600,2.682538352
441.74650,2.377343944
441.74700,3.292927168
441.74750,4.208510391
441.74800,3.598121575
441.74850,1.766955129
441.74900,0.8513719059
441.74950,0.5461774982
441.75000,-0.3694057249
441.75050,-2.200572171
441.75100,-2.810960986
441.75150,-1.590183356
441.75200,-0.6746001326
441.75250,-1.284988948
441.75300,-1.284988948
441.75350,0.2409830905
441.75400,2.072149537
441.75450,2.072149537
441.75500,0.5461774982
441.75550,-0.3694057249
441.75600,-0.3694057249
441.75650,-0.9797945403
441.75700,-1.895377763
441.75750,-2.505766579
441.75800,-1.590183356
441.75850,-0.06421131716
441.75900,1.156566314
441.75950,2.072149537
441.76000,2.98773276
441.76050,3.292927168
441.76100,3.292927168
441.76150,2.377343944
441.76200,1.461760721
441.76250,1.766955129
441.76300,3.292927168
441.76350,4.513704798
441.76400,4.818899206
441.76450,3.903315983
441.76500,3.292927168
441.76550,2.98773276
441.76600,2.072149537
441.76650,0.8513719059
441.76700,0.8513719059
441.76750,1.461760721
441.76800,1.156566314
441.76850,-0.06421131716
441.76900,-0.6746001326
441.76950,-0.9797945403
441.77000,-1.590183356
441.77050,-2.810960986
441.77100,-3.421349802
441.77150,-2.200572171
441.77200,-0.9797945403
441.77250,-1.590183356
441.77300,-4.642127433
441.77350,-7.69407151
441.77400,-7.999265917
441.77450,-5.862905063
441.77500,-2.810960986
441.77550,-0.9797945403
441.77600,-0.06421131716
441.77650,-0.06421131716
441.77700,-0.06421131716
441.77750,-1.895377763
441.77800,-4.031738617
441.77850,-4.642127433
441.77900,-3.116155394
441.77950,-0.9797945403
441.78000,-0.6746001326
441.78050,-1.284988948
441.78100,-0.9797945403
441.78150,-0.06421131716
441.78200,0.8513719059
441.78250,1.461760721
441.78300,2.377343944
441.78350,3.598121575
441.78400,3.598121575
441.78450,2.682538352
441.78500,2.682538352
441.78550,3.903315983
441.78600,5.124093614
441.78650,5.429288021
441.78700,5.734482429
441.78750,6.95526006
441.78800,7.565648875
441.78850,6.039676837
441.78900,3.598121575
441.78950,1.766955129
441.79000,1.461760721
441.79050,1.156566314
441.79100,-0.06421131716
441.79150,-1.590183356
441.79200,-3.421349802
441.79250,-4.642127433
441.79300,-5.252516248
441.79350,-5.252516248
441.79400,-4.031738617
441.79450,-2.505766579
441.79500,-1.895377763
441.79550,-3.421349802
441.79600,-5.557710656
441.79650,-6.473293879
441.79700,-5.557710656
441.79750,-4.336933025
441.79800,-4.336933025
441.79850,-4.642127433
441.79900,-4.336933025
441.79950,-3.116155394
441.80000,-0.9797945403
441.80050,-0.06421131716
441.80100,0.2409830905
441.80150,-0.06421131716
441.80200,0.5461774982
441.80250,1.766955129
441.80300,2.682538352
441.80350,2.377343944
441.80400,2.072149537
441.80450,2.98773276
441.80500,3.292927168
441.80550,2.682538352
441.80600,1.156566314
441.80650,0.8513719059
441.80700,1.461760721
441.80750,1.461760721
441.80800,0.5461774982
441.80850,0.2409830905
441.80900,0.5461774982
441.80950,0.2409830905
441.81000,-1.284988948
441.81050,-2.810960986
441.81100,-3.421349802
441.81150,-3.421349802
441.81200,-4.94732184
441.81250,-7.083682694
441.81300,-7.999265917
441.81350,-7.083682694
441.81400,-5.557710656
441.81450,-4.336933025
441.81500,-4.031738617
441.81550,-4.031738617
441.81600,-4.031738617
441.81650,-4.031738617
441.81700,-3.72654421
441.81750,-2.810960986
441.81800,-1.590183356
441.81850,-1.895377763
441.81900,-4.031738617
441.81950,-6.778488287
441.82000,-7.69407151
441.82050,-5.252516248
441.82100,-1.284988948
441.82150,1.461760721
441.82200,1.766955129
441.82250,0.8513719059
441.82300,0.5461774982
441.82350,1.156566314
441.82400,1.461760721
441.82450,1.156566314
441.82500,0.2409830905
441.82550,-0.06421131716
441.82600,0.8513719059
441.82650,1.766955129
441.82700,1.766955129
441.82750,0.8513719059
441.82800,0.2409830905
441.82850,-0.3694057249
441.82900,-1.590183356
441.82950,-2.810960986
441.83000,-2.505766579
441.83050,-1.284988948
441.83100,-0.9797945403
441.83150,-2.200572171
441.83200,-3.421349802
441.83250,-3.72654421
441.83300,-3.421349802
441.83350,-3.116155394
441.83400,-1.590183356
441.83450,0.2409830905
441.83500,0.5461774982
441.83550,-0.9797945403
441.83600,-2.810960986
441.83650,-3.116155394
441.83700,-1.895377763
441.83750,-1.895377763
441.83800,-2.200572171
441.83850,-2.200572171
441.83900,-1.284988948
441.83950,-0.6746001326
441.84000,-0.06421131716
441.84050,0.5461774982
441.84100,2.072149537
441.84150,3.292927168
441.84200,3.598121575
441.84250,3.903315983
441.84300,5.124093614
441.84350,6.344871245
441.84400,6.039676837
441.84450,4.513704798
441.84500,3.903315983
441.84550,4.513704798
441.84600,5.734482429
441.84650,6.039676837
441.84700,4.208510391
441.84750,1.156566314
441.84800,-0.9797945403
441.84850,-1.284988948
441.84900,-0.3694057249
441.84950,-0.06421131716
441.85000,-0.6746001326
441.85050,-2.200572171
441.85100,-2.505766579
441.85150,-2.505766579
441.85200,-2.505766579
441.85250,-2.505766579
441.85300,-1.895377763
441.85350,-1.590183356
441.85400,-1.895377763
441.85450,-3.421349802
441.85500,-4.031738617
441.85550,-3.116155394
441.85600,-0.9797945403
441.85650,0.8513719059
441.85700,1.766955129
441.85750,1.766955129
441.85800,0.2409830905
441.85850,-0.6746001326
441.85900,-0.3694057249
441.85950,1.461760721
441.86000,2.682538352
441.86050,1.766955129
441.86100,0.8513719059
441.86150,2.072149537
441.86200,5.124093614
441.86250,6.95526006
441.86300,7.260454468
441.86350,6.650065652
441.86400,5.734482429
441.86450,4.208510391
441.86500,3.292927168
441.86550,3.598121575
441.86600,5.429288021
441.86650,6.039676837
441.86700,5.124093614
441.86750,4.208510391
441.86800,4.208510391
441.86850,3.598121575
441.86900,2.072149537
441.86950,0.5461774982
441.87000,0.2409830905
441.87050,0.2409830905
441.87100,-0.3694057249
441.87150,-0.9797945403
441.87200,-0.9797945403
441.87250,-0.3694057249
441.87300,-0.9797945403
441.87350,-2.200572171
441.87400,-3.116155394
441.87450,-4.031738617
441.87500,-5.862905063
441.87550,-6.778488287
441.87600,-5.557710656
441.87650,-2.810960986
441.87700,-0.6746001326
441.87750,-0.6746001326
441.87800,-1.284988948
441.87850,-1.590183356
441.87900,-0.6746001326
441.87950,0.5461774982
441.88000,1.766955129
441.88050,0.8513719059
441.88100,-0.9797945403
441.88150,-2.505766579
441.88200,-1.284988948
441.88250,0.5461774982
441.88300,1.766955129
441.88350,2.072149537
441.88400,2.682538352
441.88450,3.292927168
441.88500,2.682538352
441.88550,1.766955129
441.88600,2.377343944
441.88650,4.513704798
441.88700,5.734482429
441.88750,4.818899206
441.88800,2.377343944
441.88850,0.8513719059
441.88900,0.2409830905
441.88950,0.2409830905
441.89000,1.156566314
441.89050,2.377343944
441.89100,2.98773276
441.89150,2.072149537
441.89200,0.8513719059
441.89250,0.5461774982
441.89300,1.156566314
441.89350,1.461760721
441.89400,1.156566314
441.89450,0.5461774982
441.89500,-0.06421131716
441.89550,-0.6746001326
441.89600,-0.6746001326
441.89650,-0.06421131716
441.89700,-0.06421131716
441.89750,-0.06421131716
441.89800,-0.06421131716
441.89850,1.156566314
441.89900,2.377343944
441.89950,2.682538352
441.90000,2.377343944
441.90050,2.98773276
441.90100,4.513704798
441.90150,5.429288021
441.90200,5.124093614
441.90250,4.208510391
441.90300,3.292927168
441.90350,2.072149537
441.90400,1.766955129
441.90450,2.377343944
441.90500,2.98773276
441.90550,1.766955129
441.90600,-0.3694057249
441.90650,-0.6746001326
441.90700,0.8513719059
441.90750,2.682538352
441.90800,2.682538352
441.90850,1.766955129
441.90900,1.766955129
441.90950,2.072149537
441.91000,1.461760721
441.91050,0.2409830905
441.91100,-0.06421131716
441.91150,-0.6746001326
441.91200,-2.810960986
441.91250,-4.336933025
441.91300,-4.336933025
441.91350,-3.72654421
441.91400,-4.031738617
441.91450,-4.94732184
441.91500,-5.557710656
441.91550,-5.252516248
441.91600,-4.94732184
441.91650,-5.252516248
441.91700,-4.94732184
441.91750,-4.031738617
441.91800,-3.421349802
441.91850,-3.116155394
441.91900,-3.116155394
441.91950,-3.116155394
441.92000,-2.810960986
441.92050,-1.590183356
441.92100,-0.6746001326
441.92150,-0.6746001326
441.92200,-0.6746001326
441.92250,-0.06421131716
441.92300,-0.06421131716
441.92350,-1.284988948
441.92400,-1.590183356
441.92450,-0.06421131716
441.92500,2.377343944
441.92550,2.98773276
441.92600,1.461760721
441.92650,0.5461774982
441.92700,0.2409830905
441.92750,-0.06421131716
441.92800,-0.06421131716
441.92850,0.5461774982
441.92900,1.156566314
441.92950,0.2409830905
441.93000,-1.590183356
441.93050,-2.200572171
441.93100,-0.6746001326
441.93150,-0.6746001326
441.93200,-2.810960986
441.93250,-4.94732184
441.93300,-5.252516248
441.93350,-4.94732184
441.93400,-5.862905063
441.93450,-7.083682694
441.93500,-6.778488287
441.93550,-6.473293879
441.93600,-6.778488287
441.93650,-7.083682694
441.93700,-6.168099471
441.93750,-4.94732184
441.93800,-5.252516248
441.93850,-6.778488287
441.93900,-7.083682694
441.93950,-6.168099471
441.94000,-4.94732184
441.94050,-3.116155394
441.94100,-1.284988948
441.94150,-0.06421131716
441.94200,0.8513719059
441.94250,1.766955129
441.94300,2.377343944
441.94350,2.072149537
441.94400,1.766955129
441.94450,2.377343944
441.94500,4.208510391
441.94550,5.124093614
441.94600,4.513704798
441.94650,2.98773276
441.94700,2.377343944
441.94750,2.682538352
441.94800,3.292927168
441.94850,3.292927168
441.94900,2.682538352
441.94950,0.5461774982
441.95000,-1.284988948
441.95050,-1.895377763
441.95100,-0.9797945403
441.95150,-0.06421131716
441.95200,-0.9797945403
441.95250,-2.505766579
441.95300,-2.810960986
441.95350,-1.284988948
441.95400,0.2409830905
441.95450,0.8513719059
441.95500,-0.06421131716
441.95550,-0.6746001326
441.95600,-0.3694057249
441.95650,0.2409830905
441.95700,0.8513719059
441.95750,0.5461774982
441.95800,0.5461774982
441.95850,0.8513719059
441.95900,-0.06421131716
441.95950,-1.590183356
441.96000,-2.200572171
441.96050,-2.200572171
441.96100,-1.590183356
441.96150,-1.284988948
441.96200,-0.06421131716
441.96250,2.377343944
441.96300,3.903315983
441.96350,3.598121575
441.96400,3.292927168
441.96450,4.513704798
441.96500,5.124093614
441.96550,4.208510391
441.96600,2.98773276
441.96650,2.98773276
441.96700,3.598121575
441.96750,3.598121575
441.96800,3.292927168
441.96850,3.292927168
441.96900,2.682538352
441.96950,0.8513719059
441.97000,-0.3694057249
441.97050,-0.6746001326
441.97100,-0.6746001326
441.97150,-0.9797945403
441.97200,-2.200572171
441.97250,-2.505766579
441.97300,-3.116155394
441.97350,-3.72654421
441.97400,-4.031738617
441.97450,-2.505766579
441.97500,-0.3694057249
441.97550,0.5461774982
441.97600,0.8513719059
441.97650,1.461760721
441.97700,1.461760721
441.97750,1.156566314
441.97800,0.5461774982
441.97850,0.5461774982
441.97900,0.8513719059
441.97950,0.8513719059
441.98000,0.8513719059
441.98050,1.461760721
441.98100,1.766955129
441.98150,0.8513719059
441.98200,-0.3694057249
441.98250,-0.6746001326
441.98300,0.2409830905
441.98350,1.461760721
441.98400,2.377343944
441.98450,3.292927168
441.98500,4.818899206
441.98550,6.039676837
441.98600,5.429288021
441.98650,3.598121575
441.98700,1.461760721
441.98750,1.461760721
441.98800,2.682538352
441.98850,2.98773276
441.98900,1.766955129
441.98950,-0.06421131716
441.99000,-0.06421131716
441.99050,-0.06421131716
441.99100,-0.6746001326
441.99150,-2.505766579
441.99200,-3.421349802
441.99250,-1.895377763
441.99300,-0.6746001326
441.99350,-1.895377763
441.99400,-4.031738617
441.99450,-4.94732184
441.99500,-4.642127433
441.99550,-4.94732184
441.99600,-5.252516248
441.99650,-4.642127433
441.99700,-2.810960986
441.99750,-1.895377763
441.99800,-2.810960986
441.99850,-3.421349802
441.99900,-2.810960986
441.99950,-1.895377763
442.00000,-1.590183356
442.00050,-2.200572171
442.00100,-2.505766579
442.00150,-1.590183356
442.00200,-0.06421131716
442.00250,1.766955129
442.00300,2.377343944
442.00350,2.377343944
442.00400,2.98773276
442.00450,4.513704798
442.00500,5.429288021
442.00550,4.818899206
442.00600,2.377343944
442.00650,1.156566314
442.00700,1.461760721
442.00750,2.072149537
442.00800,1.461760721
442.00850,0.5461774982
442.00900,0.5461774982
442.00950,0.8513719059
442.01000,0.8513719059
442.01050,-0.3694057249
442.01100,-1.895377763
442.01150,-2.810960986
442.01200,-2.505766579
442.01250,-2.200572171
442.01300,-2.810960986
442.01350,-4.031738617
442.01400,-4.336933025
442.01450,-3.421349802
442.01500,-2.200572171
442.01550,-1.895377763
442.01600,-3.116155394
442.01650,-4.031738617
442.01700,-3.421349802
442.01750,-1.284988948
442.01800,-0.06421131716
442.01850,-0.3694057249
442.01900,-0.6746001326
442.01950,-0.3694057249
442.02000,-0.3694057249
442.02050,-1.284988948
442.02100,-2.505766579
442.02150,-2.505766579
442.02200,-1.284988948
442.02250,0.2409830905
442.02300,1.461760721
442.02350,2.072149537
442.02400,2.072149537
442.02450,2.072149537
442.02500,2.072149537
442.02550,1.766955129
442.02600,1.156566314
442.02650,1.156566314
442.02700,1.766955129
442.02750,2.072149537
442.02800,0.5461774982
442.02850,-2.200572171
442.02900,-4.336933025
442.02950,-4.031738617
442.03000,-1.895377763
442.03050,-0.6746001326
442.03100,-1.284988948
442.03150,-2.810960986
442.03200,-3.72654421
442.03250,-4.642127433
442.03300,-4.94732184
442.03350,-4.031738617
442.03400,-1.895377763
442.03450,0.2409830905
442.03500,0.8513719059
442.03550,-0.6746001326
442.03600,-2.200572171
442.03650,-1.284988948
442.03700,-0.06421131716
442.03750,-0.06421131716
442.03800,-2.200572171
442.03850,-4.031738617
442.03900,-3.421349802
442.03950,-0.9797945403
442.04000,0.8513719059
442.04050,2.072149537
442.04100,3.598121575
442.04150,4.818899206
442.04200,4.818899206
442.04250,3.903315983
442.04300,3.903315983
442.04350,4.513704798
442.04400,5.734482429
442.04450,6.650065652
442.04500,6.344871245
442.04550,4.208510391
442.04600,1.156566314
442.04650,0.2409830905
442.04700,2.377343944
442.04750,4.513704798
442.04800,4.208510391
442.04850,2.377343944
442.04900,1.766955129
442.04950,2.377343944
442.05000,1.766955129
442.05050,-0.06421131716
442.05100,-0.9797945403
442.05150,-1.284988948
442.05200,-2.810960986
442.05250,-4.94732184
442.05300,-5.557710656
442.05350,-4.336933025
442.05400,-3.421349802
442.05450,-3.72654421
442.05500,-3.116155394
442.05550,-1.590183356
442.05600,-1.284988948
442.05650,-2.200572171
442.05700,-2.810960986
442.05750,-1.895377763
442.05800,-1.284988948
442.05850,-1.590183356
442.05900,-0.9797945403
442.05950,0.5461774982
442.06000,2.072149537
442.06050,1.461760721
442.06100,0.8513719059
442.06150,1.461760721
442.06200,2.072149537
442.06250,0.8513719059
442.06300,0.5461774982
442.06350,2.682538352
442.06400,5.124093614
442.06450,4.513704798
442.06500,2.377343944
442.06550,1.766955129
442.06600,3.292927168
442.06650,2.98773276
442.06700,0.5461774982
442.06750,-0.9797945403
442.06800,0.2409830905
442.06850,2.377343944
442.06900,2.98773276
442.06950,2.072149537
442.07000,1.461760721
442.07050,0.2409830905
442.07100,-1.284988948
442.07150,-2.505766579
442.07200,-2.200572171
442.07250,-1.284988948
442.07300,-0.6746001326
442.07350,-0.9797945403
442.07400,-1.590183356
442.07450,-2.505766579
442.07500,-3.421349802
442.07550,-4.031738617
442.07600,-3.421349802
442.07650,-2.200572171
442.07700,-0.3694057249
442.07750,0.5461774982
442.07800,1.766955129
442.07850,2.377343944
442.07900,2.682538352
442.07950,2.98773276
442.08000,4.208510391
442.08050,5.429288021
442.08100,6.039676837
442.08150,5.124093614
442.08200,3.903315983
442.08250,2.98773276
442.08300,2.98773276
442.08350,3.903315983
442.08400,5.124093614
442.08450,6.039676837
442.08500,6.344871245
442.08550,5.429288021
442.08600,2.682538352
442.08650,-0.6746001326
442.08700,-2.810960986
442.08750,-2.200572171
442.08800,-0.06421131716
442.08850,1.766955129
442.08900,2.072149537
442.08950,0.2409830905
442.09000,-1.590183356
442.09050,-2.505766579
442.09100,-1.590183356
442.09150,-0.6746001326
442.09200,-0.6746001326
442.09250,-0.6746001326
442.09300,-0.3694057249
442.09350,-0.06421131716
442.09400,-0.6746001326
442.09450,-2.200572171
442.09500,-4.031738617
442.09550,-4.336933025
442.09600,-3.116155394
442.09650,-1.895377763
442.09700,-1.590183356
442.09750,-2.200572171
442.09800,-2.810960986
442.09850,-1.895377763
442.09900,-0.6746001326
442.09950,-0.06421131716
442.10000,0.5461774982
442.10050,1.461760721
442.10100,2.072149537
442.10150,2.072149537
442.10200,1.156566314
442.10250,0.5461774982
442.10300,-0.06421131716
442.10350,-1.590183356
442.10400,-2.505766579
442.10450,-1.590183356
442.10500,0.2409830905
442.10550,0.5461774982
442.10600,-0.3694057249
442.10650,-0.6746001326
442.10700,0.5461774982
442.10750,1.461760721
442.10800,-0.06421131716
442.10850,-1.590183356
442.10900,-1.284988948
442.10950,-0.6746001326
442.11000,-0.9797945403
442.11050,-1.590183356
442.11100,-1.284988948
442.11150,-0.6746001326
442.11200,-1.284988948
442.11250,-2.505766579
442.11300,-2.200572171
442.11350,-0.3694057249
442.11400,0.5461774982
442.11450,-0.06421131716
442.11500,-0.9797945403
442.11550,-1.590183356
442.11600,-1.284988948
442.11650,-0.3694057249
442.11700,-0.06421131716
442.11750,-0.3694057249
442.11800,-1.284988948
442.11850,-1.895377763
442.11900,-0.9797945403
442.11950,0.2409830905
442.12000,0.5461774982
442.12050,0.2409830905
442.12100,0.2409830905
442.12150,0.8513719059
442.12200,1.766955129
442.12250,2.072149537
442.12300,2.072149537
442.12350,2.377343944
442.12400,2.682538352
442.12450,3.292927168
442.12500,3.292927168
442.12550,2.682538352
442.12600,1.766955129
442.12650,1.766955129
442.12700,2.377343944
442.12750,3.292927168
442.12800,3.598121575
442.12850,2.98773276
442.12900,1.461760721
442.12950,0.5461774982
442.13000,-0.06421131716
442.13050,-0.3694057249
442.13100,-0.9797945403
442.13150,-1.284988948
442.13200,-1.895377763
442.13250,-2.505766579
442.13300,-4.031738617
442.13350,-5.557710656
442.13400,-5.557710656
442.13450,-3.72654421
442.13500,-2.200572171
442.13550,-2.810960986
442.13600,-4.031738617
442.13650,-4.031738617
442.13700,-3.421349802
442.13750,-3.116155394
442.13800,-3.421349802
442.13850,-2.810960986
442.13900,-1.590183356
442.13950,-1.284988948
442.14000,-1.895377763
442.14050,-1.590183356
442.14100,-0.06421131716
442.14150,1.766955129
442.14200,2.377343944
442.14250,1.766955129
442.14300,0.5461774982
442.14350,-0.06421131716
442.14400,0.5461774982
442.14450,2.072149537
442.14500,2.682538352
442.14550,2.072149537
442.14600,1.156566314
442.14650,0.8513719059
442.14700,0.8513719059
442.14750,1.156566314
442.14800,1.461760721
442.14850,1.156566314
442.14900,0.2409830905
442.14950,-0.06421131716
442.15000,0.5461774982
442.15050,1.461760721
442.15100,0.8513719059
442.15150,-0.6746001326
442.15200,-1.895377763
442.15250,-1.895377763
442.15300,-2.505766579
442.15350,-3.72654421
442.15400,-4.642127433
442.15450,-4.031738617
442.15500,-3.72654421
442.15550,-4.642127433
442.15600,-4.94732184
442.15650,-4.642127433
442.15700,-4.031738617
442.15750,-4.031738617
442.15800,-3.116155394
442.15850,-0.06421131716
442.15900,1.766955129
442.15950,1.461760721
442.16000,-0.3694057249
442.16050,-1.284988948
442.16100,-0.06421131716
442.16150,0.8513719059
442.16200,0.8513719059
442.16250,0.5461774982
442.16300,0.8513719059
442.16350,1.156566314
442.16400,1.461760721
442.16450,1.766955129
442.16500,2.072149537
442.16550,2.682538352
442.16600,2.98773276
442.16650,2.98773276
442.16700,2.377343944
442.16750,1.461760721
442.16800,0.8513719059
442.16850,0.2409830905
442.16900,-0.9797945403
442.16950,-2.200572171
442.17000,-2.810960986
442.17050,-3.116155394
442.17100,-3.421349802
442.17150,-3.72654421
442.17200,-3.116155394
442.17250,-1.590183356
442.17300,-0.6746001326
442.17350,-0.6746001326
442.17400,-0.9797945403
442.17450,-0.6746001326
442.17500,-0.6746001326
442.17550,-1.590183356
442.17600,-1.895377763
442.17650,-0.9797945403
442.17700,0.5461774982
442.17750,0.8513719059
442.17800,0.2409830905
442.17850,0.2409830905
442.17900,1.766955129
442.17950,4.208510391
442.18000,4.818899206
442.18050,3.598121575
442.18100,2.072149537
442.18150,2.377343944
442.18200,3.292927168
442.18250,3.598121575
442.18300,2.377343944
442.18350,1.766955129
442.18400,2.377343944
442.18450,3.292927168
442.18500,2.377343944
442.18550,0.5461774982
442.18600,0.5461774982
442.18650,2.072149537
442.18700,2.377343944
442.18750,0.2409830905
442.18800,-1.590183356
442.18850,-1.590183356
442.18900,-0.06421131716
442.18950,-0.06421131716
442.19000,-0.9797945403
442.19050,-1.590183356
442.19100,-1.590183356
442.19150,-1.284988948
442.19200,-1.284988948
442.19250,-0.9797945403
442.19300,-0.9797945403
442.19350,-1.590183356
442.19400,-2.505766579
442.19450,-2.200572171
442.19500,-2.200572171
442.19550,-3.116155394
442.19600,-4.642127433
442.19650,-4.94732184
442.19700,-4.336933025
442.19750,-4.642127433
442.19800,-5.862905063
442.19850,-5.862905063
442.19900,-4.031738617
442.19950,-1.895377763
442.20000,-0.3694057249
442.20050,1.156566314
442.20100,2.98773276
442.20150,4.208510391
442.20200,4.208510391
442.20250,3.598121575
442.20300,3.292927168
442.20350,2.682538352
442.20400,2.072149537
442.20450,2.072149537
442.20500,2.682538352
442.20550,2.682538352
442.20600,2.98773276
442.20650,3.598121575
442.20700,4.208510391
442.20750,3.292927168
442.20800,0.8513719059
442.20850,-0.3694057249
442.20900,-0.06421131716
442.20950,0.5461774982
442.21000,0.2409830905
442.21050,-0.3694057249
442.21100,-1.284988948
442.21150,-1.590183356
442.21200,-1.895377763
442.21250,-1.895377763
442.21300,-2.200572171
442.21350,-2.505766579
442.21400,-3.421349802
442.21450,-4.031738617
442.21500,-3.72654421
442.21550,-3.116155394
442.21600,-2.505766579
442.21650,-3.421349802
442.21700,-4.336933025
442.21750,-4.642127433
442.21800,-3.116155394
442.21850,-0.9797945403
442.21900,0.5461774982
442.21950,0.5461774982
442.22000,-0.06421131716
442.22050,-0.3694057249
442.22100,-0.06421131716
442.22150,1.461760721
442.22200,3.292927168
442.22250,4.513704798
442.22300,4.208510391
442.22350,3.598121575
442.22400,2.98773276
442.22450,3.292927168
442.22500,2.98773276
442.22550,1.766955129
442.22600,1.156566314
442.22650,1.766955129
442.22700,2.682538352
442.22750,2.98773276
442.22800,2.98773276
442.22850,3.903315983
442.22900,4.818899206
442.22950,5.124093614
442.23000,3.598121575
442.23050,2.072149537
442.23100,1.156566314
442.23150,0.8513719059
442.23200,-0.06421131716
442.23250,-1.284988948
442.23300,-2.810960986
442.23350,-3.116155394
442.23400,-2.810960986
442.23450,-3.421349802
442.23500,-4.94732184
442.23550,-6.168099471
442.23600,-5.252516248
442.23650,-3.421349802
442.23700,-3.116155394
442.23750,-4.031738617
442.23800,-3.72654421
442.23850,-2.200572171
442.23900,-1.284988948
442.23950,-1.895377763
442.24000,-2.200572171
442.24050,-0.3694057249
442.24100,1.766955129
442.24150,2.682538352
442.24200,2.072149537
442.24250,2.377343944
442.24300,3.292927168
442.24350,3.598121575
442.24400,2.98773276
442.24450,2.682538352
442.24500,2.98773276
442.24550,2.682538352
442.24600,1.766955129
442.24650,0.5461774982
442.24700,0.5461774982
442.24750,1.461760721
442.24800,2.377343944
442.24850,2.98773276
442.24900,2.682538352
442.24950,1.461760721
442.25000,-0.3694057249
442.25050,-1.895377763
442.25100,-2.505766579
442.25150,-1.895377763
442.25200,-2.505766579
442.25250,-4.031738617
442.25300,-5.252516248
442.25350,-5.252516248
442.25400,-5.252516248
442.25450,-5.557710656
442.25500,-5.557710656
442.25550,-4.642127433
442.25600,-3.72654421
442.25650,-4.031738617
442.25700,-5.252516248
442.25750,-5.252516248
442.25800,-4.336933025
442.25850,-3.421349802
442.25900,-2.810960986
442.25950,-2.200572171
442.26000,-1.590183356
442.26050,-1.284988948
442.26100,-0.3694057249
442.26150,0.8513719059
442.26200,2.682538352
442.26250,3.598121575
442.26300,3.598121575
442.26350,3.598121575
442.26400,3.598121575
442.26450,3.598121575
442.26500,3.903315983
442.26550,4.208510391
442.26600,4.513704798
442.26650,4.208510391
442.26700,3.292927168
442.26750,2.98773276
442.26800,2.377343944
442.26850,1.766955129
442.26900,1.461760721
442.26950,2.377343944
442.27000,3.598121575
442.27050,3.598121575
442.27100,2.682538352
442.27150,1.766955129
442.27200,1.461760721
442.27250,1.156566314
442.27300,0.2409830905
442.27350,-0.3694057249
442.27400,-0.3694057249
442.27450,0.2409830905
442.27500,1.156566314
442.27550,1.461760721
442.27600,1.461760721
442.27650,0.8513719059
442.27700,0.8513719059
442.27750,1.156566314
442.27800,1.461760721
442.27850,1.461760721
442.27900,1.156566314
442.27950,1.461760721
442.28000,2.072149537
442.28050,2.072149537
442.28100,1.461760721
442.28150,1.156566314
442.28200,2.072149537
442.28250,2.98773276
442.28300,3.903315983
442.28350,4.208510391
442.28400,5.124093614
442.28450,5.734482429
442.28500,5.734482429
442.28550,5.429288021
442.28600,4.818899206
442.28650,4.818899206
442.28700,4.208510391
442.28750,3.903315983
442.28800,3.903315983
442.28850,4.208510391
442.28900,3.598121575
442.28950,2.072149537
442.29000,1.461760721
442.29050,2.377343944
442.29100,1.766955129
442.29150,-1.590183356
442.29200,-5.862905063
442.29250,-6.778488287
442.29300,-4.642127433
442.29350,-4.031738617
442.29400,-6.168099471
442.29450,-7.388877102
442.29500,-5.862905063
442.29550,-3.116155394
442.29600,-2.200572171
442.29650,-3.72654421
442.29700,-4.642127433
442.29750,-3.421349802
442.29800,-1.895377763
442.29850,-1.284988948
442.29900,-0.6746001326
442.29950,0.5461774982
442.30000,2.682538352
442.30050,2.98773276
442.30100,1.766955129
442.30150,0.8513719059
442.30200,0.5461774982
442.30250,0.8513719059
442.30300,1.156566314
442.30350,2.377343944
442.30400,2.682538352
442.30450,1.766955129
442.30500,-0.06421131716
442.30550,-0.9797945403
442.30600,0.5461774982
442.30650,2.682538352
442.30700,2.682538352
442.30750,1.156566314
442.30800,-0.3694057249
442.30850,-1.284988948
442.30900,-1.590183356
442.30950,-1.590183356
442.31000,-1.895377763
442.31050,-2.505766579
442.31100,-3.116155394
442.31150,-3.421349802
442.31200,-2.810960986
442.31250,-3.421349802
442.31300,-5.252516248
442.31350,-7.083682694
442.31400,-6.778488287
442.31450,-5.862905063
442.31500,-5.862905063
442.31550,-5.862905063
442.31600,-4.031738617
442.31650,-2.505766579
442.31700,-3.116155394
442.31750,-5.252516248
442.31800,-5.862905063
442.31850,-4.031738617
442.31900,-1.895377763
442.31950,-1.284988948
442.32000,-0.9797945403
442.32050,-0.3694057249
442.32100,-0.06421131716
442.32150,-0.06421131716
442.32200,0.2409830905
442.32250,1.156566314
442.32300,1.766955129
442.32350,1.766955129
442.32400,2.377343944
442.32450,2.98773276
442.32500,1.766955129
442.32550,-0.3694057249
442.32600,-0.9797945403
442.32650,0.2409830905
442.32700,2.377343944
442.32750,2.377343944
442.32800,1.156566314
442.32850,0.5461774982
442.32900,1.156566314
442.32950,1.156566314
442.33000,0.5461774982
442.33050,-0.06421131716
442.33100,-0.3694057249
442.33150,-1.284988948
442.33200,-1.895377763
442.33250,-1.590183356
442.33300,-1.284988948
442.33350,-2.200572171
442.33400,-4.031738617
442.33450,-4.94732184
442.33500,-5.557710656
442.33550,-5.862905063
442.33600,-5.862905063
442.33650,-4.336933025
442.33700,-2.810960986
442.33750,-2.200572171
442.33800,-2.505766579
442.33850,-2.810960986
442.33900,-2.505766579
442.33950,-1.590183356
442.34000,-1.284988948
442.34050,-0.9797945403
442.34100,-0.3694057249
442.34150,0.2409830905
442.34200,0.8513719059
442.34250,1.156566314
442.34300,1.461760721
442.34350,1.461760721
442.34400,1.766955129
442.34450,2.98773276
442.34500,4.818899206
442.34550,5.734482429
442.34600,4.818899206
442.34650,3.598121575
442.34700,3.292927168
442.34750,3.903315983
442.34800,3.598121575
442.34850,2.377343944
442.34900,-0.06421131716
442.34950,-1.590183356
442.35000,-2.505766579
442.35050,-1.895377763
442.35100,-1.284988948
442.35150,-1.590183356
442.35200,-2.505766579
442.35250,-2.810960986
442.35300,-2.200572171
442.35350,-1.590183356
442.35400,-2.200572171
442.35450,-3.116155394
442.35500,-2.810960986
442.35550,-1.895377763
442.35600,-1.590183356
442.35650,-1.284988948
442.35700,-0.6746001326
442.35750,-0.3694057249
442.35800,-0.06421131716
442.35850,0.5461774982
442.35900,2.072149537
442.35950,2.682538352
442.36000,0.8513719059
442.36050,-0.6746001326
442.36100,-0.3694057249
442.36150,1.461760721
442.36200,2.682538352
442.36250,3.292927168
442.36300,4.513704798
442.36350,6.039676837
442.36400,6.650065652
442.36450,6.650065652
442.36500,6.344871245
442.36550,5.124093614
442.36600,2.682538352
442.36650,0.2409830905
442.36700,-0.06421131716
442.36750,0.8513719059
442.36800,0.8513719059
442.36850,-0.06421131716
442.36900,0.2409830905
442.36950,1.461760721
442.37000,1.766955129
442.37050,0.2409830905
442.37100,-0.9797945403
442.37150,-1.590183356
442.37200,-1.284988948
442.37250,-1.895377763
442.37300,-3.421349802
442.37350,-4.642127433
442.37400,-5.252516248
442.37450,-4.94732184
442.37500,-4.336933025
442.37550,-4.031738617
442.37600,-3.72654421
442.37650,-2.810960986
442.37700,-1.895377763
442.37750,-1.284988948
442.37800,-0.9797945403
442.37850,-0.06421131716
442.37900,0.8513719059
442.37950,1.156566314
442.38000,0.5461774982
442.38050,0.5461774982
442.38100,2.072149537
442.38150,2.98773276
442.38200,1.766955129
442.38250,-0.3694057249
442.38300,-2.200572171
442.38350,-2.200572171
442.38400,-0.6746001326
442.38450,0.8513719059
442.38500,2.072149537
442.38550,1.766955129
442.38600,0.5461774982
442.38650,-0.06421131716
442.38700,-0.06421131716
442.38750,0.2409830905
442.38800,0.8513719059
442.38850,0.8513719059
442.38900,0.2409830905
442.38950,-0.6746001326
442.39000,-1.590183356
442.39050,-1.895377763
442.39100,-0.9797945403
442.39150,-0.3694057249
442.39200,-0.3694057249
442.39250,-0.9797945403
442.39300,-1.590183356
442.39350,-1.895377763
442.39400,-1.895377763
442.39450,-1.895377763
442.39500,-2.200572171
442.39550,-1.895377763
442.39600,-0.3694057249
442.39650,0.8513719059
442.39700,0.8513719059
442.39750,0.2409830905
442.39800,0.2409830905
442.39850,0.5461774982
442.39900,0.2409830905
442.39950,-0.6746001326
442.40000,-0.6746001326
442.40050,0.5461774982
442.40100,1.461760721
442.40150,1.766955129
442.40200,2.682538352
442.40250,3.598121575
442.40300,3.598121575
442.40350,2.682538352
442.40400,2.682538352
442.40450,3.903315983
442.40500,5.429288021
442.40550,5.124093614
442.40600,3.903315983
442.40650,2.682538352
442.40700,2.072149537
442.40750,2.377343944
442.40800,2.98773276
442.40850,2.377343944
442.40900,0.5461774982
442.40950,-0.6746001326
442.41000,-0.06421131716
442.41050,0.8513719059
442.41100,-0.06421131716
442.41150,-2.810960986
442.41200,-4.642127433
442.41250,-3.72654421
442.41300,-2.200572171
442.41350,-1.284988948
442.41400,-1.284988948
442.41450,-1.590183356
442.41500,-1.895377763
442.41550,-2.200572171
442.41600,-1.895377763
442.41650,-1.590183356
442.41700,-1.895377763
442.41750,-2.810960986
442.41800,-3.116155394
442.41850,-2.505766579
442.41900,-2.200572171
442.41950,-3.116155394
442.42000,-3.421349802
442.42050,-2.505766579
442.42100,-1.590183356
442.42150,-1.284988948
442.42200,-0.06421131716
442.42250,1.461760721
442.42300,2.98773276
442.42350,2.377343944
442.42400,2.072149537
442.42450,3.903315983
442.42500,7.260454468
442.42550,9.396815322
442.42600,9.091620914
442.42650,7.260454468
442.42700,5.429288021
442.42750,3.598121575
442.42800,2.377343944
442.42850,1.766955129
442.42900,1.461760721
442.42950,0.2409830905
442.43000,-0.9797945403
442.43050,-0.9797945403
442.43100,-0.3694057249
442.43150,-0.06421131716
442.43200,-0.9797945403
442.43250,-2.200572171
442.43300,-2.200572171
442.43350,-1.590183356
442.43400,-1.284988948
442.43450,-1.895377763
442.43500,-2.200572171
442.43550,-2.505766579
442.43600,-2.200572171
442.43650,-2.810960986
442.43700,-4.642127433
442.43750,-7.69407151
442.43800,-9.525237956
442.43850,-7.999265917
442.43900,-4.336933025
442.43950,-1.284988948
442.44000,-0.3694057249
442.44050,-0.6746001326
442.44100,-0.3694057249
442.44150,-0.06421131716
442.44200,0.2409830905
442.44250,1.156566314
442.44300,3.598121575
442.44350,6.650065652
442.44400,7.260454468
442.44450,4.818899206
442.44500,1.766955129
442.44550,-0.06421131716
442.44600,0.2409830905
442.44650,0.5461774982
442.44700,-0.06421131716
442.44750,-1.284988948
442.44800,-2.200572171
442.44850,-2.810960986
442.44900,-2.505766579
442.44950,-1.895377763
442.45000,-0.6746001326
442.45050,0.2409830905
442.45100,-0.06421131716
442.45150,-2.200572171
442.45200,-4.031738617
442.45250,-3.421349802
442.45300,-1.284988948
442.45350,-0.6746001326
442.45400,-1.895377763
442.45450,-2.810960986
442.45500,-2.505766579
442.45550,-1.895377763
442.45600,-1.895377763
442.45650,-2.200572171
442.45700,-1.590183356
442.45750,-0.9797945403
442.45800,-1.590183356
442.45850,-2.505766579
442.45900,-1.895377763
442.45950,-0.06421131716
442.46000,2.682538352
442.46050,3.903315983
442.46100,3.598121575
442.46150,2.98773276
442.46200,2.98773276
442.46250,3.903315983
442.46300,4.208510391
442.46350,4.208510391
442.46400,3.903315983
442.46450,3.903315983
442.46500,3.598121575
442.46550,2.377343944
442.46600,0.8513719059
442.46650,0.5461774982
442.46700,2.377343944
442.46750,3.292927168
442.46800,2.682538352
442.46850,0.8513719059
442.46900,-0.06421131716
442.46950,-0.06421131716
442.47000,-0.06421131716
442.47050,0.5461774982
442.47100,0.5461774982
442.47150,-0.06421131716
442.47200,-1.284988948
442.47250,-2.200572171
442.47300,-2.200572171
442.47350,-2.200572171
442.47400,-2.810960986
442.47450,-3.72654421
442.47500,-3.72654421
442.47550,-3.116155394
442.47600,-2.200572171
442.47650,-1.590183356
442.47700,-1.590183356
442.47750,-1.590183356
442.47800,-0.9797945403
442.47850,-0.06421131716
442.47900,0.2409830905
442.47950,-0.3694057249
442.48000,-1.590183356
442.48050,-1.284988948
442.48100,0.2409830905
442.48150,1.461760721
442.48200,1.766955129
442.48250,1.766955129
442.48300,2.072149537
442.48350,2.072149537
442.48400,1.766955129
442.48450,1.461760721
442.48500,1.461760721
442.48550,0.5461774982
442.48600,-0.06421131716
442.48650,0.2409830905
442.48700,0.8513719059
442.48750,-0.06421131716
442.48800,-1.284988948
442.48850,-2.200572171
442.48900,-0.9797945403
442.48950,-0.06421131716
442.49000,-0.9797945403
442.49050,-2.505766579
442.49100,-3.116155394
442.49150,-1.895377763
442.49200,-0.6746001326
442.49250,-0.06421131716
442.49300,0.8513719059
442.49350,1.766955129
442.49400,1.156566314
442.49450,-0.06421131716
442.49500,-0.06421131716
442.49550,0.5461774982
442.49600,1.156566314
442.49650,0.8513719059
442.49700,-0.06421131716
442.49750,0.2409830905
442.49800,1.461760721
442.49850,2.072149537
442.49900,2.377343944
442.49950,2.682538352
442.50000,2.377343944
442.50050,2.072149537
442.50100,1.461760721
442.50150,1.156566314
442.50200,1.766955129
442.50250,2.377343944
442.50300,2.377343944
442.50350,1.766955129
442.50400,0.8513719059
442.50450,-0.3694057249
442.50500,-0.9797945403
442.50550,-0.3694057249
442.50600,2.072149537
442.50650,5.429288021
442.50700,6.95526006
442.50750,6.039676837
442.50800,3.903315983
442.50850,2.072149537
442.50900,0.8513719059
442.50950,0.5461774982
442.51000,0.2409830905
442.51050,-0.3694057249
442.51100,-1.895377763
442.51150,-3.72654421
442.51200,-5.862905063
442.51250,-7.083682694
442.51300,-7.083682694
442.51350,-6.168099471
442.51400,-4.94732184
442.51450,-4.642127433
442.51500,-5.557710656
442.51550,-6.473293879
442.51600,-6.473293879
442.51650,-6.168099471
442.51700,-4.94732184
442.51750,-3.116155394
442.51800,-1.284988948
442.51850,-0.9797945403
442.51900,-2.810960986
442.51950,-4.94732184
442.52000,-4.031738617
442.52050,-0.3694057249
442.52100,2.682538352
442.52150,3.598121575
442.52200,3.598121575
442.52250,3.903315983
442.52300,4.513704798
442.52350,4.818899206
442.52400,4.818899206
442.52450,4.818899206
442.52500,3.903315983
442.52550,1.461760721
442.52600,-0.06421131716
442.52650,0.2409830905
442.52700,2.377343944
442.52750,2.98773276
442.52800,2.377343944
442.52850,1.766955129
442.52900,1.461760721
442.52950,0.5461774982
442.53000,-0.6746001326
442.53050,-1.590183356
442.53100,-0.9797945403
442.53150,-0.9797945403
442.53200,-1.895377763
442.53250,-2.505766579
442.53300,-2.810960986
442.53350,-3.421349802
442.53400,-4.336933025
442.53450,-4.031738617
442.53500,-2.505766579
442.53550,-0.6746001326
442.53600,-0.6746001326
442.53650,-0.6746001326
442.53700,-0.06421131716
442.53750,0.5461774982
442.53800,0.2409830905
442.53850,-0.3694057249
442.53900,-0.9797945403
442.53950,-0.9797945403
442.54000,-0.9797945403
442.54050,-0.3694057249
442.54100,0.5461774982
442.54150,1.156566314
442.54200,0.5461774982
442.54250,-0.3694057249
442.54300,-0.3694057249
442.54350,0.5461774982
442.54400,1.156566314
442.54450,1.766955129
442.54500,2.682538352
442.54550,3.598121575
442.54600,3.903315983
442.54650,3.598121575
442.54700,3.292927168
442.54750,2.98773276
