"type","name","time_units","begin_time","frequency","count","units"
"signal","Ultium EMG-EXT.CARP.ULN. RT","s",483.98000,2000,22000,"uV"

"time","value"
483.98000,0.02928402113
483.98050,-2.717465648
483.98100,-6.990187356
483.98150,-10.65252025
483.98200,-12.48368669
483.98250,-12.17849229
483.98300,-10.95771466
483.98350,-8.516159395
483.98400,-5.769409725
483.98450,-3.327854464
483.98500,-1.801882425
483.98550,-2.107076833
483.98600,-3.022660056
483.98650,-3.327854464
483.98700,-1.801882425
483.98750,0.6396728365
483.98800,3.081228098
483.98850,2.470839283
483.98900,0.9448672442
483.98950,0.6396728365
483.99000,1.55525606
483.99050,0.6396728365
483.99100,-2.107076833
483.99150,-3.022660056
483.99200,-0.2759103866
483.99250,2.165644875
483.99300,0.9448672442
483.99350,-1.19149361
483.99400,0.02928402113
483.99450,3.996811321
483.99500,6.438366583
483.99550,4.607200137
483.99600,1.55525606
483.99650,0.02928402113
483.99700,-0.886299202
483.99750,-1.801882425
483.99800,0.02928402113
483.99850,5.217588952
483.99900,8.269533029
483.99950,6.133172175
484.00000,1.55525606
484.00050,0.02928402113
484.00100,0.02928402113
484.00150,-2.41227124
484.00200,-6.074604133
484.00250,-5.769409725
484.00300,-1.801882425
484.00350,0.02928402113
484.00400,-1.801882425
484.00450,-3.938243279
484.00500,-3.327854464
484.00550,-1.496688017
484.00600,-1.496688017
484.00650,-2.41227124
484.00700,-1.19149361
484.00750,0.6396728365
484.00800,0.6396728365
484.00850,-1.496688017
484.00900,-3.022660056
484.00950,-2.107076833
484.01000,0.6396728365
484.01050,4.302005729
484.01100,7.048755398
484.01150,7.659144214
484.01200,6.133172175
484.01250,4.912394544
484.01300,5.52278336
484.01350,6.438366583
484.01400,5.52278336
484.01450,3.081228098
484.01500,2.165644875
484.01550,3.081228098
484.01600,3.386422506
484.01650,2.470839283
484.01700,1.250061652
484.01750,0.9448672442
484.01800,0.02928402113
484.01850,-1.496688017
484.01900,-2.41227124
484.01950,-2.41227124
484.02000,-3.022660056
484.02050,-5.464215317
484.02100,-6.684992948
484.02150,-6.379798541
484.02200,-5.464215317
484.02250,-6.684992948
484.02300,-8.821353802
484.02350,-10.34732584
484.02400,-10.95771466
484.02450,-10.04213143
484.02500,-6.379798541
484.02550,-1.19149361
484.02600,1.55525606
484.02650,0.6396728365
484.02700,-0.2759103866
484.02750,0.3344784288
484.02800,1.250061652
484.02850,0.3344784288
484.02900,0.6396728365
484.02950,3.691616914
484.03000,6.133172175
484.03050,4.607200137
484.03100,2.470839283
484.03150,4.912394544
484.03200,9.49031066
484.03250,9.49031066
484.03300,4.607200137
484.03350,1.55525606
484.03400,2.165644875
484.03450,2.77603369
484.03500,1.55525606
484.03550,1.55525606
484.03600,3.691616914
484.03650,4.912394544
484.03700,3.081228098
484.03750,1.250061652
484.03800,0.9448672442
484.03850,0.9448672442
484.03900,0.02928402113
484.03950,-1.496688017
484.04000,-1.496688017
484.04050,-1.801882425
484.04100,-4.548632094
484.04150,-7.295381764
484.04200,-7.905770579
484.04250,-6.684992948
484.04300,-5.464215317
484.04350,-5.15902091
484.04400,-5.464215317
484.04450,-6.074604133
484.04500,-5.464215317
484.04550,-3.022660056
484.04600,0.02928402113
484.04650,2.165644875
484.04700,2.470839283
484.04750,0.9448672442
484.04800,0.02928402113
484.04850,-1.19149361
484.04900,-1.496688017
484.04950,-0.886299202
484.05000,0.02928402113
484.05050,0.6396728365
484.05100,1.55525606
484.05150,2.77603369
484.05200,4.607200137
484.05250,5.52278336
484.05300,5.52278336
484.05350,4.302005729
484.05400,3.996811321
484.05450,3.996811321
484.05500,3.996811321
484.05550,3.386422506
484.05600,2.470839283
484.05650,1.250061652
484.05700,0.9448672442
484.05750,0.6396728365
484.05800,0.02928402113
484.05850,-0.886299202
484.05900,-1.19149361
484.05950,-1.496688017
484.06000,-2.107076833
484.06050,-2.41227124
484.06100,-1.496688017
484.06150,-0.2759103866
484.06200,-0.886299202
484.06250,-3.938243279
484.06300,-6.990187356
484.06350,-7.295381764
484.06400,-6.074604133
484.06450,-4.548632094
484.06500,-4.548632094
484.06550,-4.548632094
484.06600,-3.633048871
484.06650,-2.41227124
484.06700,-1.496688017
484.06750,-1.496688017
484.06800,-1.19149361
484.06850,-0.2759103866
484.06900,0.02928402113
484.06950,-0.2759103866
484.07000,-2.107076833
484.07050,-3.022660056
484.07100,-0.886299202
484.07150,2.165644875
484.07200,4.302005729
484.07250,4.302005729
484.07300,3.691616914
484.07350,4.302005729
484.07400,6.743560991
484.07450,8.879921844
484.07500,7.964338621
484.07550,4.607200137
484.07600,1.55525606
484.07650,0.6396728365
484.07700,1.55525606
484.07750,2.165644875
484.07800,2.165644875
484.07850,2.470839283
484.07900,2.77603369
484.07950,1.250061652
484.08000,-1.19149361
484.08050,-2.107076833
484.08100,-0.5811047943
484.08150,0.02928402113
484.08200,-1.801882425
484.08250,-5.769409725
484.08300,-8.210964987
484.08350,-6.990187356
484.08400,-4.548632094
484.08450,-3.327854464
484.08500,-3.938243279
484.08550,-3.327854464
484.08600,-1.801882425
484.08650,-1.496688017
484.08700,-4.243437687
484.08750,-7.295381764
484.08800,-6.684992948
484.08850,-2.717465648
484.08900,0.9448672442
484.08950,2.470839283
484.09000,2.470839283
484.09050,2.470839283
484.09100,2.77603369
484.09150,3.081228098
484.09200,3.996811321
484.09250,5.827977767
484.09300,7.659144214
484.09350,7.353949806
484.09400,5.52278336
484.09450,3.386422506
484.09500,1.55525606
484.09550,0.3344784288
484.09600,0.02928402113
484.09650,0.02928402113
484.09700,0.3344784288
484.09750,0.02928402113
484.09800,0.02928402113
484.09850,0.3344784288
484.09900,0.3344784288
484.09950,-0.2759103866
484.10000,-1.496688017
484.10050,-2.717465648
484.10100,-3.938243279
484.10150,-5.15902091
484.10200,-4.853826502
484.10250,-2.41227124
484.10300,0.02928402113
484.10350,0.02928402113
484.10400,-1.496688017
484.10450,-2.41227124
484.10500,-1.801882425
484.10550,-0.886299202
484.10600,-1.19149361
484.10650,-2.107076833
484.10700,-2.717465648
484.10750,-1.801882425
484.10800,-0.2759103866
484.10850,0.9448672442
484.10900,1.250061652
484.10950,1.250061652
484.11000,2.165644875
484.11050,4.302005729
484.11100,5.52278336
484.11150,4.912394544
484.11200,3.386422506
484.11250,2.165644875
484.11300,1.55525606
484.11350,1.55525606
484.11400,1.55525606
484.11450,2.470839283
484.11500,4.607200137
484.11550,7.659144214
484.11600,10.10069948
484.11650,8.879921844
484.11700,3.691616914
484.11750,-1.19149361
484.11800,-1.19149361
484.11850,1.860450467
484.11900,3.386422506
484.11950,1.250061652
484.12000,0.02928402113
484.12050,1.250061652
484.12100,3.081228098
484.12150,2.470839283
484.12200,0.02928402113
484.12250,-3.022660056
484.12300,-6.379798541
484.12350,-8.210964987
484.12400,-7.600576171
484.12450,-5.464215317
484.12500,-3.938243279
484.12550,-4.243437687
484.12600,-3.633048871
484.12650,-1.496688017
484.12700,0.02928402113
484.12750,-0.2759103866
484.12800,-0.5811047943
484.12850,0.02928402113
484.12900,0.3344784288
484.12950,0.02928402113
484.13000,0.3344784288
484.13050,3.996811321
484.13100,7.353949806
484.13150,7.353949806
484.13200,4.302005729
484.13250,2.77603369
484.13300,3.996811321
484.13350,5.217588952
484.13400,3.996811321
484.13450,2.165644875
484.13500,2.165644875
484.13550,3.996811321
484.13600,6.133172175
484.13650,6.133172175
484.13700,3.996811321
484.13750,1.250061652
484.13800,-0.5811047943
484.13850,-1.19149361
484.13900,-0.886299202
484.13950,-0.5811047943
484.14000,-1.496688017
484.14050,-3.022660056
484.14100,-4.243437687
484.14150,-3.633048871
484.14200,-2.41227124
484.14250,-2.717465648
484.14300,-4.243437687
484.14350,-5.464215317
484.14400,-5.15902091
484.14450,-4.243437687
484.14500,-3.327854464
484.14550,-2.41227124
484.14600,-0.886299202
484.14650,0.02928402113
484.14700,0.02928402113
484.14750,-1.801882425
484.14800,-3.633048871
484.14850,-3.633048871
484.14900,-2.41227124
484.14950,-0.5811047943
484.15000,0.3344784288
484.15050,0.3344784288
484.15100,0.3344784288
484.15150,0.6396728365
484.15200,0.6396728365
484.15250,0.02928402113
484.15300,-1.19149361
484.15350,-0.5811047943
484.15400,1.55525606
484.15450,3.081228098
484.15500,1.55525606
484.15550,-1.19149361
484.15600,-3.022660056
484.15650,-2.107076833
484.15700,-0.2759103866
484.15750,0.9448672442
484.15800,1.55525606
484.15850,1.860450467
484.15900,2.470839283
484.15950,2.470839283
484.16000,0.9448672442
484.16050,-1.801882425
484.16100,-3.938243279
484.16150,-3.327854464
484.16200,-1.19149361
484.16250,-2.107076833
484.16300,-6.074604133
484.16350,-9.431742618
484.16400,-8.821353802
484.16450,-6.074604133
484.16500,-5.464215317
484.16550,-6.074604133
484.16600,-5.464215317
484.16650,-3.327854464
484.16700,-1.496688017
484.16750,0.02928402113
484.16800,2.165644875
484.16850,5.52278336
484.16900,6.743560991
484.16950,5.52278336
484.17000,3.996811321
484.17050,4.302005729
484.17100,5.217588952
484.17150,4.607200137
484.17200,2.470839283
484.17250,1.55525606
484.17300,2.470839283
484.17350,3.691616914
484.17400,4.302005729
484.17450,4.302005729
484.17500,4.912394544
484.17550,6.438366583
484.17600,7.659144214
484.17650,7.048755398
484.17700,4.912394544
484.17750,3.386422506
484.17800,2.77603369
484.17850,2.165644875
484.17900,0.9448672442
484.17950,0.3344784288
484.18000,0.02928402113
484.18050,-0.5811047943
484.18100,-3.022660056
484.18150,-6.379798541
484.18200,-8.210964987
484.18250,-9.12654821
484.18300,-9.12654821
484.18350,-7.905770579
484.18400,-5.464215317
484.18450,-3.633048871
484.18500,-3.938243279
484.18550,-3.633048871
484.18600,-0.886299202
484.18650,1.860450467
484.18700,1.250061652
484.18750,-1.496688017
484.18800,-3.022660056
484.18850,-1.19149361
484.18900,0.02928402113
484.18950,-0.5811047943
484.19000,-2.107076833
484.19050,-1.801882425
484.19100,0.3344784288
484.19150,2.77603369
484.19200,4.302005729
484.19250,5.217588952
484.19300,5.827977767
484.19350,5.217588952
484.19400,4.607200137
484.19450,5.52278336
484.19500,6.438366583
484.19550,6.133172175
484.19600,4.912394544
484.19650,4.607200137
484.19700,4.607200137
484.19750,2.470839283
484.19800,-1.19149361
484.19850,-4.243437687
484.19900,-4.548632094
484.19950,-3.327854464
484.20000,-2.41227124
484.20050,-2.107076833
484.20100,-2.107076833
484.20150,-2.717465648
484.20200,-3.633048871
484.20250,-4.243437687
484.20300,-3.633048871
484.20350,-2.41227124
484.20400,-3.022660056
484.20450,-4.548632094
484.20500,-6.074604133
484.20550,-5.464215317
484.20600,-3.633048871
484.20650,-2.41227124
484.20700,-2.717465648
484.20750,-4.243437687
484.20800,-5.15902091
484.20850,-5.15902091
484.20900,-3.633048871
484.20950,-1.801882425
484.21000,0.3344784288
484.21050,3.386422506
484.21100,6.438366583
484.21150,7.964338621
484.21200,6.743560991
484.21250,3.691616914
484.21300,1.250061652
484.21350,1.250061652
484.21400,3.386422506
484.21450,5.52278336
484.21500,5.827977767
484.21550,4.912394544
484.21600,4.607200137
484.21650,4.912394544
484.21700,2.77603369
484.21750,-1.19149361
484.21800,-5.15902091
484.21850,-4.548632094
484.21900,-1.19149361
484.21950,0.3344784288
484.22000,-0.886299202
484.22050,-0.5811047943
484.22100,3.386422506
484.22150,8.269533029
484.22200,7.048755398
484.22250,0.02928402113
484.22300,-5.769409725
484.22350,-5.769409725
484.22400,-2.41227124
484.22450,-0.886299202
484.22500,-2.107076833
484.22550,-3.327854464
484.22600,-3.327854464
484.22650,-3.633048871
484.22700,-4.243437687
484.22750,-4.243437687
484.22800,-3.022660056
484.22850,-1.801882425
484.22900,-1.801882425
484.22950,-2.107076833
484.23000,-1.19149361
484.23050,0.02928402113
484.23100,0.6396728365
484.23150,1.55525606
484.23200,3.081228098
484.23250,5.217588952
484.23300,6.133172175
484.23350,5.827977767
484.23400,4.607200137
484.23450,3.691616914
484.23500,3.386422506
484.23550,3.691616914
484.23600,4.302005729
484.23650,3.691616914
484.23700,1.860450467
484.23750,0.02928402113
484.23800,-0.2759103866
484.23850,-0.2759103866
484.23900,0.02928402113
484.23950,0.02928402113
484.24000,0.02928402113
484.24050,-0.5811047943
484.24100,-2.41227124
484.24150,-4.243437687
484.24200,-4.548632094
484.24250,-3.633048871
484.24300,-3.022660056
484.24350,-3.633048871
484.24400,-4.548632094
484.24450,-4.243437687
484.24500,-3.022660056
484.24550,-2.41227124
484.24600,-2.717465648
484.24650,-3.022660056
484.24700,-2.717465648
484.24750,-2.41227124
484.24800,-2.107076833
484.24850,-1.496688017
484.24900,0.3344784288
484.24950,2.165644875
484.25000,1.860450467
484.25050,0.02928402113
484.25100,0.02928402113
484.25150,2.470839283
484.25200,5.827977767
484.25250,7.353949806
484.25300,7.353949806
484.25350,7.659144214
484.25400,8.574727437
484.25450,8.574727437
484.25500,6.438366583
484.25550,3.386422506
484.25600,0.3344784288
484.25650,-0.886299202
484.25700,-0.5811047943
484.25750,0.6396728365
484.25800,1.55525606
484.25850,1.250061652
484.25900,0.6396728365
484.25950,0.02928402113
484.26000,-1.801882425
484.26050,-3.327854464
484.26100,-3.022660056
484.26150,-0.886299202
484.26200,0.02928402113
484.26250,-2.107076833
484.26300,-5.464215317
484.26350,-7.295381764
484.26400,-6.990187356
484.26450,-6.074604133
484.26500,-5.464215317
484.26550,-5.15902091
484.26600,-4.853826502
484.26650,-4.853826502
484.26700,-4.243437687
484.26750,-3.327854464
484.26800,-2.41227124
484.26850,-1.801882425
484.26900,-1.19149361
484.26950,0.02928402113
484.27000,2.165644875
484.27050,3.996811321
484.27100,4.912394544
484.27150,4.912394544
484.27200,4.302005729
484.27250,2.77603369
484.27300,2.165644875
484.27350,3.081228098
484.27400,4.302005729
484.27450,4.912394544
484.27500,4.302005729
484.27550,3.691616914
484.27600,2.77603369
484.27650,1.860450467
484.27700,1.250061652
484.27750,0.9448672442
484.27800,0.6396728365
484.27850,0.3344784288
484.27900,-0.2759103866
484.27950,-1.496688017
484.28000,-2.717465648
484.28050,-3.633048871
484.28100,-3.938243279
484.28150,-3.633048871
484.28200,-3.633048871
484.28250,-3.327854464
484.28300,-2.107076833
484.28350,-0.886299202
484.28400,-1.19149361
484.28450,-2.717465648
484.28500,-3.633048871
484.28550,-3.327854464
484.28600,-3.022660056
484.28650,-3.938243279
484.28700,-4.243437687
484.28750,-2.717465648
484.28800,-0.5811047943
484.28850,0.02928402113
484.28900,0.02928402113
484.28950,0.6396728365
484.29000,2.165644875
484.29050,3.081228098
484.29100,3.691616914
484.29150,4.302005729
484.29200,4.607200137
484.29250,4.302005729
484.29300,3.386422506
484.29350,3.386422506
484.29400,4.302005729
484.29450,5.217588952
484.29500,5.217588952
484.29550,4.302005729
484.29600,3.081228098
484.29650,2.77603369
484.29700,3.081228098
484.29750,2.470839283
484.29800,0.9448672442
484.29850,0.02928402113
484.29900,0.02928402113
484.29950,-0.2759103866
484.30000,-1.801882425
484.30050,-3.327854464
484.30100,-3.327854464
484.30150,-3.022660056
484.30200,-3.633048871
484.30250,-4.243437687
484.30300,-3.938243279
484.30350,-4.243437687
484.30400,-6.379798541
484.30450,-7.295381764
484.30500,-5.15902091
484.30550,-3.327854464
484.30600,-5.769409725
484.30650,-8.821353802
484.30700,-4.853826502
484.30750,3.996811321
484.30800,9.49031066
484.30850,7.353949806
484.30900,3.691616914
484.30950,4.302005729
484.31000,7.353949806
484.31050,8.269533029
484.31100,6.438366583
484.31150,4.607200137
484.31200,3.691616914
484.31250,4.607200137
484.31300,7.353949806
484.31350,8.879921844
484.31400,4.607200137
484.31450,-3.022660056
484.31500,-6.074604133
484.31550,-0.2759103866
484.31600,6.438366583
484.31650,7.048755398
484.31700,1.55525606
484.31750,-1.801882425
484.31800,-0.886299202
484.31850,0.9448672442
484.31900,0.02928402113
484.31950,-2.41227124
484.32000,-3.633048871
484.32050,-2.107076833
484.32100,-0.2759103866
484.32150,-0.2759103866
484.32200,-1.801882425
484.32250,-2.41227124
484.32300,-1.19149361
484.32350,0.02928402113
484.32400,-0.5811047943
484.32450,-2.107076833
484.32500,-3.022660056
484.32550,-2.717465648
484.32600,-2.717465648
484.32650,-3.022660056
484.32700,-2.717465648
484.32750,-2.717465648
484.32800,-3.022660056
484.32850,-2.41227124
484.32900,-0.2759103866
484.32950,1.250061652
484.33000,2.470839283
484.33050,3.081228098
484.33100,3.691616914
484.33150,3.996811321
484.33200,2.77603369
484.33250,2.165644875
484.33300,2.77603369
484.33350,3.996811321
484.33400,4.302005729
484.33450,3.081228098
484.33500,2.165644875
484.33550,1.860450467
484.33600,1.250061652
484.33650,0.3344784288
484.33700,0.02928402113
484.33750,0.02928402113
484.33800,0.02928402113
484.33850,0.02928402113
484.33900,-0.2759103866
484.33950,-0.5811047943
484.34000,-1.496688017
484.34050,-2.717465648
484.34100,-3.327854464
484.34150,-3.938243279
484.34200,-4.853826502
484.34250,-6.074604133
484.34300,-6.684992948
484.34350,-6.074604133
484.34400,-4.853826502
484.34450,-3.327854464
484.34500,-2.107076833
484.34550,-1.496688017
484.34600,-1.801882425
484.34650,-2.41227124
484.34700,-3.327854464
484.34750,-3.633048871
484.34800,-3.022660056
484.34850,-0.886299202
484.34900,0.6396728365
484.34950,1.55525606
484.35000,1.55525606
484.35050,2.165644875
484.35100,2.77603369
484.35150,2.77603369
484.35200,2.470839283
484.35250,2.77603369
484.35300,3.996811321
484.35350,4.912394544
484.35400,4.607200137
484.35450,3.996811321
484.35500,3.691616914
484.35550,4.302005729
484.35600,4.607200137
484.35650,4.302005729
484.35700,3.386422506
484.35750,2.470839283
484.35800,1.55525606
484.35850,0.3344784288
484.35900,-0.2759103866
484.35950,-0.886299202
484.36000,-1.801882425
484.36050,-3.327854464
484.36100,-4.548632094
484.36150,-4.853826502
484.36200,-4.243437687
484.36250,-3.633048871
484.36300,-3.633048871
484.36350,-4.243437687
484.36400,-4.548632094
484.36450,-4.548632094
484.36500,-3.633048871
484.36550,-2.41227124
484.36600,-2.41227124
484.36650,-4.243437687
484.36700,-6.379798541
484.36750,-6.379798541
484.36800,-3.022660056
484.36850,0.3344784288
484.36900,1.55525606
484.36950,0.6396728365
484.37000,1.250061652
484.37050,3.691616914
484.37100,4.912394544
484.37150,3.691616914
484.37200,2.165644875
484.37250,3.386422506
484.37300,6.133172175
484.37350,6.743560991
484.37400,5.217588952
484.37450,4.912394544
484.37500,6.743560991
484.37550,7.659144214
484.37600,6.133172175
484.37650,3.996811321
484.37700,3.081228098
484.37750,1.55525606
484.37800,-1.19149361
484.37850,-4.548632094
484.37900,-5.464215317
484.37950,-4.853826502
484.38000,-4.548632094
484.38050,-4.548632094
484.38100,-2.717465648
484.38150,0.02928402113
484.38200,2.165644875
484.38250,1.860450467
484.38300,-0.5811047943
484.38350,-4.243437687
484.38400,-7.295381764
484.38450,-7.295381764
484.38500,-3.938243279
484.38550,-1.496688017
484.38600,-1.496688017
484.38650,-2.717465648
484.38700,-2.107076833
484.38750,-0.886299202
484.38800,-1.496688017
484.38850,-2.41227124
484.38900,-0.5811047943
484.38950,2.77603369
484.39000,4.302005729
484.39050,3.081228098
484.39100,2.165644875
484.39150,3.386422506
484.39200,4.607200137
484.39250,4.302005729
484.39300,3.996811321
484.39350,4.912394544
484.39400,4.912394544
484.39450,3.081228098
484.39500,1.55525606
484.39550,2.77603369
484.39600,4.607200137
484.39650,4.607200137
484.39700,3.386422506
484.39750,2.470839283
484.39800,2.165644875
484.39850,1.250061652
484.39900,-0.2759103866
484.39950,-2.107076833
484.40000,-2.717465648
484.40050,-2.717465648
484.40100,-3.022660056
484.40150,-3.327854464
484.40200,-3.938243279
484.40250,-4.853826502
484.40300,-5.464215317
484.40350,-5.769409725
484.40400,-5.769409725
484.40450,-5.769409725
484.40500,-5.769409725
484.40550,-5.464215317
484.40600,-5.15902091
484.40650,-4.853826502
484.40700,-3.633048871
484.40750,-2.717465648
484.40800,-2.717465648
484.40850,-2.41227124
484.40900,-0.2759103866
484.40950,2.470839283
484.41000,3.386422506
484.41050,2.77603369
484.41100,2.77603369
484.41150,4.607200137
484.41200,6.133172175
484.41250,5.52278336
484.41300,4.912394544
484.41350,4.912394544
484.41400,4.912394544
484.41450,3.691616914
484.41500,2.470839283
484.41550,2.165644875
484.41600,2.470839283
484.41650,2.165644875
484.41700,1.55525606
484.41750,1.250061652
484.41800,0.3344784288
484.41850,-1.496688017
484.41900,-2.41227124
484.41950,-1.19149361
484.42000,0.3344784288
484.42050,0.3344784288
484.42100,-0.886299202
484.42150,-1.496688017
484.42200,-1.496688017
484.42250,-3.022660056
484.42300,-4.548632094
484.42350,-3.633048871
484.42400,-0.886299202
484.42450,0.3344784288
484.42500,-0.886299202
484.42550,-2.41227124
484.42600,-0.5811047943
484.42650,1.55525606
484.42700,2.165644875
484.42750,0.6396728365
484.42800,-0.886299202
484.42850,-2.41227124
484.42900,-3.022660056
484.42950,-1.801882425
484.43000,1.250061652
484.43050,5.217588952
484.43100,6.438366583
484.43150,4.302005729
484.43200,1.250061652
484.43250,0.3344784288
484.43300,2.165644875
484.43350,3.996811321
484.43400,4.302005729
484.43450,3.081228098
484.43500,2.77603369
484.43550,3.691616914
484.43600,4.302005729
484.43650,2.470839283
484.43700,0.02928402113
484.43750,-1.801882425
484.43800,-1.801882425
484.43850,-1.801882425
484.43900,-2.107076833
484.43950,-2.717465648
484.44000,-3.022660056
484.44050,-3.327854464
484.44100,-4.548632094
484.44150,-5.464215317
484.44200,-4.548632094
484.44250,-3.938243279
484.44300,-4.853826502
484.44350,-5.769409725
484.44400,-4.853826502
484.44450,-2.41227124
484.44500,-1.19149361
484.44550,-1.496688017
484.44600,-1.19149361
484.44650,0.6396728365
484.44700,2.77603369
484.44750,2.77603369
484.44800,1.860450467
484.44850,1.250061652
484.44900,0.9448672442
484.44950,0.3344784288
484.45000,0.6396728365
484.45050,2.165644875
484.45100,3.386422506
484.45150,1.860450467
484.45200,-0.886299202
484.45250,-0.5811047943
484.45300,3.386422506
484.45350,7.353949806
484.45400,7.353949806
484.45450,4.912394544
484.45500,3.386422506
484.45550,3.386422506
484.45600,3.691616914
484.45650,3.691616914
484.45700,3.386422506
484.45750,3.386422506
484.45800,2.165644875
484.45850,0.3344784288
484.45900,-0.886299202
484.45950,-1.496688017
484.46000,-1.496688017
484.46050,-2.41227124
484.46100,-4.243437687
484.46150,-4.853826502
484.46200,-4.243437687
484.46250,-3.633048871
484.46300,-3.633048871
484.46350,-3.938243279
484.46400,-3.022660056
484.46450,-1.496688017
484.46500,-1.19149361
484.46550,-2.717465648
484.46600,-3.938243279
484.46650,-3.327854464
484.46700,-1.496688017
484.46750,-0.886299202
484.46800,-1.496688017
484.46850,-1.801882425
484.46900,-0.886299202
484.46950,0.02928402113
484.47000,0.02928402113
484.47050,-1.496688017
484.47100,-3.633048871
484.47150,-4.243437687
484.47200,-2.41227124
484.47250,0.3344784288
484.47300,2.165644875
484.47350,2.165644875
484.47400,2.470839283
484.47450,3.081228098
484.47500,3.081228098
484.47550,2.165644875
484.47600,1.250061652
484.47650,1.250061652
484.47700,0.3344784288
484.47750,-1.496688017
484.47800,-3.022660056
484.47850,-3.327854464
484.47900,-3.327854464
484.47950,-4.243437687
484.48000,-5.464215317
484.48050,-5.15902091
484.48100,-3.633048871
484.48150,-1.801882425
484.48200,0.02928402113
484.48250,0.9448672442
484.48300,0.02928402113
484.48350,-2.41227124
484.48400,-4.243437687
484.48450,-3.633048871
484.48500,-2.41227124
484.48550,-1.801882425
484.48600,-1.19149361
484.48650,0.6396728365
484.48700,2.165644875
484.48750,0.3344784288
484.48800,-2.41227124
484.48850,-3.327854464
484.48900,-1.496688017
484.48950,0.02928402113
484.49000,1.250061652
484.49050,3.386422506
484.49100,5.52278336
484.49150,5.827977767
484.49200,4.607200137
484.49250,4.607200137
484.49300,6.133172175
484.49350,6.438366583
484.49400,5.827977767
484.49450,5.217588952
484.49500,5.52278336
484.49550,4.912394544
484.49600,3.996811321
484.49650,3.996811321
484.49700,4.912394544
484.49750,4.607200137
484.49800,2.77603369
484.49850,1.250061652
484.49900,1.250061652
484.49950,0.9448672442
484.50000,0.02928402113
484.50050,0.02928402113
484.50100,0.3344784288
484.50150,-0.886299202
484.50200,-4.548632094
484.50250,-7.295381764
484.50300,-6.990187356
484.50350,-6.074604133
484.50400,-6.074604133
484.50450,-5.769409725
484.50500,-3.633048871
484.50550,-1.19149361
484.50600,-1.496688017
484.50650,-2.717465648
484.50700,-1.801882425
484.50750,1.250061652
484.50800,3.386422506
484.50850,3.386422506
484.50900,3.081228098
484.50950,3.996811321
484.51000,3.996811321
484.51050,2.165644875
484.51100,1.860450467
484.51150,3.996811321
484.51200,6.438366583
484.51250,6.743560991
484.51300,5.52278336
484.51350,5.217588952
484.51400,5.52278336
484.51450,4.607200137
484.51500,1.55525606
484.51550,0.3344784288
484.51600,1.860450467
484.51650,4.607200137
484.51700,4.912394544
484.51750,2.77603369
484.51800,0.6396728365
484.51850,0.02928402113
484.51900,0.02928402113
484.51950,-0.5811047943
484.52000,-1.801882425
484.52050,-2.41227124
484.52100,-2.41227124
484.52150,-1.19149361
484.52200,0.3344784288
484.52250,1.55525606
484.52300,0.3344784288
484.52350,-2.107076833
484.52400,-4.853826502
484.52450,-5.769409725
484.52500,-5.15902091
484.52550,-3.938243279
484.52600,-3.938243279
484.52650,-4.853826502
484.52700,-6.684992948
484.52750,-6.684992948
484.52800,-4.243437687
484.52850,-0.2759103866
484.52900,1.55525606
484.52950,1.250061652
484.53000,0.3344784288
484.53050,0.3344784288
484.53100,0.02928402113
484.53150,-1.496688017
484.53200,-3.633048871
484.53250,-4.243437687
484.53300,-2.41227124
484.53350,0.3344784288
484.53400,3.691616914
484.53450,6.743560991
484.53500,7.964338621
484.53550,6.133172175
484.53600,2.470839283
484.53650,0.02928402113
484.53700,0.02928402113
484.53750,0.02928402113
484.53800,-1.19149361
484.53850,-3.327854464
484.53900,-3.938243279
484.53950,-3.022660056
484.54000,-2.41227124
484.54050,-2.41227124
484.54100,-2.41227124
484.54150,-2.41227124
484.54200,-2.107076833
484.54250,-2.107076833
484.54300,-2.41227124
484.54350,-2.717465648
484.54400,-3.022660056
484.54450,-2.107076833
484.54500,-1.496688017
484.54550,-1.19149361
484.54600,-1.496688017
484.54650,-1.496688017
484.54700,-0.5811047943
484.54750,0.02928402113
484.54800,0.02928402113
484.54850,0.02928402113
484.54900,0.6396728365
484.54950,0.9448672442
484.55000,1.250061652
484.55050,1.860450467
484.55100,3.081228098
484.55150,3.386422506
484.55200,1.860450467
484.55250,0.3344784288
484.55300,0.9448672442
484.55350,3.081228098
484.55400,3.996811321
484.55450,3.081228098
484.55500,1.860450467
484.55550,2.470839283
484.55600,3.691616914
484.55650,3.386422506
484.55700,1.250061652
484.55750,-1.19149361
484.55800,-2.41227124
484.55850,-3.022660056
484.55900,-3.327854464
484.55950,-3.938243279
484.56000,-3.938243279
484.56050,-2.41227124
484.56100,0.02928402113
484.56150,2.165644875
484.56200,2.77603369
484.56250,1.860450467
484.56300,-0.2759103866
484.56350,-2.41227124
484.56400,-2.41227124
484.56450,-0.5811047943
484.56500,0.02928402113
484.56550,-2.41227124
484.56600,-6.684992948
484.56650,-7.905770579
484.56700,-4.548632094
484.56750,-0.5811047943
484.56800,0.3344784288
484.56850,0.02928402113
484.56900,0.3344784288
484.56950,3.081228098
484.57000,5.52278336
484.57050,5.827977767
484.57100,4.302005729
484.57150,2.470839283
484.57200,1.55525606
484.57250,1.860450467
484.57300,3.386422506
484.57350,4.607200137
484.57400,4.607200137
484.57450,4.302005729
484.57500,4.607200137
484.57550,6.133172175
484.57600,7.353949806
484.57650,6.743560991
484.57700,4.912394544
484.57750,3.386422506
484.57800,2.470839283
484.57850,2.165644875
484.57900,1.55525606
484.57950,0.9448672442
484.58000,0.9448672442
484.58050,0.9448672442
484.58100,0.02928402113
484.58150,-1.801882425
484.58200,-3.633048871
484.58250,-4.853826502
484.58300,-4.243437687
484.58350,-3.022660056
484.58400,-2.41227124
484.58450,-3.327854464
484.58500,-4.548632094
484.58550,-5.15902091
484.58600,-4.243437687
484.58650,-2.107076833
484.58700,-1.496688017
484.58750,-2.107076833
484.58800,-2.717465648
484.58850,-2.41227124
484.58900,-1.496688017
484.58950,-1.801882425
484.59000,-2.41227124
484.59050,-2.107076833
484.59100,0.02928402113
484.59150,1.250061652
484.59200,1.250061652
484.59250,0.9448672442
484.59300,2.77603369
484.59350,4.912394544
484.59400,4.912394544
484.59450,2.470839283
484.59500,0.02928402113
484.59550,-0.5811047943
484.59600,0.02928402113
484.59650,0.3344784288
484.59700,0.6396728365
484.59750,0.6396728365
484.59800,0.3344784288
484.59850,0.3344784288
484.59900,0.6396728365
484.59950,0.02928402113
484.60000,-1.19149361
484.60050,-3.633048871
484.60100,-4.853826502
484.60150,-4.853826502
484.60200,-4.243437687
484.60250,-3.938243279
484.60300,-5.464215317
484.60350,-7.905770579
484.60400,-9.12654821
484.60450,-7.295381764
484.60500,-3.938243279
484.60550,-3.327854464
484.60600,-6.074604133
484.60650,-6.990187356
484.60700,-2.41227124
484.60750,3.691616914
484.60800,4.912394544
484.60850,1.55525606
484.60900,0.02928402113
484.60950,1.250061652
484.61000,2.165644875
484.61050,0.3344784288
484.61100,-0.886299202
484.61150,0.9448672442
484.61200,3.996811321
484.61250,4.607200137
484.61300,2.470839283
484.61350,0.6396728365
484.61400,0.9448672442
484.61450,3.081228098
484.61500,4.912394544
484.61550,5.217588952
484.61600,3.386422506
484.61650,1.250061652
484.61700,1.55525606
484.61750,3.996811321
484.61800,5.217588952
484.61850,3.691616914
484.61900,1.860450467
484.61950,1.55525606
484.62000,2.165644875
484.62050,1.250061652
484.62100,-0.5811047943
484.62150,-2.107076833
484.62200,-2.41227124
484.62250,-3.327854464
484.62300,-4.548632094
484.62350,-4.548632094
484.62400,-3.327854464
484.62450,-2.717465648
484.62500,-2.717465648
484.62550,-2.41227124
484.62600,-0.886299202
484.62650,0.02928402113
484.62700,-0.2759103866
484.62750,-1.19149361
484.62800,-1.19149361
484.62850,-0.2759103866
484.62900,0.02928402113
484.62950,0.9448672442
484.63000,2.165644875
484.63050,3.081228098
484.63100,3.386422506
484.63150,4.302005729
484.63200,5.52278336
484.63250,6.438366583
484.63300,6.438366583
484.63350,5.217588952
484.63400,3.081228098
484.63450,0.6396728365
484.63500,-0.5811047943
484.63550,0.02928402113
484.63600,1.55525606
484.63650,0.3344784288
484.63700,-3.327854464
484.63750,-6.379798541
484.63800,-4.853826502
484.63850,-0.2759103866
484.63900,3.081228098
484.63950,4.912394544
484.64000,4.912394544
484.64050,2.77603369
484.64100,-0.886299202
484.64150,-4.853826502
484.64200,-6.074604133
484.64250,-4.548632094
484.64300,-3.022660056
484.64350,-3.022660056
484.64400,-3.327854464
484.64450,-2.107076833
484.64500,0.02928402113
484.64550,1.55525606
484.64600,1.860450467
484.64650,1.250061652
484.64700,0.6396728365
484.64750,0.6396728365
484.64800,1.250061652
484.64850,1.860450467
484.64900,1.860450467
484.64950,2.470839283
484.65000,3.081228098
484.65050,3.386422506
484.65100,2.470839283
484.65150,1.55525606
484.65200,2.165644875
484.65250,3.996811321
484.65300,5.52278336
484.65350,5.52278336
484.65400,4.912394544
484.65450,4.302005729
484.65500,3.386422506
484.65550,2.77603369
484.65600,2.77603369
484.65650,3.691616914
484.65700,3.691616914
484.65750,2.165644875
484.65800,0.02928402113
484.65850,-0.5811047943
484.65900,-0.2759103866
484.65950,-0.886299202
484.66000,-3.938243279
484.66050,-7.905770579
484.66100,-9.431742618
484.66150,-6.684992948
484.66200,-2.717465648
484.66250,-0.5811047943
484.66300,-1.19149361
484.66350,-1.801882425
484.66400,-1.496688017
484.66450,-1.801882425
484.66500,-3.633048871
484.66550,-4.548632094
484.66600,-2.41227124
484.66650,0.02928402113
484.66700,-0.2759103866
484.66750,-3.327854464
484.66800,-4.548632094
484.66850,-2.41227124
484.66900,-1.19149361
484.66950,-3.022660056
484.67000,-4.548632094
484.67050,-2.41227124
484.67100,2.165644875
484.67150,4.912394544
484.67200,3.996811321
484.67250,2.470839283
484.67300,2.165644875
484.67350,3.386422506
484.67400,5.217588952
484.67450,6.438366583
484.67500,6.438366583
484.67550,5.217588952
484.67600,4.607200137
484.67650,4.607200137
484.67700,3.691616914
484.67750,0.3344784288
484.67800,-2.41227124
484.67850,-2.717465648
484.67900,-0.2759103866
484.67950,0.02928402113
484.68000,-1.19149361
484.68050,-2.41227124
484.68100,-1.19149361
484.68150,0.02928402113
484.68200,-0.2759103866
484.68250,-2.41227124
484.68300,-3.633048871
484.68350,-3.022660056
484.68400,-1.801882425
484.68450,-1.19149361
484.68500,-1.496688017
484.68550,-2.717465648
484.68600,-3.327854464
484.68650,-2.717465648
484.68700,-1.496688017
484.68750,-1.801882425
484.68800,-3.938243279
484.68850,-5.464215317
484.68900,-4.243437687
484.68950,-1.801882425
484.69000,-0.886299202
484.69050,-1.801882425
484.69100,-2.107076833
484.69150,-0.886299202
484.69200,0.02928402113
484.69250,0.6396728365
484.69300,1.250061652
484.69350,2.470839283
484.69400,2.165644875
484.69450,0.3344784288
484.69500,-0.5811047943
484.69550,1.55525606
484.69600,5.52278336
484.69650,6.743560991
484.69700,5.217588952
484.69750,3.996811321
484.69800,4.302005729
484.69850,3.691616914
484.69900,1.250061652
484.69950,-0.886299202
484.70000,-2.107076833
484.70050,-2.717465648
484.70100,-3.938243279
484.70150,-4.243437687
484.70200,-3.633048871
484.70250,-3.327854464
484.70300,-3.938243279
484.70350,-4.853826502
484.70400,-4.853826502
484.70450,-4.243437687
484.70500,-3.327854464
484.70550,-1.801882425
484.70600,-0.5811047943
484.70650,-1.19149361
484.70700,-3.022660056
484.70750,-3.022660056
484.70800,0.02928402113
484.70850,3.996811321
484.70900,5.52278336
484.70950,3.996811321
484.71000,2.165644875
484.71050,1.250061652
484.71100,0.6396728365
484.71150,0.6396728365
484.71200,1.250061652
484.71250,1.55525606
484.71300,1.250061652
484.71350,1.860450467
484.71400,3.386422506
484.71450,4.302005729
484.71500,3.386422506
484.71550,1.55525606
484.71600,0.02928402113
484.71650,-0.5811047943
484.71700,-1.19149361
484.71750,-0.886299202
484.71800,0.6396728365
484.71850,3.386422506
484.71900,5.827977767
484.71950,6.743560991
484.72000,5.827977767
484.72050,3.081228098
484.72100,0.3344784288
484.72150,-0.886299202
484.72200,-0.886299202
484.72250,-1.19149361
484.72300,-2.41227124
484.72350,-3.327854464
484.72400,-3.327854464
484.72450,-3.327854464
484.72500,-3.633048871
484.72550,-4.853826502
484.72600,-5.769409725
484.72650,-6.379798541
484.72700,-5.464215317
484.72750,-3.633048871
484.72800,-1.801882425
484.72850,-0.886299202
484.72900,-0.5811047943
484.72950,-0.5811047943
484.73000,-1.19149361
484.73050,-2.107076833
484.73100,-2.107076833
484.73150,-0.5811047943
484.73200,1.55525606
484.73250,3.996811321
484.73300,5.217588952
484.73350,5.217588952
484.73400,4.607200137
484.73450,3.386422506
484.73500,3.081228098
484.73550,3.691616914
484.73600,3.996811321
484.73650,3.081228098
484.73700,2.165644875
484.73750,2.77603369
484.73800,3.691616914
484.73850,3.081228098
484.73900,1.55525606
484.73950,0.6396728365
484.74000,0.3344784288
484.74050,-1.19149361
484.74100,-3.327854464
484.74150,-3.633048871
484.74200,-2.107076833
484.74250,-1.19149361
484.74300,-2.41227124
484.74350,-4.853826502
484.74400,-6.379798541
484.74450,-5.464215317
484.74500,-3.633048871
484.74550,-2.107076833
484.74600,-2.107076833
484.74650,-3.022660056
484.74700,-3.633048871
484.74750,-3.022660056
484.74800,-2.41227124
484.74850,-2.41227124
484.74900,-2.41227124
484.74950,-1.496688017
484.75000,-0.886299202
484.75050,-1.801882425
484.75100,-1.496688017
484.75150,0.9448672442
484.75200,4.912394544
484.75250,6.743560991
484.75300,5.827977767
484.75350,3.996811321
484.75400,2.77603369
484.75450,2.77603369
484.75500,2.77603369
484.75550,2.470839283
484.75600,0.9448672442
484.75650,0.3344784288
484.75700,1.860450467
484.75750,4.302005729
484.75800,3.691616914
484.75850,0.02928402113
484.75900,-2.717465648
484.75950,-2.107076833
484.76000,-0.5811047943
484.76050,-0.886299202
484.76100,-2.41227124
484.76150,-2.107076833
484.76200,-0.886299202
484.76250,-1.496688017
484.76300,-4.853826502
484.76350,-7.295381764
484.76400,-7.295381764
484.76450,-6.379798541
484.76500,-6.990187356
484.76550,-7.295381764
484.76600,-6.074604133
484.76650,-4.243437687
484.76700,-3.633048871
484.76750,-3.022660056
484.76800,-1.496688017
484.76850,0.02928402113
484.76900,0.3344784288
484.76950,0.6396728365
484.77000,2.165644875
484.77050,4.607200137
484.77100,5.827977767
484.77150,4.912394544
484.77200,3.691616914
484.77250,3.386422506
484.77300,3.386422506
484.77350,2.470839283
484.77400,1.860450467
484.77450,2.165644875
484.77500,3.386422506
484.77550,4.302005729
484.77600,5.52278336
484.77650,7.659144214
484.77700,7.964338621
484.77750,5.52278336
484.77800,3.386422506
484.77850,3.691616914
484.77900,5.217588952
484.77950,3.691616914
484.78000,0.02928402113
484.78050,-2.107076833
484.78100,-1.19149361
484.78150,-0.886299202
484.78200,-3.938243279
484.78250,-7.295381764
484.78300,-7.600576171
484.78350,-4.853826502
484.78400,-2.41227124
484.78450,-1.19149361
484.78500,-0.5811047943
484.78550,-0.5811047943
484.78600,-0.5811047943
484.78650,-0.886299202
484.78700,-0.886299202
484.78750,-1.496688017
484.78800,-2.717465648
484.78850,-4.243437687
484.78900,-5.464215317
484.78950,-5.464215317
484.79000,-2.717465648
484.79050,2.77603369
484.79100,8.574727437
484.79150,11.32147711
484.79200,10.40589388
484.79250,7.964338621
484.79300,5.827977767
484.79350,3.691616914
484.79400,2.470839283
484.79450,3.691616914
484.79500,6.743560991
484.79550,7.659144214
484.79600,5.52278336
484.79650,2.470839283
484.79700,1.860450467
484.79750,2.165644875
484.79800,0.9448672442
484.79850,-0.886299202
484.79900,-1.801882425
484.79950,-2.107076833
484.80000,-3.327854464
484.80050,-5.15902091
484.80100,-5.769409725
484.80150,-4.243437687
484.80200,-2.107076833
484.80250,-0.5811047943
484.80300,0.6396728365
484.80350,1.55525606
484.80400,0.9448672442
484.80450,-0.886299202
484.80500,-2.717465648
484.80550,-3.022660056
484.80600,-2.107076833
484.80650,-1.801882425
484.80700,-1.801882425
484.80750,-1.19149361
484.80800,-0.2759103866
484.80850,-0.2759103866
484.80900,-0.5811047943
484.80950,-0.886299202
484.81000,-0.2759103866
484.81050,0.02928402113
484.81100,0.9448672442
484.81150,2.165644875
484.81200,3.081228098
484.81250,2.470839283
484.81300,0.9448672442
484.81350,0.3344784288
484.81400,1.250061652
484.81450,1.860450467
484.81500,2.165644875
484.81550,3.691616914
484.81600,6.133172175
484.81650,7.659144214
484.81700,6.743560991
484.81750,4.607200137
484.81800,3.081228098
484.81850,1.860450467
484.81900,0.6396728365
484.81950,-0.2759103866
484.82000,-0.5811047943
484.82050,-0.5811047943
484.82100,-0.2759103866
484.82150,0.6396728365
484.82200,3.386422506
484.82250,5.217588952
484.82300,3.996811321
484.82350,1.250061652
484.82400,0.02928402113
484.82450,0.3344784288
484.82500,1.250061652
484.82550,0.02928402113
484.82600,-2.41227124
484.82650,-5.464215317
484.82700,-7.600576171
484.82750,-8.516159395
484.82800,-7.905770579
484.82850,-6.074604133
484.82900,-3.938243279
484.82950,-2.41227124
484.83000,-1.496688017
484.83050,-0.5811047943
484.83100,0.02928402113
484.83150,0.02928402113
484.83200,0.02928402113
484.83250,0.3344784288
484.83300,0.6396728365
484.83350,0.6396728365
484.83400,0.6396728365
484.83450,0.02928402113
484.83500,-1.19149361
484.83550,-1.496688017
484.83600,0.02928402113
484.83650,2.470839283
484.83700,3.996811321
484.83750,2.77603369
484.83800,1.250061652
484.83850,0.6396728365
484.83900,0.6396728365
484.83950,-0.5811047943
484.84000,-2.717465648
484.84050,-3.633048871
484.84100,-3.633048871
484.84150,-4.243437687
484.84200,-5.769409725
484.84250,-6.990187356
484.84300,-6.990187356
484.84350,-6.074604133
484.84400,-5.15902091
484.84450,-3.022660056
484.84500,-0.5811047943
484.84550,0.6396728365
484.84600,0.02928402113
484.84650,-0.886299202
484.84700,-0.886299202
484.84750,-0.5811047943
484.84800,-1.801882425
484.84850,-3.938243279
484.84900,-4.243437687
484.84950,-2.107076833
484.85000,0.6396728365
484.85050,2.77603369
484.85100,3.386422506
484.85150,2.77603369
484.85200,1.55525606
484.85250,0.3344784288
484.85300,0.6396728365
484.85350,2.165644875
484.85400,3.081228098
484.85450,3.386422506
484.85500,4.302005729
484.85550,5.827977767
484.85600,5.827977767
484.85650,3.691616914
484.85700,1.250061652
484.85750,0.3344784288
484.85800,0.6396728365
484.85850,0.9448672442
484.85900,0.3344784288
484.85950,0.02928402113
484.86000,-0.5811047943
484.86050,-0.886299202
484.86100,-1.19149361
484.86150,-1.496688017
484.86200,-2.107076833
484.86250,-2.107076833
484.86300,-1.19149361
484.86350,-0.5811047943
484.86400,-2.107076833
484.86450,-4.548632094
484.86500,-5.769409725
484.86550,-5.15902091
484.86600,-4.853826502
484.86650,-4.853826502
484.86700,-3.633048871
484.86750,-1.496688017
484.86800,0.02928402113
484.86850,0.02928402113
484.86900,-0.5811047943
484.86950,-0.2759103866
484.87000,0.3344784288
484.87050,0.6396728365
484.87100,0.6396728365
484.87150,1.250061652
484.87200,2.470839283
484.87250,3.386422506
484.87300,2.77603369
484.87350,1.55525606
484.87400,0.6396728365
484.87450,0.9448672442
484.87500,2.470839283
484.87550,3.081228098
484.87600,1.860450467
484.87650,0.6396728365
484.87700,1.55525606
484.87750,3.996811321
484.87800,4.912394544
484.87850,3.081228098
484.87900,0.02928402113
484.87950,-1.19149361
484.88000,-0.2759103866
484.88050,0.3344784288
484.88100,-1.19149361
484.88150,-4.853826502
484.88200,-6.684992948
484.88250,-5.464215317
484.88300,-3.633048871
484.88350,-2.717465648
484.88400,-2.717465648
484.88450,-2.107076833
484.88500,-1.496688017
484.88550,-2.107076833
484.88600,-3.022660056
484.88650,-2.717465648
484.88700,-0.886299202
484.88750,0.02928402113
484.88800,0.02928402113
484.88850,-0.5811047943
484.88900,-0.2759103866
484.88950,0.6396728365
484.89000,1.860450467
484.89050,1.55525606
484.89100,0.02928402113
484.89150,0.02928402113
484.89200,2.165644875
484.89250,5.827977767
484.89300,6.743560991
484.89350,4.912394544
484.89400,2.77603369
484.89450,2.77603369
484.89500,2.77603369
484.89550,1.250061652
484.89600,0.3344784288
484.89650,1.860450467
484.89700,3.996811321
484.89750,3.996811321
484.89800,2.165644875
484.89850,0.9448672442
484.89900,0.9448672442
484.89950,0.3344784288
484.90000,0.02928402113
484.90050,0.3344784288
484.90100,0.6396728365
484.90150,-0.2759103866
484.90200,-2.717465648
484.90250,-3.633048871
484.90300,-2.41227124
484.90350,-0.5811047943
484.90400,0.02928402113
484.90450,0.6396728365
484.90500,0.9448672442
484.90550,-0.2759103866
484.90600,-1.801882425
484.90650,-1.801882425
484.90700,-0.2759103866
484.90750,-0.2759103866
484.90800,-3.633048871
484.90850,-6.990187356
484.90900,-6.379798541
484.90950,-2.107076833
484.91000,1.250061652
484.91050,2.77603369
484.91100,3.081228098
484.91150,3.996811321
484.91200,4.912394544
484.91250,4.607200137
484.91300,2.77603369
484.91350,0.9448672442
484.91400,0.3344784288
484.91450,1.250061652
484.91500,2.165644875
484.91550,2.165644875
484.91600,1.250061652
484.91650,0.3344784288
484.91700,0.6396728365
484.91750,1.55525606
484.91800,2.165644875
484.91850,2.77603369
484.91900,3.996811321
484.91950,4.607200137
484.92000,4.302005729
484.92050,2.77603369
484.92100,0.9448672442
484.92150,-0.2759103866
484.92200,-1.496688017
484.92250,-3.022660056
484.92300,-4.243437687
484.92350,-4.853826502
484.92400,-4.243437687
484.92450,-3.938243279
484.92500,-3.633048871
484.92550,-3.327854464
484.92600,-3.022660056
484.92650,-3.022660056
484.92700,-3.633048871
484.92750,-4.243437687
484.92800,-3.938243279
484.92850,-3.022660056
484.92900,-3.327854464
484.92950,-4.853826502
484.93000,-4.853826502
484.93050,-2.717465648
484.93100,-0.2759103866
484.93150,0.3344784288
484.93200,0.6396728365
484.93250,1.860450467
484.93300,3.386422506
484.93350,4.302005729
484.93400,4.302005729
484.93450,4.607200137
484.93500,5.827977767
484.93550,6.438366583
484.93600,5.217588952
484.93650,3.691616914
484.93700,2.470839283
484.93750,1.860450467
484.93800,1.860450467
484.93850,1.250061652
484.93900,0.02928402113
484.93950,-1.496688017
484.94000,-3.938243279
484.94050,-5.464215317
484.94100,-6.379798541
484.94150,-6.074604133
484.94200,-4.548632094
484.94250,-1.19149361
484.94300,1.55525606
484.94350,1.860450467
484.94400,0.02928402113
484.94450,-1.801882425
484.94500,-2.717465648
484.94550,-2.41227124
484.94600,-2.107076833
484.94650,-2.107076833
484.94700,-1.496688017
484.94750,-1.496688017
484.94800,-2.717465648
484.94850,-4.243437687
484.94900,-4.243437687
484.94950,-2.717465648
484.95000,-0.5811047943
484.95050,0.3344784288
484.95100,0.9448672442
484.95150,1.250061652
484.95200,3.081228098
484.95250,5.217588952
484.95300,6.743560991
484.95350,6.743560991
484.95400,6.743560991
484.95450,7.964338621
484.95500,9.185116252
484.95550,8.574727437
484.95600,6.133172175
484.95650,4.607200137
484.95700,4.607200137
484.95750,3.691616914
484.95800,0.9448672442
484.95850,-0.5811047943
484.95900,0.6396728365
484.95950,2.77603369
484.96000,3.081228098
484.96050,0.9448672442
484.96100,0.02928402113
484.96150,0.3344784288
484.96200,0.02928402113
484.96250,-1.801882425
484.96300,-3.633048871
484.96350,-4.548632094
484.96400,-5.769409725
484.96450,-6.379798541
484.96500,-5.15902091
484.96550,-2.41227124
484.96600,-1.19149361
484.96650,-2.107076833
484.96700,-3.633048871
484.96750,-3.938243279
484.96800,-2.717465648
484.96850,-1.19149361
484.96900,0.02928402113
484.96950,1.250061652
484.97000,0.9448672442
484.97050,-0.5811047943
484.97100,-2.107076833
484.97150,-2.107076833
484.97200,-0.886299202
484.97250,0.02928402113
484.97300,0.6396728365
484.97350,1.55525606
484.97400,3.386422506
484.97450,5.827977767
484.97500,7.048755398
484.97550,6.133172175
484.97600,4.302005729
484.97650,3.386422506
484.97700,3.386422506
484.97750,3.081228098
484.97800,2.165644875
484.97850,0.9448672442
484.97900,0.02928402113
484.97950,0.02928402113
484.98000,0.02928402113
484.98050,0.02928402113
484.98100,-0.2759103866
484.98150,-1.496688017
484.98200,-3.022660056
484.98250,-3.022660056
484.98300,-1.496688017
484.98350,0.02928402113
484.98400,0.02928402113
484.98450,-0.2759103866
484.98500,-1.801882425
484.98550,-2.717465648
484.98600,-2.717465648
484.98650,-2.107076833
484.98700,-2.107076833
484.98750,-3.022660056
484.98800,-3.938243279
484.98850,-4.548632094
484.98900,-4.243437687
484.98950,-3.633048871
484.99000,-3.022660056
484.99050,-1.496688017
484.99100,0.02928402113
484.99150,1.860450467
484.99200,2.470839283
484.99250,0.9448672442
484.99300,-0.886299202
484.99350,-1.19149361
484.99400,0.3344784288
484.99450,2.77603369
484.99500,4.607200137
484.99550,6.438366583
484.99600,8.574727437
484.99650,9.795505068
484.99700,8.574727437
484.99750,6.133172175
484.99800,4.607200137
484.99850,4.302005729
484.99900,3.081228098
484.99950,1.250061652
485.00000,0.9448672442
485.00050,3.386422506
485.00100,5.52278336
485.00150,4.607200137
485.00200,1.860450467
485.00250,0.3344784288
485.00300,0.3344784288
485.00350,-0.5811047943
485.00400,-3.633048871
485.00450,-5.464215317
485.00500,-5.15902091
485.00550,-5.464215317
485.00600,-8.210964987
485.00650,-10.95771466
485.00700,-10.65252025
485.00750,-7.600576171
485.00800,-4.853826502
485.00850,-4.243437687
485.00900,-3.633048871
485.00950,-1.496688017
485.01000,0.6396728365
485.01050,0.9448672442
485.01100,-0.5811047943
485.01150,-2.41227124
485.01200,-1.801882425
485.01250,0.6396728365
485.01300,3.081228098
485.01350,3.996811321
485.01400,3.996811321
485.01450,4.607200137
485.01500,5.52278336
485.01550,5.217588952
485.01600,3.386422506
485.01650,1.55525606
485.01700,1.250061652
485.01750,1.55525606
485.01800,1.250061652
485.01850,0.6396728365
485.01900,0.6396728365
485.01950,0.6396728365
485.02000,0.02928402113
485.02050,-1.19149361
485.02100,-2.107076833
485.02150,-2.41227124
485.02200,-3.022660056
485.02250,-4.548632094
485.02300,-5.464215317
485.02350,-5.15902091
485.02400,-4.548632094
485.02450,-5.15902091
485.02500,-5.769409725
485.02550,-6.074604133
485.02600,-6.074604133
485.02650,-6.990187356
485.02700,-7.905770579
485.02750,-7.905770579
485.02800,-5.464215317
485.02850,-2.717465648
485.02900,-0.886299202
485.02950,0.02928402113
485.03000,1.55525606
485.03050,2.77603369
485.03100,2.470839283
485.03150,2.165644875
485.03200,4.302005729
485.03250,7.048755398
485.03300,7.048755398
485.03350,5.52278336
485.03400,5.52278336
485.03450,7.659144214
485.03500,7.964338621
485.03550,4.302005729
485.03600,0.9448672442
485.03650,0.6396728365
485.03700,1.55525606
485.03750,0.3344784288
485.03800,-1.496688017
485.03850,-0.886299202
485.03900,1.55525606
485.03950,3.386422506
485.04000,3.691616914
485.04050,3.386422506
485.04100,2.165644875
485.04150,0.02928402113
485.04200,-2.41227124
485.04250,-3.327854464
485.04300,-2.41227124
485.04350,-2.717465648
485.04400,-3.938243279
485.04450,-4.548632094
485.04500,-3.938243279
485.04550,-3.327854464
485.04600,-2.41227124
485.04650,-2.107076833
485.04700,-1.801882425
485.04750,-2.107076833
485.04800,-2.717465648
485.04850,-2.41227124
485.04900,-1.19149361
485.04950,-0.886299202
485.05000,-0.5811047943
485.05050,-0.2759103866
485.05100,0.6396728365
485.05150,1.250061652
485.05200,1.55525606
485.05250,1.860450467
485.05300,2.77603369
485.05350,3.081228098
485.05400,2.77603369
485.05450,2.77603369
485.05500,2.77603369
485.05550,3.081228098
485.05600,3.386422506
485.05650,3.996811321
485.05700,4.607200137
485.05750,3.386422506
485.05800,0.6396728365
485.05850,-0.886299202
485.05900,-1.19149361
485.05950,-0.5811047943
485.06000,-1.19149361
485.06050,-3.022660056
485.06100,-4.243437687
485.06150,-3.938243279
485.06200,-3.938243279
485.06250,-5.464215317
485.06300,-6.684992948
485.06350,-6.074604133
485.06400,-3.633048871
485.06450,-1.801882425
485.06500,-2.107076833
485.06550,-3.022660056
485.06600,-3.327854464
485.06650,-3.327854464
485.06700,-3.022660056
485.06750,-1.496688017
485.06800,0.9448672442
485.06850,2.470839283
485.06900,2.165644875
485.06950,1.250061652
485.07000,1.55525606
485.07050,2.165644875
485.07100,0.9448672442
485.07150,0.02928402113
485.07200,1.250061652
485.07250,2.77603369
485.07300,2.77603369
485.07350,1.860450467
485.07400,2.470839283
485.07450,3.386422506
485.07500,1.860450467
485.07550,0.02928402113
485.07600,0.9448672442
485.07650,5.52278336
485.07700,7.353949806
485.07750,4.302005729
485.07800,1.250061652
485.07850,1.860450467
485.07900,3.996811321
485.07950,2.470839283
485.08000,-1.19149361
485.08050,-2.717465648
485.08100,-0.2759103866
485.08150,1.55525606
485.08200,0.3344784288
485.08250,-2.41227124
485.08300,-3.938243279
485.08350,-3.938243279
485.08400,-4.243437687
485.08450,-4.853826502
485.08500,-5.464215317
485.08550,-5.769409725
485.08600,-4.548632094
485.08650,-1.801882425
485.08700,0.3344784288
485.08750,0.3344784288
485.08800,-2.107076833
485.08850,-3.938243279
485.08900,-2.717465648
485.08950,0.02928402113
485.09000,0.6396728365
485.09050,0.02928402113
485.09100,-0.5811047943
485.09150,0.6396728365
485.09200,2.165644875
485.09250,2.77603369
485.09300,1.860450467
485.09350,1.860450467
485.09400,3.691616914
485.09450,6.133172175
485.09500,7.048755398
485.09550,5.217588952
485.09600,3.386422506
485.09650,3.691616914
485.09700,4.912394544
485.09750,5.217588952
485.09800,4.302005729
485.09850,3.691616914
485.09900,3.386422506
485.09950,1.250061652
485.10000,-1.801882425
485.10050,-3.938243279
485.10100,-3.938243279
485.10150,-3.633048871
485.10200,-4.548632094
485.10250,-5.464215317
485.10300,-5.15902091
485.10350,-5.15902091
485.10400,-5.464215317
485.10450,-4.853826502
485.10500,-3.022660056
485.10550,-2.107076833
485.10600,-3.022660056
485.10650,-4.548632094
485.10700,-3.938243279
485.10750,-2.41227124
485.10800,-2.107076833
485.10850,-2.41227124
485.10900,-1.801882425
485.10950,-0.2759103866
485.11000,0.6396728365
485.11050,0.6396728365
485.11100,0.02928402113
485.11150,0.02928402113
485.11200,0.3344784288
485.11250,2.165644875
485.11300,3.996811321
485.11350,4.607200137
485.11400,3.386422506
485.11450,2.77603369
485.11500,4.607200137
485.11550,6.438366583
485.11600,6.743560991
485.11650,5.52278336
485.11700,4.912394544
485.11750,5.52278336
485.11800,5.52278336
485.11850,3.691616914
485.11900,1.55525606
485.11950,0.02928402113
485.12000,-0.2759103866
485.12050,-0.5811047943
485.12100,-0.886299202
485.12150,-0.5811047943
485.12200,0.3344784288
485.12250,1.860450467
485.12300,2.165644875
485.12350,0.3344784288
485.12400,-2.107076833
485.12450,-4.548632094
485.12500,-5.769409725
485.12550,-5.769409725
485.12600,-5.15902091
485.12650,-5.15902091
485.12700,-5.15902091
485.12750,-3.633048871
485.12800,-1.19149361
485.12850,0.6396728365
485.12900,0.6396728365
485.12950,-0.886299202
485.13000,-1.19149361
485.13050,0.02928402113
485.13100,1.250061652
485.13150,0.3344784288
485.13200,-1.19149361
485.13250,-0.886299202
485.13300,1.250061652
485.13350,3.081228098
485.13400,2.77603369
485.13450,2.470839283
485.13500,3.996811321
485.13550,6.743560991
485.13600,8.269533029
485.13650,6.743560991
485.13700,3.691616914
485.13750,1.250061652
485.13800,0.6396728365
485.13850,1.860450467
485.13900,3.691616914
485.13950,4.302005729
485.14000,3.386422506
485.14050,1.55525606
485.14100,0.6396728365
485.14150,0.02928402113
485.14200,-0.886299202
485.14250,-3.022660056
485.14300,-4.548632094
485.14350,-5.464215317
485.14400,-5.769409725
485.14450,-6.379798541
485.14500,-6.379798541
485.14550,-4.853826502
485.14600,-1.801882425
485.14650,0.02928402113
485.14700,0.3344784288
485.14750,-0.2759103866
485.14800,-0.5811047943
485.14850,0.02928402113
485.14900,0.9448672442
485.14950,0.9448672442
485.15000,0.02928402113
485.15050,-1.19149361
485.15100,-1.19149361
485.15150,-0.5811047943
485.15200,0.3344784288
485.15250,2.165644875
485.15300,3.996811321
485.15350,4.302005729
485.15400,3.081228098
485.15450,1.55525606
485.15500,1.860450467
485.15550,3.081228098
485.15600,3.081228098
485.15650,1.860450467
485.15700,1.55525606
485.15750,2.77603369
485.15800,4.607200137
485.15850,4.912394544
485.15900,4.607200137
485.15950,3.996811321
485.16000,2.77603369
485.16050,0.6396728365
485.16100,-1.19149361
485.16150,-2.107076833
485.16200,-2.41227124
485.16250,-4.243437687
485.16300,-6.990187356
485.16350,-8.210964987
485.16400,-6.684992948
485.16450,-4.853826502
485.16500,-4.548632094
485.16550,-5.15902091
485.16600,-4.853826502
485.16650,-3.938243279
485.16700,-3.327854464
485.16750,-2.717465648
485.16800,-1.496688017
485.16850,0.02928402113
485.16900,0.3344784288
485.16950,0.02928402113
485.17000,-1.496688017
485.17050,-2.717465648
485.17100,-3.327854464
485.17150,-2.41227124
485.17200,0.3344784288
485.17250,3.996811321
485.17300,6.438366583
485.17350,7.353949806
485.17400,7.353949806
485.17450,6.133172175
485.17500,3.691616914
485.17550,1.250061652
485.17600,1.250061652
485.17650,3.386422506
485.17700,4.912394544
485.17750,3.386422506
485.17800,1.250061652
485.17850,1.860450467
485.17900,4.302005729
485.17950,4.912394544
485.18000,2.470839283
485.18050,-0.2759103866
485.18100,-1.19149361
485.18150,-1.19149361
485.18200,-2.107076833
485.18250,-3.022660056
485.18300,-3.327854464
485.18350,-3.938243279
485.18400,-5.464215317
485.18450,-6.684992948
485.18500,-6.379798541
485.18550,-5.15902091
485.18600,-4.853826502
485.18650,-4.548632094
485.18700,-3.938243279
485.18750,-4.853826502
485.18800,-8.516159395
485.18850,-11.56810347
485.18900,-9.12654821
485.18950,-0.886299202
485.19000,6.133172175
485.19050,8.269533029
485.19100,7.353949806
485.19150,6.743560991
485.19200,6.133172175
485.19250,4.607200137
485.19300,2.165644875
485.19350,1.250061652
485.19400,1.55525606
485.19450,1.250061652
485.19500,0.6396728365
485.19550,0.3344784288
485.19600,1.250061652
485.19650,2.165644875
485.19700,2.470839283
485.19750,3.081228098
485.19800,4.302005729
485.19850,5.217588952
485.19900,4.912394544
485.19950,3.386422506
485.20000,2.165644875
485.20050,1.55525606
485.20100,2.165644875
485.20150,2.77603369
485.20200,2.470839283
485.20250,0.6396728365
485.20300,-1.801882425
485.20350,-4.853826502
485.20400,-6.379798541
485.20450,-6.074604133
485.20500,-4.853826502
485.20550,-4.548632094
485.20600,-4.853826502
485.20650,-4.243437687
485.20700,-3.633048871
485.20750,-4.853826502
485.20800,-6.684992948
485.20850,-6.074604133
485.20900,-3.327854464
485.20950,-0.5811047943
485.21000,0.02928402113
485.21050,-0.5811047943
485.21100,-0.2759103866
485.21150,0.3344784288
485.21200,0.6396728365
485.21250,0.3344784288
485.21300,1.250061652
485.21350,2.77603369
485.21400,3.996811321
485.21450,3.691616914
485.21500,3.691616914
485.21550,3.996811321
485.21600,4.607200137
485.21650,4.912394544
485.21700,4.912394544
485.21750,5.217588952
485.21800,5.827977767
485.21850,5.827977767
485.21900,3.996811321
485.21950,0.9448672442
485.22000,-1.496688017
485.22050,-1.496688017
485.22100,-0.2759103866
485.22150,0.02928402113
485.22200,-1.19149361
485.22250,-3.633048871
485.22300,-5.464215317
485.22350,-6.074604133
485.22400,-5.769409725
485.22450,-3.938243279
485.22500,-2.107076833
485.22550,-1.19149361
485.22600,-1.19149361
485.22650,-0.886299202
485.22700,-0.886299202
485.22750,-1.496688017
485.22800,-1.496688017
485.22850,-0.886299202
485.22900,-0.886299202
485.22950,-2.107076833
485.23000,-3.327854464
485.23050,-2.41227124
485.23100,0.02928402113
485.23150,1.55525606
485.23200,1.55525606
485.23250,1.55525606
485.23300,2.165644875
485.23350,2.470839283
485.23400,2.165644875
485.23450,2.470839283
485.23500,3.386422506
485.23550,3.691616914
485.23600,3.996811321
485.23650,4.607200137
485.23700,5.827977767
485.23750,5.217588952
485.23800,3.081228098
485.23850,1.55525606
485.23900,1.55525606
485.23950,1.860450467
485.24000,0.6396728365
485.24050,0.02928402113
485.24100,0.02928402113
485.24150,0.02928402113
485.24200,-0.886299202
485.24250,-3.327854464
485.24300,-4.853826502
485.24350,-4.853826502
485.24400,-3.938243279
485.24450,-3.022660056
485.24500,-3.022660056
485.24550,-3.633048871
485.24600,-4.853826502
485.24650,-5.769409725
485.24700,-5.15902091
485.24750,-3.022660056
485.24800,0.02928402113
485.24850,1.250061652
485.24900,0.3344784288
485.24950,-1.19149361
485.25000,-0.5811047943
485.25050,1.55525606
485.25100,2.470839283
485.25150,0.6396728365
485.25200,-0.886299202
485.25250,0.02928402113
485.25300,1.55525606
485.25350,0.9448672442
485.25400,-0.2759103866
485.25450,0.02928402113
485.25500,2.165644875
485.25550,1.55525606
485.25600,0.02928402113
485.25650,0.02928402113
485.25700,1.860450467
485.25750,2.470839283
485.25800,0.6396728365
485.25850,0.02928402113
485.25900,1.55525606
485.25950,2.77603369
485.26000,1.55525606
485.26050,0.3344784288
485.26100,0.9448672442
485.26150,1.250061652
485.26200,0.02928402113
485.26250,-0.5811047943
485.26300,0.02928402113
485.26350,-0.5811047943
485.26400,-2.717465648
485.26450,-4.243437687
485.26500,-2.717465648
485.26550,0.02928402113
485.26600,0.9448672442
485.26650,0.02928402113
485.26700,-0.2759103866
485.26750,-0.886299202
485.26800,-1.19149361
485.26850,-1.496688017
485.26900,-2.717465648
485.26950,-4.243437687
485.27000,-3.633048871
485.27050,0.02928402113
485.27100,3.996811321
485.27150,4.607200137
485.27200,1.860450467
485.27250,0.3344784288
485.27300,2.165644875
485.27350,3.996811321
485.27400,3.691616914
485.27450,2.77603369
485.27500,2.470839283
485.27550,2.165644875
485.27600,0.9448672442
485.27650,1.250061652
485.27700,3.691616914
485.27750,5.217588952
485.27800,3.386422506
485.27850,0.3344784288
485.27900,-0.2759103866
485.27950,0.02928402113
485.28000,-0.5811047943
485.28050,-2.41227124
485.28100,-3.327854464
485.28150,-1.19149361
485.28200,2.165644875
485.28250,4.912394544
485.28300,5.217588952
485.28350,2.77603369
485.28400,-0.2759103866
485.28450,-3.022660056
485.28500,-4.243437687
485.28550,-4.243437687
485.28600,-4.548632094
485.28650,-4.853826502
485.28700,-5.464215317
485.28750,-5.769409725
485.28800,-4.853826502
485.28850,-3.327854464
485.28900,-1.496688017
485.28950,0.02928402113
485.29000,1.55525606
485.29050,1.860450467
485.29100,0.6396728365
485.29150,-0.5811047943
485.29200,0.9448672442
485.29250,5.52278336
485.29300,9.49031066
485.29350,10.10069948
485.29400,8.574727437
485.29450,7.659144214
485.29500,8.269533029
485.29550,8.879921844
485.29600,7.964338621
485.29650,6.133172175
485.29700,3.691616914
485.29750,0.6396728365
485.29800,-1.496688017
485.29850,-1.496688017
485.29900,0.02928402113
485.29950,0.6396728365
485.30000,-0.2759103866
485.30050,-1.801882425
485.30100,-2.107076833
485.30150,-1.496688017
485.30200,-2.41227124
485.30250,-4.853826502
485.30300,-6.684992948
485.30350,-7.295381764
485.30400,-6.684992948
485.30450,-5.464215317
485.30500,-3.938243279
485.30550,-2.107076833
485.30600,-0.2759103866
485.30650,0.6396728365
485.30700,0.9448672442
485.30750,0.3344784288
485.30800,-0.5811047943
485.30850,-1.19149361
485.30900,-1.19149361
485.30950,-1.801882425
485.31000,-2.41227124
485.31050,-2.107076833
485.31100,-1.496688017
485.31150,-1.496688017
485.31200,-2.107076833
485.31250,-2.107076833
485.31300,0.02928402113
485.31350,1.55525606
485.31400,2.470839283
485.31450,2.470839283
485.31500,3.081228098
485.31550,3.386422506
485.31600,2.470839283
485.31650,1.250061652
485.31700,1.55525606
485.31750,3.386422506
485.31800,3.386422506
485.31850,1.250061652
485.31900,-0.2759103866
485.31950,0.02928402113
485.32000,2.165644875
485.32050,3.081228098
485.32100,2.165644875
485.32150,0.02928402113
485.32200,-1.19149361
485.32250,-1.19149361
485.32300,-0.5811047943
485.32350,-0.5811047943
485.32400,-3.022660056
485.32450,-6.074604133
485.32500,-7.600576171
485.32550,-6.684992948
485.32600,-5.464215317
485.32650,-5.464215317
485.32700,-6.074604133
485.32750,-6.684992948
485.32800,-6.684992948
485.32850,-6.074604133
485.32900,-4.548632094
485.32950,-2.107076833
485.33000,-0.2759103866
485.33050,-0.886299202
485.33100,-2.107076833
485.33150,-1.801882425
485.33200,0.02928402113
485.33250,1.250061652
485.33300,1.860450467
485.33350,2.77603369
485.33400,4.302005729
485.33450,3.996811321
485.33500,1.860450467
485.33550,-0.2759103866
485.33600,0.02928402113
485.33650,1.250061652
485.33700,2.470839283
485.33750,1.860450467
485.33800,0.9448672442
485.33850,0.6396728365
485.33900,0.6396728365
485.33950,0.02928402113
485.34000,-0.5811047943
485.34050,-0.5811047943
485.34100,0.02928402113
485.34150,0.6396728365
485.34200,-0.2759103866
485.34250,-3.022660056
485.34300,-4.853826502
485.34350,-4.853826502
485.34400,-4.243437687
485.34450,-4.243437687
485.34500,-4.548632094
485.34550,-3.633048871
485.34600,-1.19149361
485.34650,0.3344784288
485.34700,0.02928402113
485.34750,-0.886299202
485.34800,-1.801882425
485.34850,-3.022660056
485.34900,-3.633048871
485.34950,-3.633048871
485.35000,-2.41227124
485.35050,-1.496688017
485.35100,-1.801882425
485.35150,-1.496688017
485.35200,0.9448672442
485.35250,4.912394544
485.35300,7.964338621
485.35350,7.964338621
485.35400,6.133172175
485.35450,4.302005729
485.35500,3.081228098
485.35550,2.77603369
485.35600,3.386422506
485.35650,3.691616914
485.35700,3.691616914
485.35750,2.77603369
485.35800,1.55525606
485.35850,1.55525606
485.35900,1.860450467
485.35950,0.9448672442
485.36000,-0.2759103866
485.36050,-1.496688017
485.36100,-1.19149361
485.36150,0.02928402113
485.36200,0.3344784288
485.36250,-0.5811047943
485.36300,-1.496688017
485.36350,-0.5811047943
485.36400,2.165644875
485.36450,4.302005729
485.36500,3.081228098
485.36550,0.02928402113
485.36600,-1.19149361
485.36650,-0.5811047943
485.36700,-0.2759103866
485.36750,-1.19149361
485.36800,-1.496688017
485.36850,0.02928402113
485.36900,0.9448672442
485.36950,0.02928402113
485.37000,-1.801882425
485.37050,-1.801882425
485.37100,-0.2759103866
485.37150,0.6396728365
485.37200,0.9448672442
485.37250,2.165644875
485.37300,3.691616914
485.37350,4.302005729
485.37400,3.691616914
485.37450,2.165644875
485.37500,0.9448672442
485.37550,-0.2759103866
485.37600,-0.2759103866
485.37650,1.55525606
485.37700,3.691616914
485.37750,2.470839283
485.37800,-0.5811047943
485.37850,-0.886299202
485.37900,2.470839283
485.37950,5.52278336
485.38000,3.996811321
485.38050,0.6396728365
485.38100,0.02928402113
485.38150,0.3344784288
485.38200,-0.5811047943
485.38250,-3.022660056
485.38300,-3.938243279
485.38350,-3.022660056
485.38400,-2.717465648
485.38450,-3.633048871
485.38500,-4.853826502
485.38550,-5.15902091
485.38600,-5.15902091
485.38650,-5.15902091
485.38700,-4.853826502
485.38750,-4.243437687
485.38800,-4.548632094
485.38850,-4.243437687
485.38900,-2.41227124
485.38950,0.02928402113
485.39000,0.02928402113
485.39050,-1.801882425
485.39100,-2.107076833
485.39150,0.6396728365
485.39200,3.996811321
485.39250,3.996811321
485.39300,3.386422506
485.39350,4.607200137
485.39400,7.353949806
485.39450,7.659144214
485.39500,5.827977767
485.39550,3.996811321
485.39600,4.302005729
485.39650,5.217588952
485.39700,4.607200137
485.39750,3.081228098
485.39800,1.250061652
485.39850,-0.2759103866
485.39900,-1.19149361
485.39950,-0.886299202
485.40000,-0.2759103866
485.40050,0.02928402113
485.40100,-0.5811047943
485.40150,-1.496688017
485.40200,-2.717465648
485.40250,-3.022660056
485.40300,-1.801882425
485.40350,0.6396728365
485.40400,3.081228098
485.40450,2.77603369
485.40500,0.6396728365
485.40550,-0.5811047943
485.40600,-0.886299202
485.40650,-1.19149361
485.40700,-2.41227124
485.40750,-3.633048871
485.40800,-3.327854464
485.40850,-2.41227124
485.40900,-1.801882425
485.40950,-1.496688017
485.41000,-0.886299202
485.41050,0.02928402113
485.41100,0.02928402113
485.41150,0.6396728365
485.41200,1.250061652
485.41250,1.250061652
485.41300,0.6396728365
485.41350,0.6396728365
485.41400,2.470839283
485.41450,5.52278336
485.41500,7.659144214
485.41550,8.574727437
485.41600,7.964338621
485.41650,6.743560991
485.41700,4.912394544
485.41750,3.081228098
485.41800,0.9448672442
485.41850,-0.886299202
485.41900,-2.107076833
485.41950,-1.801882425
485.42000,-1.19149361
485.42050,-0.886299202
485.42100,-1.801882425
485.42150,-2.41227124
485.42200,-2.107076833
485.42250,-1.496688017
485.42300,-1.19149361
485.42350,-2.107076833
485.42400,-3.022660056
485.42450,-3.327854464
485.42500,-3.022660056
485.42550,-3.633048871
485.42600,-5.769409725
485.42650,-6.074604133
485.42700,-3.938243279
485.42750,-0.886299202
485.42800,0.02928402113
485.42850,0.02928402113
485.42900,1.250061652
485.42950,3.691616914
485.43000,3.386422506
485.43050,0.02928402113
485.43100,-2.107076833
485.43150,-0.2759103866
485.43200,3.386422506
485.43250,4.302005729
485.43300,3.081228098
485.43350,2.165644875
485.43400,2.77603369
485.43450,3.996811321
485.43500,6.133172175
485.43550,8.269533029
485.43600,8.879921844
485.43650,6.438366583
485.43700,3.996811321
485.43750,3.996811321
485.43800,5.217588952
485.43850,3.996811321
485.43900,1.250061652
485.43950,0.02928402113
485.44000,0.02928402113
485.44050,-0.886299202
485.44100,-2.107076833
485.44150,-2.107076833
485.44200,-0.5811047943
485.44250,-1.496688017
485.44300,-4.853826502
485.44350,-6.379798541
485.44400,-5.15902091
485.44450,-3.327854464
485.44500,-3.633048871
485.44550,-4.853826502
485.44600,-5.15902091
485.44650,-5.15902091
485.44700,-5.15902091
485.44750,-4.243437687
485.44800,-1.19149361
485.44850,0.9448672442
485.44900,0.02928402113
485.44950,-1.496688017
485.45000,-1.19149361
485.45050,0.02928402113
485.45100,-1.19149361
485.45150,-3.938243279
485.45200,-5.15902091
485.45250,-3.022660056
485.45300,0.02928402113
485.45350,2.165644875
485.45400,3.996811321
485.45450,5.52278336
485.45500,6.133172175
485.45550,4.607200137
485.45600,2.77603369
485.45650,2.470839283
485.45700,2.77603369
485.45750,2.165644875
485.45800,1.250061652
485.45850,1.55525606
485.45900,1.860450467
485.45950,0.9448672442
485.46000,0.02928402113
485.46050,0.02928402113
485.46100,0.02928402113
485.46150,-1.19149361
485.46200,-2.717465648
485.46250,-3.022660056
485.46300,-2.41227124
485.46350,-2.41227124
485.46400,-3.327854464
485.46450,-4.243437687
485.46500,-3.938243279
485.46550,-4.548632094
485.46600,-5.769409725
485.46650,-5.769409725
485.46700,-3.633048871
485.46750,-1.19149361
485.46800,0.02928402113
485.46850,0.6396728365
485.46900,1.860450467
485.46950,2.470839283
485.47000,1.250061652
485.47050,0.3344784288
485.47100,0.6396728365
485.47150,0.9448672442
485.47200,-0.2759103866
485.47250,-2.41227124
485.47300,-2.107076833
485.47350,0.02928402113
485.47400,0.9448672442
485.47450,0.02928402113
485.47500,-0.2759103866
485.47550,1.250061652
485.47600,3.996811321
485.47650,5.52278336
485.47700,6.133172175
485.47750,6.133172175
485.47800,4.912394544
485.47850,2.165644875
485.47900,0.02928402113
485.47950,-0.2759103866
485.48000,0.9448672442
485.48050,0.9448672442
485.48100,-1.19149361
485.48150,-3.633048871
485.48200,-4.548632094
485.48250,-3.022660056
485.48300,-0.886299202
485.48350,0.02928402113
485.48400,-1.496688017
485.48450,-4.243437687
485.48500,-5.769409725
485.48550,-5.464215317
485.48600,-3.938243279
485.48650,-3.938243279
485.48700,-4.243437687
485.48750,-4.243437687
485.48800,-3.633048871
485.48850,-3.938243279
485.48900,-3.938243279
485.48950,-1.801882425
485.49000,1.250061652
485.49050,2.165644875
485.49100,0.6396728365
485.49150,-1.19149361
485.49200,-1.19149361
485.49250,-0.5811047943
485.49300,0.02928402113
485.49350,0.3344784288
485.49400,1.55525606
485.49450,2.77603369
485.49500,3.386422506
485.49550,4.912394544
485.49600,6.743560991
485.49650,7.048755398
485.49700,4.912394544
485.49750,2.470839283
485.49800,1.250061652
485.49850,1.250061652
485.49900,0.6396728365
485.49950,-0.5811047943
485.50000,-1.496688017
485.50050,-1.496688017
485.50100,-2.107076833
485.50150,-2.717465648
485.50200,-1.801882425
485.50250,0.3344784288
485.50300,1.860450467
485.50350,0.9448672442
485.50400,-0.886299202
485.50450,-2.717465648
485.50500,-3.938243279
485.50550,-4.548632094
485.50600,-3.938243279
485.50650,-1.496688017
485.50700,0.02928402113
485.50750,-1.496688017
485.50800,-4.853826502
485.50850,-6.990187356
485.50900,-5.464215317
485.50950,-1.801882425
485.51000,1.250061652
485.51050,3.081228098
485.51100,3.081228098
485.51150,2.470839283
485.51200,2.165644875
485.51250,2.77603369
485.51300,3.386422506
485.51350,3.081228098
485.51400,2.470839283
485.51450,2.470839283
485.51500,3.081228098
485.51550,2.470839283
485.51600,1.250061652
485.51650,1.250061652
485.51700,2.470839283
485.51750,3.996811321
485.51800,3.691616914
485.51850,2.77603369
485.51900,2.165644875
485.51950,0.9448672442
485.52000,-0.886299202
485.52050,-2.41227124
485.52100,-2.717465648
485.52150,-2.107076833
485.52200,-2.107076833
485.52250,-2.717465648
485.52300,-2.107076833
485.52350,-0.886299202
485.52400,-0.886299202
485.52450,-2.107076833
485.52500,-1.496688017
485.52550,0.3344784288
485.52600,2.165644875
485.52650,1.860450467
485.52700,1.250061652
485.52750,2.165644875
485.52800,2.77603369
485.52850,0.6396728365
485.52900,-3.022660056
485.52950,-3.938243279
485.53000,-0.886299202
485.53050,2.165644875
485.53100,3.081228098
485.53150,2.470839283
485.53200,2.470839283
485.53250,3.386422506
485.53300,4.607200137
485.53350,5.52278336
485.53400,5.217588952
485.53450,3.081228098
485.53500,1.250061652
485.53550,1.55525606
485.53600,3.996811321
485.53650,4.607200137
485.53700,3.386422506
485.53750,2.77603369
485.53800,3.996811321
485.53850,4.302005729
485.53900,1.55525606
485.53950,-0.886299202
485.54000,-1.801882425
485.54050,-2.41227124
485.54100,-4.548632094
485.54150,-5.464215317
485.54200,-2.107076833
485.54250,2.165644875
485.54300,3.081228098
485.54350,0.3344784288
485.54400,-1.19149361
485.54450,-0.886299202
485.54500,-0.886299202
485.54550,-3.327854464
485.54600,-4.548632094
485.54650,-2.717465648
485.54700,-0.886299202
485.54750,-1.801882425
485.54800,-3.327854464
485.54850,-3.327854464
485.54900,-2.41227124
485.54950,-3.022660056
485.55000,-5.15902091
485.55050,-5.464215317
485.55100,-3.327854464
485.55150,-0.2759103866
485.55200,1.55525606
485.55250,1.860450467
485.55300,0.9448672442
485.55350,0.6396728365
485.55400,1.860450467
485.55450,3.386422506
485.55500,3.691616914
485.55550,3.386422506
485.55600,3.996811321
485.55650,4.912394544
485.55700,3.996811321
485.55750,1.55525606
485.55800,0.02928402113
485.55850,1.250061652
485.55900,2.470839283
485.55950,0.6396728365
485.56000,-1.496688017
485.56050,-1.801882425
485.56100,0.02928402113
485.56150,1.55525606
485.56200,0.3344784288
485.56250,-1.496688017
485.56300,-3.022660056
485.56350,-3.327854464
485.56400,-3.633048871
485.56450,-3.633048871
485.56500,-2.41227124
485.56550,-0.886299202
485.56600,-0.2759103866
485.56650,-2.107076833
485.56700,-3.938243279
485.56750,-4.548632094
485.56800,-3.938243279
485.56850,-4.243437687
485.56900,-5.464215317
485.56950,-4.243437687
485.57000,-0.2759103866
485.57050,1.860450467
485.57100,0.3344784288
485.57150,-1.801882425
485.57200,-0.5811047943
485.57250,3.386422506
485.57300,5.52278336
485.57350,3.691616914
485.57400,1.860450467
485.57450,2.77603369
485.57500,4.912394544
485.57550,6.133172175
485.57600,5.827977767
485.57650,3.996811321
485.57700,1.55525606
485.57750,-0.886299202
485.57800,-1.496688017
485.57850,-0.5811047943
485.57900,0.02928402113
485.57950,0.6396728365
485.58000,1.250061652
485.58050,2.470839283
485.58100,2.470839283
485.58150,0.6396728365
485.58200,-1.496688017
485.58250,-2.717465648
485.58300,-3.022660056
485.58350,-3.327854464
485.58400,-3.938243279
485.58450,-3.938243279
485.58500,-3.633048871
485.58550,-3.633048871
485.58600,-3.938243279
485.58650,-3.327854464
485.58700,-2.41227124
485.58750,-1.801882425
485.58800,-2.107076833
485.58850,-2.107076833
485.58900,-1.801882425
485.58950,-1.801882425
485.59000,-3.327854464
485.59050,-4.548632094
485.59100,-3.938243279
485.59150,-0.5811047943
485.59200,2.77603369
485.59250,4.912394544
485.59300,4.912394544
485.59350,4.607200137
485.59400,5.217588952
485.59450,5.217588952
485.59500,4.302005729
485.59550,2.77603369
485.59600,1.55525606
485.59650,1.250061652
485.59700,2.165644875
485.59750,3.691616914
485.59800,4.607200137
485.59850,3.691616914
485.59900,2.470839283
485.59950,2.77603369
485.60000,3.386422506
485.60050,2.165644875
485.60100,0.02928402113
485.60150,-0.5811047943
485.60200,0.02928402113
485.60250,0.3344784288
485.60300,-1.19149361
485.60350,-4.243437687
485.60400,-5.769409725
485.60450,-5.464215317
485.60500,-3.938243279
485.60550,-1.19149361
485.60600,1.250061652
485.60650,3.386422506
485.60700,3.996811321
485.60750,3.386422506
485.60800,2.165644875
485.60850,0.9448672442
485.60900,0.02928402113
485.60950,-0.5811047943
485.61000,-0.886299202
485.61050,-0.886299202
485.61100,-1.19149361
485.61150,-0.886299202
485.61200,-0.886299202
485.61250,-1.496688017
485.61300,-1.19149361
485.61350,1.250061652
485.61400,4.302005729
485.61450,4.302005729
485.61500,1.860450467
485.61550,0.9448672442
485.61600,2.77603369
485.61650,4.302005729
485.61700,3.081228098
485.61750,1.250061652
485.61800,2.165644875
485.61850,3.996811321
485.61900,3.691616914
485.61950,0.9448672442
485.62000,-1.19149361
485.62050,-2.107076833
485.62100,-3.022660056
485.62150,-3.633048871
485.62200,-3.633048871
485.62250,-3.327854464
485.62300,-2.717465648
485.62350,-2.107076833
485.62400,-2.107076833
485.62450,-2.717465648
485.62500,-3.633048871
485.62550,-3.327854464
485.62600,-2.717465648
485.62650,-2.41227124
485.62700,-3.022660056
485.62750,-2.41227124
485.62800,0.3344784288
485.62850,2.165644875
485.62900,0.6396728365
485.62950,-1.801882425
485.63000,-3.327854464
485.63050,-3.633048871
485.63100,-4.243437687
485.63150,-4.853826502
485.63200,-4.243437687
485.63250,-1.801882425
485.63300,0.02928402113
485.63350,1.250061652
485.63400,0.6396728365
485.63450,-0.2759103866
485.63500,-1.19149361
485.63550,-0.2759103866
485.63600,1.250061652
485.63650,1.860450467
485.63700,0.9448672442
485.63750,1.55525606
485.63800,4.607200137
485.63850,6.133172175
485.63900,4.912394544
485.63950,2.77603369
485.64000,2.470839283
485.64050,2.470839283
485.64100,-0.5811047943
485.64150,-4.548632094
485.64200,-5.464215317
485.64250,-3.327854464
485.64300,-2.107076833
485.64350,-3.633048871
485.64400,-4.853826502
485.64450,-4.243437687
485.64500,-3.938243279
485.64550,-4.548632094
485.64600,-4.853826502
485.64650,-4.243437687
485.64700,-3.633048871
485.64750,-3.938243279
485.64800,-3.327854464
485.64850,-0.886299202
485.64900,0.9448672442
485.64950,1.250061652
485.65000,0.9448672442
485.65050,2.165644875
485.65100,3.386422506
485.65150,1.860450467
485.65200,-0.5811047943
485.65250,-1.496688017
485.65300,0.6396728365
485.65350,3.996811321
485.65400,5.827977767
485.65450,5.52278336
485.65500,4.912394544
485.65550,4.607200137
485.65600,4.302005729
485.65650,4.607200137
485.65700,4.607200137
485.65750,3.996811321
485.65800,1.55525606
485.65850,-1.19149361
485.65900,-2.41227124
485.65950,-0.5811047943
485.66000,2.77603369
485.66050,6.133172175
485.66100,6.438366583
485.66150,3.996811321
485.66200,0.9448672442
485.66250,-1.19149361
485.66300,-2.41227124
485.66350,-3.327854464
485.66400,-4.548632094
485.66450,-4.243437687
485.66500,-2.41227124
485.66550,-1.19149361
485.66600,-1.19149361
485.66650,-2.107076833
485.66700,-2.41227124
485.66750,-2.107076833
485.66800,-1.496688017
485.66850,-0.2759103866
485.66900,-0.5811047943
485.66950,-3.022660056
485.67000,-6.379798541
485.67050,-7.600576171
485.67100,-5.769409725
485.67150,-3.938243279
485.67200,-3.938243279
485.67250,-4.243437687
485.67300,-3.022660056
485.67350,-0.5811047943
485.67400,1.55525606
485.67450,3.691616914
485.67500,5.827977767
485.67550,7.048755398
485.67600,7.048755398
485.67650,7.659144214
485.67700,10.10069948
485.67750,12.84744914
485.67800,12.23706033
485.67850,8.574727437
485.67900,4.912394544
485.67950,3.996811321
485.68000,4.607200137
485.68050,5.827977767
485.68100,6.133172175
485.68150,4.912394544
485.68200,2.77603369
485.68250,0.6396728365
485.68300,0.02928402113
485.68350,-0.2759103866
485.68400,-0.2759103866
485.68450,-0.5811047943
485.68500,-1.19149361
485.68550,-3.022660056
485.68600,-5.15902091
485.68650,-5.769409725
485.68700,-4.243437687
485.68750,-3.022660056
485.68800,-3.633048871
485.68850,-4.243437687
485.68900,-3.022660056
485.68950,-2.107076833
485.69000,-3.938243279
485.69050,-6.684992948
485.69100,-6.379798541
485.69150,-2.107076833
485.69200,1.250061652
485.69250,2.77603369
485.69300,2.77603369
485.69350,3.081228098
485.69400,3.691616914
485.69450,3.691616914
485.69500,2.470839283
485.69550,1.55525606
485.69600,1.55525606
485.69650,1.860450467
485.69700,2.77603369
485.69750,3.081228098
485.69800,2.470839283
485.69850,1.250061652
485.69900,0.9448672442
485.69950,1.250061652
485.70000,1.860450467
485.70050,0.9448672442
485.70100,-0.5811047943
485.70150,-1.801882425
485.70200,-1.801882425
485.70250,-0.886299202
485.70300,-0.5811047943
485.70350,-1.801882425
485.70400,-3.022660056
485.70450,-3.022660056
485.70500,-2.717465648
485.70550,-3.327854464
485.70600,-4.548632094
485.70650,-4.243437687
485.70700,-2.41227124
485.70750,-0.5811047943
485.70800,0.02928402113
485.70850,-0.5811047943
485.70900,-1.801882425
485.70950,-2.41227124
485.71000,-1.496688017
485.71050,0.9448672442
485.71100,2.165644875
485.71150,0.02928402113
485.71200,-2.717465648
485.71250,-2.41227124
485.71300,0.02928402113
485.71350,1.250061652
485.71400,0.02928402113
485.71450,0.02928402113
485.71500,2.165644875
485.71550,3.996811321
485.71600,2.77603369
485.71650,1.250061652
485.71700,2.470839283
485.71750,3.386422506
485.71800,2.165644875
485.71850,0.6396728365
485.71900,1.55525606
485.71950,3.386422506
485.72000,2.165644875
485.72050,-0.886299202
485.72100,-1.801882425
485.72150,-0.2759103866
485.72200,0.02928402113
485.72250,-2.107076833
485.72300,-3.633048871
485.72350,-3.022660056
485.72400,-2.717465648
485.72450,-4.548632094
485.72500,-6.684992948
485.72550,-6.074604133
485.72600,-2.717465648
485.72650,-0.5811047943
485.72700,-0.886299202
485.72750,-1.801882425
485.72800,-1.801882425
485.72850,-1.19149361
485.72900,-1.496688017
485.72950,-2.107076833
485.73000,-1.19149361
485.73050,0.6396728365
485.73100,2.165644875
485.73150,1.860450467
485.73200,0.9448672442
485.73250,0.3344784288
485.73300,0.9448672442
485.73350,1.55525606
485.73400,1.250061652
485.73450,0.9448672442
485.73500,1.55525606
485.73550,3.386422506
485.73600,4.912394544
485.73650,4.912394544
485.73700,3.996811321
485.73750,3.081228098
485.73800,3.081228098
485.73850,3.691616914
485.73900,3.996811321
485.73950,3.691616914
485.74000,1.860450467
485.74050,0.02928402113
485.74100,0.3344784288
485.74150,2.165644875
485.74200,3.386422506
485.74250,1.250061652
485.74300,-2.41227124
485.74350,-4.548632094
485.74400,-3.938243279
485.74450,-3.327854464
485.74500,-3.938243279
485.74550,-5.15902091
485.74600,-5.769409725
485.74650,-5.464215317
485.74700,-5.15902091
485.74750,-4.548632094
485.74800,-3.633048871
485.74850,-3.327854464
485.74900,-3.633048871
485.74950,-3.938243279
485.75000,-3.022660056
485.75050,-1.801882425
485.75100,-0.886299202
485.75150,-0.5811047943
485.75200,-0.5811047943
485.75250,-0.886299202
485.75300,-1.19149361
485.75350,-1.496688017
485.75400,-1.19149361
485.75450,-0.5811047943
485.75500,1.55525606
485.75550,5.52278336
485.75600,9.49031066
485.75650,11.32147711
485.75700,10.71108829
485.75750,9.795505068
485.75800,7.964338621
485.75850,5.217588952
485.75900,2.77603369
485.75950,2.77603369
485.76000,3.996811321
485.76050,2.77603369
485.76100,-0.5811047943
485.76150,-3.938243279
485.76200,-3.327854464
485.76250,-0.5811047943
485.76300,0.6396728365
485.76350,0.02928402113
485.76400,-0.886299202
485.76450,-0.2759103866
485.76500,0.3344784288
485.76550,0.02928402113
485.76600,-2.41227124
485.76650,-5.464215317
485.76700,-6.990187356
485.76750,-7.600576171
485.76800,-8.821353802
485.76850,-9.12654821
485.76900,-5.464215317
485.76950,1.55525606
485.77000,7.353949806
485.77050,8.574727437
485.77100,7.353949806
485.77150,7.353949806
485.77200,7.659144214
485.77250,5.217588952
485.77300,1.250061652
485.77350,0.02928402113
485.77400,1.55525606
485.77450,2.77603369
485.77500,2.470839283
485.77550,2.165644875
485.77600,3.081228098
485.77650,3.691616914
485.77700,3.081228098
485.77750,2.470839283
485.77800,2.77603369
485.77850,3.386422506
485.77900,3.081228098
485.77950,2.470839283
485.78000,1.55525606
485.78050,-0.2759103866
485.78100,-2.107076833
485.78150,-2.41227124
485.78200,-1.801882425
485.78250,-2.717465648
485.78300,-4.853826502
485.78350,-5.769409725
485.78400,-4.548632094
485.78450,-3.633048871
485.78500,-4.548632094
485.78550,-5.15902091
485.78600,-4.548632094
485.78650,-3.633048871
485.78700,-3.633048871
485.78750,-2.717465648
485.78800,-1.496688017
485.78850,-2.107076833
485.78900,-4.853826502
485.78950,-6.379798541
485.79000,-4.243437687
485.79050,-0.2759103866
485.79100,0.3344784288
485.79150,-0.5811047943
485.79200,-0.886299202
485.79250,0.3344784288
485.79300,0.3344784288
485.79350,-1.19149361
485.79400,-1.496688017
485.79450,0.3344784288
485.79500,1.860450467
485.79550,0.02928402113
485.79600,-3.022660056
485.79650,-2.41227124
485.79700,0.6396728365
485.79750,3.081228098
485.79800,2.77603369
485.79850,1.55525606
485.79900,2.165644875
485.79950,3.081228098
485.80000,3.691616914
485.80050,4.302005729
485.80100,4.912394544
485.80150,3.691616914
485.80200,0.6396728365
485.80250,-2.107076833
485.80300,-3.327854464
485.80350,-3.327854464
485.80400,-3.327854464
485.80450,-3.938243279
485.80500,-3.938243279
485.80550,-3.022660056
485.80600,-3.022660056
485.80650,-4.548632094
485.80700,-6.379798541
485.80750,-6.379798541
485.80800,-3.633048871
485.80850,0.6396728365
485.80900,3.996811321
485.80950,3.386422506
485.81000,0.6396728365
485.81050,-1.19149361
485.81100,-0.2759103866
485.81150,1.250061652
485.81200,1.55525606
485.81250,0.3344784288
485.81300,0.02928402113
485.81350,1.250061652
485.81400,2.470839283
485.81450,3.386422506
485.81500,3.691616914
485.81550,3.691616914
485.81600,3.081228098
485.81650,2.470839283
485.81700,3.081228098
485.81750,4.607200137
485.81800,5.217588952
485.81850,3.691616914
485.81900,1.860450467
485.81950,0.9448672442
485.82000,1.250061652
485.82050,0.9448672442
485.82100,0.3344784288
485.82150,-0.2759103866
485.82200,-1.19149361
485.82250,-1.496688017
485.82300,-1.19149361
485.82350,-0.886299202
485.82400,-1.19149361
485.82450,-2.41227124
485.82500,-3.022660056
485.82550,-2.717465648
485.82600,-2.107076833
485.82650,-2.717465648
485.82700,-3.022660056
485.82750,-2.107076833
485.82800,-0.5811047943
485.82850,-1.19149361
485.82900,-3.938243279
485.82950,-5.464215317
485.83000,-3.938243279
485.83050,-0.5811047943
485.83100,1.55525606
485.83150,2.77603369
485.83200,3.996811321
485.83250,4.302005729
485.83300,2.165644875
485.83350,-0.886299202
485.83400,-1.801882425
485.83450,0.02928402113
485.83500,1.55525606
485.83550,0.6396728365
485.83600,-1.496688017
485.83650,-1.801882425
485.83700,0.02928402113
485.83750,2.77603369
485.83800,3.691616914
485.83850,3.081228098
485.83900,2.77603369
485.83950,3.691616914
485.84000,5.217588952
485.84050,6.133172175
485.84100,5.52278336
485.84150,3.691616914
485.84200,1.250061652
485.84250,-0.886299202
485.84300,-2.41227124
485.84350,-3.022660056
485.84400,-2.717465648
485.84450,-2.717465648
485.84500,-3.022660056
485.84550,-3.327854464
485.84600,-3.327854464
485.84650,-3.938243279
485.84700,-5.15902091
485.84750,-6.379798541
485.84800,-5.769409725
485.84850,-4.243437687
485.84900,-2.717465648
485.84950,-1.19149361
485.85000,0.02928402113
485.85050,0.02928402113
485.85100,-0.2759103866
485.85150,-0.5811047943
485.85200,0.6396728365
485.85250,3.081228098
485.85300,4.607200137
485.85350,4.912394544
485.85400,5.827977767
485.85450,7.659144214
485.85500,8.269533029
485.85550,6.743560991
485.85600,4.912394544
485.85650,3.996811321
485.85700,3.691616914
485.85750,3.691616914
485.85800,3.081228098
485.85850,3.081228098
485.85900,3.386422506
485.85950,2.77603369
485.86000,0.3344784288
485.86050,-1.19149361
485.86100,-0.5811047943
485.86150,0.9448672442
485.86200,0.6396728365
485.86250,-2.107076833
485.86300,-4.548632094
485.86350,-3.327854464
485.86400,-1.19149361
485.86450,-2.107076833
485.86500,-5.15902091
485.86550,-6.379798541
485.86600,-5.15902091
485.86650,-3.633048871
485.86700,-3.938243279
485.86750,-3.938243279
485.86800,-2.41227124
485.86850,-1.496688017
485.86900,-2.41227124
485.86950,-3.327854464
485.87000,-3.022660056
485.87050,-1.496688017
485.87100,-0.5811047943
485.87150,-0.5811047943
485.87200,-0.5811047943
485.87250,-0.2759103866
485.87300,0.02928402113
485.87350,0.02928402113
485.87400,0.02928402113
485.87450,0.3344784288
485.87500,1.55525606
485.87550,3.081228098
485.87600,3.691616914
485.87650,3.386422506
485.87700,3.691616914
485.87750,4.607200137
485.87800,5.217588952
485.87850,4.607200137
485.87900,3.081228098
485.87950,1.860450467
485.88000,2.165644875
485.88050,2.77603369
485.88100,2.77603369
485.88150,2.165644875
485.88200,0.6396728365
485.88250,-0.886299202
485.88300,-2.717465648
485.88350,-4.243437687
485.88400,-6.074604133
485.88450,-7.295381764
485.88500,-7.600576171
485.88550,-6.379798541
485.88600,-3.327854464
485.88650,-1.19149361
485.88700,-0.886299202
485.88750,-2.717465648
485.88800,-4.548632094
485.88850,-5.464215317
485.88900,-5.464215317
485.88950,-5.769409725
485.89000,-5.769409725
485.89050,-4.853826502
485.89100,-3.022660056
485.89150,-0.886299202
485.89200,0.9448672442
485.89250,3.691616914
485.89300,4.912394544
485.89350,3.386422506
485.89400,0.3344784288
485.89450,-0.886299202
485.89500,0.6396728365
485.89550,3.081228098
485.89600,3.996811321
485.89650,4.302005729
485.89700,3.996811321
485.89750,3.386422506
485.89800,3.386422506
485.89850,5.217588952
485.89900,7.659144214
485.89950,7.353949806
485.90000,3.691616914
485.90050,0.6396728365
485.90100,1.55525606
485.90150,5.52278336
485.90200,7.048755398
485.90250,4.302005729
485.90300,0.02928402113
485.90350,-2.717465648
485.90400,-3.022660056
485.90450,-2.107076833
485.90500,-0.5811047943
485.90550,0.3344784288
485.90600,0.02928402113
485.90650,-1.801882425
485.90700,-3.633048871
485.90750,-4.548632094
485.90800,-5.15902091
485.90850,-5.769409725
485.90900,-5.769409725
485.90950,-4.853826502
485.91000,-3.022660056
485.91050,-1.801882425
485.91100,-1.496688017
485.91150,-1.19149361
485.91200,-0.5811047943
485.91250,0.9448672442
485.91300,2.165644875
485.91350,2.165644875
485.91400,1.250061652
485.91450,1.55525606
485.91500,3.691616914
485.91550,6.743560991
485.91600,7.964338621
485.91650,7.353949806
485.91700,6.133172175
485.91750,5.827977767
485.91800,5.217588952
485.91850,3.996811321
485.91900,2.470839283
485.91950,2.470839283
485.92000,3.386422506
485.92050,2.470839283
485.92100,0.02928402113
485.92150,-1.19149361
485.92200,-1.19149361
485.92250,-0.886299202
485.92300,-1.496688017
485.92350,-2.717465648
485.92400,-3.633048871
485.92450,-4.243437687
485.92500,-5.15902091
485.92550,-6.074604133
485.92600,-6.074604133
485.92650,-6.074604133
485.92700,-6.074604133
485.92750,-5.769409725
485.92800,-5.15902091
485.92850,-4.548632094
485.92900,-3.938243279
485.92950,-3.022660056
485.93000,-2.107076833
485.93050,-2.107076833
485.93100,-2.41227124
485.93150,-2.107076833
485.93200,-0.5811047943
485.93250,0.6396728365
485.93300,1.250061652
485.93350,1.860450467
485.93400,2.165644875
485.93450,1.55525606
485.93500,0.3344784288
485.93550,0.02928402113
485.93600,0.6396728365
485.93650,2.470839283
485.93700,4.302005729
485.93750,5.52278336
485.93800,5.827977767
485.93850,4.912394544
485.93900,4.302005729
485.93950,4.912394544
485.94000,5.52278336
485.94050,4.302005729
485.94100,2.165644875
485.94150,0.02928402113
485.94200,-0.886299202
485.94250,-1.496688017
485.94300,-1.496688017
485.94350,-0.5811047943
485.94400,0.02928402113
485.94450,-0.886299202
485.94500,-2.717465648
485.94550,-3.022660056
485.94600,-1.801882425
485.94650,-0.886299202
485.94700,-1.496688017
485.94750,-1.496688017
485.94800,-0.5811047943
485.94850,-0.886299202
485.94900,-2.107076833
485.94950,-2.717465648
485.95000,-1.496688017
485.95050,-1.496688017
485.95100,-3.327854464
485.95150,-4.548632094
485.95200,-2.107076833
485.95250,1.860450467
485.95300,3.996811321
485.95350,4.302005729
485.95400,4.302005729
485.95450,4.607200137
485.95500,3.386422506
485.95550,1.250061652
485.95600,1.55525606
485.95650,3.386422506
485.95700,3.996811321
485.95750,3.081228098
485.95800,3.691616914
485.95850,6.133172175
485.95900,7.659144214
485.95950,6.133172175
485.96000,3.691616914
485.96050,2.77603369
485.96100,1.860450467
485.96150,0.02928402113
485.96200,-1.496688017
485.96250,-0.886299202
485.96300,0.6396728365
485.96350,0.6396728365
485.96400,-0.886299202
485.96450,-2.717465648
485.96500,-4.548632094
485.96550,-6.074604133
485.96600,-6.379798541
485.96650,-4.548632094
485.96700,-3.022660056
485.96750,-3.633048871
485.96800,-5.15902091
485.96850,-4.548632094
485.96900,-2.41227124
485.96950,-0.886299202
485.97000,-0.886299202
485.97050,-1.496688017
485.97100,-1.801882425
485.97150,-2.107076833
485.97200,-2.107076833
485.97250,-1.19149361
485.97300,-0.2759103866
485.97350,0.02928402113
485.97400,0.02928402113
485.97450,0.6396728365
485.97500,0.9448672442
485.97550,0.02928402113
485.97600,-0.2759103866
485.97650,0.6396728365
485.97700,3.081228098
485.97750,4.607200137
485.97800,4.912394544
485.97850,5.52278336
485.97900,6.133172175
485.97950,6.743560991
485.98000,7.048755398
485.98050,5.827977767
485.98100,1.860450467
485.98150,-2.717465648
485.98200,-4.548632094
485.98250,-2.107076833
485.98300,1.250061652
485.98350,1.55525606
485.98400,0.02928402113
485.98450,-1.19149361
485.98500,-0.886299202
485.98550,-1.19149361
485.98600,-2.41227124
485.98650,-3.327854464
485.98700,-3.022660056
485.98750,-2.717465648
485.98800,-3.633048871
485.98850,-4.853826502
485.98900,-4.853826502
485.98950,-3.327854464
485.99000,-1.801882425
485.99050,-1.496688017
485.99100,-2.41227124
485.99150,-3.022660056
485.99200,-1.496688017
485.99250,0.02928402113
485.99300,0.6396728365
485.99350,0.02928402113
485.99400,0.02928402113
485.99450,1.860450467
485.99500,3.081228098
485.99550,3.081228098
485.99600,3.386422506
485.99650,4.302005729
485.99700,3.996811321
485.99750,1.55525606
485.99800,0.02928402113
485.99850,1.250061652
485.99900,3.386422506
485.99950,3.386422506
486.00000,1.860450467
486.00050,0.9448672442
486.00100,0.9448672442
486.00150,0.3344784288
486.00200,-0.886299202
486.00250,-1.801882425
486.00300,-0.886299202
486.00350,0.02928402113
486.00400,-0.886299202
486.00450,-2.717465648
486.00500,-3.633048871
486.00550,-3.022660056
486.00600,-1.496688017
486.00650,-0.5811047943
486.00700,-1.19149361
486.00750,-3.327854464
486.00800,-4.243437687
486.00850,-2.717465648
486.00900,0.02928402113
486.00950,1.55525606
486.01000,0.6396728365
486.01050,-0.2759103866
486.01100,-0.886299202
486.01150,-0.2759103866
486.01200,-0.2759103866
486.01250,-0.2759103866
486.01300,0.02928402113
486.01350,0.6396728365
486.01400,1.250061652
486.01450,1.55525606
486.01500,1.55525606
486.01550,1.860450467
486.01600,1.860450467
486.01650,1.55525606
486.01700,1.55525606
486.01750,1.860450467
486.01800,2.77603369
486.01850,3.386422506
486.01900,3.386422506
486.01950,2.77603369
486.02000,2.165644875
486.02050,1.860450467
486.02100,1.55525606
486.02150,0.3344784288
486.02200,-0.5811047943
486.02250,-0.886299202
486.02300,0.02928402113
486.02350,0.02928402113
486.02400,-2.107076833
486.02450,-5.464215317
486.02500,-7.295381764
486.02550,-6.379798541
486.02600,-4.548632094
486.02650,-4.243437687
486.02700,-5.464215317
486.02750,-6.074604133
486.02800,-5.464215317
486.02850,-3.938243279
486.02900,-1.496688017
486.02950,0.9448672442
486.03000,3.081228098
486.03050,3.081228098
486.03100,1.250061652
486.03150,0.02928402113
486.03200,0.6396728365
486.03250,1.55525606
486.03300,0.9448672442
486.03350,0.3344784288
486.03400,1.55525606
486.03450,3.081228098
486.03500,1.860450467
486.03550,0.02928402113
486.03600,-0.2759103866
486.03650,0.9448672442
486.03700,1.860450467
486.03750,1.55525606
486.03800,1.55525606
486.03850,2.77603369
486.03900,3.996811321
486.03950,3.081228098
486.04000,1.860450467
486.04050,1.55525606
486.04100,0.9448672442
486.04150,-0.2759103866
486.04200,-1.801882425
486.04250,-1.801882425
486.04300,-0.886299202
486.04350,-0.5811047943
486.04400,-1.496688017
486.04450,-2.107076833
486.04500,-2.41227124
486.04550,-2.717465648
486.04600,-3.022660056
486.04650,-2.717465648
486.04700,-3.022660056
486.04750,-4.243437687
486.04800,-5.464215317
486.04850,-6.074604133
486.04900,-5.769409725
486.04950,-4.548632094
486.05000,-3.022660056
486.05050,-1.496688017
486.05100,-0.2759103866
486.05150,0.02928402113
486.05200,1.250061652
486.05250,2.77603369
486.05300,2.470839283
486.05350,0.02928402113
486.05400,-1.801882425
486.05450,-0.5811047943
486.05500,2.165644875
486.05550,5.217588952
486.05600,6.743560991
486.05650,8.269533029
486.05700,9.185116252
486.05750,8.879921844
486.05800,7.353949806
486.05850,6.133172175
486.05900,5.52278336
486.05950,4.302005729
486.06000,2.165644875
486.06050,1.250061652
486.06100,1.860450467
486.06150,1.860450467
486.06200,0.02928402113
486.06250,-1.801882425
486.06300,-1.496688017
486.06350,-0.886299202
486.06400,-2.107076833
486.06450,-3.633048871
486.06500,-3.327854464
486.06550,-2.717465648
486.06600,-4.548632094
486.06650,-7.600576171
486.06700,-8.210964987
486.06750,-5.769409725
486.06800,-3.327854464
486.06850,-2.717465648
486.06900,-3.022660056
486.06950,-3.327854464
486.07000,-3.022660056
486.07050,-2.107076833
486.07100,0.02928402113
486.07150,1.55525606
486.07200,0.6396728365
486.07250,-0.5811047943
486.07300,0.02928402113
486.07350,2.470839283
486.07400,3.996811321
486.07450,3.081228098
486.07500,2.165644875
486.07550,3.386422506
486.07600,4.607200137
486.07650,4.302005729
486.07700,3.996811321
486.07750,4.302005729
486.07800,4.912394544
486.07850,5.217588952
486.07900,6.133172175
486.07950,7.353949806
486.08000,6.743560991
486.08050,4.302005729
486.08100,2.77603369
486.08150,3.996811321
486.08200,4.912394544
486.08250,2.77603369
486.08300,0.02928402113
486.08350,-1.19149361
486.08400,-1.496688017
486.08450,-2.717465648
486.08500,-4.853826502
486.08550,-4.548632094
486.08600,-1.801882425
486.08650,-0.5811047943
486.08700,-1.19149361
486.08750,-2.107076833
486.08800,-1.496688017
486.08850,-1.19149361
486.08900,-2.41227124
486.08950,-3.633048871
486.09000,-3.022660056
486.09050,-2.107076833
486.09100,-1.801882425
486.09150,-1.496688017
486.09200,-0.5811047943
486.09250,0.3344784288
486.09300,0.3344784288
486.09350,-0.2759103866
486.09400,-0.2759103866
486.09450,0.02928402113
486.09500,0.3344784288
486.09550,0.6396728365
486.09600,1.55525606
486.09650,2.165644875
486.09700,1.860450467
486.09750,1.860450467
486.09800,3.386422506
486.09850,4.607200137
486.09900,1.860450467
486.09950,-2.717465648
486.10000,-3.633048871
486.10050,0.6396728365
486.10100,5.827977767
486.10150,6.438366583
486.10200,3.386422506
486.10250,0.6396728365
486.10300,-1.19149361
486.10350,-3.022660056
486.10400,-3.938243279
486.10450,-1.801882425
486.10500,0.3344784288
486.10550,-0.2759103866
486.10600,-3.938243279
486.10650,-6.074604133
486.10700,-4.243437687
486.10750,-2.41227124
486.10800,-2.717465648
486.10850,-4.243437687
486.10900,-4.243437687
486.10950,-3.022660056
486.11000,-2.717465648
486.11050,-2.717465648
486.11100,-1.801882425
486.11150,-0.2759103866
486.11200,0.3344784288
486.11250,0.9448672442
486.11300,2.165644875
486.11350,3.386422506
486.11400,3.386422506
486.11450,2.165644875
486.11500,1.860450467
486.11550,3.386422506
486.11600,5.217588952
486.11650,5.217588952
486.11700,3.081228098
486.11750,2.470839283
486.11800,4.302005729
486.11850,6.133172175
486.11900,4.302005729
486.11950,0.9448672442
486.12000,0.02928402113
486.12050,1.250061652
486.12100,1.55525606
486.12150,-0.886299202
486.12200,-4.243437687
486.12250,-4.548632094
486.12300,-2.41227124
486.12350,-1.801882425
486.12400,-3.633048871
486.12450,-5.464215317
486.12500,-5.769409725
486.12550,-4.548632094
486.12600,-2.717465648
486.12650,-1.801882425
486.12700,-2.41227124
486.12750,-3.022660056
486.12800,-2.41227124
486.12850,-0.5811047943
486.12900,0.02928402113
486.12950,-1.19149361
486.13000,-3.938243279
486.13050,-5.769409725
486.13100,-4.853826502
486.13150,-2.717465648
486.13200,-0.5811047943
486.13250,0.02928402113
486.13300,0.3344784288
486.13350,0.6396728365
486.13400,1.250061652
486.13450,0.6396728365
486.13500,-0.5811047943
486.13550,-1.496688017
486.13600,0.02928402113
486.13650,3.081228098
486.13700,5.217588952
486.13750,5.217588952
486.13800,4.912394544
486.13850,6.133172175
486.13900,6.438366583
486.13950,4.912394544
486.14000,3.386422506
486.14050,3.996811321
486.14100,5.217588952
486.14150,3.996811321
486.14200,0.3344784288
486.14250,-3.022660056
486.14300,-6.074604133
486.14350,-8.210964987
486.14400,-9.12654821
486.14450,-7.295381764
486.14500,-4.243437687
486.14550,-3.022660056
486.14600,-3.938243279
486.14650,-5.15902091
486.14700,-6.074604133
486.14750,-6.684992948
486.14800,-6.684992948
486.14850,-4.548632094
486.14900,-2.107076833
486.14950,-1.19149361
486.15000,-2.41227124
486.15050,-3.327854464
486.15100,-3.327854464
486.15150,-3.022660056
486.15200,-2.41227124
486.15250,-0.5811047943
486.15300,1.55525606
486.15350,1.860450467
486.15400,0.6396728365
486.15450,0.02928402113
486.15500,0.6396728365
486.15550,0.02928402113
486.15600,-1.19149361
486.15650,-0.886299202
486.15700,1.860450467
486.15750,4.912394544
486.15800,6.438366583
486.15850,7.659144214
486.15900,9.185116252
486.15950,9.185116252
486.16000,7.353949806
486.16050,5.217588952
486.16100,4.302005729
486.16150,4.302005729
486.16200,2.77603369
486.16250,0.6396728365
486.16300,-0.2759103866
486.16350,-0.2759103866
486.16400,0.02928402113
486.16450,-0.886299202
486.16500,-2.717465648
486.16550,-4.548632094
486.16600,-5.464215317
486.16650,-5.15902091
486.16700,-3.633048871
486.16750,-2.41227124
486.16800,-2.107076833
486.16850,-1.801882425
486.16900,-1.801882425
486.16950,-2.107076833
486.17000,-2.41227124
486.17050,-2.107076833
486.17100,-0.886299202
486.17150,0.02928402113
486.17200,0.9448672442
486.17250,1.250061652
486.17300,1.55525606
486.17350,1.55525606
486.17400,2.470839283
486.17450,4.302005729
486.17500,5.52278336
486.17550,4.912394544
486.17600,3.386422506
486.17650,2.470839283
486.17700,3.691616914
486.17750,5.217588952
486.17800,5.52278336
486.17850,4.607200137
486.17900,3.691616914
486.17950,3.081228098
486.18000,3.386422506
486.18050,3.386422506
486.18100,1.860450467
486.18150,0.02928402113
486.18200,-0.2759103866
486.18250,0.02928402113
486.18300,-0.2759103866
486.18350,-2.107076833
486.18400,-4.243437687
486.18450,-4.548632094
486.18500,-3.327854464
486.18550,-1.801882425
486.18600,-0.886299202
486.18650,0.02928402113
486.18700,0.02928402113
486.18750,0.3344784288
486.18800,0.02928402113
486.18850,-1.19149361
486.18900,-3.938243279
486.18950,-6.684992948
486.19000,-7.905770579
486.19050,-6.990187356
486.19100,-5.15902091
486.19150,-2.717465648
486.19200,0.9448672442
486.19250,5.52278336
486.19300,7.964338621
486.19350,6.438366583
486.19400,4.302005729
486.19450,3.691616914
486.19500,3.996811321
486.19550,3.081228098
486.19600,1.55525606
486.19650,2.165644875
486.19700,4.302005729
486.19750,4.912394544
486.19800,2.77603369
486.19850,1.250061652
486.19900,2.77603369
486.19950,4.912394544
486.20000,4.302005729
486.20050,1.55525606
486.20100,0.6396728365
486.20150,0.9448672442
486.20200,0.3344784288
486.20250,-2.41227124
486.20300,-4.548632094
486.20350,-4.243437687
486.20400,-3.633048871
486.20450,-4.548632094
486.20500,-6.074604133
486.20550,-4.853826502
486.20600,-2.41227124
486.20650,-0.5811047943
486.20700,-0.5811047943
486.20750,-0.5811047943
486.20800,-1.496688017
486.20850,-3.938243279
486.20900,-6.074604133
486.20950,-5.769409725
486.21000,-3.633048871
486.21050,-2.41227124
486.21100,-2.41227124
486.21150,-1.801882425
486.21200,0.02928402113
486.21250,0.6396728365
486.21300,0.02928402113
486.21350,-1.496688017
486.21400,-2.41227124
486.21450,-2.107076833
486.21500,-1.496688017
486.21550,-0.2759103866
486.21600,0.6396728365
486.21650,1.250061652
486.21700,0.9448672442
486.21750,0.9448672442
486.21800,2.470839283
486.21850,3.996811321
486.21900,4.912394544
486.21950,5.217588952
486.22000,5.52278336
486.22050,5.827977767
486.22100,5.217588952
486.22150,3.996811321
486.22200,2.77603369
486.22250,0.9448672442
486.22300,-0.886299202
486.22350,-1.801882425
486.22400,-1.496688017
486.22450,-1.801882425
486.22500,-3.938243279
486.22550,-5.769409725
486.22600,-5.464215317
486.22650,-3.938243279
486.22700,-3.633048871
486.22750,-4.548632094
486.22800,-4.548632094
486.22850,-3.022660056
486.22900,-1.496688017
486.22950,-2.107076833
486.23000,-3.938243279
486.23050,-4.853826502
486.23100,-3.938243279
486.23150,-1.19149361
486.23200,1.860450467
486.23250,4.302005729
486.23300,5.52278336
486.23350,4.912394544
486.23400,3.386422506
486.23450,2.77603369
486.23500,3.081228098
486.23550,3.691616914
486.23600,2.77603369
486.23650,1.55525606
486.23700,2.470839283
486.23750,5.217588952
486.23800,6.438366583
486.23850,4.912394544
486.23900,3.081228098
486.23950,3.081228098
486.24000,3.691616914
486.24050,2.77603369
486.24100,0.6396728365
486.24150,-0.886299202
486.24200,-1.801882425
486.24250,-2.107076833
486.24300,-1.801882425
486.24350,-0.2759103866
486.24400,0.02928402113
486.24450,-1.19149361
486.24500,-2.717465648
486.24550,-1.19149361
486.24600,1.55525606
486.24650,0.9448672442
486.24700,-3.327854464
486.24750,-6.990187356
486.24800,-6.379798541
486.24850,-4.548632094
486.24900,-5.15902091
486.24950,-6.379798541
486.25000,-5.769409725
486.25050,-2.717465648
486.25100,0.02928402113
486.25150,1.55525606
486.25200,2.470839283
486.25250,2.470839283
486.25300,1.55525606
486.25350,1.250061652
486.25400,2.470839283
486.25450,4.302005729
486.25500,4.607200137
486.25550,3.691616914
486.25600,3.691616914
486.25650,4.912394544
486.25700,5.52278336
486.25750,4.912394544
486.25800,3.996811321
486.25850,4.302005729
486.25900,4.607200137
486.25950,4.302005729
486.26000,2.77603369
486.26050,1.250061652
486.26100,0.6396728365
486.26150,0.6396728365
486.26200,0.3344784288
486.26250,0.02928402113
486.26300,-1.19149361
486.26350,-2.107076833
486.26400,-2.41227124
486.26450,-2.717465648
486.26500,-3.327854464
486.26550,-4.243437687
486.26600,-4.548632094
486.26650,-3.633048871
486.26700,-2.717465648
486.26750,-1.801882425
486.26800,-1.496688017
486.26850,-1.801882425
486.26900,-1.801882425
486.26950,-0.886299202
486.27000,0.02928402113
486.27050,-0.5811047943
486.27100,-2.107076833
486.27150,-2.717465648
486.27200,-1.19149361
486.27250,0.3344784288
486.27300,0.6396728365
486.27350,0.02928402113
486.27400,0.3344784288
486.27450,2.77603369
486.27500,5.217588952
486.27550,6.743560991
486.27600,7.659144214
486.27650,7.659144214
486.27700,7.048755398
486.27750,6.133172175
486.27800,5.827977767
486.27850,4.912394544
486.27900,2.77603369
486.27950,0.3344784288
486.28000,-0.886299202
486.28050,0.02928402113
486.28100,1.860450467
486.28150,1.860450467
486.28200,-1.19149361
486.28250,-5.15902091
486.28300,-6.074604133
486.28350,-3.022660056
486.28400,0.02928402113
486.28450,0.02928402113
486.28500,-3.022660056
486.28550,-4.853826502
486.28600,-3.327854464
486.28650,-0.886299202
486.28700,-0.2759103866
486.28750,-1.19149361
486.28800,-2.41227124
486.28850,-3.327854464
486.28900,-4.853826502
486.28950,-5.15902091
486.29000,-3.633048871
486.29050,-1.801882425
486.29100,-2.107076833
486.29150,-3.327854464
486.29200,-3.022660056
486.29250,-0.886299202
486.29300,0.9448672442
486.29350,1.55525606
486.29400,0.3344784288
486.29450,0.3344784288
486.29500,2.77603369
486.29550,6.438366583
486.29600,7.964338621
486.29650,5.217588952
486.29700,0.6396728365
486.29750,-0.2759103866
486.29800,1.55525606
486.29850,2.77603369
486.29900,2.165644875
486.29950,2.470839283
486.30000,4.302005729
486.30050,3.996811321
486.30100,0.02928402113
486.30150,-3.327854464
486.30200,-3.022660056
486.30250,-0.886299202
486.30300,-0.5811047943
486.30350,-2.107076833
486.30400,-2.107076833
486.30450,-0.886299202
486.30500,-1.496688017
486.30550,-3.022660056
486.30600,-3.633048871
486.30650,-2.717465648
486.30700,-3.022660056
486.30750,-4.548632094
486.30800,-5.15902091
486.30850,-3.938243279
486.30900,-3.022660056
486.30950,-3.327854464
486.31000,-3.633048871
486.31050,-3.022660056
486.31100,-1.801882425
486.31150,-0.886299202
486.31200,-0.5811047943
486.31250,0.02928402113
486.31300,0.9448672442
486.31350,1.55525606
486.31400,1.860450467
486.31450,1.860450467
486.31500,1.250061652
486.31550,0.9448672442
486.31600,1.860450467
486.31650,3.691616914
486.31700,5.52278336
486.31750,5.217588952
486.31800,3.691616914
486.31850,2.165644875
486.31900,1.860450467
486.31950,1.860450467
486.32000,2.165644875
486.32050,2.470839283
486.32100,3.081228098
486.32150,3.081228098
486.32200,1.55525606
486.32250,-0.5811047943
486.32300,-2.41227124
486.32350,-2.717465648
486.32400,-2.717465648
486.32450,-3.022660056
486.32500,-3.327854464
486.32550,-3.327854464
486.32600,-3.633048871
486.32650,-4.548632094
486.32700,-5.15902091
486.32750,-4.243437687
486.32800,-3.327854464
486.32850,-3.938243279
486.32900,-5.15902091
486.32950,-6.074604133
486.33000,-5.15902091
486.33050,-3.938243279
486.33100,-2.107076833
486.33150,-0.2759103866
486.33200,1.250061652
486.33250,1.55525606
486.33300,0.02928402113
486.33350,-1.801882425
486.33400,-1.801882425
486.33450,0.02928402113
486.33500,1.250061652
486.33550,1.55525606
486.33600,2.77603369
486.33650,5.217588952
486.33700,7.659144214
486.33750,8.879921844
486.33800,8.574727437
486.33850,7.353949806
486.33900,4.912394544
486.33950,1.55525606
486.34000,-1.19149361
486.34050,-2.41227124
486.34100,-1.801882425
486.34150,-0.5811047943
486.34200,0.02928402113
486.34250,0.9448672442
486.34300,1.55525606
486.34350,0.6396728365
486.34400,-1.801882425
486.34450,-4.243437687
486.34500,-5.769409725
486.34550,-7.295381764
486.34600,-8.516159395
486.34650,-8.821353802
486.34700,-7.295381764
486.34750,-4.853826502
486.34800,-3.633048871
486.34850,-3.022660056
486.34900,-3.022660056
486.34950,-3.022660056
486.35000,-2.717465648
486.35050,-1.496688017
486.35100,0.3344784288
486.35150,1.860450467
486.35200,1.860450467
486.35250,0.9448672442
486.35300,0.6396728365
486.35350,0.9448672442
486.35400,1.250061652
486.35450,1.55525606
486.35500,2.165644875
486.35550,2.470839283
486.35600,2.77603369
486.35650,3.691616914
486.35700,4.912394544
486.35750,5.217588952
486.35800,3.996811321
486.35850,2.77603369
486.35900,3.081228098
486.35950,3.691616914
486.36000,2.77603369
486.36050,0.02928402113
486.36100,-1.19149361
486.36150,0.02928402113
486.36200,1.55525606
486.36250,1.55525606
486.36300,0.3344784288
486.36350,-1.19149361
486.36400,-1.496688017
486.36450,-0.5811047943
486.36500,-0.2759103866
486.36550,-0.886299202
486.36600,-1.801882425
486.36650,-1.801882425
486.36700,-1.19149361
486.36750,-1.496688017
486.36800,-2.41227124
486.36850,-2.717465648
486.36900,-1.19149361
486.36950,0.02928402113
486.37000,0.02928402113
486.37050,-0.2759103866
486.37100,0.02928402113
486.37150,0.6396728365
486.37200,1.250061652
486.37250,2.165644875
486.37300,2.470839283
486.37350,1.860450467
486.37400,0.6396728365
486.37450,0.9448672442
486.37500,2.470839283
486.37550,2.77603369
486.37600,1.250061652
486.37650,1.250061652
486.37700,3.691616914
486.37750,6.133172175
486.37800,5.827977767
486.37850,4.302005729
486.37900,4.302005729
486.37950,4.607200137
486.38000,2.77603369
486.38050,0.02928402113
486.38100,0.6396728365
486.38150,4.912394544
486.38200,8.269533029
486.38250,7.353949806
486.38300,4.302005729
486.38350,1.55525606
486.38400,0.02928402113
486.38450,-0.5811047943
486.38500,-1.496688017
486.38550,-1.801882425
486.38600,-1.496688017
486.38650,-1.496688017
486.38700,-2.717465648
486.38750,-3.633048871
486.38800,-3.938243279
486.38850,-3.022660056
486.38900,-2.717465648
486.38950,-3.327854464
486.39000,-3.633048871
486.39050,-3.938243279
486.39100,-4.548632094
486.39150,-5.464215317
486.39200,-5.769409725
486.39250,-4.243437687
486.39300,-2.107076833
486.39350,-0.886299202
486.39400,-0.2759103866
486.39450,0.6396728365
486.39500,1.860450467
486.39550,2.165644875
486.39600,1.250061652
486.39650,0.6396728365
486.39700,1.250061652
486.39750,1.860450467
486.39800,1.55525606
486.39850,0.9448672442
486.39900,0.6396728365
486.39950,0.6396728365
486.40000,0.3344784288
486.40050,0.6396728365
486.40100,1.250061652
486.40150,2.165644875
486.40200,1.55525606
486.40250,0.02928402113
486.40300,-0.886299202
486.40350,-1.496688017
486.40400,-1.801882425
486.40450,-3.022660056
486.40500,-3.633048871
486.40550,-2.107076833
486.40600,0.3344784288
486.40650,0.9448672442
486.40700,-0.5811047943
486.40750,-2.717465648
486.40800,-2.107076833
486.40850,-0.2759103866
486.40900,-0.2759103866
486.40950,-2.107076833
486.41000,-3.327854464
486.41050,-2.717465648
486.41100,-1.19149361
486.41150,0.02928402113
486.41200,0.02928402113
486.41250,-0.2759103866
486.41300,-0.886299202
486.41350,-1.496688017
486.41400,-0.886299202
486.41450,0.6396728365
486.41500,1.250061652
486.41550,0.9448672442
486.41600,1.250061652
486.41650,2.470839283
486.41700,3.081228098
486.41750,2.165644875
486.41800,0.9448672442
486.41850,0.9448672442
486.41900,1.55525606
486.41950,1.860450467
486.42000,1.860450467
486.42050,2.165644875
486.42100,2.470839283
486.42150,2.470839283
486.42200,2.77603369
486.42250,3.691616914
486.42300,5.217588952
486.42350,6.438366583
486.42400,7.659144214
486.42450,7.353949806
486.42500,4.607200137
486.42550,0.6396728365
486.42600,-0.5811047943
486.42650,0.3344784288
486.42700,0.9448672442
486.42750,-1.801882425
486.42800,-6.684992948
486.42850,-9.431742618
486.42900,-8.821353802
486.42950,-6.684992948
486.43000,-4.243437687
486.43050,-1.19149361
486.43100,0.3344784288
486.43150,-0.886299202
486.43200,-3.938243279
486.43250,-3.938243279
486.43300,0.02928402113
486.43350,3.081228098
486.43400,0.3344784288
486.43450,-3.938243279
486.43500,-4.548632094
486.43550,0.02928402113
486.43600,5.217588952
486.43650,7.048755398
486.43700,5.52278336
486.43750,3.691616914
486.43800,2.470839283
486.43850,1.55525606
486.43900,1.250061652
486.43950,1.250061652
486.44000,1.860450467
486.44050,2.470839283
486.44100,1.860450467
486.44150,0.9448672442
486.44200,0.02928402113
486.44250,0.02928402113
486.44300,0.02928402113
486.44350,-0.886299202
486.44400,-1.801882425
486.44450,-2.107076833
486.44500,-1.801882425
486.44550,-1.496688017
486.44600,-1.496688017
486.44650,-1.801882425
486.44700,-2.41227124
486.44750,-2.41227124
486.44800,-1.19149361
486.44850,0.02928402113
486.44900,0.02928402113
486.44950,-2.107076833
486.45000,-4.853826502
486.45050,-5.15902091
486.45100,-3.327854464
486.45150,-1.801882425
486.45200,-1.496688017
486.45250,-1.801882425
486.45300,-1.19149361
486.45350,0.02928402113
486.45400,0.3344784288
486.45450,0.3344784288
486.45500,1.250061652
486.45550,3.081228098
486.45600,4.302005729
486.45650,4.302005729
486.45700,3.691616914
486.45750,3.996811321
486.45800,4.912394544
486.45850,5.827977767
486.45900,5.827977767
486.45950,4.912394544
486.46000,2.77603369
486.46050,0.9448672442
486.46100,-0.2759103866
486.46150,-1.496688017
486.46200,-2.107076833
486.46250,-2.107076833
486.46300,-2.41227124
486.46350,-3.327854464
486.46400,-4.853826502
486.46450,-5.464215317
486.46500,-4.548632094
486.46550,-3.022660056
486.46600,-2.717465648
486.46650,-3.327854464
486.46700,-3.327854464
486.46750,-2.41227124
486.46800,-2.107076833
486.46850,-2.41227124
486.46900,-1.801882425
486.46950,-1.19149361
486.47000,-2.107076833
486.47050,-4.548632094
486.47100,-4.853826502
486.47150,-1.19149361
486.47200,2.470839283
486.47250,2.77603369
486.47300,0.9448672442
486.47350,0.02928402113
486.47400,0.9448672442
486.47450,1.860450467
486.47500,1.250061652
486.47550,0.02928402113
486.47600,0.02928402113
486.47650,0.9448672442
486.47700,2.77603369
486.47750,4.912394544
486.47800,5.827977767
486.47850,4.912394544
486.47900,3.386422506
486.47950,2.77603369
486.48000,3.386422506
486.48050,4.302005729
486.48100,4.912394544
486.48150,4.912394544
486.48200,3.996811321
486.48250,0.9448672442
486.48300,-2.107076833
486.48350,-2.41227124
486.48400,-0.5811047943
486.48450,-0.2759103866
486.48500,-2.41227124
486.48550,-5.15902091
486.48600,-5.464215317
486.48650,-4.243437687
486.48700,-3.938243279
486.48750,-4.853826502
486.48800,-5.464215317
486.48850,-4.548632094
486.48900,-2.717465648
486.48950,-1.801882425
486.49000,-2.41227124
486.49050,-4.243437687
486.49100,-4.853826502
486.49150,-2.717465648
486.49200,0.02928402113
486.49250,0.6396728365
486.49300,0.02928402113
486.49350,0.02928402113
486.49400,1.55525606
486.49450,3.081228098
486.49500,3.081228098
486.49550,2.77603369
486.49600,3.996811321
486.49650,5.52278336
486.49700,5.827977767
486.49750,5.52278336
486.49800,6.133172175
486.49850,7.048755398
486.49900,6.743560991
486.49950,5.52278336
486.50000,4.607200137
486.50050,4.302005729
486.50100,3.386422506
486.50150,2.165644875
486.50200,1.250061652
486.50250,0.9448672442
486.50300,0.3344784288
486.50350,-0.886299202
486.50400,-3.022660056
486.50450,-4.243437687
486.50500,-4.853826502
486.50550,-6.379798541
486.50600,-8.821353802
486.50650,-10.34732584
486.50700,-10.95771466
486.50750,-10.65252025
486.50800,-9.736937025
486.50850,-6.379798541
486.50900,-0.886299202
486.50950,2.470839283
486.51000,1.860450467
486.51050,-0.5811047943
486.51100,-1.801882425
486.51150,0.02928402113
486.51200,2.165644875
486.51250,3.081228098
486.51300,4.912394544
486.51350,6.743560991
486.51400,6.743560991
486.51450,4.607200137
486.51500,2.165644875
486.51550,1.860450467
486.51600,2.470839283
486.51650,3.386422506
486.51700,3.996811321
486.51750,3.691616914
486.51800,0.9448672442
486.51850,-1.19149361
486.51900,-0.5811047943
486.51950,0.9448672442
486.52000,0.9448672442
486.52050,0.02928402113
486.52100,0.3344784288
486.52150,2.77603369
486.52200,2.77603369
486.52250,0.02928402113
486.52300,-1.19149361
486.52350,0.02928402113
486.52400,1.55525606
486.52450,0.02928402113
486.52500,-1.19149361
486.52550,0.02928402113
486.52600,0.02928402113
486.52650,-3.022660056
486.52700,-6.684992948
486.52750,-7.295381764
486.52800,-5.769409725
486.52850,-5.15902091
486.52900,-5.15902091
486.52950,-3.022660056
486.53000,-0.5811047943
486.53050,-0.2759103866
486.53100,-1.801882425
486.53150,-2.41227124
486.53200,-2.107076833
486.53250,-3.022660056
486.53300,-3.633048871
486.53350,-1.801882425
486.53400,1.55525606
486.53450,3.996811321
486.53500,4.302005729
486.53550,3.386422506
486.53600,2.165644875
486.53650,0.6396728365
486.53700,-0.2759103866
486.53750,-0.2759103866
486.53800,0.3344784288
486.53850,0.9448672442
486.53900,2.165644875
486.53950,4.607200137
486.54000,5.827977767
486.54050,2.77603369
486.54100,-2.107076833
486.54150,-5.15902091
486.54200,-4.243437687
486.54250,-2.41227124
486.54300,-1.496688017
486.54350,-1.19149361
486.54400,-0.2759103866
486.54450,0.6396728365
486.54500,0.3344784288
486.54550,-1.496688017
486.54600,-3.633048871
486.54650,-4.548632094
486.54700,-4.243437687
486.54750,-3.327854464
486.54800,-2.41227124
486.54850,-1.801882425
486.54900,-1.19149361
486.54950,-1.496688017
486.55000,-2.41227124
486.55050,-2.41227124
486.55100,-0.5811047943
486.55150,2.165644875
486.55200,3.691616914
486.55250,2.77603369
486.55300,1.860450467
486.55350,3.386422506
486.55400,6.133172175
486.55450,7.048755398
486.55500,5.217588952
486.55550,3.386422506
486.55600,3.081228098
486.55650,3.691616914
486.55700,3.691616914
486.55750,2.77603369
486.55800,2.165644875
486.55850,2.77603369
486.55900,3.691616914
486.55950,4.607200137
486.56000,4.607200137
486.56050,3.691616914
486.56100,3.081228098
486.56150,1.860450467
486.56200,0.3344784288
486.56250,-1.496688017
486.56300,-1.801882425
486.56350,0.02928402113
486.56400,2.470839283
486.56450,2.470839283
486.56500,0.3344784288
486.56550,-2.107076833
486.56600,-3.633048871
486.56650,-3.938243279
486.56700,-3.938243279
486.56750,-3.633048871
486.56800,-3.327854464
486.56850,-3.938243279
486.56900,-5.15902091
486.56950,-5.464215317
486.57000,-4.243437687
486.57050,-3.022660056
486.57100,-2.717465648
486.57150,-2.717465648
486.57200,-1.496688017
486.57250,0.02928402113
486.57300,0.9448672442
486.57350,0.02928402113
486.57400,-1.801882425
486.57450,-1.801882425
486.57500,0.02928402113
486.57550,1.860450467
486.57600,2.77603369
486.57650,3.081228098
486.57700,3.996811321
486.57750,4.912394544
486.57800,4.302005729
486.57850,2.470839283
486.57900,1.55525606
486.57950,1.55525606
486.58000,1.860450467
486.58050,2.165644875
486.58100,2.165644875
486.58150,1.55525606
486.58200,1.250061652
486.58250,1.250061652
486.58300,1.250061652
486.58350,0.02928402113
486.58400,-1.801882425
486.58450,-2.717465648
486.58500,-1.801882425
486.58550,-1.19149361
486.58600,-1.801882425
486.58650,-3.022660056
486.58700,-3.022660056
486.58750,-2.717465648
486.58800,-3.327854464
486.58850,-3.327854464
486.58900,-1.496688017
486.58950,0.3344784288
486.59000,0.6396728365
486.59050,0.02928402113
486.59100,-0.5811047943
486.59150,-1.19149361
486.59200,-2.107076833
486.59250,-1.801882425
486.59300,0.02928402113
486.59350,1.860450467
486.59400,0.9448672442
486.59450,-0.2759103866
486.59500,0.9448672442
486.59550,4.302005729
486.59600,5.217588952
486.59650,2.470839283
486.59700,0.6396728365
486.59750,1.250061652
486.59800,2.470839283
486.59850,2.77603369
486.59900,3.386422506
486.59950,4.912394544
486.60000,5.52278336
486.60050,4.607200137
486.60100,3.691616914
486.60150,3.691616914
486.60200,2.470839283
486.60250,0.02928402113
486.60300,-2.107076833
486.60350,-1.19149361
486.60400,0.02928402113
486.60450,0.02928402113
486.60500,-0.886299202
486.60550,-2.107076833
486.60600,-2.107076833
486.60650,-2.717465648
486.60700,-3.938243279
486.60750,-5.464215317
486.60800,-6.379798541
486.60850,-6.684992948
486.60900,-6.684992948
486.60950,-6.379798541
486.61000,-6.379798541
486.61050,-6.379798541
486.61100,-4.853826502
486.61150,-1.801882425
486.61200,1.250061652
486.61250,3.386422506
486.61300,3.386422506
486.61350,2.470839283
486.61400,2.165644875
486.61450,2.470839283
486.61500,3.386422506
486.61550,3.691616914
486.61600,3.386422506
486.61650,3.386422506
486.61700,3.996811321
486.61750,3.996811321
486.61800,3.386422506
486.61850,3.386422506
486.61900,4.912394544
486.61950,6.438366583
486.62000,5.827977767
486.62050,4.302005729
486.62100,3.996811321
486.62150,4.912394544
486.62200,4.912394544
486.62250,2.470839283
486.62300,0.02928402113
486.62350,-1.19149361
486.62400,-2.41227124
486.62450,-4.853826502
486.62500,-6.074604133
486.62550,-4.548632094
486.62600,-2.107076833
486.62650,-0.886299202
486.62700,-1.19149361
486.62750,-0.886299202
486.62800,0.02928402113
486.62850,0.02928402113
486.62900,0.02928402113
486.62950,1.860450467
486.63000,3.996811321
486.63050,3.691616914
486.63100,0.3344784288
486.63150,-2.717465648
