"type","name","time_units","begin_time","frequency","count","units"
"signal","Ultium EMG-EXT.CARP.ULN. RT","s",10.96000,2000,22000,"uV"

"time","value"
10.96000,-1.453219549
10.96050,-2.063608364
10.96100,0.6831413054
10.96150,2.514307752
10.96200,-0.2324419177
10.96250,-4.505163626
10.96300,-5.115552441
10.96350,-1.758413956
10.96400,-0.2324419177
10.96450,-3.284385995
10.96500,-6.641524479
10.96550,-6.336330072
10.96600,-2.979191587
10.96650,-1.148025141
10.96700,-1.758413956
10.96750,-2.979191587
10.96800,-3.589580402
10.96850,-4.199969218
10.96900,-5.420746849
10.96950,-6.031135664
10.97000,-4.505163626
10.97050,-2.979191587
10.97100,-3.589580402
10.97150,-5.725941256
10.97200,-7.251913295
10.97250,-7.251913295
10.97300,-7.251913295
10.97350,-8.777885333
10.97400,-9.693468556
10.97450,-7.86230211
10.97500,-5.420746849
10.97550,-4.810358033
10.97600,-5.115552441
10.97650,-3.89477481
10.97700,-0.8428307331
10.97750,0.3779468977
10.97800,-0.8428307331
10.97850,-2.673997179
10.97900,-3.284385995
10.97950,-3.589580402
10.98000,-5.115552441
10.98050,-6.946718887
10.98100,-6.336330072
10.98150,-4.199969218
10.98200,-2.368802772
10.98250,-1.148025141
10.98300,-0.2324419177
10.98350,0.07275248999
10.98400,0.07275248999
10.98450,-0.2324419177
10.98500,-0.2324419177
10.98550,0.3779468977
10.98600,1.293530121
10.98650,0.9883357131
10.98700,-0.2324419177
10.98750,-1.453219549
10.98800,-2.979191587
10.98850,-4.505163626
10.98900,-5.420746849
10.98950,-4.505163626
10.99000,-2.063608364
10.99050,0.6831413054
10.99100,2.209113344
10.99150,2.514307752
10.99200,3.429890975
10.99250,4.955863013
10.99300,4.955863013
10.99350,3.735085382
10.99400,3.735085382
10.99450,7.092223867
10.99500,10.44936235
10.99550,9.533779129
10.99600,3.735085382
10.99650,-2.063608364
10.99700,-5.420746849
10.99750,-9.083079741
10.99800,-13.05060704
10.99850,-14.27138467
10.99900,-8.777885333
10.99950,1.598724528
11.00000,10.75455676
11.00050,15.33247288
11.00100,16.85844491
11.00150,17.16363932
11.00200,15.33247288
11.00250,12.2805288
11.00300,9.533779129
11.00350,7.702612683
11.00400,5.871446236
11.00450,4.04027979
11.00500,2.514307752
11.00550,-0.2324419177
11.00600,-7.86230211
11.00650,-17.93371756
11.00700,-24.95318894
11.00750,-25.56357776
11.00800,-23.4272169
11.00850,-25.25838335
11.00900,-29.83629946
11.00950,-32.27785473
11.01000,-28.31032743
11.01050,-20.68046723
11.01100,-13.66099586
11.01150,-7.557107703
11.01200,0.07275248999
11.01250,11.67013998
11.01300,24.1831107
11.01350,30.59219326
11.01400,28.150638
11.01450,20.82597221
11.01500,15.33247288
11.01550,13.80650084
11.01600,13.19611202
11.01650,11.97533439
11.01700,11.97533439
11.01750,15.33247288
11.01800,18.07922254
11.01850,18.07922254
11.01900,18.07922254
11.01950,19.60519458
11.02000,18.99480577
11.02050,9.838973536
11.02100,-4.505163626
11.02150,-12.74541263
11.02200,-7.86230211
11.02250,1.903918936
11.02300,2.819502159
11.02350,-12.74541263
11.02400,-39.2973261
11.02450,-64.01807313
11.02500,-75.31026621
11.02550,-68.29079484
11.02600,-46.62199189
11.02650,-20.98566164
11.02700,-2.368802772
11.02750,8.618195906
11.02800,18.07922254
11.02850,27.84544359
11.02900,31.81297089
11.02950,26.62466596
11.03000,16.55325051
11.03050,10.44936235
11.03100,9.838973536
11.03150,9.838973536
11.03200,6.787029459
11.03250,3.429890975
11.03300,1.598724528
11.03350,0.07275248999
11.03400,-2.063608364
11.03450,-2.979191587
11.03500,-1.453219549
11.03550,-0.8428307331
11.03600,-3.284385995
11.03650,-6.641524479
11.03700,-6.336330072
11.03750,-0.8428307331
11.03800,6.176640644
11.03850,13.50130643
11.03900,20.52077781
11.03950,26.62466596
11.04000,28.76102681
11.04050,23.87791629
11.04100,14.41688965
11.04150,5.566251829
11.04200,1.293530121
11.04250,3.429890975
11.04300,8.313001498
11.04350,10.44936235
11.04400,7.092223867
11.04450,1.293530121
11.04500,-0.2324419177
11.04550,4.650668606
11.04600,11.36494557
11.04650,14.41688965
11.04700,13.50130643
11.04750,11.67013998
11.04800,9.533779129
11.04850,5.871446236
11.04900,0.6831413054
11.04950,-2.979191587
11.05000,-4.810358033
11.05050,-6.336330072
11.05100,-9.083079741
11.05150,-12.44021823
11.05200,-13.35580145
11.05250,-12.44021823
11.05300,-12.13502382
11.05350,-13.35580145
11.05400,-13.96619026
11.05450,-9.998662964
11.05500,-2.979191587
11.05550,2.819502159
11.05600,5.261057421
11.05650,5.261057421
11.05700,5.261057421
11.05750,5.261057421
11.05800,4.04027979
11.05850,1.903918936
11.05900,0.3779468977
11.05950,-0.8428307331
11.06000,-2.979191587
11.06050,-5.420746849
11.06100,-6.336330072
11.06150,-7.251913295
11.06200,-10.91424619
11.06250,-17.01813434
11.06300,-21.90124486
11.06350,-22.81682809
11.06400,-19.4596896
11.06450,-13.66099586
11.06500,-7.557107703
11.06550,-2.368802772
11.06600,0.07275248999
11.06650,0.9883357131
11.06700,1.293530121
11.06750,1.598724528
11.06800,2.209113344
11.06850,1.598724528
11.06900,-0.2324419177
11.06950,-2.673997179
11.07000,-4.505163626
11.07050,-3.589580402
11.07100,-0.2324419177
11.07150,3.124696567
11.07200,2.514307752
11.07250,-0.2324419177
11.07300,-1.148025141
11.07350,-0.2324419177
11.07400,0.07275248999
11.07450,-0.2324419177
11.07500,-0.2324419177
11.07550,0.3779468977
11.07600,1.598724528
11.07650,2.209113344
11.07700,2.514307752
11.07750,3.429890975
11.07800,4.345474198
11.07850,4.650668606
11.07900,3.735085382
11.07950,2.819502159
11.08000,2.209113344
11.08050,2.209113344
11.08100,3.124696567
11.08150,3.429890975
11.08200,2.819502159
11.08250,0.6831413054
11.08300,-1.453219549
11.08350,-3.284385995
11.08400,-4.199969218
11.08450,-5.115552441
11.08500,-6.336330072
11.08550,-8.167496518
11.08600,-8.167496518
11.08650,-5.115552441
11.08700,-0.2324419177
11.08750,1.903918936
11.08800,0.9883357131
11.08850,-0.2324419177
11.08900,1.293530121
11.08950,5.566251829
11.09000,11.05975117
11.09050,14.41688965
11.09100,14.41688965
11.09150,11.67013998
11.09200,8.618195906
11.09250,8.313001498
11.09300,9.533779129
11.09350,8.923390313
11.09400,5.566251829
11.09450,2.209113344
11.09500,0.3779468977
11.09550,-2.368802772
11.09600,-8.167496518
11.09650,-13.66099586
11.09700,-15.1869679
11.09750,-14.57657908
11.09800,-15.4921623
11.09850,-17.01813434
11.09900,-14.27138467
11.09950,-6.641524479
11.10000,-0.2324419177
11.10050,1.598724528
11.10100,-0.8428307331
11.10150,-4.505163626
11.10200,-7.557107703
11.10250,-9.693468556
11.10300,-10.30385737
11.10350,-8.167496518
11.10400,-5.420746849
11.10450,-3.284385995
11.10500,-1.453219549
11.10550,0.07275248999
11.10600,1.598724528
11.10650,2.209113344
11.10700,2.514307752
11.10750,2.514307752
11.10800,2.514307752
11.10850,2.209113344
11.10900,2.514307752
11.10950,3.124696567
11.11000,3.735085382
11.11050,3.735085382
11.11100,3.735085382
11.11150,4.04027979
11.11200,4.345474198
11.11250,3.429890975
11.11300,2.514307752
11.11350,3.429890975
11.11400,4.345474198
11.11450,4.650668606
11.11500,4.955863013
11.11550,6.481835052
11.11600,8.313001498
11.11650,8.313001498
11.11700,6.481835052
11.11750,4.345474198
11.11800,2.514307752
11.11850,1.598724528
11.11900,2.209113344
11.11950,3.124696567
11.12000,2.819502159
11.12050,1.598724528
11.12100,-0.2324419177
11.12150,-3.589580402
11.12200,-7.86230211
11.12250,-10.91424619
11.12300,-8.472690926
11.12350,-2.368802772
11.12400,2.819502159
11.12450,8.00780709
11.12500,16.55325051
11.12550,25.09869392
11.12600,25.40388833
11.12650,19.60519458
11.12700,19.30000018
11.12750,28.45583241
11.12800,33.64413734
11.12850,26.92986037
11.12900,20.82597221
11.12950,26.62466596
11.13000,33.03374852
11.13050,21.13116662
11.13100,-2.673997179
11.13150,-18.54410638
11.13200,-22.51163368
11.13250,-30.14149387
11.13300,-43.87524222
11.13350,-49.36874156
11.13400,-43.87524222
11.13450,-45.70640867
11.13500,-64.32326754
11.13550,-80.19337674
11.13600,-72.56351654
11.13650,-48.14796393
11.13700,-27.69993861
11.13750,-17.01813434
11.13800,-7.251913295
11.13850,5.566251829
11.13900,15.33247288
11.13950,18.07922254
11.14000,16.55325051
11.14050,13.50130643
11.14100,8.618195906
11.14150,3.429890975
11.14200,1.598724528
11.14250,3.124696567
11.14300,5.261057421
11.14350,6.787029459
11.14400,8.618195906
11.14450,10.44936235
11.14500,10.44936235
11.14550,9.228584721
11.14600,10.14416794
11.14650,14.11169524
11.14700,18.07922254
11.14750,16.55325051
11.14800,9.533779129
11.14850,1.598724528
11.14900,-2.673997179
11.14950,-4.199969218
11.15000,-4.810358033
11.15050,-4.199969218
11.15100,-0.2324419177
11.15150,4.345474198
11.15200,2.819502159
11.15250,-4.810358033
11.15300,-8.167496518
11.15350,-0.2324419177
11.15400,13.19611202
11.15450,19.30000018
11.15500,14.72208406
11.15550,8.00780709
11.15600,6.787029459
11.15650,8.923390313
11.15700,9.228584721
11.15750,7.702612683
11.15800,7.092223867
11.15850,6.787029459
11.15900,5.261057421
11.15950,4.04027979
11.16000,5.261057421
11.16050,6.787029459
11.16100,4.955863013
11.16150,0.07275248999
11.16200,-2.979191587
11.16250,-2.063608364
11.16300,-0.2324419177
11.16350,0.6831413054
11.16400,0.6831413054
11.16450,1.903918936
11.16500,3.124696567
11.16550,2.209113344
11.16600,-0.2324419177
11.16650,-1.758413956
11.16700,-0.2324419177
11.16750,4.345474198
11.16800,8.618195906
11.16850,9.533779129
11.16900,4.955863013
11.16950,-3.284385995
11.17000,-9.998662964
11.17050,-11.82982941
11.17100,-9.388274149
11.17150,-6.641524479
11.17200,-5.115552441
11.17250,-4.505163626
11.17300,-3.89477481
11.17350,-2.368802772
11.17400,0.07275248999
11.17450,3.429890975
11.17500,3.735085382
11.17550,-0.2324419177
11.17600,-6.641524479
11.17650,-11.21944059
11.17700,-13.35580145
11.17750,-15.79735671
11.17800,-19.4596896
11.17850,-21.90124486
11.17900,-21.90124486
11.17950,-18.84930079
11.18000,-13.05060704
11.18050,-1.453219549
11.18100,15.63766728
11.18150,32.1181653
11.18200,37.61166464
11.18250,29.06622122
11.18300,14.72208406
11.18350,5.871446236
11.18400,5.566251829
11.18450,8.618195906
11.18500,8.313001498
11.18550,3.735085382
11.18600,-0.8428307331
11.18650,-3.284385995
11.18700,-3.284385995
11.18750,-2.979191587
11.18800,-2.368802772
11.18850,-2.063608364
11.18900,-1.758413956
11.18950,-2.368802772
11.19000,-3.89477481
11.19050,-6.336330072
11.19100,-8.777885333
11.19150,-8.472690926
11.19200,-4.505163626
11.19250,0.07275248999
11.19300,4.04027979
11.19350,6.481835052
11.19400,8.313001498
11.19450,9.228584721
11.19500,8.313001498
11.19550,6.481835052
11.19600,4.955863013
11.19650,3.124696567
11.19700,0.9883357131
11.19750,-0.2324419177
11.19800,0.3779468977
11.19850,1.598724528
11.19900,0.6831413054
11.19950,-1.148025141
11.20000,-1.453219549
11.20050,-0.2324419177
11.20100,0.9883357131
11.20150,1.598724528
11.20200,2.819502159
11.20250,4.04027979
11.20300,2.819502159
11.20350,-0.2324419177
11.20400,-2.368802772
11.20450,-0.8428307331
11.20500,1.598724528
11.20550,2.209113344
11.20600,0.6831413054
11.20650,-0.2324419177
11.20700,-1.453219549
11.20750,-3.89477481
11.20800,-6.641524479
11.20850,-6.946718887
11.20900,-4.505163626
11.20950,-1.453219549
11.21000,-0.2324419177
11.21050,-0.8428307331
11.21100,-3.589580402
11.21150,-6.946718887
11.21200,-8.472690926
11.21250,-7.251913295
11.21300,-4.199969218
11.21350,-2.673997179
11.21400,-2.979191587
11.21450,-3.589580402
11.21500,-2.063608364
11.21550,0.3779468977
11.21600,3.429890975
11.21650,5.566251829
11.21700,7.702612683
11.21750,10.14416794
11.21800,11.05975117
11.21850,8.923390313
11.21900,4.650668606
11.21950,1.903918936
11.22000,0.6831413054
11.22050,-2.673997179
11.22100,-11.524635
11.22150,-21.90124486
11.22200,-27.0895498
11.22250,-23.4272169
11.22300,-16.71293993
11.22350,-12.44021823
11.22400,-12.44021823
11.22450,-13.35580145
11.22500,-11.82982941
11.22550,-7.86230211
11.22600,-3.89477481
11.22650,-1.758413956
11.22700,-1.758413956
11.22750,-2.063608364
11.22800,-1.148025141
11.22850,-1.758413956
11.22900,-7.251913295
11.22950,-16.10255112
11.23000,-21.29085605
11.23050,-18.54410638
11.23100,-10.60905178
11.23150,-4.810358033
11.23200,-3.284385995
11.23250,-4.810358033
11.23300,-6.946718887
11.23350,-8.167496518
11.23400,-6.336330072
11.23450,-1.453219549
11.23500,3.735085382
11.23550,7.397418275
11.23600,9.228584721
11.23650,10.75455676
11.23700,10.75455676
11.23750,8.923390313
11.23800,7.092223867
11.23850,8.618195906
11.23900,12.89091761
11.23950,16.85844491
11.24000,19.30000018
11.24050,19.30000018
11.24100,15.33247288
11.24150,7.092223867
11.24200,0.9883357131
11.24250,2.209113344
11.24300,7.092223867
11.24350,5.566251829
11.24400,-4.810358033
11.24450,-14.88177349
11.24500,-17.01813434
11.24550,-14.57657908
11.24600,-14.27138467
11.24650,-14.88177349
11.24700,-10.60905178
11.24750,-2.673997179
11.24800,3.124696567
11.24850,7.092223867
11.24900,13.50130643
11.24950,22.35194425
11.25000,26.62466596
11.25050,22.96233307
11.25100,16.2480561
11.25150,11.97533439
11.25200,9.838973536
11.25250,7.092223867
11.25300,4.650668606
11.25350,8.313001498
11.25400,17.77402814
11.25450,25.09869392
11.25500,24.79349951
11.25550,19.91038899
11.25600,18.68961136
11.25650,23.87791629
11.25700,28.76102681
11.25750,28.150638
11.25800,24.48830511
11.25850,20.82597221
11.25900,11.97533439
11.25950,-6.641524479
11.26000,-27.69993861
11.26050,-35.63499321
11.26100,-28.92071624
11.26150,-24.34280013
11.26200,-37.46615966
11.26250,-62.49210109
11.26300,-79.58298792
11.26350,-75.0050718
11.26400,-53.03107445
11.26450,-29.22591065
11.26500,-12.44021823
11.26550,-3.589580402
11.26600,-0.2324419177
11.26650,-0.5376363254
11.26700,-5.420746849
11.26750,-13.05060704
11.26800,-17.93371756
11.26850,-17.01813434
11.26900,-11.82982941
11.26950,-7.557107703
11.27000,-6.641524479
11.27050,-6.946718887
11.27100,-5.725941256
11.27150,-2.673997179
11.27200,0.9883357131
11.27250,4.04027979
11.27300,6.176640644
11.27350,7.702612683
11.27400,7.092223867
11.27450,2.819502159
11.27500,-3.284385995
11.27550,-4.810358033
11.27600,4.345474198
11.27650,19.91038899
11.27700,29.98180444
11.27750,26.62466596
11.27800,14.41688965
11.27850,2.514307752
11.27900,-2.979191587
11.27950,-2.368802772
11.28000,1.903918936
11.28050,7.092223867
11.28100,9.838973536
11.28150,9.838973536
11.28200,9.533779129
11.28250,11.05975117
11.28300,12.89091761
11.28350,12.58572321
11.28400,9.228584721
11.28450,3.735085382
11.28500,-0.8428307331
11.28550,-2.673997179
11.28600,-0.2324419177
11.28650,3.429890975
11.28700,4.650668606
11.28750,4.04027979
11.28800,5.871446236
11.28850,10.14416794
11.28900,12.58572321
11.28950,11.05975117
11.29000,7.702612683
11.29050,5.261057421
11.29100,3.124696567
11.29150,-0.2324419177
11.29200,-2.673997179
11.29250,-2.673997179
11.29300,-1.453219549
11.29350,-0.5376363254
11.29400,-0.5376363254
11.29450,0.3779468977
11.29500,2.209113344
11.29550,2.819502159
11.29600,1.903918936
11.29650,0.6831413054
11.29700,0.9883357131
11.29750,1.903918936
11.29800,2.209113344
11.29850,2.209113344
11.29900,2.819502159
11.29950,4.345474198
11.30000,4.955863013
11.30050,3.735085382
11.30100,1.293530121
11.30150,-0.5376363254
11.30200,-2.368802772
11.30250,-2.979191587
11.30300,-2.673997179
11.30350,-1.148025141
11.30400,0.3779468977
11.30450,0.9883357131
11.30500,1.293530121
11.30550,1.598724528
11.30600,1.598724528
11.30650,0.9883357131
11.30700,-0.2324419177
11.30750,-0.5376363254
11.30800,0.6831413054
11.30850,2.514307752
11.30900,1.903918936
11.30950,-1.453219549
11.31000,-6.336330072
11.31050,-9.083079741
11.31100,-7.251913295
11.31150,-2.673997179
11.31200,0.9883357131
11.31250,0.6831413054
11.31300,-2.673997179
11.31350,-5.420746849
11.31400,-5.115552441
11.31450,-2.063608364
11.31500,1.903918936
11.31550,5.566251829
11.31600,7.702612683
11.31650,7.702612683
11.31700,7.397418275
11.31750,8.313001498
11.31800,10.75455676
11.31850,11.97533439
11.31900,10.14416794
11.31950,7.397418275
11.32000,4.345474198
11.32050,1.903918936
11.32100,0.07275248999
11.32150,-0.5376363254
11.32200,-1.148025141
11.32250,-2.673997179
11.32300,-5.420746849
11.32350,-5.725941256
11.32400,-2.673997179
11.32450,-0.2324419177
11.32500,-1.453219549
11.32550,-5.115552441
11.32600,-6.641524479
11.32650,-5.420746849
11.32700,-4.810358033
11.32750,-5.725941256
11.32800,-4.505163626
11.32850,-1.148025141
11.32900,0.3779468977
11.32950,-1.148025141
11.33000,-2.673997179
11.33050,-1.148025141
11.33100,1.598724528
11.33150,2.514307752
11.33200,2.819502159
11.33250,6.176640644
11.33300,11.67013998
11.33350,15.94286169
11.33400,18.99480577
11.33450,23.87791629
11.33500,28.76102681
11.33550,30.28699885
11.33600,27.84544359
11.33650,23.87791629
11.33700,19.60519458
11.33750,8.313001498
11.33800,-13.05060704
11.33850,-38.9921317
11.33900,-56.08301853
11.33950,-57.30379616
11.34000,-46.01160307
11.34050,-30.75188269
11.34100,-17.01813434
11.34150,-8.167496518
11.34200,-5.115552441
11.34250,-6.031135664
11.34300,-7.557107703
11.34350,-6.641524479
11.34400,-3.89477481
11.34450,-2.063608364
11.34500,-2.063608364
11.34550,-2.368802772
11.34600,-2.368802772
11.34650,-2.063608364
11.34700,-1.453219549
11.34750,-0.5376363254
11.34800,0.07275248999
11.34850,-0.2324419177
11.34900,-0.8428307331
11.34950,-1.453219549
11.35000,-0.5376363254
11.35050,0.3779468977
11.35100,0.6831413054
11.35150,0.07275248999
11.35200,-0.2324419177
11.35250,-0.2324419177
11.35300,-0.2324419177
11.35350,-0.2324419177
11.35400,0.6831413054
11.35450,1.293530121
11.35500,0.9883357131
11.35550,-0.2324419177
11.35600,-1.453219549
11.35650,-2.368802772
11.35700,-2.368802772
11.35750,-1.453219549
11.35800,-0.8428307331
11.35850,-0.8428307331
11.35900,-1.453219549
11.35950,-2.673997179
11.36000,-4.199969218
11.36050,-4.810358033
11.36100,-3.589580402
11.36150,-1.148025141
11.36200,0.9883357131
11.36250,2.819502159
11.36300,4.650668606
11.36350,5.566251829
11.36400,4.955863013
11.36450,3.735085382
11.36500,3.735085382
11.36550,5.566251829
11.36600,5.871446236
11.36650,4.650668606
11.36700,4.345474198
11.36750,5.261057421
11.36800,5.871446236
11.36850,3.735085382
11.36900,1.293530121
11.36950,0.3779468977
11.37000,0.3779468977
11.37050,0.6831413054
11.37100,1.598724528
11.37150,1.293530121
11.37200,-2.368802772
11.37250,-8.777885333
11.37300,-10.60905178
11.37350,-3.589580402
11.37400,5.261057421
11.37450,6.176640644
11.37500,-3.284385995
11.37550,-14.27138467
11.37600,-17.62852316
11.37650,-12.74541263
11.37700,-3.89477481
11.37750,5.871446236
11.37800,14.72208406
11.37850,18.68961136
11.37900,15.33247288
11.37950,6.176640644
11.38000,-4.199969218
11.38050,-11.524635
11.38100,-11.524635
11.38150,-3.284385995
11.38200,6.481835052
11.38250,9.838973536
11.38300,2.209113344
11.38350,-9.388274149
11.38400,-14.57657908
11.38450,-9.083079741
11.38500,0.3779468977
11.38550,7.092223867
11.38600,8.313001498
11.38650,7.397418275
11.38700,6.787029459
11.38750,6.176640644
11.38800,4.04027979
11.38850,-0.2324419177
11.38900,-7.86230211
11.38950,-20.37527283
11.39000,-32.27785473
11.39050,-34.71940999
11.39100,-24.34280013
11.39150,-8.472690926
11.39200,3.124696567
11.39250,8.313001498
11.39300,10.75455676
11.39350,11.67013998
11.39400,9.838973536
11.39450,8.00780709
11.39500,9.228584721
11.39550,8.00780709
11.39600,-6.031135664
11.39650,-33.19343795
11.39700,-54.25185208
11.39750,-51.50510241
11.39800,-27.69993861
11.39850,-3.284385995
11.39900,8.00780709
11.39950,9.838973536
11.40000,9.228584721
11.40050,10.44936235
11.40100,14.41688965
11.40150,21.43636103
11.40200,27.54024918
11.40250,26.92986037
11.40300,19.91038899
11.40350,13.50130643
11.40400,11.97533439
11.40450,12.2805288
11.40500,10.14416794
11.40550,7.397418275
11.40600,7.702612683
11.40650,9.533779129
11.40700,8.923390313
11.40750,5.871446236
11.40800,3.735085382
11.40850,3.124696567
11.40900,2.209113344
11.40950,0.6831413054
11.41000,-1.148025141
11.41050,-3.589580402
11.41100,-6.336330072
11.41150,-7.251913295
11.41200,-6.641524479
11.41250,-7.251913295
11.41300,-9.693468556
11.41350,-10.91424619
11.41400,-8.472690926
11.41450,-5.725941256
11.41500,-4.199969218
11.41550,-0.8428307331
11.41600,6.481835052
11.41650,14.72208406
11.41700,16.85844491
11.41750,13.50130643
11.41800,11.05975117
11.41850,11.05975117
11.41900,7.702612683
11.41950,-0.5376363254
11.42000,-7.251913295
11.42050,-7.251913295
11.42100,-4.505163626
11.42150,-5.420746849
11.42200,-9.693468556
11.42250,-12.74541263
11.42300,-13.66099586
11.42350,-11.524635
11.42400,-6.031135664
11.42450,0.3779468977
11.42500,0.9883357131
11.42550,-5.420746849
11.42600,-8.777885333
11.42650,0.9883357131
11.42700,20.82597221
11.42750,37.00127582
11.42800,42.18958075
11.42850,40.66360871
11.42900,38.22205345
11.42950,33.03374852
11.43000,23.26752748
11.43050,11.67013998
11.43100,4.345474198
11.43150,2.209113344
11.43200,2.514307752
11.43250,0.9883357131
11.43300,-5.115552441
11.43350,-14.57657908
11.43400,-21.29085605
11.43450,-20.37527283
11.43500,-13.66099586
11.43550,-7.557107703
11.43600,-5.420746849
11.43650,-5.725941256
11.43700,-6.031135664
11.43750,-6.031135664
11.43800,-6.336330072
11.43850,-8.167496518
11.43900,-12.13502382
11.43950,-17.62852316
11.44000,-19.76488401
11.44050,-13.35580145
11.44100,-1.453219549
11.44150,6.787029459
11.44200,6.176640644
11.44250,-0.2324419177
11.44300,-5.725941256
11.44350,-6.031135664
11.44400,-1.453219549
11.44450,4.650668606
11.44500,7.702612683
11.44550,4.345474198
11.44600,-1.758413956
11.44650,-4.810358033
11.44700,-1.453219549
11.44750,2.819502159
11.44800,3.429890975
11.44850,0.6831413054
11.44900,-2.063608364
11.44950,-2.979191587
11.45000,-1.758413956
11.45050,0.07275248999
11.45100,1.293530121
11.45150,0.3779468977
11.45200,-0.8428307331
11.45250,-1.758413956
11.45300,-2.063608364
11.45350,-3.284385995
11.45400,-4.505163626
11.45450,-4.810358033
11.45500,-5.420746849
11.45550,-7.557107703
11.45600,-10.30385737
11.45650,-10.30385737
11.45700,-6.336330072
11.45750,-1.453219549
11.45800,1.598724528
11.45850,3.429890975
11.45900,4.04027979
11.45950,3.429890975
11.46000,1.903918936
11.46050,0.6831413054
11.46100,-0.2324419177
11.46150,-2.979191587
11.46200,-5.420746849
11.46250,-5.420746849
11.46300,-6.641524479
11.46350,-13.66099586
11.46400,-24.64799453
11.46450,-30.75188269
11.46500,-26.17396657
11.46550,-16.10255112
11.46600,-7.86230211
11.46650,-3.89477481
11.46700,-0.5376363254
11.46750,2.819502159
11.46800,4.345474198
11.46850,2.209113344
11.46900,-1.758413956
11.46950,-3.89477481
11.47000,-2.368802772
11.47050,0.07275248999
11.47100,0.3779468977
11.47150,-1.453219549
11.47200,-2.673997179
11.47250,-0.5376363254
11.47300,1.903918936
11.47350,3.124696567
11.47400,2.819502159
11.47450,3.429890975
11.47500,2.514307752
11.47550,-3.89477481
11.47600,-14.88177349
11.47650,-24.03760572
11.47700,-26.17396657
11.47750,-21.90124486
11.47800,-14.27138467
11.47850,-6.641524479
11.47900,-0.5376363254
11.47950,2.514307752
11.48000,4.345474198
11.48050,5.566251829
11.48100,5.566251829
11.48150,3.124696567
11.48200,1.293530121
11.48250,3.429890975
11.48300,7.702612683
11.48350,10.75455676
11.48400,11.36494557
11.48450,9.533779129
11.48500,4.650668606
11.48550,-1.148025141
11.48600,-2.673997179
11.48650,3.429890975
11.48700,11.97533439
11.48750,13.50130643
11.48800,7.397418275
11.48850,0.6831413054
11.48900,-3.89477481
11.48950,-6.946718887
11.49000,-6.641524479
11.49050,0.6831413054
11.49100,12.2805288
11.49150,18.07922254
11.49200,15.94286169
11.49250,13.19611202
11.49300,14.11169524
11.49350,15.02727847
11.49400,12.2805288
11.49450,8.618195906
11.49500,8.313001498
11.49550,9.533779129
11.49600,8.923390313
11.49650,8.313001498
11.49700,10.75455676
11.49750,14.11169524
11.49800,14.11169524
11.49850,11.97533439
11.49900,11.36494557
11.49950,11.36494557
11.50000,8.923390313
11.50050,4.955863013
11.50100,4.650668606
11.50150,9.838973536
11.50200,15.63766728
11.50250,17.46883373
11.50300,18.07922254
11.50350,20.52077781
11.50400,22.96233307
11.50450,22.65713866
11.50500,21.43636103
11.50550,22.04674984
11.50600,18.68961136
11.50650,0.6831413054
11.50700,-28.92071624
11.50750,-51.199908
11.50800,-49.06354715
11.50850,-29.22591065
11.50900,-14.27138467
11.50950,-16.71293993
11.51000,-27.69993861
11.51050,-32.27785473
11.51100,-25.86877216
11.51150,-16.40774553
11.51200,-12.44021823
11.51250,-14.57657908
11.51300,-15.1869679
11.51350,-5.725941256
11.51400,11.97533439
11.51450,27.23505478
11.51500,31.20258208
11.51550,27.54024918
11.51600,27.23505478
11.51650,28.76102681
11.51700,19.91038899
11.51750,-2.063608364
11.51800,-23.4272169
11.51850,-30.75188269
11.51900,-28.00513302
11.51950,-27.69993861
11.52000,-30.44668828
11.52050,-27.69993861
11.52100,-18.23891197
11.52150,-9.388274149
11.52200,-7.251913295
11.52250,-8.167496518
11.52300,-6.031135664
11.52350,-0.2324419177
11.52400,6.787029459
11.52450,11.67013998
11.52500,12.58572321
11.52550,10.44936235
11.52600,7.397418275
11.52650,5.566251829
11.52700,4.04027979
11.52750,2.209113344
11.52800,1.903918936
11.52850,4.04027979
11.52900,6.176640644
11.52950,7.702612683
11.53000,11.36494557
11.53050,16.2480561
11.53100,18.07922254
11.53150,14.41688965
11.53200,8.923390313
11.53250,6.176640644
11.53300,5.871446236
11.53350,5.261057421
11.53400,4.955863013
11.53450,5.871446236
11.53500,6.176640644
11.53550,3.124696567
11.53600,-0.8428307331
11.53650,-3.284385995
11.53700,-5.420746849
11.53750,-10.60905178
11.53800,-16.10255112
11.53850,-17.01813434
11.53900,-12.44021823
11.53950,-6.946718887
11.54000,-4.199969218
11.54050,-3.589580402
11.54100,-4.505163626
11.54150,-7.557107703
11.54200,-11.524635
11.54250,-13.05060704
11.54300,-10.30385737
11.54350,-4.199969218
11.54400,1.903918936
11.54450,8.00780709
11.54500,13.50130643
11.54550,17.46883373
11.54600,18.38441695
11.54650,15.63766728
11.54700,11.67013998
11.54750,8.923390313
11.54800,8.313001498
11.54850,8.00780709
11.54900,5.871446236
11.54950,1.598724528
11.55000,-2.368802772
11.55050,-5.725941256
11.55100,-8.472690926
11.55150,-10.60905178
11.55200,-11.21944059
11.55250,-9.388274149
11.55300,-4.505163626
11.55350,0.3779468977
11.55400,0.6831413054
11.55450,-6.031135664
11.55500,-15.4921623
11.55550,-18.84930079
11.55600,-15.1869679
11.55650,-10.30385737
11.55700,-9.083079741
11.55750,-9.083079741
11.55800,-7.86230211
11.55850,-8.472690926
11.55900,-15.1869679
11.55950,-24.03760572
11.56000,-27.69993861
11.56050,-24.95318894
11.56100,-20.07007842
11.56150,-16.71293993
11.56200,-13.35580145
11.56250,-9.083079741
11.56300,-5.725941256
11.56350,-3.589580402
11.56400,-1.758413956
11.56450,0.07275248999
11.56500,0.3779468977
11.56550,-0.2324419177
11.56600,-0.8428307331
11.56650,-0.2324419177
11.56700,0.3779468977
11.56750,-0.5376363254
11.56800,-2.063608364
11.56850,-1.453219549
11.56900,0.3779468977
11.56950,0.3779468977
11.57000,-1.758413956
11.57050,-4.199969218
11.57100,-2.063608364
11.57150,4.650668606
11.57200,12.58572321
11.57250,16.85844491
11.57300,17.46883373
11.57350,15.94286169
11.57400,14.11169524
11.57450,13.19611202
11.57500,12.89091761
11.57550,12.89091761
11.57600,10.75455676
11.57650,6.481835052
11.57700,1.598724528
11.57750,-1.453219549
11.57800,-2.063608364
11.57850,-1.453219549
11.57900,-0.8428307331
11.57950,-0.8428307331
11.58000,-2.063608364
11.58050,-3.89477481
11.58100,-4.199969218
11.58150,-2.063608364
11.58200,1.293530121
11.58250,3.735085382
11.58300,5.261057421
11.58350,7.397418275
11.58400,8.923390313
11.58450,8.618195906
11.58500,6.481835052
11.58550,5.261057421
11.58600,5.871446236
11.58650,6.787029459
11.58700,5.261057421
11.58750,3.124696567
11.58800,2.514307752
11.58850,2.514307752
11.58900,1.293530121
11.58950,-0.5376363254
11.59000,-0.5376363254
11.59050,1.293530121
11.59100,3.124696567
11.59150,2.514307752
11.59200,0.6831413054
11.59250,0.07275248999
11.59300,1.293530121
11.59350,3.429890975
11.59400,4.650668606
11.59450,4.345474198
11.59500,3.124696567
11.59550,2.514307752
11.59600,3.735085382
11.59650,5.566251829
11.59700,5.871446236
11.59750,4.345474198
11.59800,3.429890975
11.59850,3.735085382
11.59900,3.735085382
11.59950,3.429890975
11.60000,4.955863013
11.60050,8.00780709
11.60100,7.702612683
11.60150,1.598724528
11.60200,-5.725941256
11.60250,-7.251913295
11.60300,-2.979191587
11.60350,-0.2324419177
11.60400,-3.589580402
11.60450,-8.777885333
11.60500,-8.167496518
11.60550,-2.368802772
11.60600,2.514307752
11.60650,4.345474198
11.60700,4.345474198
11.60750,4.955863013
11.60800,4.955863013
11.60850,2.819502159
11.60900,0.9883357131
11.60950,2.819502159
11.61000,8.618195906
11.61050,13.80650084
11.61100,15.02727847
11.61150,13.80650084
11.61200,11.67013998
11.61250,8.923390313
11.61300,4.04027979
11.61350,-0.8428307331
11.61400,-4.505163626
11.61450,-7.251913295
11.61500,-11.82982941
11.61550,-18.54410638
11.61600,-26.47916098
11.61650,-33.19343795
11.61700,-35.94018762
11.61750,-31.97266032
11.61800,-23.1220225
11.61850,-15.79735671
11.61900,-12.44021823
11.61950,-9.083079741
11.62000,-2.368802772
11.62050,2.819502159
11.62100,1.598724528
11.62150,-3.589580402
11.62200,-4.199969218
11.62250,0.9883357131
11.62300,5.871446236
11.62350,4.650668606
11.62400,-0.2324419177
11.62450,-5.115552441
11.62500,-10.60905178
11.62550,-14.88177349
11.62600,-11.82982941
11.62650,1.903918936
11.62700,18.99480577
11.62750,28.150638
11.62800,26.31947155
11.62850,19.30000018
11.62900,13.50130643
11.62950,9.533779129
11.63000,5.566251829
11.63050,2.514307752
11.63100,2.514307752
11.63150,5.871446236
11.63200,9.228584721
11.63250,10.14416794
11.63300,8.00780709
11.63350,5.566251829
11.63400,3.429890975
11.63450,0.9883357131
11.63500,-1.758413956
11.63550,-4.199969218
11.63600,-6.031135664
11.63650,-7.86230211
11.63700,-10.30385737
11.63750,-10.60905178
11.63800,-7.557107703
11.63850,-3.89477481
11.63900,-2.673997179
11.63950,-2.368802772
11.64000,-0.8428307331
11.64050,1.903918936
11.64100,3.429890975
11.64150,2.819502159
11.64200,2.209113344
11.64250,2.209113344
11.64300,2.209113344
11.64350,1.903918936
11.64400,2.514307752
11.64450,4.955863013
11.64500,7.092223867
11.64550,6.787029459
11.64600,4.650668606
11.64650,1.903918936
11.64700,0.3779468977
11.64750,-0.2324419177
11.64800,-1.453219549
11.64850,-3.89477481
11.64900,-5.725941256
11.64950,-6.031135664
11.65000,-4.505163626
11.65050,-4.505163626
11.65100,-6.946718887
11.65150,-8.777885333
11.65200,-8.167496518
11.65250,-6.641524479
11.65300,-8.777885333
11.65350,-13.66099586
11.65400,-15.1869679
11.65450,-9.083079741
11.65500,0.6831413054
11.65550,6.787029459
11.65600,5.871446236
11.65650,2.209113344
11.65700,0.07275248999
11.65750,0.07275248999
11.65800,-0.8428307331
11.65850,-3.89477481
11.65900,-5.420746849
11.65950,-3.589580402
11.66000,-1.758413956
11.66050,-2.368802772
11.66100,-4.505163626
11.66150,-4.505163626
11.66200,-2.063608364
11.66250,-0.5376363254
11.66300,-2.979191587
11.66350,-8.472690926
11.66400,-13.66099586
11.66450,-15.79735671
11.66500,-13.05060704
11.66550,-6.031135664
11.66600,2.514307752
11.66650,9.228584721
11.66700,12.58572321
11.66750,13.50130643
11.66800,12.58572321
11.66850,10.14416794
11.66900,6.787029459
11.66950,5.261057421
11.67000,4.650668606
11.67050,2.514307752
11.67100,-0.2324419177
11.67150,-0.2324419177
11.67200,5.871446236
11.67250,11.97533439
11.67300,11.97533439
11.67350,7.092223867
11.67400,2.819502159
11.67450,1.293530121
11.67500,2.209113344
11.67550,6.176640644
11.67600,12.2805288
11.67650,11.05975117
11.67700,-5.725941256
11.67750,-32.27785473
11.67800,-48.75835274
11.67850,-43.2648534
11.67900,-24.34280013
11.67950,-8.777885333
11.68000,-2.063608364
11.68050,-0.5376363254
11.68100,-1.453219549
11.68150,-5.420746849
11.68200,-10.60905178
11.68250,-11.82982941
11.68300,-6.946718887
11.68350,-0.8428307331
11.68400,1.598724528
11.68450,0.9883357131
11.68500,0.07275248999
11.68550,-0.2324419177
11.68600,0.07275248999
11.68650,1.293530121
11.68700,1.903918936
11.68750,0.9883357131
11.68800,-0.2324419177
11.68850,-0.2324419177
11.68900,2.819502159
11.68950,6.176640644
11.69000,7.702612683
11.69050,8.618195906
11.69100,9.533779129
11.69150,10.14416794
11.69200,9.838973536
11.69250,8.923390313
11.69300,7.092223867
11.69350,4.955863013
11.69400,4.345474198
11.69450,5.566251829
11.69500,4.955863013
11.69550,-0.2324419177
11.69600,-8.167496518
11.69650,-13.35580145
11.69700,-11.82982941
11.69750,-6.641524479
11.69800,-1.148025141
11.69850,2.209113344
11.69900,4.345474198
11.69950,4.650668606
11.70000,3.429890975
11.70050,2.514307752
11.70100,3.735085382
11.70150,5.566251829
11.70200,6.481835052
11.70250,6.481835052
11.70300,7.092223867
11.70350,8.618195906
11.70400,10.75455676
11.70450,13.50130643
11.70500,16.2480561
11.70550,17.46883373
11.70600,16.2480561
11.70650,13.80650084
11.70700,10.75455676
11.70750,7.702612683
11.70800,5.871446236
11.70850,4.955863013
11.70900,3.124696567
11.70950,-0.2324419177
11.71000,-1.758413956
11.71050,1.598724528
11.71100,6.787029459
11.71150,9.228584721
11.71200,9.838973536
11.71250,12.89091761
11.71300,16.85844491
11.71350,15.94286169
11.71400,11.36494557
11.71450,9.838973536
11.71500,8.00780709
11.71550,-5.420746849
11.71600,-32.58304913
11.71650,-54.25185208
11.71700,-53.64146327
11.71750,-34.41421558
11.71800,-15.1869679
11.71850,-4.810358033
11.71900,-1.148025141
11.71950,-0.5376363254
11.72000,-3.589580402
11.72050,-6.946718887
11.72100,-4.810358033
11.72150,2.209113344
11.72200,8.00780709
11.72250,7.092223867
11.72300,1.598724528
11.72350,-3.89477481
11.72400,-7.251913295
11.72450,-5.115552441
11.72500,2.209113344
11.72550,10.75455676
11.72600,13.50130643
11.72650,9.838973536
11.72700,5.261057421
11.72750,4.650668606
11.72800,5.871446236
11.72850,3.429890975
11.72900,-1.758413956
11.72950,-6.031135664
11.73000,-7.251913295
11.73050,-8.472690926
11.73100,-11.21944059
11.73150,-12.74541263
11.73200,-10.91424619
11.73250,-8.167496518
11.73300,-7.251913295
11.73350,-7.251913295
11.73400,-5.420746849
11.73450,-2.063608364
11.73500,1.598724528
11.73550,7.397418275
11.73600,18.99480577
11.73650,33.94933174
11.73700,43.10516398
11.73750,40.96880312
11.73800,30.59219326
11.73850,19.60519458
11.73900,11.36494557
11.73950,4.955863013
11.74000,-1.148025141
11.74050,-10.91424619
11.74100,-24.95318894
11.74150,-37.77135406
11.74200,-40.51810373
11.74250,-29.83629946
11.74300,-13.96619026
11.74350,-3.89477481
11.74400,-2.979191587
11.74450,-4.505163626
11.74500,-3.589580402
11.74550,-1.148025141
11.74600,-0.8428307331
11.74650,-2.979191587
11.74700,-4.199969218
11.74750,-3.589580402
11.74800,-2.673997179
11.74850,-2.673997179
11.74900,-2.063608364
11.74950,-0.5376363254
11.75000,-1.148025141
11.75050,-5.725941256
11.75100,-12.13502382
11.75150,-15.1869679
11.75200,-14.88177349
11.75250,-14.88177349
11.75300,-16.71293993
11.75350,-15.79735671
11.75400,-9.083079741
11.75450,-0.5376363254
11.75500,5.261057421
11.75550,11.67013998
11.75600,22.96233307
11.75650,34.86491497
11.75700,37.91685904
11.75750,30.59219326
11.75800,20.52077781
11.75850,15.33247288
11.75900,14.72208406
11.75950,13.80650084
11.76000,9.838973536
11.76050,3.429890975
11.76100,-2.979191587
11.76150,-8.472690926
11.76200,-11.21944059
11.76250,-10.91424619
11.76300,-8.777885333
11.76350,-6.946718887
11.76400,-6.031135664
11.76450,-7.557107703
11.76500,-10.30385737
11.76550,-12.44021823
11.76600,-11.524635
11.76650,-9.693468556
11.76700,-9.388274149
11.76750,-10.91424619
11.76800,-11.82982941
11.76850,-10.30385737
11.76900,-8.472690926
11.76950,-7.86230211
11.77000,-8.167496518
11.77050,-7.86230211
11.77100,-6.641524479
11.77150,-3.89477481
11.77200,0.3779468977
11.77250,4.345474198
11.77300,4.955863013
11.77350,1.903918936
11.77400,-1.148025141
11.77450,-2.063608364
11.77500,-0.8428307331
11.77550,0.07275248999
11.77600,0.9883357131
11.77650,2.514307752
11.77700,5.566251829
11.77750,8.618195906
11.77800,8.923390313
11.77850,6.481835052
11.77900,4.345474198
11.77950,4.345474198
11.78000,5.871446236
11.78050,5.871446236
11.78100,3.735085382
11.78150,2.819502159
11.78200,4.955863013
11.78250,7.702612683
11.78300,8.923390313
11.78350,8.00780709
11.78400,7.397418275
11.78450,7.702612683
11.78500,7.092223867
11.78550,5.261057421
11.78600,4.650668606
11.78650,6.787029459
11.78700,8.618195906
11.78750,4.955863013
11.78800,-5.725941256
11.78850,-17.62852316
11.78900,-24.03760572
11.78950,-23.1220225
11.79000,-18.54410638
11.79050,-14.27138467
11.79100,-11.21944059
11.79150,-9.693468556
11.79200,-9.693468556
11.79250,-10.30385737
11.79300,-9.998662964
11.79350,-7.251913295
11.79400,-2.979191587
11.79450,0.6831413054
11.79500,2.819502159
11.79550,3.735085382
11.79600,4.955863013
11.79650,7.092223867
11.79700,8.923390313
11.79750,8.00780709
11.79800,4.955863013
11.79850,2.514307752
11.79900,3.429890975
11.79950,5.566251829
11.80000,6.481835052
11.80050,5.566251829
11.80100,4.04027979
11.80150,2.819502159
11.80200,1.598724528
11.80250,1.293530121
11.80300,1.598724528
11.80350,0.9883357131
11.80400,-3.589580402
11.80450,-11.82982941
11.80500,-17.93371756
11.80550,-18.23891197
11.80600,-14.27138467
11.80650,-9.388274149
11.80700,-5.115552441
11.80750,-2.673997179
11.80800,-1.148025141
11.80850,-0.8428307331
11.80900,-0.2324419177
11.80950,0.6831413054
11.81000,1.903918936
11.81050,3.124696567
11.81100,4.345474198
11.81150,5.566251829
11.81200,5.261057421
11.81250,4.04027979
11.81300,2.819502159
11.81350,2.209113344
11.81400,1.598724528
11.81450,0.3779468977
11.81500,-0.5376363254
11.81550,-1.453219549
11.81600,-2.673997179
11.81650,-3.589580402
11.81700,-3.284385995
11.81750,-2.979191587
11.81800,-3.89477481
11.81850,-5.420746849
11.81900,-6.031135664
11.81950,-5.115552441
11.82000,-3.284385995
11.82050,-1.453219549
11.82100,-0.5376363254
11.82150,-1.758413956
11.82200,-4.199969218
11.82250,-3.89477481
11.82300,2.514307752
11.82350,11.36494557
11.82400,15.94286169
11.82450,15.33247288
11.82500,13.19611202
11.82550,13.19611202
11.82600,14.11169524
11.82650,14.11169524
11.82700,13.50130643
11.82750,12.89091761
11.82800,11.97533439
11.82850,9.838973536
11.82900,6.787029459
11.82950,2.514307752
11.83000,-3.589580402
11.83050,-11.524635
11.83100,-18.84930079
11.83150,-24.64799453
11.83200,-26.78435539
11.83250,-22.51163368
11.83300,-13.35580145
11.83350,-5.115552441
11.83400,-2.063608364
11.83450,-0.8428307331
11.83500,3.429890975
11.83550,10.75455676
11.83600,14.41688965
11.83650,13.50130643
11.83700,11.05975117
11.83750,9.838973536
11.83800,7.397418275
11.83850,3.429890975
11.83900,-0.5376363254
11.83950,-3.89477481
11.84000,-6.031135664
11.84050,-5.725941256
11.84100,-3.589580402
11.84150,-6.641524479
11.84200,-17.93371756
11.84250,-30.75188269
11.84300,-31.66746591
11.84350,-19.1544952
11.84400,-3.89477481
11.84450,3.124696567
11.84500,3.429890975
11.84550,2.209113344
11.84600,1.598724528
11.84650,2.209113344
11.84700,4.04027979
11.84750,5.871446236
11.84800,5.261057421
11.84850,4.04027979
11.84900,6.787029459
11.84950,13.50130643
11.85000,19.60519458
11.85050,22.04674984
11.85100,22.65713866
11.85150,22.65713866
11.85200,21.43636103
11.85250,19.30000018
11.85300,17.16363932
11.85350,10.14416794
11.85400,-8.472690926
11.85450,-36.24538203
11.85500,-56.08301853
11.85550,-55.77782412
11.85600,-40.21290933
11.85650,-22.81682809
11.85700,-9.998662964
11.85750,-0.8428307331
11.85800,4.955863013
11.85850,4.955863013
11.85900,1.293530121
11.85950,-0.2324419177
11.86000,2.209113344
11.86050,6.787029459
11.86100,11.36494557
11.86150,14.11169524
11.86200,13.19611202
11.86250,6.787029459
11.86300,-1.148025141
11.86350,-5.420746849
11.86400,-3.589580402
11.86450,-0.2324419177
11.86500,0.07275248999
11.86550,-0.2324419177
11.86600,1.598724528
11.86650,6.176640644
11.86700,10.14416794
11.86750,12.2805288
11.86800,13.50130643
11.86850,14.72208406
11.86900,14.72208406
11.86950,12.89091761
11.87000,10.44936235
11.87050,9.228584721
11.87100,8.313001498
11.87150,7.397418275
11.87200,5.261057421
11.87250,0.6831413054
11.87300,-6.336330072
11.87350,-16.10255112
11.87400,-23.4272169
11.87450,-23.73241131
11.87500,-17.32332875
11.87550,-9.998662964
11.87600,-6.641524479
11.87650,-6.031135664
11.87700,-2.673997179
11.87750,5.566251829
11.87800,15.02727847
11.87850,18.07922254
11.87900,13.19611202
11.87950,7.397418275
11.88000,4.955863013
11.88050,4.04027979
11.88100,-0.2324419177
11.88150,-5.115552441
11.88200,-3.89477481
11.88250,1.903918936
11.88300,4.955863013
11.88350,1.293530121
11.88400,-0.2324419177
11.88450,5.566251829
11.88500,15.33247288
11.88550,18.99480577
11.88600,17.77402814
11.88650,18.68961136
11.88700,22.96233307
11.88750,23.26752748
11.88800,15.94286169
11.88850,7.702612683
11.88900,6.176640644
11.88950,8.618195906
11.89000,9.533779129
11.89050,6.787029459
11.89100,4.04027979
11.89150,4.345474198
11.89200,7.092223867
11.89250,11.36494557
11.89300,16.2480561
11.89350,21.43636103
11.89400,24.1831107
11.89450,20.82597221
11.89500,10.44936235
11.89550,-1.453219549
11.89600,-9.083079741
11.89650,-13.35580145
11.89700,-20.68046723
11.89750,-33.49863236
11.89800,-42.04407577
11.89850,-37.16096525
11.89900,-22.51163368
11.89950,-11.524635
11.90000,-9.998662964
11.90050,-12.13502382
11.90100,-11.524635
11.90150,-9.083079741
11.90200,-8.472690926
11.90250,-9.388274149
11.90300,-8.167496518
11.90350,-4.810358033
11.90400,-2.368802772
11.90450,-1.758413956
11.90500,-2.063608364
11.90550,-3.284385995
11.90600,-5.115552441
11.90650,-6.336330072
11.90700,-6.641524479
11.90750,-6.336330072
11.90800,-6.641524479
11.90850,-6.946718887
11.90900,-6.336330072
11.90950,-5.115552441
11.91000,-4.810358033
11.91050,-5.725941256
11.91100,-6.641524479
11.91150,-6.641524479
11.91200,-6.031135664
11.91250,-5.115552441
11.91300,-5.115552441
11.91350,-5.115552441
11.91400,-5.115552441
11.91450,-4.505163626
11.91500,-3.284385995
11.91550,-2.673997179
11.91600,-2.063608364
11.91650,-1.758413956
11.91700,-1.453219549
11.91750,-1.453219549
11.91800,-0.2324419177
11.91850,0.9883357131
11.91900,1.293530121
11.91950,-0.2324419177
11.92000,-1.148025141
11.92050,-0.2324419177
11.92100,2.209113344
11.92150,2.819502159
11.92200,1.903918936
11.92250,0.9883357131
11.92300,0.9883357131
11.92350,0.07275248999
11.92400,-1.148025141
11.92450,-1.148025141
11.92500,0.07275248999
11.92550,1.903918936
11.92600,2.514307752
11.92650,2.819502159
11.92700,4.04027979
11.92750,4.345474198
11.92800,2.514307752
11.92850,-0.5376363254
11.92900,-2.368802772
11.92950,-1.758413956
11.93000,-0.8428307331
11.93050,-1.148025141
11.93100,-2.063608364
11.93150,-2.979191587
11.93200,-4.505163626
11.93250,-8.472690926
11.93300,-13.35580145
11.93350,-14.27138467
11.93400,-9.693468556
11.93450,-4.199969218
11.93500,-2.368802772
11.93550,-3.89477481
11.93600,-3.589580402
11.93650,-0.2324419177
11.93700,3.735085382
11.93750,4.955863013
11.93800,4.345474198
11.93850,2.209113344
11.93900,-0.2324419177
11.93950,-2.368802772
11.94000,-2.673997179
11.94050,-1.453219549
11.94100,-1.453219549
11.94150,-3.284385995
11.94200,-2.979191587
11.94250,0.6831413054
11.94300,4.04027979
11.94350,2.514307752
11.94400,-2.063608364
11.94450,-4.199969218
11.94500,-2.368802772
11.94550,0.3779468977
11.94600,2.514307752
11.94650,4.04027979
11.94700,5.566251829
11.94750,6.481835052
11.94800,7.092223867
11.94850,9.228584721
11.94900,12.2805288
11.94950,14.41688965
11.95000,13.50130643
11.95050,11.05975117
11.95100,8.313001498
11.95150,5.261057421
11.95200,1.598724528
11.95250,-1.453219549
11.95300,-3.284385995
11.95350,-3.89477481
11.95400,-4.199969218
11.95450,-2.979191587
11.95500,0.6831413054
11.95550,5.871446236
11.95600,8.923390313
11.95650,9.228584721
11.95700,9.838973536
11.95750,12.89091761
11.95800,17.16363932
11.95850,18.07922254
11.95900,11.36494557
11.95950,-3.89477481
11.96000,-25.86877216
11.96050,-46.31679748
11.96100,-55.77782412
11.96150,-49.67393597
11.96200,-34.10902117
11.96250,-20.07007842
11.96300,-13.05060704
11.96350,-10.91424619
11.96400,-9.693468556
11.96450,-7.86230211
11.96500,-5.420746849
11.96550,0.3779468977
11.96600,10.75455676
11.96650,20.52077781
11.96700,23.57272188
11.96750,19.60519458
11.96800,15.02727847
11.96850,13.19611202
11.96900,13.50130643
11.96950,12.89091761
11.97000,10.75455676
11.97050,8.618195906
11.97100,6.481835052
11.97150,4.345474198
11.97200,3.429890975
11.97250,3.735085382
11.97300,4.345474198
11.97350,4.04027979
11.97400,2.819502159
11.97450,1.598724528
11.97500,1.293530121
11.97550,1.598724528
11.97600,0.9883357131
11.97650,0.6831413054
11.97700,2.819502159
11.97750,8.923390313
11.97800,15.33247288
11.97850,17.77402814
11.97900,15.63766728
11.97950,12.2805288
11.98000,11.67013998
11.98050,13.80650084
11.98100,16.55325051
11.98150,17.16363932
11.98200,13.80650084
11.98250,6.787029459
11.98300,-0.2324419177
11.98350,-1.453219549
11.98400,1.598724528
11.98450,2.514307752
11.98500,-3.589580402
11.98550,-11.21944059
11.98600,-13.05060704
11.98650,-9.998662964
11.98700,-10.60905178
11.98750,-17.01813434
11.98800,-20.98566164
11.98850,-16.71293993
11.98900,-8.167496518
11.98950,-5.420746849
11.99000,-10.30385737
11.99050,-16.10255112
11.99100,-16.40774553
11.99150,-11.82982941
11.99200,-6.641524479
11.99250,-1.758413956
11.99300,4.345474198
11.99350,10.14416794
11.99400,11.05975117
11.99450,6.176640644
11.99500,1.293530121
11.99550,0.6831413054
11.99600,2.209113344
11.99650,0.6831413054
11.99700,-2.673997179
11.99750,-4.810358033
11.99800,-4.199969218
11.99850,-4.505163626
11.99900,-6.946718887
11.99950,-8.777885333
12.00000,-8.472690926
12.00050,-7.251913295
12.00100,-6.336330072
12.00150,-5.115552441
12.00200,-4.199969218
12.00250,-4.199969218
12.00300,-4.505163626
12.00350,-3.284385995
12.00400,-1.453219549
12.00450,-0.8428307331
12.00500,-1.148025141
12.00550,0.9883357131
12.00600,5.566251829
12.00650,7.397418275
12.00700,3.429890975
12.00750,-1.758413956
12.00800,-4.505163626
12.00850,-5.725941256
12.00900,-8.167496518
12.00950,-11.21944059
12.01000,-11.21944059
12.01050,-8.472690926
12.01100,-6.031135664
12.01150,-4.810358033
12.01200,-3.284385995
12.01250,-1.758413956
12.01300,-1.453219549
12.01350,-0.2324419177
12.01400,4.650668606
12.01450,13.19611202
12.01500,18.38441695
12.01550,17.46883373
12.01600,13.80650084
12.01650,11.97533439
12.01700,13.50130643
12.01750,16.2480561
12.01800,17.77402814
12.01850,16.85844491
12.01900,15.02727847
12.01950,11.67013998
12.02000,6.787029459
12.02050,-0.5376363254
12.02100,-9.083079741
12.02150,-16.10255112
12.02200,-20.37527283
12.02250,-23.1220225
12.02300,-25.86877216
12.02350,-26.78435539
12.02400,-24.34280013
12.02450,-19.1544952
12.02500,-13.96619026
12.02550,-6.946718887
12.02600,4.04027979
12.02650,18.07922254
12.02700,27.23505478
12.02750,26.01427714
12.02800,17.46883373
12.02850,9.533779129
12.02900,6.787029459
12.02950,7.702612683
12.03000,8.313001498
12.03050,7.397418275
12.03100,5.261057421
12.03150,3.429890975
12.03200,2.514307752
12.03250,1.293530121
12.03300,-0.5376363254
12.03350,-2.673997179
12.03400,-3.284385995
12.03450,-2.063608364
12.03500,-1.148025141
12.03550,-1.453219549
12.03600,-2.368802772
12.03650,-2.979191587
12.03700,-4.199969218
12.03750,-6.946718887
12.03800,-8.777885333
12.03850,-6.336330072
12.03900,-0.8428307331
12.03950,1.903918936
12.04000,0.6831413054
12.04050,-2.368802772
12.04100,-3.89477481
12.04150,0.3779468977
12.04200,9.838973536
12.04250,18.38441695
12.04300,19.60519458
12.04350,13.19611202
12.04400,8.00780709
12.04450,9.228584721
12.04500,11.97533439
12.04550,8.618195906
12.04600,0.9883357131
12.04650,-5.115552441
12.04700,-12.74541263
12.04750,-27.3947442
12.04800,-44.48563103
12.04850,-49.97913037
12.04900,-38.38174288
12.04950,-21.29085605
12.05000,-9.998662964
12.05050,-5.725941256
12.05100,-2.979191587
12.05150,-0.2324419177
12.05200,1.903918936
12.05250,2.514307752
12.05300,1.903918936
12.05350,-0.5376363254
12.05400,-2.673997179
12.05450,-0.2324419177
12.05500,4.955863013
12.05550,7.092223867
12.05600,5.261057421
12.05650,4.650668606
12.05700,8.00780709
12.05750,9.838973536
12.05800,6.481835052
12.05850,4.345474198
12.05900,7.397418275
12.05950,9.838973536
12.06000,5.871446236
12.06050,0.9883357131
12.06100,0.07275248999
12.06150,-4.505163626
12.06200,-24.03760572
12.06250,-49.36874156
12.06300,-59.44015701
12.06350,-46.9271863
12.06400,-25.86877216
12.06450,-11.21944059
12.06500,-2.979191587
12.06550,5.566251829
12.06600,13.50130643
12.06650,15.94286169
12.06700,14.41688965
12.06750,15.94286169
12.06800,22.35194425
12.06850,28.76102681
12.06900,29.67661004
12.06950,24.1831107
12.07000,17.46883373
12.07050,13.19611202
12.07100,11.05975117
12.07150,7.397418275
12.07200,0.3779468977
12.07250,-5.725941256
12.07300,-6.031135664
12.07350,0.6831413054
12.07400,10.14416794
12.07450,15.33247288
12.07500,12.89091761
12.07550,6.176640644
12.07600,2.514307752
12.07650,4.04027979
12.07700,7.092223867
12.07750,8.313001498
12.07800,8.313001498
12.07850,8.618195906
12.07900,5.261057421
12.07950,-5.115552441
12.08000,-17.01813434
12.08050,-20.68046723
12.08100,-14.27138467
12.08150,-5.420746849
12.08200,-1.148025141
12.08250,-0.8428307331
12.08300,-3.589580402
12.08350,-9.998662964
12.08400,-15.79735671
12.08450,-14.27138467
12.08500,-4.505163626
12.08550,5.566251829
12.08600,9.838973536
12.08650,9.533779129
12.08700,9.533779129
12.08750,10.14416794
12.08800,9.533779129
12.08850,8.923390313
12.08900,8.618195906
12.08950,8.00780709
12.09000,8.313001498
12.09050,10.14416794
12.09100,11.05975117
12.09150,7.702612683
12.09200,2.514307752
12.09250,0.07275248999
12.09300,0.9883357131
12.09350,0.3779468977
12.09400,-1.148025141
12.09450,0.9883357131
12.09500,8.313001498
12.09550,13.80650084
12.09600,12.58572321
12.09650,8.618195906
12.09700,6.787029459
12.09750,6.176640644
12.09800,3.735085382
12.09850,0.3779468977
12.09900,-0.8428307331
12.09950,-2.063608364
12.10000,-4.199969218
12.10050,-4.810358033
12.10100,-2.063608364
12.10150,0.9883357131
12.10200,0.3779468977
12.10250,-3.284385995
12.10300,-7.86230211
12.10350,-11.21944059
12.10400,-12.44021823
12.10450,-10.91424619
12.10500,-7.251913295
12.10550,-4.810358033
12.10600,-5.115552441
12.10650,-5.115552441
12.10700,-2.979191587
12.10750,-0.8428307331
12.10800,-0.8428307331
12.10850,-2.673997179
12.10900,-2.979191587
12.10950,-0.8428307331
12.11000,0.6831413054
12.11050,1.293530121
12.11100,0.6831413054
12.11150,-1.453219549
12.11200,-3.589580402
12.11250,-3.589580402
12.11300,-0.5376363254
12.11350,2.514307752
12.11400,4.04027979
12.11450,4.345474198
12.11500,6.176640644
12.11550,8.313001498
12.11600,8.00780709
12.11650,4.345474198
12.11700,-1.758413956
12.11750,-8.472690926
12.11800,-13.96619026
12.11850,-15.79735671
12.11900,-13.96619026
12.11950,-11.82982941
12.12000,-13.35580145
12.12050,-17.32332875
12.12100,-19.4596896
12.12150,-17.62852316
12.12200,-13.35580145
12.12250,-8.472690926
12.12300,-4.505163626
12.12350,-2.368802772
12.12400,-2.673997179
12.12450,-4.199969218
12.12500,-3.589580402
12.12550,-0.8428307331
12.12600,1.598724528
12.12650,1.598724528
12.12700,-0.2324419177
12.12750,-0.2324419177
12.12800,1.903918936
12.12850,6.481835052
12.12900,11.36494557
12.12950,14.41688965
12.13000,14.72208406
12.13050,15.02727847
12.13100,17.16363932
12.13150,19.91038899
12.13200,19.91038899
12.13250,16.55325051
12.13300,12.89091761
12.13350,10.44936235
12.13400,6.787029459
12.13450,0.9883357131
12.13500,-3.589580402
12.13550,-2.368802772
12.13600,3.735085382
12.13650,8.313001498
12.13700,6.481835052
12.13750,0.07275248999
12.13800,-5.115552441
12.13850,-9.388274149
12.13900,-15.4921623
12.13950,-25.25838335
12.14000,-36.85577084
12.14050,-46.62199189
12.14100,-49.97913037
12.14150,-43.87524222
12.14200,-27.69993861
12.14250,-7.251913295
12.14300,8.923390313
12.14350,15.33247288
12.14400,12.58572321
12.14450,7.702612683
12.14500,6.787029459
12.14550,11.97533439
12.14600,21.13116662
12.14650,27.84544359
12.14700,28.150638
12.14750,22.35194425
12.14800,14.41688965
12.14850,7.092223867
12.14900,0.07275248999
12.14950,-4.505163626
12.15000,-5.420746849
12.15050,-3.89477481
12.15100,-2.673997179
12.15150,-3.284385995
12.15200,-3.589580402
12.15250,-1.758413956
12.15300,-0.2324419177
12.15350,-0.2324419177
12.15400,-0.5376363254
12.15450,0.9883357131
12.15500,4.04027979
12.15550,5.566251829
12.15600,4.650668606
12.15650,3.429890975
12.15700,3.124696567
12.15750,2.514307752
12.15800,1.293530121
12.15850,0.6831413054
12.15900,0.6831413054
12.15950,0.6831413054
12.16000,-0.2324419177
12.16050,-0.2324419177
12.16100,1.293530121
12.16150,4.345474198
12.16200,6.481835052
12.16250,6.176640644
12.16300,5.566251829
12.16350,5.871446236
12.16400,7.092223867
12.16450,8.618195906
12.16500,9.533779129
12.16550,8.00780709
12.16600,3.735085382
12.16650,-1.758413956
12.16700,-6.336330072
12.16750,-7.557107703
12.16800,-6.031135664
12.16850,-3.589580402
12.16900,-1.758413956
12.16950,-1.148025141
12.17000,-4.199969218
12.17050,-11.524635
12.17100,-20.37527283
12.17150,-24.64799453
12.17200,-21.59605046
12.17250,-15.79735671
12.17300,-13.05060704
12.17350,-14.88177349
12.17400,-15.1869679
12.17450,-9.693468556
12.17500,-0.8428307331
12.17550,4.345474198
12.17600,5.261057421
12.17650,4.955863013
12.17700,4.650668606
12.17750,2.819502159
12.17800,-0.2324419177
12.17850,-1.453219549
12.17900,-0.2324419177
12.17950,1.598724528
12.18000,3.735085382
12.18050,8.313001498
12.18100,11.67013998
12.18150,7.092223867
12.18200,-4.199969218
12.18250,-11.524635
12.18300,-6.641524479
12.18350,3.429890975
12.18400,6.481835052
12.18450,-0.8428307331
12.18500,-15.1869679
12.18550,-30.44668828
12.18600,-38.07654847
12.18650,-29.83629946
12.18700,-8.472690926
12.18750,9.533779129
12.18800,13.19611202
12.18850,9.533779129
12.18900,12.2805288
12.18950,20.52077781
12.19000,24.79349951
12.19050,25.09869392
12.19100,26.01427714
12.19150,21.43636103
12.19200,0.6831413054
12.19250,-28.00513302
12.19300,-40.82329814
12.19350,-27.0895498
12.19400,-3.284385995
12.19450,9.228584721
12.19500,9.228584721
12.19550,6.176640644
12.19600,5.261057421
12.19650,4.04027979
12.19700,1.903918936
12.19750,1.293530121
12.19800,1.293530121
12.19850,0.6831413054
12.19900,0.9883357131
12.19950,3.429890975
12.20000,6.481835052
12.20050,6.176640644
12.20100,3.429890975
12.20150,1.598724528
12.20200,1.598724528
12.20250,1.293530121
12.20300,-0.5376363254
12.20350,-2.673997179
12.20400,-3.589580402
12.20450,-3.284385995
12.20500,-2.979191587
12.20550,-3.89477481
12.20600,-5.725941256
12.20650,-6.946718887
12.20700,-4.505163626
12.20750,0.6831413054
12.20800,6.481835052
12.20850,9.228584721
12.20900,8.923390313
12.20950,8.618195906
12.21000,8.618195906
12.21050,8.313001498
12.21100,6.176640644
12.21150,3.429890975
12.21200,0.9883357131
12.21250,-1.453219549
12.21300,-5.725941256
12.21350,-10.60905178
12.21400,-13.66099586
12.21450,-14.57657908
12.21500,-13.05060704
12.21550,-9.998662964
12.21600,-6.641524479
12.21650,-4.505163626
12.21700,-3.589580402
12.21750,-2.673997179
12.21800,-2.368802772
12.21850,-2.673997179
12.21900,-2.979191587
12.21950,-1.453219549
12.22000,0.9883357131
12.22050,2.514307752
12.22100,2.819502159
12.22150,4.345474198
12.22200,7.397418275
12.22250,9.228584721
12.22300,7.702612683
12.22350,5.871446236
12.22400,5.566251829
12.22450,6.176640644
12.22500,6.176640644
12.22550,8.00780709
12.22600,12.58572321
12.22650,15.63766728
12.22700,13.50130643
12.22750,8.618195906
12.22800,5.566251829
12.22850,4.345474198
12.22900,3.429890975
12.22950,3.124696567
12.23000,3.124696567
12.23050,-0.2324419177
12.23100,-9.083079741
12.23150,-18.23891197
12.23200,-19.76488401
12.23250,-13.66099586
12.23300,-6.641524479
12.23350,-3.284385995
12.23400,-2.063608364
12.23450,-1.453219549
12.23500,-1.453219549
12.23550,-2.063608364
12.23600,-2.368802772
12.23650,-2.979191587
12.23700,-4.810358033
12.23750,-6.641524479
12.23800,-5.420746849
12.23850,-1.453219549
12.23900,2.209113344
12.23950,5.566251829
12.24000,8.00780709
12.24050,7.702612683
12.24100,2.514307752
12.24150,-3.89477481
12.24200,-8.472690926
12.24250,-9.693468556
12.24300,-9.693468556
12.24350,-7.557107703
12.24400,-0.8428307331
12.24450,7.702612683
12.24500,11.36494557
12.24550,8.618195906
12.24600,3.735085382
12.24650,1.903918936
12.24700,1.598724528
12.24750,0.3779468977
12.24800,-0.2324419177
12.24850,0.3779468977
12.24900,2.514307752
12.24950,4.04027979
12.25000,4.650668606
12.25050,4.955863013
12.25100,4.345474198
12.25150,3.429890975
12.25200,3.124696567
12.25250,3.735085382
12.25300,3.124696567
12.25350,0.3779468977
12.25400,-2.368802772
12.25450,-4.505163626
12.25500,-5.420746849
12.25550,-4.505163626
12.25600,-1.148025141
12.25650,3.124696567
12.25700,5.261057421
12.25750,3.735085382
12.25800,2.514307752
12.25850,3.429890975
12.25900,4.955863013
12.25950,3.124696567
12.26000,-1.148025141
12.26050,-4.810358033
12.26100,-5.420746849
12.26150,-3.589580402
12.26200,-0.8428307331
12.26250,2.209113344
12.26300,5.261057421
12.26350,6.481835052
12.26400,6.176640644
12.26450,4.955863013
12.26500,3.124696567
12.26550,-0.2324419177
12.26600,-5.725941256
12.26650,-10.30385737
12.26700,-13.05060704
12.26750,-14.57657908
12.26800,-14.57657908
12.26850,-12.13502382
12.26900,-6.031135664
12.26950,0.3779468977
12.27000,5.566251829
12.27050,8.618195906
12.27100,10.75455676
12.27150,12.2805288
12.27200,12.89091761
12.27250,14.41688965
12.27300,18.07922254
12.27350,21.13116662
12.27400,16.2480561
12.27450,2.819502159
12.27500,-12.44021823
12.27550,-20.37527283
12.27600,-19.4596896
12.27650,-14.88177349
12.27700,-11.82982941
12.27750,-9.693468556
12.27800,-6.641524479
12.27850,-1.758413956
12.27900,2.209113344
12.27950,3.735085382
12.28000,4.345474198
12.28050,6.176640644
12.28100,9.533779129
12.28150,13.19611202
12.28200,16.2480561
12.28250,18.07922254
12.28300,19.60519458
12.28350,18.68961136
12.28400,13.19611202
12.28450,3.124696567
12.28500,-7.251913295
12.28550,-13.05060704
12.28600,-12.44021823
12.28650,-8.472690926
12.28700,-7.557107703
12.28750,-11.82982941
12.28800,-18.54410638
12.28850,-20.98566164
12.28900,-16.71293993
12.28950,-9.083079741
12.29000,-3.589580402
12.29050,-1.148025141
12.29100,0.07275248999
12.29150,0.6831413054
12.29200,-0.2324419177
12.29250,-1.758413956
12.29300,-1.148025141
12.29350,-1.148025141
12.29400,-6.336330072
12.29450,-17.01813434
12.29500,-27.0895498
12.29550,-31.97266032
12.29600,-33.19343795
12.29650,-32.58304913
12.29700,-30.14149387
12.29750,-24.34280013
12.29800,-16.71293993
12.29850,-9.998662964
12.29900,-5.725941256
12.29950,-4.199969218
12.30000,-3.89477481
12.30050,-1.148025141
12.30100,4.955863013
12.30150,11.97533439
12.30200,15.02727847
12.30250,15.02727847
12.30300,15.94286169
12.30350,19.30000018
12.30400,21.13116662
12.30450,18.68961136
12.30500,13.80650084
12.30550,9.533779129
12.30600,5.871446236
12.30650,1.293530121
12.30700,-4.810358033
12.30750,-11.82982941
12.30800,-17.62852316
12.30850,-19.4596896
12.30900,-14.27138467
12.30950,-2.673997179
12.31000,8.00780709
12.31050,10.44936235
12.31100,3.124696567
12.31150,-5.725941256
12.31200,-8.777885333
12.31250,-6.031135664
12.31300,-8.167496518
12.31350,-19.4596896
12.31400,-28.00513302
12.31450,-17.32332875
12.31500,12.89091761
12.31550,42.18958075
12.31600,51.04021858
12.31650,40.0532199
12.31700,26.01427714
12.31750,19.91038899
12.31800,19.60519458
12.31850,21.13116662
12.31900,22.96233307
12.31950,22.35194425
12.32000,15.63766728
12.32050,1.903918936
12.32100,-13.05060704
12.32150,-23.4272169
12.32200,-25.25838335
12.32250,-18.54410638
12.32300,-6.336330072
12.32350,4.345474198
12.32400,10.75455676
12.32450,13.80650084
12.32500,16.2480561
12.32550,16.55325051
12.32600,11.36494557
12.32650,3.124696567
12.32700,-1.758413956
12.32750,-2.673997179
12.32800,-3.589580402
12.32850,-6.641524479
12.32900,-8.167496518
12.32950,-6.031135664
12.33000,-2.673997179
12.33050,-1.758413956
12.33100,-2.979191587
12.33150,-3.284385995
12.33200,-2.979191587
12.33250,-2.673997179
12.33300,-2.063608364
12.33350,-0.8428307331
12.33400,-0.2324419177
12.33450,-0.2324419177
12.33500,-1.148025141
12.33550,-1.758413956
12.33600,-2.368802772
12.33650,-2.673997179
12.33700,-2.368802772
12.33750,-0.2324419177
12.33800,1.293530121
12.33850,1.903918936
12.33900,1.293530121
12.33950,0.9883357131
12.34000,0.6831413054
12.34050,0.3779468977
12.34100,-0.5376363254
12.34150,-0.8428307331
12.34200,-0.2324419177
12.34250,0.6831413054
12.34300,0.6831413054
12.34350,0.07275248999
12.34400,-0.2324419177
12.34450,-0.2324419177
12.34500,1.293530121
12.34550,2.514307752
12.34600,3.124696567
12.34650,2.819502159
12.34700,2.514307752
12.34750,2.819502159
12.34800,2.514307752
12.34850,1.293530121
12.34900,-0.2324419177
12.34950,-1.148025141
12.35000,-1.453219549
12.35050,-2.673997179
12.35100,-4.199969218
12.35150,-3.589580402
12.35200,-1.758413956
12.35250,-1.148025141
12.35300,-3.284385995
12.35350,-5.725941256
12.35400,-5.420746849
12.35450,-3.284385995
12.35500,-2.368802772
12.35550,-2.368802772
12.35600,-1.453219549
12.35650,0.9883357131
12.35700,4.345474198
12.35750,5.871446236
12.35800,5.871446236
12.35850,4.955863013
12.35900,3.429890975
12.35950,1.903918936
12.36000,0.3779468977
12.36050,-1.453219549
12.36100,-4.505163626
12.36150,-7.251913295
12.36200,-8.472690926
12.36250,-7.557107703
12.36300,-6.031135664
12.36350,-5.420746849
12.36400,-4.810358033
12.36450,-3.589580402
12.36500,-1.453219549
12.36550,0.07275248999
12.36600,1.903918936
12.36650,4.955863013
12.36700,9.838973536
12.36750,14.11169524
12.36800,15.33247288
12.36850,13.80650084
12.36900,10.44936235
12.36950,4.345474198
12.37000,-4.505163626
12.37050,-13.05060704
12.37100,-16.10255112
12.37150,-12.74541263
12.37200,-7.86230211
12.37250,-4.810358033
12.37300,-3.284385995
12.37350,-2.368802772
12.37400,-2.979191587
12.37450,-4.810358033
12.37500,-5.115552441
12.37550,-3.589580402
12.37600,-2.673997179
12.37650,-2.979191587
12.37700,-1.148025141
12.37750,5.261057421
12.37800,12.58572321
12.37850,13.80650084
12.37900,8.313001498
12.37950,0.9883357131
12.38000,-3.89477481
12.38050,-6.641524479
12.38100,-7.86230211
12.38150,-8.167496518
12.38200,-8.167496518
12.38250,-7.557107703
12.38300,-6.336330072
12.38350,-4.199969218
12.38400,-1.758413956
12.38450,-0.8428307331
12.38500,-1.148025141
12.38550,-1.758413956
12.38600,-0.2324419177
12.38650,2.209113344
12.38700,5.871446236
12.38750,9.228584721
12.38800,11.05975117
12.38850,10.75455676
12.38900,8.313001498
12.38950,4.650668606
12.39000,1.598724528
12.39050,-0.2324419177
12.39100,-0.2324419177
12.39150,0.6831413054
12.39200,3.124696567
12.39250,4.955863013
12.39300,1.903918936
12.39350,-7.251913295
12.39400,-17.93371756
12.39450,-21.59605046
12.39500,-16.40774553
12.39550,-9.388274149
12.39600,-6.641524479
12.39650,-7.557107703
12.39700,-9.693468556
12.39750,-13.66099586
12.39800,-20.98566164
12.39850,-27.3947442
12.39900,-26.17396657
12.39950,-17.01813434
12.40000,-6.946718887
12.40050,-0.5376363254
12.40100,2.209113344
12.40150,3.735085382
12.40200,2.819502159
12.40250,0.07275248999
12.40300,-1.758413956
12.40350,-1.148025141
12.40400,0.07275248999
12.40450,0.6831413054
12.40500,0.3779468977
12.40550,0.3779468977
12.40600,-0.2324419177
12.40650,-1.148025141
12.40700,-2.063608364
12.40750,-1.453219549
12.40800,0.9883357131
12.40850,4.955863013
12.40900,10.44936235
12.40950,15.63766728
12.41000,18.07922254
12.41050,18.38441695
12.41100,20.52077781
12.41150,26.01427714
12.41200,32.72855411
12.41250,34.25452615
12.41300,29.37141563
12.41350,21.13116662
12.41400,13.80650084
12.41450,5.871446236
12.41500,-4.199969218
12.41550,-15.79735671
12.41600,-24.03760572
12.41650,-27.69993861
12.41700,-31.66746591
12.41750,-39.90771492
12.41800,-49.67393597
12.41850,-54.55704649
12.41900,-48.75835274
12.41950,-32.88824354
12.42000,-11.524635
12.42050,5.871446236
12.42100,13.80650084
12.42150,12.58572321
12.42200,9.533779129
12.42250,8.923390313
12.42300,9.228584721
12.42350,8.618195906
12.42400,8.923390313
12.42450,11.36494557
12.42500,13.80650084
12.42550,13.19611202
12.42600,11.36494557
12.42650,13.50130643
12.42700,18.99480577
12.42750,23.87791629
12.42800,25.70908274
12.42850,24.1831107
12.42900,20.2155834
12.42950,14.41688965
12.43000,10.75455676
12.43050,13.19611202
12.43100,18.07922254
12.43150,16.85844491
12.43200,5.871446236
12.43250,-8.167496518
12.43300,-16.40774553
12.43350,-15.79735671
12.43400,-10.60905178
12.43450,-6.946718887
12.43500,-6.336330072
12.43550,-5.725941256
12.43600,-3.89477481
12.43650,-2.979191587
12.43700,-4.199969218
12.43750,-5.725941256
12.43800,-6.641524479
12.43850,-8.472690926
12.43900,-12.74541263
12.43950,-14.57657908
12.44000,-8.167496518
12.44050,2.819502159
12.44100,8.923390313
12.44150,6.481835052
12.44200,2.819502159
12.44250,4.955863013
12.44300,8.618195906
12.44350,7.702612683
12.44400,2.819502159
12.44450,-1.758413956
12.44500,-5.420746849
12.44550,-8.777885333
12.44600,-10.91424619
12.44650,-9.998662964
12.44700,-7.251913295
12.44750,-2.979191587
12.44800,3.429890975
12.44850,11.67013998
12.44900,18.38441695
12.44950,20.2155834
12.45000,17.77402814
12.45050,12.89091761
12.45100,7.092223867
12.45150,4.345474198
12.45200,7.092223867
12.45250,12.58572321
12.45300,12.89091761
12.45350,5.871446236
12.45400,-1.758413956
12.45450,-4.810358033
12.45500,-2.979191587
12.45550,-0.2324419177
12.45600,1.293530121
12.45650,1.293530121
12.45700,3.124696567
12.45750,8.923390313
12.45800,16.55325051
12.45850,17.46883373
12.45900,9.228584721
12.45950,0.9883357131
12.46000,4.955863013
12.46050,17.16363932
12.46100,24.79349951
12.46150,23.57272188
12.46200,16.85844491
12.46250,1.293530121
12.46300,-30.75188269
12.46350,-70.7323501
12.46400,-90.87518101
12.46450,-75.92065503
12.46500,-42.34927018
12.46550,-17.01813434
12.46600,-7.251913295
12.46650,-2.368802772
12.46700,3.429890975
12.46750,7.702612683
12.46800,8.00780709
12.46850,8.313001498
12.46900,9.228584721
12.46950,8.923390313
12.47000,6.481835052
12.47050,4.955863013
12.47100,4.650668606
12.47150,4.04027979
12.47200,3.429890975
12.47250,3.735085382
12.47300,4.650668606
12.47350,4.04027979
12.47400,2.514307752
12.47450,2.209113344
12.47500,1.293530121
12.47550,-1.758413956
12.47600,-6.946718887
12.47650,-10.91424619
12.47700,-11.524635
12.47750,-9.693468556
12.47800,-6.946718887
12.47850,-3.284385995
12.47900,0.07275248999
12.47950,0.6831413054
12.48000,-0.5376363254
12.48050,-1.148025141
12.48100,-0.2324419177
12.48150,0.07275248999
12.48200,-1.758413956
12.48250,-2.979191587
12.48300,-0.8428307331
12.48350,2.514307752
12.48400,4.345474198
12.48450,4.650668606
12.48500,5.261057421
12.48550,5.871446236
12.48600,4.955863013
12.48650,2.819502159
12.48700,2.514307752
12.48750,4.650668606
12.48800,7.092223867
12.48850,8.618195906
12.48900,10.14416794
12.48950,12.2805288
12.49000,13.50130643
12.49050,12.58572321
12.49100,11.67013998
12.49150,11.97533439
12.49200,11.05975117
12.49250,6.787029459
12.49300,1.293530121
12.49350,-1.148025141
12.49400,-0.5376363254
12.49450,0.6831413054
12.49500,2.514307752
12.49550,4.650668606
12.49600,6.176640644
12.49650,6.176640644
12.49700,5.566251829
12.49750,5.566251829
12.49800,5.566251829
12.49850,3.429890975
12.49900,0.3779468977
12.49950,-1.453219549
12.50000,-3.284385995
12.50050,-7.557107703
12.50100,-15.1869679
12.50150,-23.73241131
12.50200,-28.31032743
12.50250,-27.3947442
12.50300,-21.90124486
12.50350,-16.40774553
12.50400,-13.35580145
12.50450,-12.74541263
12.50500,-11.21944059
12.50550,-7.86230211
12.50600,-4.199969218
12.50650,-2.673997179
12.50700,-2.673997179
12.50750,-2.063608364
12.50800,-0.5376363254
12.50850,0.07275248999
12.50900,0.3779468977
12.50950,1.598724528
12.51000,3.429890975
12.51050,3.735085382
12.51100,1.903918936
12.51150,-0.5376363254
12.51200,-1.758413956
12.51250,-1.148025141
12.51300,-0.2324419177
12.51350,0.6831413054
12.51400,0.3779468977
12.51450,-1.758413956
12.51500,-4.199969218
12.51550,-3.589580402
12.51600,-0.2324419177
12.51650,2.514307752
12.51700,1.598724528
12.51750,0.07275248999
12.51800,1.293530121
12.51850,4.345474198
12.51900,4.345474198
12.51950,0.6831413054
12.52000,-2.673997179
12.52050,-3.89477481
12.52100,-4.810358033
12.52150,-6.946718887
12.52200,-8.777885333
12.52250,-8.167496518
12.52300,-6.336330072
12.52350,-5.420746849
12.52400,-3.89477481
12.52450,-1.758413956
12.52500,-1.453219549
12.52550,-2.979191587
12.52600,-1.453219549
12.52650,6.481835052
12.52700,15.94286169
12.52750,16.85844491
12.52800,10.14416794
12.52850,5.871446236
12.52900,10.14416794
12.52950,17.16363932
12.53000,19.91038899
12.53050,18.07922254
12.53100,16.55325051
12.53150,15.33247288
12.53200,12.2805288
12.53250,7.702612683
12.53300,4.650668606
12.53350,2.819502159
12.53400,-2.673997179
12.53450,-13.35580145
12.53500,-24.34280013
12.53550,-29.83629946
12.53600,-28.61552183
12.53650,-22.51163368
12.53700,-14.27138467
12.53750,-6.946718887
12.53800,-2.368802772
12.53850,0.3779468977
12.53900,4.345474198
12.53950,9.838973536
12.54000,13.50130643
12.54050,13.19611202
12.54100,10.44936235
12.54150,8.618195906
12.54200,8.618195906
12.54250,8.618195906
12.54300,7.397418275
12.54350,4.650668606
12.54400,0.07275248999
12.54450,-5.725941256
12.54500,-11.21944059
12.54550,-14.57657908
12.54600,-16.10255112
12.54650,-17.32332875
12.54700,-16.71293993
12.54750,-12.44021823
12.54800,-5.115552441
12.54850,0.6831413054
12.54900,3.735085382
12.54950,3.124696567
12.55000,0.6831413054
12.55050,-1.758413956
12.55100,-2.979191587
12.55150,-2.673997179
12.55200,-2.063608364
12.55250,-1.758413956
12.55300,-1.148025141
12.55350,-1.453219549
12.55400,-5.725941256
12.55450,-14.88177349
12.55500,-23.73241131
12.55550,-25.86877216
12.55600,-20.98566164
12.55650,-15.1869679
12.55700,-11.82982941
12.55750,-8.777885333
12.55800,-4.505163626
12.55850,-1.758413956
12.55900,-2.673997179
12.55950,-6.031135664
12.56000,-6.031135664
12.56050,0.3779468977
12.56100,12.89091761
12.56150,25.09869392
12.56200,29.67661004
12.56250,24.48830511
12.56300,14.11169524
12.56350,3.429890975
12.56400,-4.505163626
12.56450,-7.251913295
12.56500,-0.5376363254
12.56550,15.33247288
12.56600,31.81297089
12.56650,38.83244227
12.56700,36.39088701
12.56750,30.28699885
12.56800,23.26752748
12.56850,14.41688965
12.56900,5.871446236
12.56950,2.209113344
12.57000,2.514307752
12.57050,0.3779468977
12.57100,-5.115552441
12.57150,-9.388274149
12.57200,-8.777885333
12.57250,-7.251913295
12.57300,-6.641524479
12.57350,-2.063608364
12.57400,7.397418275
12.57450,15.33247288
12.57500,13.80650084
12.57550,6.176640644
12.57600,0.6831413054
12.57650,1.293530121
12.57700,3.735085382
12.57750,4.955863013
12.57800,5.566251829
12.57850,6.787029459
12.57900,8.313001498
12.57950,8.923390313
12.58000,6.481835052
12.58050,-0.5376363254
12.58100,-9.693468556
12.58150,-14.88177349
12.58200,-13.96619026
12.58250,-13.05060704
12.58300,-18.84930079
12.58350,-28.61552183
12.58400,-35.3297988
12.58450,-34.41421558
12.58500,-29.22591065
12.58550,-24.34280013
12.58600,-20.68046723
12.58650,-17.93371756
12.58700,-15.4921623
12.58750,-13.35580145
12.58800,-11.21944059
12.58850,-8.777885333
12.58900,-4.505163626
12.58950,2.514307752
12.59000,10.75455676
12.59050,15.94286169
12.59100,16.85844491
12.59150,15.02727847
12.59200,12.58572321
12.59250,8.313001498
12.59300,0.9883357131
12.59350,-6.031135664
12.59400,-9.083079741
12.59450,-8.777885333
12.59500,-7.557107703
12.59550,-6.946718887
12.59600,-6.336330072
12.59650,-5.115552441
12.59700,-3.589580402
12.59750,-0.2324419177
12.59800,7.397418275
12.59850,19.30000018
12.59900,30.59219326
12.59950,35.78049819
12.60000,32.1181653
12.60050,23.26752748
12.60100,14.72208406
12.60150,10.44936235
12.60200,8.00780709
12.60250,4.345474198
12.60300,0.07275248999
12.60350,-2.063608364
12.60400,-2.368802772
12.60450,-2.368802772
12.60500,-2.368802772
12.60550,-0.2324419177
12.60600,3.429890975
12.60650,5.566251829
12.60700,2.209113344
12.60750,-3.284385995
12.60800,-7.86230211
12.60850,-10.30385737
12.60900,-11.21944059
12.60950,-9.998662964
12.61000,-6.946718887
12.61050,-5.420746849
12.61100,-6.946718887
12.61150,-8.777885333
12.61200,-7.86230211
12.61250,-4.810358033
12.61300,-2.979191587
12.61350,-2.063608364
12.61400,-0.2324419177
12.61450,0.9883357131
12.61500,0.07275248999
12.61550,-1.758413956
12.61600,-2.368802772
12.61650,-2.063608364
12.61700,-2.368802772
12.61750,-3.284385995
12.61800,-2.368802772
12.61850,-0.2324419177
12.61900,0.6831413054
12.61950,-0.2324419177
12.62000,-2.063608364
12.62050,-0.5376363254
12.62100,4.955863013
12.62150,11.05975117
12.62200,12.89091761
12.62250,9.228584721
12.62300,4.345474198
12.62350,4.04027979
12.62400,7.397418275
12.62450,11.05975117
12.62500,12.2805288
12.62550,11.97533439
12.62600,10.75455676
12.62650,6.481835052
12.62700,0.07275248999
12.62750,-5.420746849
12.62800,-9.693468556
12.62850,-11.21944059
12.62900,-9.388274149
12.62950,-5.115552441
12.63000,-2.979191587
12.63050,-6.641524479
12.63100,-12.44021823
12.63150,-14.57657908
12.63200,-12.74541263
12.63250,-12.44021823
12.63300,-13.96619026
12.63350,-12.13502382
12.63400,-5.115552441
12.63450,-0.5376363254
12.63500,-3.284385995
12.63550,-10.60905178
12.63600,-16.40774553
12.63650,-21.59605046
12.63700,-26.78435539
12.63750,-28.61552183
12.63800,-23.4272169
12.63850,-14.27138467
12.63900,-7.86230211
12.63950,-4.505163626
12.64000,-0.5376363254
12.64050,4.04027979
12.64100,7.092223867
12.64150,9.228584721
12.64200,13.19611202
12.64250,17.77402814
12.64300,19.60519458
12.64350,16.85844491
12.64400,11.67013998
12.64450,7.702612683
12.64500,5.566251829
12.64550,4.04027979
12.64600,4.04027979
12.64650,4.650668606
12.64700,3.735085382
12.64750,0.6831413054
12.64800,-2.063608364
12.64850,-3.589580402
12.64900,-3.589580402
12.64950,-3.589580402
12.65000,-4.810358033
12.65050,-6.336330072
12.65100,-7.557107703
12.65150,-6.946718887
12.65200,-3.589580402
12.65250,0.3779468977
12.65300,3.124696567
12.65350,4.345474198
12.65400,7.702612683
12.65450,15.63766728
12.65500,24.79349951
12.65550,29.06622122
12.65600,26.01427714
12.65650,19.60519458
12.65700,15.33247288
12.65750,14.11169524
12.65800,12.89091761
12.65850,10.44936235
12.65900,7.702612683
12.65950,5.871446236
12.66000,5.566251829
12.66050,5.566251829
12.66100,6.176640644
12.66150,6.176640644
12.66200,5.261057421
12.66250,4.345474198
12.66300,3.735085382
12.66350,2.819502159
12.66400,0.6831413054
12.66450,-0.8428307331
12.66500,-0.8428307331
12.66550,0.3779468977
12.66600,0.6831413054
12.66650,-0.2324419177
12.66700,-1.453219549
12.66750,-1.453219549
12.66800,-0.8428307331
12.66850,-1.453219549
12.66900,-1.758413956
12.66950,-1.148025141
12.67000,-0.5376363254
12.67050,-0.5376363254
12.67100,-0.8428307331
12.67150,-0.5376363254
12.67200,-0.5376363254
12.67250,-1.758413956
12.67300,-3.589580402
12.67350,-4.199969218
12.67400,-3.89477481
12.67450,-3.284385995
12.67500,-2.673997179
12.67550,-2.368802772
12.67600,-2.063608364
12.67650,-1.758413956
12.67700,-0.5376363254
12.67750,-0.2324419177
12.67800,-1.758413956
12.67850,-5.725941256
12.67900,-6.641524479
12.67950,-2.368802772
12.68000,3.124696567
12.68050,4.345474198
12.68100,0.07275248999
12.68150,-4.505163626
12.68200,-7.86230211
12.68250,-10.60905178
12.68300,-13.66099586
12.68350,-13.96619026
12.68400,-8.777885333
12.68450,-1.758413956
12.68500,1.293530121
12.68550,0.6831413054
12.68600,-0.2324419177
12.68650,0.07275248999
12.68700,0.6831413054
12.68750,-0.2324419177
12.68800,-1.758413956
12.68850,-2.368802772
12.68900,-0.5376363254
12.68950,1.903918936
12.69000,3.429890975
12.69050,1.293530121
12.69100,-4.199969218
12.69150,-9.083079741
12.69200,-6.946718887
12.69250,-0.2324419177
12.69300,4.345474198
12.69350,1.903918936
12.69400,-5.420746849
12.69450,-14.57657908
12.69500,-23.4272169
12.69550,-28.92071624
12.69600,-28.92071624
12.69650,-24.03760572
12.69700,-18.23891197
12.69750,-13.96619026
12.69800,-9.998662964
12.69850,-5.420746849
12.69900,-1.148025141
12.69950,2.514307752
12.70000,8.923390313
12.70050,17.16363932
12.70100,22.65713866
12.70150,20.52077781
12.70200,14.41688965
12.70250,10.14416794
12.70300,8.923390313
12.70350,5.566251829
12.70400,-2.063608364
12.70450,-12.44021823
12.70500,-19.1544952
12.70550,-18.84930079
12.70600,-13.35580145
12.70650,-8.777885333
12.70700,-9.998662964
12.70750,-15.1869679
12.70800,-17.93371756
12.70850,-14.27138467
12.70900,-6.946718887
12.70950,-1.453219549
12.71000,0.6831413054
12.71050,1.293530121
12.71100,1.598724528
12.71150,1.293530121
12.71200,0.9883357131
12.71250,0.9883357131
12.71300,1.293530121
12.71350,2.209113344
12.71400,4.345474198
12.71450,6.787029459
12.71500,7.397418275
12.71550,5.261057421
12.71600,1.903918936
12.71650,0.3779468977
12.71700,0.07275248999
12.71750,-1.758413956
12.71800,-3.89477481
12.71850,-3.589580402
12.71900,-0.5376363254
12.71950,1.903918936
12.72000,3.124696567
12.72050,4.345474198
12.72100,7.092223867
12.72150,8.923390313
12.72200,8.618195906
12.72250,8.618195906
12.72300,10.44936235
12.72350,13.19611202
12.72400,15.02727847
12.72450,15.63766728
12.72500,15.94286169
12.72550,15.63766728
12.72600,14.11169524
12.72650,12.89091761
12.72700,12.89091761
12.72750,12.89091761
12.72800,11.36494557
12.72850,8.923390313
12.72900,8.00780709
12.72950,7.702612683
12.73000,5.566251829
12.73050,2.209113344
12.73100,1.903918936
12.73150,4.650668606
12.73200,7.092223867
12.73250,5.261057421
12.73300,0.6831413054
12.73350,-2.063608364
12.73400,-2.368802772
12.73450,-2.063608364
12.73500,-2.368802772
12.73550,-2.063608364
12.73600,-0.8428307331
12.73650,-1.453219549
12.73700,-5.115552441
12.73750,-7.557107703
12.73800,-1.758413956
12.73850,10.75455676
12.73900,20.52077781
12.73950,19.30000018
12.74000,9.838973536
12.74050,0.07275248999
12.74100,-6.336330072
12.74150,-11.21944059
12.74200,-13.96619026
12.74250,-13.66099586
12.74300,-14.27138467
12.74350,-20.07007842
12.74400,-28.61552183
12.74450,-31.66746591
12.74500,-25.25838335
12.74550,-16.40774553
12.74600,-11.21944059
12.74650,-9.388274149
12.74700,-7.251913295
12.74750,-5.420746849
12.74800,-3.589580402
12.74850,1.598724528
12.74900,11.36494557
12.74950,19.91038899
12.75000,20.82597221
12.75050,16.2480561
12.75100,12.2805288
12.75150,11.36494557
12.75200,10.14416794
12.75250,7.092223867
12.75300,4.955863013
12.75350,4.04027979
12.75400,3.429890975
12.75450,1.903918936
12.75500,1.293530121
12.75550,0.9883357131
12.75600,-0.2324419177
12.75650,-2.673997179
12.75700,-4.199969218
12.75750,-3.89477481
12.75800,-3.89477481
12.75850,-4.810358033
12.75900,-6.336330072
12.75950,-6.336330072
12.76000,-5.725941256
12.76050,-5.115552441
12.76100,-4.199969218
12.76150,-3.284385995
12.76200,-2.673997179
12.76250,-2.979191587
12.76300,-3.589580402
12.76350,-3.89477481
12.76400,-4.199969218
12.76450,-4.505163626
12.76500,-4.505163626
12.76550,-2.979191587
12.76600,-0.5376363254
12.76650,1.293530121
12.76700,2.209113344
12.76750,3.429890975
12.76800,5.871446236
12.76850,7.702612683
12.76900,7.092223867
12.76950,4.955863013
12.77000,3.735085382
12.77050,3.124696567
12.77100,1.293530121
12.77150,-1.758413956
12.77200,-4.810358033
12.77250,-7.557107703
12.77300,-9.998662964
12.77350,-10.30385737
12.77400,-6.336330072
12.77450,-0.2324419177
12.77500,1.903918936
12.77550,-0.5376363254
12.77600,-4.810358033
12.77650,-6.641524479
12.77700,-6.031135664
12.77750,-6.031135664
12.77800,-5.725941256
12.77850,-4.810358033
12.77900,-4.199969218
12.77950,-4.199969218
12.78000,-3.89477481
12.78050,-1.758413956
12.78100,0.07275248999
12.78150,2.209113344
12.78200,6.481835052
12.78250,11.67013998
12.78300,12.2805288
12.78350,4.955863013
12.78400,-3.589580402
12.78450,-6.336330072
12.78500,-2.979191587
12.78550,-0.2324419177
12.78600,-0.2324419177
12.78650,-1.758413956
12.78700,-2.979191587
12.78750,-4.199969218
12.78800,-5.115552441
12.78850,-3.589580402
12.78900,0.9883357131
12.78950,7.092223867
12.79000,12.2805288
12.79050,14.72208406
12.79100,13.50130643
12.79150,9.228584721
12.79200,5.261057421
12.79250,5.871446236
12.79300,13.80650084
12.79350,25.09869392
12.79400,29.67661004
12.79450,20.52077781
12.79500,0.3779468977
12.79550,-18.23891197
12.79600,-25.86877216
12.79650,-22.81682809
12.79700,-17.32332875
12.79750,-15.4921623
12.79800,-17.93371756
12.79850,-24.34280013
12.79900,-34.10902117
12.79950,-42.04407577
12.80000,-41.73888137
12.80050,-33.49863236
12.80100,-23.73241131
12.80150,-16.71293993
12.80200,-9.388274149
12.80250,-0.2324419177
12.80300,8.618195906
12.80350,11.97533439
12.80400,10.44936235
12.80450,8.923390313
12.80500,9.228584721
12.80550,10.44936235
12.80600,9.533779129
12.80650,4.955863013
12.80700,-2.063608364
12.80750,-6.641524479
12.80800,-4.199969218
12.80850,2.209113344
12.80900,5.261057421
12.80950,2.209113344
12.81000,-0.8428307331
12.81050,0.9883357131
12.81100,5.871446236
12.81150,6.787029459
12.81200,5.566251829
12.81250,8.313001498
12.81300,15.33247288
12.81350,18.07922254
12.81400,11.67013998
12.81450,-0.5376363254
12.81500,-11.82982941
12.81550,-17.62852316
12.81600,-17.93371756
12.81650,-15.4921623
12.81700,-13.35580145
12.81750,-14.27138467
12.81800,-16.10255112
12.81850,-16.40774553
12.81900,-12.74541263
12.81950,-5.115552441
12.82000,8.00780709
12.82050,29.37141563
12.82100,54.09216265
12.82150,69.96227185
12.82200,69.96227185
12.82250,59.28046758
12.82300,49.20905213
12.82350,43.10516398
12.82400,35.47530378
12.82450,22.65713866
12.82500,7.702612683
12.82550,-2.063608364
12.82600,-6.946718887
12.82650,-9.998662964
12.82700,-11.82982941
12.82750,-9.388274149
12.82800,-3.284385995
12.82850,0.6831413054
12.82900,-2.063608364
12.82950,-10.91424619
12.83000,-20.07007842
12.83050,-24.64799453
12.83100,-24.34280013
12.83150,-20.68046723
12.83200,-14.88177349
12.83250,-8.167496518
12.83300,-2.673997179
12.83350,-0.2324419177
12.83400,-0.8428307331
12.83450,-2.368802772
12.83500,-2.979191587
12.83550,-2.673997179
12.83600,-2.368802772
12.83650,-2.979191587
12.83700,-3.89477481
12.83750,-3.89477481
12.83800,-3.284385995
12.83850,-2.368802772
12.83900,-0.2324419177
12.83950,4.650668606
12.84000,11.67013998
12.84050,17.16363932
12.84100,18.38441695
12.84150,16.55325051
12.84200,14.11169524
12.84250,11.97533439
12.84300,8.313001498
12.84350,4.04027979
12.84400,2.819502159
12.84450,3.124696567
12.84500,-0.2324419177
12.84550,-11.21944059
12.84600,-25.56357776
12.84650,-34.10902117
12.84700,-33.19343795
12.84750,-26.17396657
12.84800,-18.54410638
12.84850,-12.44021823
12.84900,-8.472690926
12.84950,-7.251913295
12.85000,-7.251913295
12.85050,-7.251913295
12.85100,-6.641524479
12.85150,-6.336330072
12.85200,-5.725941256
12.85250,-3.284385995
12.85300,0.6831413054
12.85350,4.955863013
12.85400,7.092223867
12.85450,7.092223867
12.85500,6.787029459
12.85550,7.397418275
12.85600,8.923390313
12.85650,10.75455676
12.85700,11.05975117
12.85750,8.618195906
12.85800,6.176640644
12.85850,5.871446236
12.85900,6.176640644
12.85950,4.650668606
12.86000,1.903918936
12.86050,0.6831413054
12.86100,0.6831413054
12.86150,-1.148025141
12.86200,-7.557107703
12.86250,-13.66099586
12.86300,-14.88177349
12.86350,-12.13502382
12.86400,-7.251913295
12.86450,-0.5376363254
12.86500,8.00780709
12.86550,14.11169524
12.86600,11.67013998
12.86650,1.598724528
12.86700,-7.251913295
12.86750,-9.083079741
12.86800,-6.336330072
12.86850,-5.725941256
12.86900,-9.693468556
12.86950,-14.27138467
12.87000,-18.54410638
12.87050,-24.03760572
12.87100,-30.44668828
12.87150,-30.75188269
12.87200,-19.76488401
12.87250,-2.673997179
12.87300,9.533779129
12.87350,11.97533439
12.87400,8.313001498
12.87450,5.871446236
12.87500,5.871446236
12.87550,6.176640644
12.87600,5.261057421
12.87650,4.345474198
12.87700,3.429890975
12.87750,2.819502159
12.87800,1.903918936
12.87850,-0.2324419177
12.87900,-4.199969218
12.87950,-8.167496518
12.88000,-7.86230211
12.88050,-2.673997179
12.88100,1.903918936
12.88150,2.209113344
12.88200,0.9883357131
12.88250,2.819502159
12.88300,7.092223867
12.88350,8.618195906
12.88400,5.871446236
12.88450,2.514307752
12.88500,1.903918936
12.88550,2.514307752
12.88600,2.819502159
12.88650,1.598724528
12.88700,0.6831413054
12.88750,2.209113344
12.88800,8.618195906
12.88850,18.68961136
12.88900,26.62466596
12.88950,27.84544359
12.89000,23.26752748
12.89050,17.77402814
12.89100,14.11169524
12.89150,11.05975117
12.89200,7.397418275
12.89250,3.735085382
12.89300,0.3779468977
12.89350,-2.673997179
12.89400,-6.031135664
12.89450,-9.388274149
12.89500,-13.35580145
12.89550,-17.62852316
12.89600,-20.68046723
12.89650,-21.90124486
12.89700,-22.81682809
12.89750,-23.4272169
12.89800,-21.59605046
12.89850,-14.88177349
12.89900,-6.946718887
12.89950,-2.979191587
12.90000,-2.673997179
12.90050,-1.453219549
12.90100,3.429890975
12.90150,10.75455676
12.90200,16.85844491
12.90250,20.82597221
12.90300,20.52077781
12.90350,15.94286169
12.90400,9.533779129
12.90450,5.261057421
12.90500,3.124696567
12.90550,0.9883357131
12.90600,-1.758413956
12.90650,-3.89477481
12.90700,-5.420746849
12.90750,-9.693468556
12.90800,-15.79735671
12.90850,-19.1544952
12.90900,-16.71293993
12.90950,-11.82982941
12.91000,-9.083079741
12.91050,-8.777885333
12.91100,-7.86230211
12.91150,-5.115552441
12.91200,-2.673997179
12.91250,-1.758413956
12.91300,-2.673997179
12.91350,-2.368802772
12.91400,1.293530121
12.91450,9.838973536
12.91500,16.55325051
12.91550,14.72208406
12.91600,3.429890975
12.91650,-9.083079741
12.91700,-15.1869679
12.91750,-14.88177349
12.91800,-11.21944059
12.91850,-6.336330072
12.91900,-0.8428307331
12.91950,2.209113344
12.92000,1.903918936
12.92050,-0.8428307331
12.92100,-2.673997179
12.92150,-2.063608364
12.92200,-0.2324419177
12.92250,4.345474198
12.92300,11.67013998
12.92350,18.99480577
12.92400,22.65713866
12.92450,22.04674984
12.92500,20.2155834
12.92550,19.91038899
12.92600,21.13116662
12.92650,21.43636103
12.92700,18.68961136
12.92750,12.2805288
12.92800,2.819502159
12.92850,-7.557107703
12.92900,-19.76488401
12.92950,-32.88824354
12.93000,-42.959659
12.93050,-42.65446459
12.93100,-29.83629946
12.93150,-13.05060704
12.93200,-4.199969218
12.93250,-6.641524479
12.93300,-13.96619026
12.93350,-17.62852316
12.93400,-14.57657908
12.93450,-9.388274149
12.93500,-6.031135664
12.93550,-6.946718887
12.93600,-10.30385737
12.93650,-13.05060704
12.93700,-14.27138467
12.93750,-15.79735671
12.93800,-17.62852316
12.93850,-14.57657908
12.93900,-4.505163626
12.93950,8.00780709
12.94000,17.46883373
12.94050,23.26752748
12.94100,27.54024918
12.94150,30.59219326
12.94200,28.76102681
12.94250,25.09869392
12.94300,22.35194425
12.94350,18.38441695
12.94400,7.397418275
12.94450,-7.251913295
12.94500,-14.88177349
12.94550,-12.74541263
12.94600,-10.60905178
12.94650,-17.01813434
12.94700,-25.25838335
12.94750,-24.03760572
12.94800,-13.96619026
12.94850,-5.115552441
12.94900,-1.148025141
12.94950,2.514307752
12.95000,7.702612683
12.95050,10.44936235
12.95100,10.14416794
12.95150,11.36494557
12.95200,16.2480561
12.95250,19.30000018
12.95300,16.2480561
12.95350,13.19611202
12.95400,19.30000018
12.95450,31.20258208
12.95500,35.78049819
12.95550,26.31947155
12.95600,10.75455676
12.95650,0.9883357131
12.95700,-0.2324419177
12.95750,1.293530121
12.95800,2.514307752
12.95850,2.514307752
12.95900,-0.2324419177
12.95950,-7.557107703
12.96000,-16.71293993
12.96050,-20.98566164
12.96100,-18.54410638
12.96150,-12.44021823
12.96200,-6.031135664
12.96250,0.9883357131
12.96300,8.923390313
12.96350,14.11169524
12.96400,13.19611202
12.96450,8.923390313
12.96500,5.261057421
12.96550,4.650668606
12.96600,6.176640644
12.96650,8.313001498
12.96700,9.838973536
12.96750,12.2805288
12.96800,14.72208406
12.96850,16.2480561
12.96900,14.41688965
12.96950,9.533779129
12.97000,4.650668606
12.97050,2.209113344
12.97100,2.209113344
12.97150,2.209113344
12.97200,2.514307752
12.97250,3.735085382
12.97300,4.650668606
12.97350,3.124696567
12.97400,0.07275248999
12.97450,-1.758413956
12.97500,-1.148025141
12.97550,-0.5376363254
12.97600,-2.368802772
12.97650,-3.89477481
12.97700,-1.453219549
12.97750,2.819502159
12.97800,2.514307752
12.97850,-5.725941256
12.97900,-15.79735671
12.97950,-15.79735671
12.98000,-3.89477481
12.98050,8.618195906
12.98100,11.67013998
12.98150,6.176640644
12.98200,1.293530121
12.98250,1.598724528
12.98300,2.209113344
12.98350,-0.2324419177
12.98400,-3.589580402
12.98450,-5.725941256
12.98500,-7.557107703
12.98550,-10.60905178
12.98600,-13.66099586
12.98650,-14.57657908
12.98700,-13.96619026
12.98750,-13.66099586
12.98800,-12.74541263
12.98850,-8.777885333
12.98900,-3.284385995
12.98950,0.6831413054
12.99000,4.345474198
12.99050,8.618195906
12.99100,11.36494557
12.99150,9.228584721
12.99200,4.345474198
12.99250,1.293530121
12.99300,2.209113344
12.99350,2.514307752
12.99400,-0.8428307331
12.99450,-6.031135664
12.99500,-9.388274149
12.99550,-10.91424619
12.99600,-11.82982941
12.99650,-12.44021823
12.99700,-11.82982941
12.99750,-12.13502382
12.99800,-14.88177349
12.99850,-17.62852316
12.99900,-17.32332875
12.99950,-13.66099586
13.00000,-8.472690926
13.00050,-3.284385995
13.00100,0.6831413054
13.00150,4.04027979
13.00200,6.481835052
13.00250,8.923390313
13.00300,10.14416794
13.00350,7.397418275
13.00400,1.903918936
13.00450,-0.8428307331
13.00500,-0.2324419177
13.00550,0.3779468977
13.00600,-2.979191587
13.00650,-9.693468556
13.00700,-16.10255112
13.00750,-20.98566164
13.00800,-21.59605046
13.00850,-12.74541263
13.00900,5.261057421
13.00950,24.79349951
13.01000,34.86491497
13.01050,33.03374852
13.01100,24.79349951
13.01150,15.02727847
13.01200,6.176640644
13.01250,0.3779468977
13.01300,-2.368802772
13.01350,-5.725941256
13.01400,-10.60905178
13.01450,-14.57657908
13.01500,-17.62852316
13.01550,-22.20643927
13.01600,-27.69993861
13.01650,-26.78435539
13.01700,-14.57657908
13.01750,3.735085382
13.01800,19.60519458
13.01850,26.62466596
13.01900,25.40388833
13.01950,18.07922254
13.02000,9.533779129
13.02050,4.345474198
13.02100,0.3779468977
13.02150,-7.86230211
13.02200,-21.29085605
13.02250,-32.58304913
13.02300,-36.85577084
13.02350,-38.07654847
13.02400,-39.60252051
13.02450,-38.07654847
13.02500,-29.22591065
13.02550,-17.32332875
13.02600,-10.60905178
13.02650,-9.998662964
13.02700,-10.30385737
13.02750,-10.30385737
13.02800,-10.91424619
13.02850,-11.21944059
13.02900,-7.86230211
13.02950,-0.8428307331
13.03000,4.345474198
13.03050,7.092223867
13.03100,8.923390313
13.03150,10.14416794
13.03200,9.228584721
13.03250,7.092223867
13.03300,7.092223867
13.03350,9.838973536
13.03400,12.89091761
13.03450,14.11169524
13.03500,15.33247288
13.03550,17.46883373
13.03600,19.30000018
13.03650,17.77402814
13.03700,12.2805288
13.03750,6.481835052
13.03800,3.124696567
13.03850,2.819502159
13.03900,4.04027979
13.03950,5.261057421
13.04000,5.566251829
13.04050,4.650668606
13.04100,2.514307752
13.04150,0.9883357131
13.04200,1.598724528
13.04250,4.04027979
13.04300,4.650668606
13.04350,2.819502159
13.04400,2.209113344
13.04450,7.397418275
13.04500,14.41688965
13.04550,15.02727847
13.04600,8.00780709
13.04650,1.598724528
13.04700,3.124696567
13.04750,8.313001498
13.04800,7.702612683
13.04850,-1.453219549
13.04900,-12.44021823
13.04950,-17.62852316
13.05000,-15.79735671
13.05050,-9.998662964
13.05100,-3.89477481
13.05150,0.07275248999
13.05200,2.819502159
13.05250,4.650668606
13.05300,7.092223867
13.05350,8.313001498
13.05400,7.397418275
13.05450,5.261057421
13.05500,3.735085382
13.05550,4.04027979
13.05600,4.650668606
13.05650,4.650668606
13.05700,3.429890975
13.05750,2.209113344
13.05800,1.293530121
13.05850,0.9883357131
13.05900,1.293530121
13.05950,1.903918936
13.06000,3.124696567
13.06050,5.566251829
13.06100,8.313001498
13.06150,10.75455676
13.06200,13.50130643
13.06250,17.46883373
13.06300,21.13116662
13.06350,21.13116662
13.06400,15.63766728
13.06450,7.702612683
13.06500,0.6831413054
13.06550,-3.284385995
13.06600,-4.199969218
13.06650,-1.758413956
13.06700,0.6831413054
13.06750,-0.8428307331
13.06800,-7.557107703
13.06850,-13.96619026
13.06900,-14.27138467
13.06950,-9.693468556
13.07000,-6.031135664
13.07050,-5.725941256
13.07100,-6.641524479
13.07150,-6.031135664
13.07200,-4.810358033
13.07250,-5.115552441
13.07300,-5.725941256
13.07350,-4.505163626
13.07400,-2.979191587
13.07450,-3.589580402
13.07500,-6.946718887
13.07550,-9.998662964
13.07600,-11.21944059
13.07650,-11.21944059
13.07700,-10.91424619
13.07750,-8.167496518
13.07800,-1.758413956
13.07850,3.735085382
13.07900,4.955863013
13.07950,1.293530121
13.08000,-2.673997179
13.08050,-4.810358033
13.08100,-5.725941256
13.08150,-6.031135664
13.08200,-4.505163626
13.08250,-1.148025141
13.08300,1.903918936
13.08350,3.429890975
13.08400,4.650668606
13.08450,7.092223867
13.08500,10.14416794
13.08550,11.05975117
13.08600,8.923390313
13.08650,5.871446236
13.08700,5.566251829
13.08750,9.228584721
13.08800,14.41688965
13.08850,15.33247288
13.08900,11.67013998
13.08950,7.397418275
13.09000,7.092223867
13.09050,6.481835052
13.09100,0.3779468977
13.09150,-8.472690926
13.09200,-12.74541263
13.09250,-9.998662964
13.09300,-6.336330072
13.09350,-8.472690926
13.09400,-13.96619026
13.09450,-16.10255112
13.09500,-13.05060704
13.09550,-7.86230211
13.09600,-4.810358033
13.09650,-3.589580402
13.09700,-2.063608364
13.09750,-0.2324419177
13.09800,0.6831413054
13.09850,-1.148025141
13.09900,-5.725941256
13.09950,-9.693468556
13.10000,-10.30385737
13.10050,-9.083079741
13.10100,-9.083079741
13.10150,-10.30385737
13.10200,-10.60905178
13.10250,-8.472690926
13.10300,-6.031135664
13.10350,-4.199969218
13.10400,-2.673997179
13.10450,-1.758413956
13.10500,-1.453219549
13.10550,-1.148025141
13.10600,-0.2324419177
13.10650,2.209113344
13.10700,4.650668606
13.10750,6.176640644
13.10800,7.092223867
13.10850,7.702612683
13.10900,7.702612683
13.10950,8.00780709
13.11000,9.228584721
13.11050,9.838973536
13.11100,9.838973536
13.11150,8.923390313
13.11200,8.618195906
13.11250,7.397418275
13.11300,5.566251829
13.11350,4.04027979
13.11400,6.176640644
13.11450,11.36494557
13.11500,15.02727847
13.11550,11.67013998
13.11600,1.903918936
13.11650,-8.472690926
13.11700,-14.27138467
13.11750,-14.88177349
13.11800,-12.44021823
13.11850,-9.388274149
13.11900,-5.725941256
13.11950,-2.979191587
13.12000,-4.505163626
13.12050,-10.91424619
13.12100,-17.62852316
13.12150,-17.93371756
13.12200,-10.60905178
13.12250,-0.8428307331
13.12300,4.955863013
13.12350,5.261057421
13.12400,2.514307752
13.12450,-0.2324419177
13.12500,-1.453219549
13.12550,-1.148025141
13.12600,0.9883357131
13.12650,5.261057421
13.12700,9.838973536
13.12750,13.19611202
13.12800,13.80650084
13.12850,11.36494557
13.12900,6.787029459
13.12950,1.903918936
13.13000,-1.758413956
13.13050,-5.725941256
13.13100,-9.388274149
13.13150,-11.524635
13.13200,-11.524635
13.13250,-9.998662964
13.13300,-7.557107703
13.13350,-2.979191587
13.13400,4.04027979
13.13450,11.67013998
13.13500,16.55325051
13.13550,18.07922254
13.13600,17.46883373
13.13650,16.55325051
13.13700,15.63766728
13.13750,13.80650084
13.13800,10.14416794
13.13850,3.429890975
13.13900,-6.031135664
13.13950,-16.71293993
13.14000,-24.34280013
13.14050,-28.31032743
13.14100,-30.75188269
13.14150,-32.27785473
13.14200,-30.44668828
13.14250,-23.1220225
13.14300,-13.66099586
13.14350,-6.336330072
13.14400,-2.063608364
13.14450,-0.2324419177
13.14500,0.9883357131
13.14550,0.07275248999
13.14600,-1.758413956
13.14650,-3.284385995
13.14700,-3.89477481
13.14750,-5.420746849
13.14800,-7.251913295
13.14850,-6.946718887
13.14900,-5.115552441
13.14950,-4.505163626
13.15000,-4.810358033
13.15050,-2.673997179
13.15100,3.735085382
13.15150,11.05975117
13.15200,14.11169524
13.15250,13.19611202
13.15300,11.97533439
13.15350,12.89091761
13.15400,16.2480561
13.15450,20.52077781
13.15500,22.35194425
13.15550,18.68961136
13.15600,12.2805288
13.15650,9.533779129
13.15700,12.89091761
13.15750,17.46883373
13.15800,17.16363932
13.15850,12.58572321
13.15900,8.923390313
13.15950,7.397418275
13.16000,5.566251829
13.16050,3.124696567
13.16100,1.903918936
13.16150,1.903918936
13.16200,0.9883357131
13.16250,-0.2324419177
13.16300,-0.5376363254
13.16350,-1.758413956
13.16400,-5.420746849
13.16450,-10.30385737
13.16500,-12.13502382
13.16550,-8.777885333
13.16600,-3.284385995
13.16650,0.6831413054
13.16700,2.819502159
13.16750,3.429890975
13.16800,2.514307752
13.16850,0.6831413054
13.16900,0.07275248999
13.16950,0.3779468977
13.17000,0.6831413054
13.17050,0.3779468977
13.17100,0.6831413054
13.17150,3.124696567
13.17200,7.092223867
13.17250,11.67013998
13.17300,15.02727847
13.17350,16.2480561
13.17400,14.41688965
13.17450,10.44936235
13.17500,7.092223867
13.17550,6.176640644
13.17600,5.566251829
13.17650,4.345474198
13.17700,2.514307752
13.17750,-0.2324419177
13.17800,-7.557107703
13.17850,-20.68046723
13.17900,-34.10902117
13.17950,-40.21290933
13.18000,-36.24538203
13.18050,-25.86877216
13.18100,-14.27138467
13.18150,-5.115552441
13.18200,0.3779468977
13.18250,3.429890975
13.18300,5.261057421
13.18350,7.702612683
13.18400,9.838973536
13.18450,11.36494557
13.18500,10.75455676
13.18550,7.702612683
13.18600,0.9883357131
13.18650,-8.167496518
13.18700,-16.71293993
13.18750,-20.98566164
13.18800,-21.59605046
13.18850,-21.90124486
13.18900,-24.03760572
13.18950,-25.56357776
13.19000,-24.64799453
13.19050,-19.76488401
13.19100,-12.44021823
13.19150,-4.810358033
13.19200,-0.2324419177
13.19250,-0.2324419177
13.19300,-2.063608364
13.19350,-1.148025141
13.19400,2.514307752
13.19450,2.209113344
13.19500,-6.641524479
13.19550,-18.54410638
13.19600,-22.81682809
13.19650,-16.10255112
13.19700,-5.115552441
13.19750,2.209113344
13.19800,5.871446236
13.19850,7.397418275
13.19900,6.787029459
13.19950,4.345474198
13.20000,2.209113344
13.20050,2.514307752
13.20100,4.345474198
13.20150,5.261057421
13.20200,4.955863013
13.20250,5.261057421
13.20300,5.871446236
13.20350,4.650668606
13.20400,1.598724528
13.20450,-0.2324419177
13.20500,0.6831413054
13.20550,3.124696567
13.20600,5.566251829
13.20650,7.092223867
13.20700,7.702612683
13.20750,7.702612683
13.20800,6.787029459
13.20850,6.176640644
13.20900,5.871446236
13.20950,4.955863013
13.21000,4.345474198
13.21050,4.345474198
13.21100,5.261057421
13.21150,6.176640644
13.21200,7.092223867
13.21250,7.397418275
13.21300,5.871446236
13.21350,3.124696567
13.21400,0.9883357131
13.21450,0.3779468977
13.21500,0.3779468977
13.21550,0.07275248999
13.21600,1.293530121
13.21650,4.955863013
13.21700,8.313001498
13.21750,6.481835052
13.21800,0.3779468977
13.21850,-3.284385995
13.21900,-1.758413956
13.21950,1.598724528
13.22000,3.429890975
13.22050,3.124696567
13.22100,1.903918936
13.22150,-0.2324419177
13.22200,-4.199969218
13.22250,-9.388274149
13.22300,-11.524635
13.22350,-9.388274149
13.22400,-6.946718887
13.22450,-6.336330072
13.22500,-5.725941256
13.22550,0.3779468977
13.22600,12.2805288
13.22650,22.65713866
13.22700,24.79349951
13.22750,18.99480577
13.22800,11.36494557
13.22850,5.566251829
13.22900,1.598724528
13.22950,-0.2324419177
13.23000,0.9883357131
13.23050,4.345474198
13.23100,3.735085382
13.23150,-2.979191587
13.23200,-10.60905178
13.23250,-12.13502382
13.23300,-7.557107703
13.23350,-2.368802772
13.23400,-0.2324419177
13.23450,1.293530121
13.23500,2.819502159
13.23550,1.903918936
13.23600,-2.673997179
13.23650,-6.946718887
13.23700,-4.810358033
13.23750,3.429890975
13.23800,11.97533439
13.23850,12.89091761
13.23900,6.481835052
13.23950,-1.758413956
13.24000,-7.251913295
13.24050,-9.388274149
13.24100,-10.60905178
13.24150,-9.388274149
13.24200,-3.89477481
13.24250,4.04027979
13.24300,8.923390313
13.24350,6.481835052
13.24400,1.293530121
13.24450,-1.148025141
13.24500,-0.5376363254
13.24550,-0.2324419177
13.24600,0.6831413054
13.24650,3.124696567
13.24700,4.04027979
13.24750,-2.368802772
13.24800,-16.10255112
13.24850,-26.47916098
13.24900,-24.95318894
13.24950,-15.79735671
13.25000,-7.251913295
13.25050,-2.979191587
13.25100,-1.148025141
13.25150,0.07275248999
13.25200,1.293530121
13.25250,1.293530121
13.25300,1.903918936
13.25350,2.819502159
13.25400,3.124696567
13.25450,2.819502159
13.25500,2.819502159
13.25550,3.124696567
13.25600,2.819502159
13.25650,2.209113344
13.25700,1.903918936
13.25750,1.903918936
13.25800,1.903918936
13.25850,2.209113344
13.25900,2.514307752
13.25950,1.598724528
13.26000,-1.758413956
13.26050,-5.420746849
13.26100,-3.89477481
13.26150,3.124696567
13.26200,11.97533439
13.26250,15.02727847
13.26300,11.97533439
13.26350,6.481835052
13.26400,4.04027979
13.26450,4.04027979
13.26500,4.345474198
13.26550,4.345474198
13.26600,4.650668606
13.26650,5.566251829
13.26700,5.566251829
13.26750,4.04027979
13.26800,2.209113344
13.26850,0.07275248999
13.26900,-3.284385995
13.26950,-7.557107703
13.27000,-8.777885333
13.27050,-6.336330072
13.27100,-1.758413956
13.27150,1.598724528
13.27200,4.04027979
13.27250,5.871446236
13.27300,5.871446236
13.27350,3.124696567
13.27400,-1.758413956
13.27450,-8.472690926
13.27500,-14.88177349
13.27550,-17.32332875
13.27600,-14.88177349
13.27650,-12.44021823
13.27700,-16.40774553
13.27750,-24.64799453
13.27800,-27.69993861
13.27850,-22.20643927
13.27900,-15.79735671
13.27950,-11.21944059
13.28000,-1.148025141
13.28050,18.99480577
13.28100,41.27399753
13.28150,52.26099621
13.28200,49.81944095
13.28250,43.41035838
13.28300,37.30647023
13.28350,29.67661004
13.28400,20.2155834
13.28450,12.89091761
13.28500,8.618195906
13.28550,3.429890975
13.28600,-4.810358033
13.28650,-13.96619026
13.28700,-18.54410638
13.28750,-17.01813434
13.28800,-13.05060704
13.28850,-10.30385737
13.28900,-11.82982941
13.28950,-15.79735671
13.29000,-17.32332875
13.29050,-14.88177349
13.29100,-10.60905178
13.29150,-9.388274149
13.29200,-11.21944059
13.29250,-15.1869679
13.29300,-19.1544952
13.29350,-21.29085605
13.29400,-18.84930079
13.29450,-11.82982941
13.29500,-4.810358033
13.29550,-2.368802772
13.29600,-2.979191587
13.29650,-2.979191587
13.29700,-1.148025141
13.29750,-0.2324419177
13.29800,-0.8428307331
13.29850,-2.979191587
13.29900,-5.420746849
13.29950,-8.472690926
13.30000,-10.60905178
13.30050,-10.60905178
13.30100,-8.167496518
13.30150,-4.505163626
13.30200,-0.8428307331
13.30250,0.6831413054
13.30300,-0.2324419177
13.30350,-3.284385995
13.30400,-3.89477481
13.30450,0.6831413054
13.30500,9.533779129
13.30550,18.68961136
13.30600,24.1831107
13.30650,25.40388833
13.30700,21.43636103
13.30750,13.19611202
13.30800,2.514307752
13.30850,-5.420746849
13.30900,-9.388274149
13.30950,-10.30385737
13.31000,-11.21944059
13.31050,-11.82982941
13.31100,-10.30385737
13.31150,-6.336330072
13.31200,-2.673997179
13.31250,-1.758413956
13.31300,-2.979191587
13.31350,-2.063608364
13.31400,1.903918936
13.31450,6.481835052
13.31500,6.787029459
13.31550,2.514307752
13.31600,-1.148025141
13.31650,-0.8428307331
13.31700,3.124696567
13.31750,4.955863013
13.31800,-0.2324419177
13.31850,-9.998662964
13.31900,-15.4921623
13.31950,-13.05060704
13.32000,-9.998662964
13.32050,-11.524635
13.32100,-15.4921623
13.32150,-14.88177349
13.32200,-11.82982941
13.32250,-13.05060704
13.32300,-19.76488401
13.32350,-24.34280013
13.32400,-21.29085605
13.32450,-13.35580145
13.32500,-6.336330072
13.32550,-1.453219549
13.32600,2.819502159
13.32650,6.481835052
13.32700,8.618195906
13.32750,9.228584721
13.32800,9.228584721
13.32850,8.618195906
13.32900,8.923390313
13.32950,11.67013998
13.33000,16.2480561
13.33050,18.38441695
13.33100,16.2480561
13.33150,13.19611202
13.33200,12.2805288
13.33250,12.89091761
13.33300,14.11169524
13.33350,15.33247288
13.33400,15.02727847
13.33450,11.05975117
13.33500,5.871446236
13.33550,4.04027979
13.33600,6.176640644
13.33650,8.313001498
13.33700,8.313001498
13.33750,9.838973536
13.33800,14.41688965
13.33850,15.33247288
13.33900,6.787029459
13.33950,-4.199969218
13.34000,-7.251913295
13.34050,-0.2324419177
13.34100,7.092223867
13.34150,7.092223867
13.34200,2.819502159
13.34250,0.07275248999
13.34300,0.3779468977
13.34350,0.3779468977
13.34400,0.6831413054
13.34450,3.735085382
13.34500,8.923390313
13.34550,12.58572321
13.34600,13.80650084
13.34650,13.50130643
13.34700,12.58572321
13.34750,10.75455676
13.34800,7.702612683
13.34850,4.650668606
13.34900,2.209113344
13.34950,0.6831413054
13.35000,-0.2324419177
13.35050,-0.2324419177
13.35100,0.3779468977
13.35150,0.3779468977
13.35200,-0.2324419177
13.35250,-0.2324419177
13.35300,0.3779468977
13.35350,1.903918936
13.35400,2.514307752
13.35450,1.293530121
13.35500,-0.8428307331
13.35550,-1.148025141
13.35600,1.903918936
13.35650,4.955863013
13.35700,1.903918936
13.35750,-7.251913295
13.35800,-17.01813434
13.35850,-19.4596896
13.35900,-15.1869679
13.35950,-9.083079741
13.36000,-5.115552441
13.36050,-3.89477481
13.36100,-4.810358033
13.36150,-6.641524479
13.36200,-7.86230211
13.36250,-6.336330072
13.36300,-4.199969218
13.36350,-2.979191587
13.36400,-2.063608364
13.36450,0.3779468977
13.36500,3.124696567
13.36550,1.903918936
13.36600,-2.368802772
13.36650,-6.946718887
13.36700,-10.30385737
13.36750,-12.44021823
13.36800,-13.96619026
13.36850,-13.05060704
13.36900,-11.524635
13.36950,-12.13502382
13.37000,-16.40774553
13.37050,-20.98566164
13.37100,-22.20643927
13.37150,-17.32332875
13.37200,-6.031135664
13.37250,7.397418275
13.37300,18.38441695
13.37350,22.96233307
13.37400,22.65713866
13.37450,20.82597221
13.37500,17.16363932
13.37550,10.75455676
13.37600,5.261057421
13.37650,5.261057421
13.37700,10.75455676
13.37750,14.41688965
13.37800,11.97533439
13.37850,5.871446236
13.37900,0.6831413054
13.37950,-1.148025141
13.38000,-1.758413956
13.38050,-1.453219549
13.38100,-2.063608364
13.38150,-3.284385995
13.38200,-3.284385995
13.38250,-1.758413956
13.38300,-0.5376363254
13.38350,-0.8428307331
13.38400,-0.8428307331
13.38450,0.9883357131
13.38500,3.124696567
13.38550,0.6831413054
13.38600,-3.89477481
13.38650,-4.505163626
13.38700,-0.2324419177
13.38750,2.819502159
13.38800,1.293530121
13.38850,-1.148025141
13.38900,-0.8428307331
13.38950,0.6831413054
13.39000,0.9883357131
13.39050,-0.2324419177
13.39100,-1.148025141
13.39150,-1.453219549
13.39200,-2.979191587
13.39250,-5.115552441
13.39300,-5.725941256
13.39350,-4.810358033
13.39400,-3.589580402
13.39450,-3.589580402
13.39500,-4.199969218
13.39550,-6.031135664
13.39600,-9.083079741
13.39650,-10.91424619
13.39700,-9.693468556
13.39750,-7.251913295
13.39800,-5.420746849
13.39850,-4.810358033
13.39900,-2.368802772
13.39950,2.514307752
13.40000,8.313001498
13.40050,10.75455676
13.40100,9.533779129
13.40150,6.481835052
13.40200,2.819502159
13.40250,-0.2324419177
13.40300,-4.505163626
13.40350,-8.472690926
13.40400,-10.91424619
13.40450,-12.13502382
13.40500,-14.27138467
13.40550,-18.23891197
13.40600,-22.81682809
13.40650,-24.34280013
13.40700,-20.68046723
13.40750,-13.35580145
13.40800,-7.251913295
13.40850,-3.89477481
13.40900,-2.673997179
13.40950,-1.453219549
13.41000,0.07275248999
13.41050,1.293530121
13.41100,1.293530121
13.41150,1.903918936
13.41200,3.124696567
13.41250,2.819502159
13.41300,-0.8428307331
13.41350,-6.031135664
13.41400,-7.86230211
13.41450,-5.115552441
13.41500,-2.979191587
13.41550,-4.199969218
13.41600,-6.031135664
13.41650,-4.810358033
13.41700,-1.148025141
13.41750,0.9883357131
13.41800,1.903918936
13.41850,4.04027979
13.41900,7.702612683
13.41950,10.14416794
13.42000,10.44936235
13.42050,9.228584721
13.42100,6.481835052
13.42150,1.903918936
13.42200,-2.979191587
13.42250,-3.89477481
13.42300,1.598724528
13.42350,9.533779129
13.42400,15.33247288
13.42450,16.85844491
13.42500,14.41688965
13.42550,9.228584721
13.42600,5.566251829
13.42650,8.923390313
13.42700,20.2155834
13.42750,33.03374852
13.42800,37.61166464
13.42850,29.67661004
13.42900,13.19611202
13.42950,-4.199969218
13.43000,-13.66099586
13.43050,-10.91424619
13.43100,1.293530121
13.43150,11.36494557
13.43200,9.838973536
13.43250,-2.063608364
13.43300,-15.79735671
13.43350,-24.95318894
13.43400,-33.19343795
13.43450,-42.65446459
13.43500,-50.28432478
13.43550,-49.06354715
13.43600,-39.90771492
13.43650,-29.83629946
13.43700,-22.51163368
13.43750,-15.4921623
13.43800,-5.115552441
13.43850,5.566251829
13.43900,11.67013998
13.43950,10.75455676
13.44000,5.261057421
13.44050,-1.758413956
13.44100,-9.693468556
13.44150,-17.01813434
13.44200,-23.1220225
13.44250,-25.25838335
13.44300,-20.07007842
13.44350,-8.167496518
13.44400,5.261057421
13.44450,13.80650084
13.44500,15.02727847
13.44550,13.19611202
13.44600,12.58572321
13.44650,12.89091761
13.44700,11.67013998
13.44750,9.228584721
13.44800,8.618195906
13.44850,10.14416794
13.44900,10.44936235
13.44950,10.14416794
13.45000,11.05975117
13.45050,13.50130643
13.45100,12.89091761
13.45150,7.397418275
13.45200,1.293530121
13.45250,-1.148025141
13.45300,-1.148025141
13.45350,0.07275248999
13.45400,2.514307752
13.45450,5.871446236
13.45500,6.176640644
13.45550,1.293530121
13.45600,-4.810358033
13.45650,-6.641524479
13.45700,-3.89477481
13.45750,0.3779468977
13.45800,5.871446236
13.45850,13.80650084
13.45900,20.82597221
13.45950,22.04674984
13.46000,17.46883373
13.46050,13.50130643
13.46100,13.19611202
13.46150,14.72208406
13.46200,15.63766728
13.46250,15.94286169
13.46300,16.55325051
13.46350,15.94286169
13.46400,13.80650084
13.46450,10.75455676
13.46500,6.787029459
13.46550,-0.2324419177
13.46600,-8.777885333
13.46650,-15.1869679
13.46700,-16.71293993
13.46750,-14.27138467
13.46800,-9.693468556
13.46850,-3.284385995
13.46900,4.345474198
13.46950,10.14416794
13.47000,10.44936235
13.47050,4.955863013
13.47100,-1.453219549
13.47150,-3.89477481
13.47200,1.903918936
13.47250,15.02727847
13.47300,29.67661004
13.47350,37.61166464
13.47400,34.86491497
13.47450,23.26752748
13.47500,6.787029459
13.47550,-8.777885333
13.47600,-21.59605046
13.47650,-29.22591065
13.47700,-31.66746591
13.47750,-27.3947442
13.47800,-17.62852316
13.47850,-7.557107703
13.47900,-3.589580402
13.47950,-6.946718887
13.48000,-12.13502382
13.48050,-13.35580145
13.48100,-11.82982941
13.48150,-12.13502382
13.48200,-14.27138467
13.48250,-13.66099586
13.48300,-8.167496518
13.48350,-3.589580402
13.48400,-6.031135664
13.48450,-14.88177349
13.48500,-22.81682809
13.48550,-23.4272169
13.48600,-17.62852316
13.48650,-10.91424619
13.48700,-6.336330072
13.48750,-3.589580402
13.48800,-2.063608364
13.48850,-1.453219549
13.48900,-0.2324419177
13.48950,3.735085382
13.49000,10.14416794
13.49050,15.33247288
13.49100,15.33247288
13.49150,11.97533439
13.49200,9.838973536
13.49250,9.838973536
13.49300,10.44936235
13.49350,10.14416794
13.49400,9.228584721
13.49450,8.313001498
13.49500,6.481835052
13.49550,2.819502159
13.49600,-2.368802772
13.49650,-6.336330072
13.49700,-7.251913295
13.49750,-4.505163626
13.49800,-0.5376363254
13.49850,2.209113344
13.49900,2.819502159
13.49950,2.819502159
13.50000,4.04027979
13.50050,7.092223867
13.50100,10.44936235
13.50150,13.19611202
13.50200,14.41688965
13.50250,15.63766728
13.50300,17.16363932
13.50350,16.55325051
13.50400,11.36494557
13.50450,4.04027979
13.50500,0.07275248999
13.50550,2.514307752
13.50600,5.566251829
13.50650,2.209113344
13.50700,-6.946718887
13.50750,-14.57657908
13.50800,-14.27138467
13.50850,-8.472690926
13.50900,-3.284385995
13.50950,-0.8428307331
13.51000,-1.453219549
13.51050,-3.89477481
13.51100,-6.946718887
13.51150,-7.86230211
13.51200,-5.420746849
13.51250,-2.673997179
13.51300,-2.979191587
13.51350,-4.199969218
13.51400,-2.673997179
13.51450,0.9883357131
13.51500,4.04027979
13.51550,4.650668606
13.51600,4.345474198
13.51650,4.955863013
13.51700,5.261057421
13.51750,4.650668606
13.51800,4.650668606
13.51850,4.650668606
13.51900,3.735085382
13.51950,1.598724528
13.52000,0.6831413054
13.52050,1.598724528
13.52100,2.209113344
13.52150,0.07275248999
13.52200,-2.673997179
13.52250,-4.199969218
13.52300,-3.89477481
13.52350,-2.979191587
13.52400,-2.368802772
13.52450,-1.453219549
13.52500,-0.2324419177
13.52550,1.598724528
13.52600,2.819502159
13.52650,2.819502159
13.52700,2.514307752
13.52750,2.819502159
13.52800,3.124696567
13.52850,1.903918936
13.52900,-0.8428307331
13.52950,-4.810358033
13.53000,-7.86230211
13.53050,-9.998662964
13.53100,-11.21944059
13.53150,-11.524635
13.53200,-10.91424619
13.53250,-9.388274149
13.53300,-7.251913295
13.53350,-4.810358033
13.53400,-2.979191587
13.53450,-2.368802772
13.53500,-1.453219549
13.53550,0.9883357131
13.53600,5.871446236
13.53650,10.75455676
13.53700,13.50130643
13.53750,14.41688965
13.53800,14.11169524
13.53850,12.89091761
13.53900,12.58572321
13.53950,15.02727847
13.54000,18.38441695
13.54050,18.38441695
13.54100,15.02727847
13.54150,11.97533439
13.54200,11.36494557
13.54250,9.838973536
13.54300,5.261057421
13.54350,0.6831413054
13.54400,-2.979191587
13.54450,-10.91424619
13.54500,-25.25838335
13.54550,-38.38174288
13.54600,-39.2973261
13.54650,-28.61552183
13.54700,-16.40774553
13.54750,-10.30385737
13.54800,-8.472690926
13.54850,-8.167496518
13.54900,-9.083079741
13.54950,-10.60905178
13.55000,-10.30385737
13.55050,-9.083079741
13.55100,-9.388274149
13.55150,-11.524635
13.55200,-13.66099586
13.55250,-15.1869679
13.55300,-18.23891197
13.55350,-22.20643927
13.55400,-24.03760572
13.55450,-22.51163368
13.55500,-18.54410638
13.55550,-10.91424619
13.55600,0.6831413054
13.55650,10.75455676
13.55700,13.50130643
13.55750,8.923390313
13.55800,4.955863013
13.55850,4.345474198
13.55900,5.871446236
13.55950,8.313001498
13.56000,12.58572321
13.56050,16.2480561
13.56100,15.33247288
13.56150,8.923390313
13.56200,3.124696567
13.56250,1.598724528
13.56300,2.514307752
13.56350,2.819502159
13.56400,3.124696567
13.56450,4.04027979
13.56500,3.735085382
13.56550,1.293530121
13.56600,-0.5376363254
13.56650,-0.2324419177
13.56700,2.514307752
13.56750,4.955863013
13.56800,6.787029459
13.56850,8.313001498
13.56900,10.44936235
13.56950,12.58572321
13.57000,13.19611202
13.57050,9.228584721
13.57100,2.819502159
13.57150,-0.8428307331
13.57200,0.3779468977
13.57250,3.124696567
13.57300,0.3779468977
13.57350,-7.86230211
13.57400,-15.79735671
13.57450,-17.01813434
13.57500,-12.74541263
13.57550,-6.641524479
13.57600,-1.758413956
13.57650,-0.2324419177
13.57700,-1.148025141
13.57750,-0.5376363254
13.57800,5.261057421
13.57850,12.2805288
13.57900,10.75455676
13.57950,0.6831413054
13.58000,-5.420746849
13.58050,-0.5376363254
13.58100,7.092223867
13.58150,5.871446236
13.58200,-2.979191587
13.58250,-6.641524479
13.58300,-0.2324419177
13.58350,6.787029459
13.58400,6.176640644
13.58450,1.293530121
13.58500,-0.5376363254
13.58550,-2.979191587
13.58600,-11.21944059
13.58650,-22.81682809
13.58700,-28.31032743
13.58750,-23.1220225
13.58800,-11.82982941
13.58850,-2.063608364
13.58900,2.514307752
13.58950,2.514307752
13.59000,0.3779468977
13.59050,-0.2324419177
13.59100,0.9883357131
13.59150,0.9883357131
13.59200,-0.8428307331
13.59250,-1.758413956
13.59300,1.598724528
13.59350,7.702612683
13.59400,11.05975117
13.59450,9.838973536
13.59500,6.787029459
13.59550,3.735085382
13.59600,2.514307752
13.59650,4.650668606
13.59700,8.313001498
13.59750,9.838973536
13.59800,6.481835052
13.59850,1.598724528
13.59900,-2.063608364
13.59950,-5.725941256
13.60000,-10.60905178
13.60050,-13.05060704
13.60100,-8.167496518
13.60150,1.293530121
13.60200,8.00780709
13.60250,8.923390313
13.60300,6.787029459
13.60350,3.124696567
13.60400,-2.673997179
13.60450,-11.82982941
13.60500,-19.76488401
13.60550,-23.1220225
13.60600,-21.90124486
13.60650,-18.23891197
13.60700,-12.74541263
13.60750,-6.336330072
13.60800,-1.758413956
13.60850,0.9883357131
13.60900,4.04027979
13.60950,6.481835052
13.61000,5.261057421
13.61050,1.598724528
13.61100,0.07275248999
13.61150,2.209113344
13.61200,5.261057421
13.61250,6.481835052
13.61300,7.092223867
13.61350,8.618195906
13.61400,8.923390313
13.61450,7.092223867
13.61500,4.955863013
13.61550,5.261057421
13.61600,6.787029459
13.61650,6.176640644
13.61700,4.345474198
13.61750,4.04027979
13.61800,5.261057421
13.61850,4.345474198
13.61900,-0.2324419177
13.61950,-3.89477481
13.62000,-3.589580402
13.62050,-0.2324419177
13.62100,-0.8428307331
13.62150,-9.693468556
13.62200,-22.20643927
13.62250,-29.22591065
13.62300,-26.47916098
13.62350,-19.76488401
13.62400,-16.10255112
13.62450,-16.10255112
13.62500,-14.27138467
13.62550,-7.557107703
13.62600,0.3779468977
13.62650,7.092223867
13.62700,12.89091761
13.62750,17.77402814
13.62800,19.60519458
13.62850,17.16363932
13.62900,13.80650084
13.62950,12.58572321
13.63000,12.58572321
13.63050,10.44936235
13.63100,5.871446236
13.63150,3.124696567
13.63200,4.955863013
13.63250,9.533779129
13.63300,12.89091761
13.63350,12.58572321
13.63400,8.923390313
13.63450,3.124696567
13.63500,-0.5376363254
13.63550,1.598724528
13.63600,8.313001498
13.63650,13.50130643
13.63700,12.89091761
13.63750,8.923390313
13.63800,7.092223867
13.63850,7.702612683
13.63900,7.092223867
13.63950,4.955863013
13.64000,4.955863013
13.64050,6.787029459
13.64100,7.092223867
13.64150,4.955863013
13.64200,7.092223867
13.64250,18.99480577
13.64300,36.69608141
13.64350,49.51424654
13.64400,49.81944095
13.64450,39.13763668
13.64500,26.92986037
13.64550,18.68961136
13.64600,11.36494557
13.64650,-2.368802772
13.64700,-23.73241131
13.64750,-41.73888137
13.64800,-48.75835274
13.64850,-49.06354715
13.64900,-51.81029682
13.64950,-58.21937938
13.65000,-59.74535142
13.65050,-54.25185208
13.65100,-48.14796393
13.65150,-44.48563103
13.65200,-37.46615966
13.65250,-23.1220225
13.65300,-7.557107703
13.65350,-0.2324419177
13.65400,0.3779468977
13.65450,-0.2324419177
13.65500,0.3779468977
13.65550,0.07275248999
13.65600,-1.758413956
13.65650,-3.89477481
13.65700,-5.725941256
13.65750,-7.86230211
13.65800,-9.083079741
13.65850,-5.420746849
13.65900,0.07275248999
13.65950,1.903918936
13.66000,-1.148025141
13.66050,-4.505163626
13.66100,-3.284385995
13.66150,0.3779468977
13.66200,3.124696567
13.66250,3.429890975
13.66300,4.04027979
13.66350,5.566251829
13.66400,5.871446236
13.66450,3.429890975
13.66500,1.293530121
13.66550,3.124696567
13.66600,8.313001498
13.66650,11.97533439
13.66700,11.05975117
13.66750,7.702612683
13.66800,6.481835052
13.66850,8.00780709
13.66900,9.838973536
13.66950,10.14416794
13.67000,9.838973536
13.67050,10.14416794
13.67100,10.44936235
13.67150,9.838973536
13.67200,9.533779129
13.67250,9.838973536
13.67300,10.14416794
13.67350,9.228584721
13.67400,8.618195906
13.67450,9.533779129
13.67500,10.44936235
13.67550,9.533779129
13.67600,6.787029459
13.67650,4.955863013
13.67700,5.261057421
13.67750,5.566251829
13.67800,5.566251829
13.67850,6.481835052
13.67900,7.702612683
13.67950,7.702612683
13.68000,7.397418275
13.68050,11.67013998
13.68100,20.52077781
13.68150,27.84544359
13.68200,26.62466596
13.68250,16.55325051
13.68300,5.261057421
13.68350,-0.2324419177
13.68400,0.07275248999
13.68450,0.9883357131
13.68500,-3.284385995
13.68550,-14.88177349
13.68600,-27.3947442
13.68650,-33.80382676
13.68700,-30.44668828
13.68750,-20.98566164
13.68800,-10.91424619
13.68850,-4.199969218
13.68900,-3.89477481
13.68950,-9.998662964
13.69000,-17.32332875
13.69050,-18.54410638
13.69100,-11.82982941
13.69150,-2.368802772
13.69200,2.514307752
13.69250,2.514307752
13.69300,1.293530121
13.69350,0.6831413054
13.69400,-0.2324419177
13.69450,-1.148025141
13.69500,-1.148025141
13.69550,-0.5376363254
13.69600,0.07275248999
13.69650,0.3779468977
13.69700,0.6831413054
13.69750,0.3779468977
13.69800,-0.2324419177
13.69850,-0.2324419177
13.69900,0.9883357131
13.69950,3.124696567
13.70000,4.650668606
13.70050,4.955863013
13.70100,5.566251829
13.70150,7.702612683
13.70200,9.533779129
13.70250,8.618195906
13.70300,2.819502159
13.70350,-3.89477481
13.70400,-7.557107703
13.70450,-6.336330072
13.70500,-3.589580402
13.70550,-3.284385995
13.70600,-5.420746849
13.70650,-7.251913295
13.70700,-7.557107703
13.70750,-7.86230211
13.70800,-7.557107703
13.70850,-5.115552441
13.70900,-1.453219549
13.70950,1.293530121
13.71000,1.903918936
13.71050,2.209113344
13.71100,4.04027979
13.71150,7.092223867
13.71200,9.533779129
13.71250,9.533779129
13.71300,7.397418275
13.71350,4.650668606
13.71400,2.514307752
13.71450,0.9883357131
13.71500,-0.8428307331
13.71550,-3.284385995
13.71600,-5.725941256
13.71650,-7.86230211
13.71700,-9.998662964
13.71750,-11.524635
13.71800,-11.524635
13.71850,-9.998662964
13.71900,-8.167496518
13.71950,-7.86230211
13.72000,-8.167496518
13.72050,-7.251913295
13.72100,-5.115552441
13.72150,-2.063608364
13.72200,1.293530121
13.72250,4.04027979
13.72300,6.176640644
13.72350,9.533779129
13.72400,14.72208406
13.72450,19.60519458
13.72500,21.43636103
13.72550,20.2155834
13.72600,18.68961136
13.72650,17.46883373
13.72700,14.11169524
13.72750,8.618195906
13.72800,3.429890975
13.72850,1.903918936
13.72900,1.293530121
13.72950,-0.2324419177
13.73000,-1.453219549
13.73050,-0.5376363254
13.73100,1.293530121
13.73150,0.6831413054
13.73200,-2.673997179
13.73250,-5.115552441
13.73300,-5.115552441
13.73350,-5.420746849
13.73400,-8.472690926
13.73450,-12.13502382
13.73500,-13.05060704
13.73550,-10.91424619
13.73600,-7.557107703
13.73650,-5.115552441
13.73700,-3.284385995
13.73750,-2.673997179
13.73800,-2.368802772
13.73850,-1.758413956
13.73900,-0.2324419177
13.73950,2.514307752
13.74000,4.955863013
13.74050,6.481835052
13.74100,6.787029459
13.74150,5.261057421
