"type","name","time_units","begin_time","frequency","count","units"
"signal","Ultium EMG-FLEX.CARP.R RT","s",98.98000,2000,22000,"uV"

"time","value"
98.98000,-9.782083225
98.98050,-6.42494474
98.98100,-2.762611847
98.98150,-0.3210565858
98.98200,1.815304268
98.98250,7.003609199
98.98300,12.49710854
98.98350,12.80230295
98.98400,10.36074768
98.98450,10.36074768
98.98500,12.19191413
98.98550,6.393220384
98.98600,-11.00286086
98.98650,-29.61971973
98.98700,-36.33399669
98.98750,-31.45088617
98.98800,-23.21063716
98.98850,-15.88597138
98.98900,-7.950916778
98.98950,-0.9314454012
98.99000,0.899721045
98.99050,-0.01586217811
98.99100,1.51010986
98.99150,7.919192422
98.99200,11.27633091
98.99250,7.919192422
98.99300,3.341276307
98.99350,4.867248345
98.99400,11.27633091
98.99450,16.15944143
98.99500,15.85424702
98.99550,12.19191413
98.99600,7.613998014
98.99650,3.341276307
98.99700,-0.6262509935
98.99750,-3.983389478
98.99800,-6.119750332
98.99850,-5.204167109
98.99900,-0.9314454012
98.99950,2.425693084
99.00000,1.815304268
99.00050,-0.3210565858
99.00100,0.5945266373
99.00150,7.919192422
99.00200,16.15944143
99.00250,18.9061911
99.00300,16.15944143
99.00350,12.49710854
99.00400,9.139970053
99.00450,4.867248345
99.00500,-0.01586217811
99.00550,-3.373000663
99.00600,-4.898972701
99.00650,-5.814555924
99.00700,-6.730139148
99.00750,-7.035333555
99.00800,-6.42494474
99.00850,-4.898972701
99.00900,-2.762611847
99.00950,-0.01586217811
99.01000,-0.3210565858
99.01050,-8.866500001
99.01100,-22.60024835
99.01150,-30.53530295
99.01200,-25.34699802
99.01250,-18.02233223
99.01300,-25.04180361
99.01350,-40.30152399
99.01400,-36.6391911
99.01450,-0.01586217811
99.01500,45.76329898
99.01550,61.93860259
99.01600,44.23732694
99.01650,22.8737184
99.01700,20.12696873
99.01750,26.8412457
99.01800,23.17891281
99.01850,10.05555328
99.01900,2.120498676
99.01950,2.425693084
99.02000,-0.6262509935
99.02050,-11.00286086
99.02100,-15.88597138
99.02150,-5.814555924
99.02200,10.66594209
99.02250,17.99060788
99.02300,10.9711365
99.02350,-1.847028624
99.02400,-11.30805526
99.02450,-16.19116579
99.02500,-19.24310986
99.02550,-21.07427631
99.02600,-18.93791546
99.02650,-12.52883289
99.02700,-4.288583886
99.02750,2.425693084
99.02800,6.393220384
99.02850,8.22438683
99.02900,7.919192422
99.02950,5.782831568
99.03000,2.120498676
99.03050,-3.067806255
99.03100,-9.782083225
99.03150,-15.88597138
99.03200,-17.71713782
99.03250,-13.74961052
99.03300,-5.204167109
99.03350,4.562053937
99.03400,13.71788617
99.03450,17.68541347
99.03500,14.9386638
99.03550,8.834775645
99.03600,5.782831568
99.03650,6.088025976
99.03700,5.477637161
99.03750,2.730887491
99.03800,1.204915453
99.03850,2.730887491
99.03900,3.646470714
99.03950,1.204915453
99.04000,-0.01586217811
99.04050,2.425693084
99.04100,6.393220384
99.04150,7.613998014
99.04200,7.308803607
99.04250,7.919192422
99.04300,8.834775645
99.04350,5.782831568
99.04400,-0.01586217811
99.04450,-4.288583886
99.04500,-5.509361517
99.04550,-5.509361517
99.04600,-7.340527963
99.04650,-10.39247204
99.04700,-12.52883289
99.04750,-11.30805526
99.04800,-6.42494474
99.04850,-1.541834217
99.04900,-0.9314454012
99.04950,-3.067806255
99.05000,-2.152223032
99.05050,3.341276307
99.05100,7.919192422
99.05150,5.477637161
99.05200,-0.9314454012
99.05250,-4.898972701
99.05300,-4.593778294
99.05350,-3.067806255
99.05400,-1.541834217
99.05450,0.899721045
99.05500,4.867248345
99.05550,9.445164461
99.05600,14.02308058
99.05650,17.68541347
99.05700,17.07502465
99.05750,10.36074768
99.05800,2.425693084
99.05850,-1.541834217
99.05900,-1.541834217
99.05950,-1.541834217
99.06000,-3.067806255
99.06050,-4.593778294
99.06100,-7.340527963
99.06150,-12.52883289
99.06200,-16.19116579
99.06250,-11.00286086
99.06300,0.5945266373
99.06350,9.445164461
99.06400,8.529581238
99.06450,1.204915453
99.06500,-6.119750332
99.06550,-13.44441612
99.06600,-19.85349868
99.06650,-20.7690819
99.06700,-13.74961052
99.06750,-4.898972701
99.06800,-3.373000663
99.06850,-8.866500001
99.06900,-12.22363849
99.06950,-8.866500001
99.07000,-4.288583886
99.07050,-5.509361517
99.07100,-9.171694409
99.07150,-7.645722371
99.07200,1.51010986
99.07250,12.80230295
99.07300,18.29580228
99.07350,18.60099669
99.07400,18.29580228
99.07450,18.60099669
99.07500,17.68541347
99.07550,12.49710854
99.07600,4.867248345
99.07650,-1.541834217
99.07700,-4.593778294
99.07750,-3.067806255
99.07800,1.51010986
99.07850,7.003609199
99.07900,9.445164461
99.07950,6.698414791
99.08000,0.5945266373
99.08050,-4.288583886
99.08100,-5.509361517
99.08150,-1.541834217
99.08200,2.120498676
99.08250,1.815304268
99.08300,-1.847028624
99.08350,-4.898972701
99.08400,-4.898972701
99.08450,-4.288583886
99.08500,-5.814555924
99.08550,-7.340527963
99.08600,-6.42494474
99.08650,-3.067806255
99.08700,0.5945266373
99.08750,4.25685953
99.08800,6.698414791
99.08850,5.477637161
99.08900,1.815304268
99.08950,0.2893322296
99.09000,4.25685953
99.09050,10.66594209
99.09100,14.02308058
99.09150,12.49710854
99.09200,8.834775645
99.09250,4.562053937
99.09300,-0.01586217811
99.09350,-4.898972701
99.09400,-7.950916778
99.09450,-7.950916778
99.09500,-6.42494474
99.09550,-5.814555924
99.09600,-6.730139148
99.09650,-7.950916778
99.09700,-9.476888817
99.09750,-9.782083225
99.09800,-8.256111186
99.09850,-5.204167109
99.09900,-1.236639809
99.09950,1.815304268
99.10000,6.088025976
99.10050,11.58152531
99.10100,16.15944143
99.10150,16.15944143
99.10200,12.49710854
99.10250,9.445164461
99.10300,8.834775645
99.10350,5.477637161
99.10400,-4.898972701
99.10450,-17.41194342
99.10500,-21.37947072
99.10550,-14.05480493
99.10600,-4.593778294
99.10650,-0.9314454012
99.10700,-1.847028624
99.10750,-1.847028624
99.10800,0.2893322296
99.10850,1.204915453
99.10900,-1.236639809
99.10950,-5.509361517
99.11000,-7.340527963
99.11050,-5.814555924
99.11100,-7.340527963
99.11150,-17.41194342
99.11200,-30.23010854
99.11250,-33.89244143
99.11300,-26.87297006
99.11350,-22.90544276
99.11400,-29.00933091
99.11450,-29.00933091
99.11500,-2.152223032
99.11550,40.88018845
99.11600,67.43210192
99.11650,59.80224173
99.11700,35.69188352
99.11750,21.04255195
99.11800,18.29580228
99.11850,13.71788617
99.11900,3.341276307
99.11950,-5.509361517
99.12000,-9.171694409
99.12050,-10.69766645
99.12100,-11.61324967
99.12150,-9.782083225
99.12200,-5.814555924
99.12250,-4.288583886
99.12300,-6.42494474
99.12350,-8.256111186
99.12400,-6.119750332
99.12450,-2.152223032
99.12500,-0.6262509935
99.12550,-2.45741744
99.12600,-5.814555924
99.12650,-8.866500001
99.12700,-11.00286086
99.12750,-11.91844408
99.12800,-10.39247204
99.12850,-6.42494474
99.12900,-1.847028624
99.12950,1.204915453
99.13000,4.867248345
99.13050,9.445164461
99.13100,12.19191413
99.13150,11.27633091
99.13200,9.445164461
99.13250,10.9711365
99.13300,14.63346939
99.13350,14.32827498
99.13400,8.529581238
99.13450,4.25685953
99.13500,4.867248345
99.13550,6.393220384
99.13600,3.036081899
99.13650,-1.541834217
99.13700,-2.762611847
99.13750,-0.01586217811
99.13800,2.730887491
99.13850,3.646470714
99.13900,5.172442753
99.13950,7.003609199
99.14000,7.003609199
99.14050,5.172442753
99.14100,3.341276307
99.14150,-0.3210565858
99.14200,-8.256111186
99.14250,-16.19116579
99.14300,-16.19116579
99.14350,-8.256111186
99.14400,-0.01586217811
99.14450,3.951665122
99.14500,5.477637161
99.14550,7.003609199
99.14600,6.698414791
99.14650,2.425693084
99.14700,-1.541834217
99.14750,-1.847028624
99.14800,-0.01586217811
99.14850,-0.3210565858
99.14900,-3.983389478
99.14950,-7.950916778
99.15000,-10.39247204
99.15050,-11.00286086
99.15100,-9.782083225
99.15150,-7.340527963
99.15200,-5.814555924
99.15250,-4.898972701
99.15300,-3.678195071
99.15350,-1.541834217
99.15400,-0.01586217811
99.15450,0.5945266373
99.15500,0.5945266373
99.15550,0.5945266373
99.15600,0.5945266373
99.15650,1.815304268
99.15700,5.782831568
99.15750,11.58152531
99.15800,14.02308058
99.15850,9.750358868
99.15900,0.2893322296
99.15950,-9.171694409
99.16000,-14.05480493
99.16050,-11.61324967
99.16100,-3.067806255
99.16150,4.867248345
99.16200,5.782831568
99.16250,-0.01586217811
99.16300,-4.898972701
99.16350,-3.983389478
99.16400,-1.236639809
99.16450,-1.541834217
99.16500,-3.067806255
99.16550,-3.373000663
99.16600,-4.593778294
99.16650,-8.561305594
99.16700,-11.00286086
99.16750,-8.256111186
99.16800,-4.898972701
99.16850,-8.561305594
99.16900,-16.19116579
99.16950,-18.02233223
99.17000,-11.61324967
99.17050,-5.204167109
99.17100,-4.288583886
99.17150,-3.678195071
99.17200,3.036081899
99.17250,12.80230295
99.17300,18.60099669
99.17350,18.60099669
99.17400,16.46463584
99.17450,13.10749735
99.17500,10.05555328
99.17550,8.529581238
99.17600,11.27633091
99.17650,14.32827498
99.17700,12.49710854
99.17750,5.477637161
99.17800,-0.9314454012
99.17850,-2.45741744
99.17900,1.204915453
99.17950,5.477637161
99.18000,7.308803607
99.18050,6.698414791
99.18100,5.782831568
99.18150,4.867248345
99.18200,3.646470714
99.18250,2.425693084
99.18300,1.204915453
99.18350,-0.3210565858
99.18400,-3.983389478
99.18450,-7.340527963
99.18500,-7.950916778
99.18550,-7.035333555
99.18600,-7.645722371
99.18650,-9.782083225
99.18700,-9.476888817
99.18750,-5.204167109
99.18800,-0.6262509935
99.18850,-0.01586217811
99.18900,-1.541834217
99.18950,-0.9314454012
99.19000,0.5945266373
99.19050,1.204915453
99.19100,1.51010986
99.19150,3.951665122
99.19200,5.782831568
99.19250,4.562053937
99.19300,2.120498676
99.19350,2.120498676
99.19400,3.036081899
99.19450,2.425693084
99.19500,0.5945266373
99.19550,0.5945266373
99.19600,1.51010986
99.19650,0.2893322296
99.19700,-0.01586217811
99.19750,2.425693084
99.19800,5.782831568
99.19850,3.951665122
99.19900,-1.541834217
99.19950,-5.509361517
99.20000,-5.814555924
99.20050,-6.730139148
99.20100,-9.476888817
99.20150,-9.171694409
99.20200,-3.067806255
99.20250,4.867248345
99.20300,10.9711365
99.20350,13.71788617
99.20400,13.41269176
99.20450,9.139970053
99.20500,3.646470714
99.20550,0.899721045
99.20600,2.425693084
99.20650,4.562053937
99.20700,5.477637161
99.20750,5.172442753
99.20800,3.951665122
99.20850,0.899721045
99.20900,-0.6262509935
99.20950,2.425693084
99.21000,8.22438683
99.21050,10.36074768
99.21100,7.308803607
99.21150,4.562053937
99.21200,4.867248345
99.21250,4.25685953
99.21300,0.5945266373
99.21350,-3.067806255
99.21400,-4.593778294
99.21450,-4.288583886
99.21500,-2.45741744
99.21550,0.899721045
99.21600,4.25685953
99.21650,3.646470714
99.21700,-0.01586217811
99.21750,-3.373000663
99.21800,-3.067806255
99.21850,-1.847028624
99.21900,-2.762611847
99.21950,-5.814555924
99.22000,-9.171694409
99.22050,-11.30805526
99.22100,-11.30805526
99.22150,-8.256111186
99.22200,-4.593778294
99.22250,-2.152223032
99.22300,-0.9314454012
99.22350,1.204915453
99.22400,4.25685953
99.22450,4.562053937
99.22500,1.51010986
99.22550,-1.236639809
99.22600,-2.152223032
99.22650,-2.45741744
99.22700,-3.067806255
99.22750,-3.983389478
99.22800,-5.204167109
99.22850,-7.645722371
99.22900,-10.08727763
99.22950,-10.39247204
99.23000,-9.171694409
99.23050,-7.950916778
99.23100,-7.950916778
99.23150,-7.645722371
99.23200,-5.814555924
99.23250,-3.067806255
99.23300,-0.9314454012
99.23350,-0.01586217811
99.23400,-0.3210565858
99.23450,-0.9314454012
99.23500,-0.6262509935
99.23550,2.120498676
99.23600,6.393220384
99.23650,9.139970053
99.23700,8.529581238
99.23750,4.867248345
99.23800,-0.3210565858
99.23850,-5.509361517
99.23900,-9.782083225
99.23950,-11.91844408
99.24000,-10.69766645
99.24050,-7.035333555
99.24100,-3.983389478
99.24150,-3.373000663
99.24200,-4.898972701
99.24250,-5.814555924
99.24300,-3.983389478
99.24350,-0.3210565858
99.24400,2.425693084
99.24450,3.951665122
99.24500,4.867248345
99.24550,7.003609199
99.24600,12.19191413
99.24650,18.60099669
99.24700,22.26332958
99.24750,20.73735755
99.24800,14.63346939
99.24850,5.477637161
99.24900,-5.509361517
99.24950,-14.97038816
99.25000,-17.71713782
99.25050,-12.52883289
99.25100,-6.42494474
99.25150,-5.509361517
99.25200,-9.171694409
99.25250,-10.69766645
99.25300,-6.119750332
99.25350,3.951665122
99.25400,15.85424702
99.25450,23.48410721
99.25500,21.65294077
99.25550,12.49710854
99.25600,2.120498676
99.25650,-8.561305594
99.25700,-23.82102598
99.25750,-41.82749603
99.25800,-51.89891149
99.25850,-50.37293945
99.25900,-44.26905129
99.25950,-35.72360788
99.26000,-13.44441612
99.26050,28.67241215
99.26100,70.17885159
99.26150,80.55546146
99.26200,57.05549206
99.26250,26.8412457
99.26300,12.19191413
99.26350,9.139970053
99.26400,5.782831568
99.26450,1.51010986
99.26500,1.204915453
99.26550,1.204915453
99.26600,-4.593778294
99.26650,-13.74961052
99.26700,-19.24310986
99.26750,-18.63272105
99.26800,-14.66519375
99.26850,-6.42494474
99.26900,6.088025976
99.26950,17.99060788
99.27000,21.04255195
99.27050,15.85424702
99.27100,10.36074768
99.27150,8.834775645
99.27200,8.22438683
99.27250,4.867248345
99.27300,1.204915453
99.27350,-0.01586217811
99.27400,-0.01586217811
99.27450,-0.3210565858
99.27500,-1.847028624
99.27550,-2.45741744
99.27600,-2.45741744
99.27650,-6.119750332
99.27700,-13.13922171
99.27750,-17.71713782
99.27800,-14.05480493
99.27850,-5.509361517
99.27900,-1.847028624
99.27950,-7.035333555
99.28000,-14.35999934
99.28050,-14.35999934
99.28100,-7.950916778
99.28150,-3.373000663
99.28200,-2.762611847
99.28250,-1.541834217
99.28300,1.51010986
99.28350,2.120498676
99.28400,-1.541834217
99.28450,-4.898972701
99.28500,-1.847028624
99.28550,4.25685953
99.28600,7.003609199
99.28650,6.393220384
99.28700,9.139970053
99.28750,16.76983025
99.28800,23.78930162
99.28850,25.01007925
99.28900,19.82177432
99.28950,11.88671972
99.29000,3.646470714
99.29050,-0.9314454012
99.29100,-0.9314454012
99.29150,0.899721045
99.29200,1.815304268
99.29250,0.899721045
99.29300,1.815304268
99.29350,4.25685953
99.29400,5.782831568
99.29450,4.867248345
99.29500,3.951665122
99.29550,3.341276307
99.29600,1.51010986
99.29650,-1.847028624
99.29700,-4.898972701
99.29750,-5.509361517
99.29800,-4.898972701
99.29850,-4.898972701
99.29900,-5.814555924
99.29950,-6.730139148
99.30000,-7.340527963
99.30050,-7.645722371
99.30100,-6.42494474
99.30150,-4.288583886
99.30200,-2.762611847
99.30250,-3.983389478
99.30300,-6.119750332
99.30350,-7.035333555
99.30400,-5.509361517
99.30450,-4.288583886
99.30500,-6.119750332
99.30550,-10.08727763
99.30600,-11.91844408
99.30650,-10.08727763
99.30700,-6.119750332
99.30750,-3.983389478
99.30800,-4.593778294
99.30850,-4.288583886
99.30900,-1.847028624
99.30950,-0.01586217811
99.31000,-0.3210565858
99.31050,-2.45741744
99.31100,-1.847028624
99.31150,1.51010986
99.31200,3.951665122
99.31250,1.815304268
99.31300,-3.678195071
99.31350,-9.476888817
99.31400,-12.52883289
99.31450,-11.30805526
99.31500,-5.814555924
99.31550,-0.6262509935
99.31600,-1.847028624
99.31650,-9.476888817
99.31700,-15.88597138
99.31750,-11.30805526
99.31800,5.172442753
99.31850,23.78930162
99.31900,33.25032826
99.31950,33.55552267
99.32000,32.02955063
99.32050,33.55552267
99.32100,35.08149471
99.32150,29.28280096
99.32200,15.24385821
99.32250,-0.01586217811
99.32300,-8.256111186
99.32350,-8.561305594
99.32400,-5.814555924
99.32450,-3.373000663
99.32500,-1.236639809
99.32550,0.2893322296
99.32600,1.51010986
99.32650,-0.01586217811
99.32700,-3.067806255
99.32750,-6.42494474
99.32800,-9.476888817
99.32850,-11.30805526
99.32900,-10.69766645
99.32950,-9.171694409
99.33000,-7.950916778
99.33050,-7.645722371
99.33100,-5.204167109
99.33150,-0.6262509935
99.33200,2.425693084
99.33250,1.51010986
99.33300,-0.6262509935
99.33350,0.5945266373
99.33400,4.867248345
99.33450,7.003609199
99.33500,5.477637161
99.33550,4.25685953
99.33600,5.477637161
99.33650,4.25685953
99.33700,-0.6262509935
99.33750,-4.898972701
99.33800,-3.983389478
99.33850,-0.3210565858
99.33900,0.2893322296
99.33950,-0.6262509935
99.34000,1.204915453
99.34050,6.088025976
99.34100,7.308803607
99.34150,2.730887491
99.34200,-2.45741744
99.34250,-3.983389478
99.34300,-3.373000663
99.34350,-3.983389478
99.34400,-4.898972701
99.34450,-4.288583886
99.34500,-1.541834217
99.34550,-0.01586217811
99.34600,-0.3210565858
99.34650,-1.847028624
99.34700,-1.541834217
99.34750,-0.01586217811
99.34800,-0.3210565858
99.34850,-4.898972701
99.34900,-10.69766645
99.34950,-12.52883289
99.35000,-9.171694409
99.35050,-5.509361517
99.35100,-5.204167109
99.35150,-7.340527963
99.35200,-8.256111186
99.35250,-7.035333555
99.35300,-4.593778294
99.35350,-1.541834217
99.35400,-0.01586217811
99.35450,-0.9314454012
99.35500,-4.593778294
99.35550,-5.814555924
99.35600,-1.847028624
99.35650,3.341276307
99.35700,6.698414791
99.35750,8.22438683
99.35800,9.139970053
99.35850,8.22438683
99.35900,4.25685953
99.35950,-0.01586217811
99.36000,-1.236639809
99.36050,0.2893322296
99.36100,2.730887491
99.36150,4.562053937
99.36200,3.951665122
99.36250,-0.6262509935
99.36300,-7.340527963
99.36350,-9.782083225
99.36400,-7.340527963
99.36450,-7.645722371
99.36500,-15.88597138
99.36550,-23.51583157
99.36600,-19.54830427
99.36650,-5.509361517
99.36700,5.477637161
99.36750,6.698414791
99.36800,1.815304268
99.36850,-0.3210565858
99.36900,0.2893322296
99.36950,1.815304268
99.37000,2.425693084
99.37050,3.646470714
99.37100,6.088025976
99.37150,7.308803607
99.37200,6.393220384
99.37250,4.867248345
99.37300,4.25685953
99.37350,3.036081899
99.37400,-0.6262509935
99.37450,-6.119750332
99.37500,-7.950916778
99.37550,-4.288583886
99.37600,1.815304268
99.37650,6.393220384
99.37700,8.834775645
99.37750,10.66594209
99.37800,11.88671972
99.37850,13.41269176
99.37900,15.85424702
99.37950,16.76983025
99.38000,10.66594209
99.38050,-1.847028624
99.38100,-10.69766645
99.38150,-7.950916778
99.38200,0.899721045
99.38250,5.172442753
99.38300,4.562053937
99.38350,4.25685953
99.38400,2.425693084
99.38450,-5.814555924
99.38500,-18.02233223
99.38550,-24.12622039
99.38600,-23.51583157
99.38650,-21.68466512
99.38700,-14.97038816
99.38750,6.088025976
99.38800,37.52304997
99.38850,56.13990884
99.38900,48.20485424
99.38950,25.92566248
99.39000,9.139970053
99.39050,2.425693084
99.39100,-2.45741744
99.39150,-7.950916778
99.39200,-7.645722371
99.39250,-1.847028624
99.39300,0.899721045
99.39350,-2.762611847
99.39400,-7.950916778
99.39450,-5.814555924
99.39500,3.036081899
99.39550,12.19191413
99.39600,15.85424702
99.39650,13.41269176
99.39700,7.308803607
99.39750,-0.01586217811
99.39800,-5.814555924
99.39850,-7.035333555
99.39900,-4.593778294
99.39950,-2.762611847
99.40000,-3.983389478
99.40050,-6.42494474
99.40100,-6.730139148
99.40150,-5.509361517
99.40200,-6.730139148
99.40250,-9.782083225
99.40300,-10.39247204
99.40350,-6.119750332
99.40400,-0.01586217811
99.40450,7.308803607
99.40500,14.32827498
99.40550,18.29580228
99.40600,15.54905261
99.40650,7.613998014
99.40700,1.815304268
99.40750,2.730887491
99.40800,5.172442753
99.40850,3.036081899
99.40900,-1.236639809
99.40950,-3.678195071
99.41000,-3.373000663
99.41050,-3.678195071
99.41100,-4.288583886
99.41150,-3.067806255
99.41200,-0.6262509935
99.41250,-0.01586217811
99.41300,-3.067806255
99.41350,-7.035333555
99.41400,-10.08727763
99.41450,-11.00286086
99.41500,-9.171694409
99.41550,-4.288583886
99.41600,0.2893322296
99.41650,2.120498676
99.41700,2.120498676
99.41750,3.036081899
99.41800,4.562053937
99.41850,4.562053937
99.41900,1.815304268
99.41950,-1.541834217
99.42000,-6.730139148
99.42050,-12.8340273
99.42100,-15.88597138
99.42150,-13.74961052
99.42200,-8.256111186
99.42250,-4.593778294
99.42300,-3.983389478
99.42350,-6.119750332
99.42400,-10.39247204
99.42450,-17.10674901
99.42500,-21.98985953
99.42550,-20.46388749
99.42600,-12.8340273
99.42650,-3.067806255
99.42700,4.25685953
99.42750,9.139970053
99.42800,12.80230295
99.42850,17.99060788
99.42900,24.70488485
99.42950,27.45163452
99.43000,17.68541347
99.43050,-3.678195071
99.43100,-23.82102598
99.43150,-29.00933091
99.43200,-21.37947072
99.43250,-14.05480493
99.43300,-11.91844408
99.43350,-9.171694409
99.43400,-2.152223032
99.43450,4.25685953
99.43500,6.088025976
99.43550,7.919192422
99.43600,13.41269176
99.43650,17.38021906
99.43700,13.10749735
99.43750,2.425693084
99.43800,-4.593778294
99.43850,-3.678195071
99.43900,-0.3210565858
99.43950,-0.9314454012
99.44000,-5.509361517
99.44050,-8.866500001
99.44100,-7.950916778
99.44150,-3.067806255
99.44200,3.951665122
99.44250,10.66594209
99.44300,13.10749735
99.44350,11.58152531
99.44400,10.05555328
99.44450,11.58152531
99.44500,11.88671972
99.44550,6.698414791
99.44600,-2.45741744
99.44650,-8.866500001
99.44700,-9.476888817
99.44750,-7.950916778
99.44800,-7.645722371
99.44850,-7.645722371
99.44900,-4.593778294
99.44950,-0.3210565858
99.45000,1.815304268
99.45050,0.899721045
99.45100,-0.9314454012
99.45150,-1.541834217
99.45200,-2.152223032
99.45250,-3.067806255
99.45300,-3.983389478
99.45350,-3.067806255
99.45400,0.2893322296
99.45450,4.25685953
99.45500,3.951665122
99.45550,0.5945266373
99.45600,-0.01586217811
99.45650,5.782831568
99.45700,13.41269176
99.45750,15.24385821
99.45800,10.36074768
99.45850,5.172442753
99.45900,3.341276307
99.45950,3.341276307
99.46000,2.730887491
99.46050,3.341276307
99.46100,6.698414791
99.46150,9.750358868
99.46200,8.834775645
99.46250,5.477637161
99.46300,2.730887491
99.46350,0.5945266373
99.46400,-1.847028624
99.46450,-4.288583886
99.46500,-4.288583886
99.46550,-2.762611847
99.46600,-2.45741744
99.46650,-2.762611847
99.46700,-2.45741744
99.46750,-0.01586217811
99.46800,2.730887491
99.46850,3.646470714
99.46900,1.204915453
99.46950,-4.593778294
99.47000,-11.61324967
99.47050,-13.74961052
99.47100,-10.39247204
99.47150,-7.340527963
99.47200,-10.39247204
99.47250,-17.41194342
99.47300,-19.54830427
99.47350,-12.8340273
99.47400,-4.288583886
99.47450,-0.3210565858
99.47500,-0.6262509935
99.47550,0.5945266373
99.47600,5.477637161
99.47650,8.529581238
99.47700,7.308803607
99.47750,4.562053937
99.47800,4.867248345
99.47850,6.393220384
99.47900,5.477637161
99.47950,2.730887491
99.48000,0.2893322296
99.48050,-0.9314454012
99.48100,-6.119750332
99.48150,-15.27558256
99.48200,-22.60024835
99.48250,-21.68466512
99.48300,-14.35999934
99.48350,-6.42494474
99.48400,0.5945266373
99.48450,8.529581238
99.48500,15.54905261
99.48550,17.68541347
99.48600,14.32827498
99.48650,11.88671972
99.48700,14.32827498
99.48750,18.29580228
99.48800,18.60099669
99.48850,14.02308058
99.48900,8.22438683
99.48950,4.25685953
99.49000,2.425693084
99.49050,3.036081899
99.49100,5.172442753
99.49150,6.393220384
99.49200,6.088025976
99.49250,7.003609199
99.49300,11.58152531
99.49350,16.15944143
99.49400,14.63346939
99.49450,6.698414791
99.49500,-0.3210565858
99.49550,-1.541834217
99.49600,-0.01586217811
99.49650,-0.6262509935
99.49700,-3.983389478
99.49750,-7.035333555
99.49800,-9.171694409
99.49850,-9.476888817
99.49900,-8.561305594
99.49950,-6.42494474
99.50000,-6.119750332
99.50050,-7.645722371
99.50100,-7.340527963
99.50150,-2.762611847
99.50200,0.2893322296
99.50250,-0.9314454012
99.50300,-3.373000663
99.50350,-0.6262509935
99.50400,5.172442753
99.50450,5.477637161
99.50500,-1.236639809
99.50550,-8.256111186
99.50600,-10.08727763
99.50650,-8.561305594
99.50700,-8.561305594
99.50750,-12.22363849
99.50800,-20.7690819
99.50850,-31.45088617
99.50900,-35.72360788
99.50950,-29.00933091
99.51000,-19.54830427
99.51050,-19.54830427
99.51100,-22.29505394
99.51150,-7.950916778
99.51200,24.39969044
99.51250,50.6464095
99.51300,50.34121509
99.51350,32.63993945
99.51400,20.43216314
99.51450,18.60099669
99.51500,15.54905261
99.51550,8.529581238
99.51600,6.088025976
99.51650,8.834775645
99.51700,5.782831568
99.51750,-6.42494474
99.51800,-15.88597138
99.51850,-11.61324967
99.51900,-0.01586217811
99.51950,5.477637161
99.52000,0.899721045
99.52050,-6.42494474
99.52100,-10.69766645
99.52150,-10.08727763
99.52200,-5.204167109
99.52250,0.5945266373
99.52300,3.646470714
99.52350,1.204915453
99.52400,-3.983389478
99.52450,-8.256111186
99.52500,-11.91844408
99.52550,-17.71713782
99.52600,-23.21063716
99.52650,-21.98985953
99.52700,-13.13922171
99.52750,-3.067806255
99.52800,0.899721045
99.52850,0.5945266373
99.52900,1.815304268
99.52950,5.172442753
99.53000,7.613998014
99.53050,6.393220384
99.53100,2.425693084
99.53150,-0.01586217811
99.53200,-0.01586217811
99.53250,2.120498676
99.53300,4.867248345
99.53350,4.867248345
99.53400,0.2893322296
99.53450,-5.204167109
99.53500,-7.340527963
99.53550,-4.593778294
99.53600,-0.3210565858
99.53650,3.951665122
99.53700,8.529581238
99.53750,12.49710854
99.53800,14.32827498
99.53850,14.63346939
99.53900,14.9386638
99.53950,15.54905261
99.54000,13.10749735
99.54050,7.919192422
99.54100,3.646470714
99.54150,1.815304268
99.54200,-0.01586217811
99.54250,-2.762611847
99.54300,-2.45741744
99.54350,3.341276307
99.54400,10.36074768
99.54450,13.10749735
99.54500,11.58152531
99.54550,9.445164461
99.54600,9.445164461
99.54650,8.834775645
99.54700,5.172442753
99.54750,-0.6262509935
99.54800,-5.204167109
99.54850,-6.119750332
99.54900,-3.983389478
99.54950,-1.847028624
99.55000,-1.541834217
99.55050,-4.898972701
99.55100,-11.30805526
99.55150,-16.8015546
99.55200,-14.66519375
99.55250,-1.847028624
99.55300,13.71788617
99.55350,20.12696873
99.55400,14.02308058
99.55450,3.951665122
99.55500,-1.236639809
99.55550,-2.45741744
99.55600,-4.898972701
99.55650,-7.340527963
99.55700,-6.42494474
99.55750,-2.45741744
99.55800,-1.541834217
99.55850,-5.204167109
99.55900,-8.256111186
99.55950,-5.814555924
99.56000,-0.6262509935
99.56050,2.730887491
99.56100,3.646470714
99.56150,3.341276307
99.56200,2.120498676
99.56250,-0.01586217811
99.56300,-3.983389478
99.56350,-6.119750332
99.56400,-4.288583886
99.56450,1.51010986
99.56500,8.22438683
99.56550,10.36074768
99.56600,6.088025976
99.56650,-0.01586217811
99.56700,-3.983389478
99.56750,-6.42494474
99.56800,-8.561305594
99.56850,-10.08727763
99.56900,-10.08727763
99.56950,-8.561305594
99.57000,-6.730139148
99.57050,-5.509361517
99.57100,-2.762611847
99.57150,0.5945266373
99.57200,3.341276307
99.57250,4.25685953
99.57300,3.646470714
99.57350,3.646470714
99.57400,3.036081899
99.57450,1.815304268
99.57500,0.2893322296
99.57550,-0.01586217811
99.57600,-0.3210565858
99.57650,-1.236639809
99.57700,-2.762611847
99.57750,-3.983389478
99.57800,-4.593778294
99.57850,-4.288583886
99.57900,-3.373000663
99.57950,-1.236639809
99.58000,-0.01586217811
99.58050,-1.541834217
99.58100,-5.204167109
99.58150,-6.730139148
99.58200,-3.373000663
99.58250,1.51010986
99.58300,4.25685953
99.58350,3.341276307
99.58400,0.5945266373
99.58450,-1.236639809
99.58500,-2.152223032
99.58550,-2.45741744
99.58600,-2.762611847
99.58650,-1.847028624
99.58700,0.2893322296
99.58750,3.341276307
99.58800,2.120498676
99.58850,-4.288583886
99.58900,-12.52883289
99.58950,-14.35999934
99.59000,-7.645722371
99.59050,1.815304268
99.59100,7.919192422
99.59150,9.445164461
99.59200,7.919192422
99.59250,5.172442753
99.59300,3.036081899
99.59350,3.036081899
99.59400,3.341276307
99.59450,-1.541834217
99.59500,-11.30805526
99.59550,-18.02233223
99.59600,-15.58077697
99.59650,-7.645722371
99.59700,-2.152223032
99.59750,-0.01586217811
99.59800,3.341276307
99.59850,8.529581238
99.59900,10.9711365
99.59950,8.529581238
99.60000,5.172442753
99.60050,2.730887491
99.60100,1.204915453
99.60150,0.899721045
99.60200,2.730887491
99.60250,3.951665122
99.60300,0.899721045
99.60350,-4.898972701
99.60400,-9.171694409
99.60450,-9.171694409
99.60500,-8.866500001
99.60550,-9.476888817
99.60600,-9.782083225
99.60650,-8.561305594
99.60700,-7.645722371
99.60750,-7.035333555
99.60800,-4.898972701
99.60850,-0.3210565858
99.60900,3.951665122
99.60950,6.088025976
99.61000,7.003609199
99.61050,7.613998014
99.61100,7.308803607
99.61150,5.477637161
99.61200,3.036081899
99.61250,2.120498676
99.61300,2.120498676
99.61350,1.51010986
99.61400,1.51010986
99.61450,3.036081899
99.61500,3.951665122
99.61550,3.951665122
99.61600,5.782831568
99.61650,10.36074768
99.61700,13.41269176
99.61750,10.66594209
99.61800,3.951665122
99.61850,0.5945266373
99.61900,3.341276307
99.61950,7.308803607
99.62000,6.393220384
99.62050,1.204915453
99.62100,-2.152223032
99.62150,-0.6262509935
99.62200,2.730887491
99.62250,0.2893322296
99.62300,-12.22363849
99.62350,-28.09374769
99.62400,-32.06127499
99.62450,-21.68466512
99.62500,-14.05480493
99.62550,-21.98985953
99.62600,-28.7041365
99.62650,-6.42494474
99.62700,42.40616049
99.62750,82.3866279
99.62800,83.91259994
99.62850,57.36068647
99.62900,34.47110589
99.62950,28.67241215
99.63000,30.19838418
99.63050,27.45163452
99.63100,20.43216314
99.63150,10.36074768
99.63200,-3.067806255
99.63250,-16.8015546
99.63300,-22.29505394
99.63350,-18.32752664
99.63400,-11.61324967
99.63450,-7.035333555
99.63500,-4.593778294
99.63550,-3.067806255
99.63600,-3.678195071
99.63650,-7.340527963
99.63700,-11.00286086
99.63750,-13.44441612
99.63800,-14.66519375
99.63850,-14.35999934
99.63900,-11.30805526
99.63950,-6.42494474
99.64000,-3.678195071
99.64050,-4.593778294
99.64100,-6.119750332
99.64150,-6.119750332
99.64200,-5.204167109
99.64250,-5.509361517
99.64300,-7.035333555
99.64350,-9.782083225
99.64400,-13.13922171
99.64450,-16.19116579
99.64500,-16.19116579
99.64550,-13.44441612
99.64600,-11.61324967
99.64650,-12.52883289
99.64700,-15.27558256
99.64750,-16.49636019
99.64800,-16.8015546
99.64850,-14.35999934
99.64900,-7.950916778
99.64950,2.120498676
99.65000,11.27633091
99.65050,14.02308058
99.65100,10.9711365
99.65150,7.003609199
99.65200,6.088025976
99.65250,6.698414791
99.65300,7.613998014
99.65350,7.003609199
99.65400,2.425693084
99.65450,-3.983389478
99.65500,-7.950916778
99.65550,-5.509361517
99.65600,-0.01586217811
99.65650,1.51010986
99.65700,-0.9314454012
99.65750,-3.678195071
99.65800,-2.762611847
99.65850,-0.3210565858
99.65900,0.899721045
99.65950,1.51010986
99.66000,1.204915453
99.66050,-0.01586217811
99.66100,-0.3210565858
99.66150,2.120498676
99.66200,8.834775645
99.66250,14.63346939
99.66300,14.9386638
99.66350,10.05555328
99.66400,3.951665122
99.66450,-0.6262509935
99.66500,-2.762611847
99.66550,-3.678195071
99.66600,-3.983389478
99.66650,-4.593778294
99.66700,-5.509361517
99.66750,-7.340527963
99.66800,-8.561305594
99.66850,-7.645722371
99.66900,-3.678195071
99.66950,-0.01586217811
99.67000,-0.3210565858
99.67050,-3.373000663
99.67100,-3.067806255
99.67150,2.730887491
99.67200,8.22438683
99.67250,7.613998014
99.67300,3.341276307
99.67350,1.815304268
99.67400,2.425693084
99.67450,0.899721045
99.67500,-0.3210565858
99.67550,1.51010986
99.67600,5.782831568
99.67650,4.562053937
99.67700,-3.678195071
99.67750,-10.69766645
99.67800,-10.08727763
99.67850,-5.814555924
99.67900,-3.678195071
99.67950,-2.762611847
99.68000,0.899721045
99.68050,6.698414791
99.68100,9.750358868
99.68150,7.919192422
99.68200,4.25685953
99.68250,1.815304268
99.68300,0.5945266373
99.68350,-0.01586217811
99.68400,-1.541834217
99.68450,-2.45741744
99.68500,-0.01586217811
99.68550,5.782831568
99.68600,9.750358868
99.68650,4.562053937
99.68700,-9.171694409
99.68750,-21.68466512
99.68800,-23.82102598
99.68850,-17.10674901
99.68900,-11.00286086
99.68950,-8.866500001
99.69000,-7.645722371
99.69050,-4.898972701
99.69100,-3.373000663
99.69150,-3.983389478
99.69200,-3.373000663
99.69250,3.036081899
99.69300,13.71788617
99.69350,20.73735755
99.69400,19.82177432
99.69450,14.32827498
99.69500,9.445164461
99.69550,7.919192422
99.69600,7.613998014
99.69650,6.088025976
99.69700,3.341276307
99.69750,0.5945266373
99.69800,-2.152223032
99.69850,-4.593778294
99.69900,-5.814555924
99.69950,-4.898972701
99.70000,-3.678195071
99.70050,-3.373000663
99.70100,-2.762611847
99.70150,-0.01586217811
99.70200,3.036081899
99.70250,4.25685953
99.70300,3.951665122
99.70350,3.951665122
99.70400,5.477637161
99.70450,6.393220384
99.70500,5.477637161
99.70550,3.646470714
99.70600,3.341276307
99.70650,4.562053937
99.70700,4.562053937
99.70750,1.204915453
99.70800,-3.067806255
99.70850,-5.814555924
99.70900,-5.509361517
99.70950,-4.593778294
99.71000,-3.983389478
99.71050,-2.762611847
99.71100,0.5945266373
99.71150,5.172442753
99.71200,8.834775645
99.71250,10.9711365
99.71300,9.445164461
99.71350,2.120498676
99.71400,-10.69766645
99.71450,-21.07427631
99.71500,-21.37947072
99.71550,-13.44441612
99.71600,-5.204167109
99.71650,0.899721045
99.71700,8.834775645
99.71750,17.38021906
99.71800,20.12696873
99.71850,16.76983025
99.71900,14.02308058
99.71950,15.54905261
99.72000,16.46463584
99.72050,12.49710854
99.72100,8.22438683
99.72150,7.613998014
99.72200,8.22438683
99.72250,5.782831568
99.72300,1.815304268
99.72350,0.899721045
99.72400,0.899721045
99.72450,-1.847028624
99.72500,-6.42494474
99.72550,-8.256111186
99.72600,-7.950916778
99.72650,-8.866500001
99.72700,-10.69766645
99.72750,-10.69766645
99.72800,-9.171694409
99.72850,-7.950916778
99.72900,-8.256111186
99.72950,-7.340527963
99.73000,-4.593778294
99.73050,-0.6262509935
99.73100,4.867248345
99.73150,11.27633091
99.73200,14.63346939
99.73250,14.02308058
99.73300,13.10749735
99.73350,15.24385821
99.73400,16.15944143
99.73450,12.19191413
99.73500,5.782831568
99.73550,-0.3210565858
99.73600,-11.00286086
99.73650,-30.84049736
99.73700,-50.06774504
99.73750,-55.56124438
99.73800,-47.93138419
99.73850,-38.77555196
99.73900,-28.39894209
99.73950,-3.983389478
99.74000,33.55552267
99.74050,60.71782495
99.74100,57.66588088
99.74150,30.19838418
99.74200,0.899721045
99.74250,-15.58077697
99.74300,-18.02233223
99.74350,-7.645722371
99.74400,9.139970053
99.74450,19.51657991
99.74500,14.32827498
99.74550,-0.6262509935
99.74600,-11.00286086
99.74650,-11.61324967
99.74700,-8.866500001
99.74750,-7.645722371
99.74800,-6.730139148
99.74850,-5.204167109
99.74900,-4.288583886
99.74950,-5.204167109
99.75000,-7.035333555
99.75050,-8.561305594
99.75100,-9.171694409
99.75150,-7.340527963
99.75200,-4.593778294
99.75250,-3.373000663
99.75300,-4.593778294
99.75350,-2.762611847
99.75400,4.562053937
99.75450,13.41269176
99.75500,17.38021906
99.75550,16.15944143
99.75600,12.80230295
99.75650,9.139970053
99.75700,5.477637161
99.75750,2.730887491
99.75800,0.2893322296
99.75850,-2.45741744
99.75900,-5.204167109
99.75950,-4.898972701
99.76000,-2.152223032
99.76050,-1.541834217
99.76100,-3.373000663
99.76150,-1.236639809
99.76200,6.393220384
99.76250,12.80230295
99.76300,9.445164461
99.76350,-0.3210565858
99.76400,-6.730139148
99.76450,-6.730139148
99.76500,-6.119750332
99.76550,-8.866500001
99.76600,-10.69766645
99.76650,-6.42494474
99.76700,1.204915453
99.76750,5.782831568
99.76800,5.477637161
99.76850,3.036081899
99.76900,1.51010986
99.76950,1.204915453
99.77000,1.51010986
99.77050,2.425693084
99.77100,3.036081899
99.77150,2.425693084
99.77200,0.5945266373
99.77250,-0.01586217811
99.77300,0.899721045
99.77350,2.730887491
99.77400,3.341276307
99.77450,3.036081899
99.77500,2.730887491
99.77550,0.5945266373
99.77600,-3.983389478
99.77650,-10.39247204
99.77700,-13.74961052
99.77750,-11.00286086
99.77800,-3.983389478
99.77850,0.899721045
99.77900,1.51010986
99.77950,-0.6262509935
99.78000,-1.847028624
99.78050,-0.3210565858
99.78100,1.815304268
99.78150,3.341276307
99.78200,4.25685953
99.78250,5.172442753
99.78300,5.782831568
99.78350,7.003609199
99.78400,8.529581238
99.78450,7.919192422
99.78500,3.951665122
99.78550,-1.236639809
99.78600,-5.509361517
99.78650,-7.645722371
99.78700,-9.171694409
99.78750,-9.782083225
99.78800,-7.340527963
99.78850,-3.373000663
99.78900,-1.541834217
99.78950,-1.541834217
99.79000,-0.01586217811
99.79050,2.730887491
99.79100,3.951665122
99.79150,3.036081899
99.79200,3.951665122
99.79250,6.393220384
99.79300,4.25685953
99.79350,-2.45741744
99.79400,-7.645722371
99.79450,-6.42494474
99.79500,-5.204167109
99.79550,-11.00286086
99.79600,-19.24310986
99.79650,-20.15869309
99.79700,-12.52883289
99.79750,-5.814555924
99.79800,-5.814555924
99.79850,-9.782083225
99.79900,-10.69766645
99.79950,-6.119750332
99.80000,-0.01586217811
99.80050,0.5945266373
99.80100,-3.678195071
99.80150,-6.119750332
99.80200,2.425693084
99.80250,19.51657991
99.80300,29.58799537
99.80350,22.56852399
99.80400,8.22438683
99.80450,1.815304268
99.80500,7.003609199
99.80550,12.49710854
99.80600,12.19191413
99.80650,9.750358868
99.80700,8.529581238
99.80750,7.308803607
99.80800,3.951665122
99.80850,0.899721045
99.80900,-0.01586217811
99.80950,-0.01586217811
99.81000,-2.152223032
99.81050,-3.678195071
99.81100,-2.762611847
99.81150,-1.847028624
99.81200,-2.152223032
99.81250,-2.45741744
99.81300,-0.9314454012
99.81350,0.5945266373
99.81400,0.899721045
99.81450,0.5945266373
99.81500,2.730887491
99.81550,7.308803607
99.81600,10.36074768
99.81650,8.22438683
99.81700,2.425693084
99.81750,-1.541834217
99.81800,-0.01586217811
99.81850,5.172442753
99.81900,10.05555328
99.81950,11.58152531
99.82000,11.58152531
99.82050,10.9711365
99.82100,8.529581238
99.82150,4.25685953
99.82200,1.204915453
99.82250,-0.01586217811
99.82300,-3.067806255
99.82350,-12.8340273
99.82400,-23.82102598
99.82450,-26.26258124
99.82500,-19.54830427
99.82550,-11.30805526
99.82600,-7.035333555
99.82650,-5.204167109
99.82700,-3.678195071
99.82750,-5.204167109
99.82800,-10.39247204
99.82850,-15.27558256
99.82900,-14.05480493
99.82950,-8.256111186
99.83000,-2.762611847
99.83050,-0.01586217811
99.83100,1.815304268
99.83150,3.341276307
99.83200,3.036081899
99.83250,0.899721045
99.83300,-1.236639809
99.83350,-1.847028624
99.83400,-0.01586217811
99.83450,3.951665122
99.83500,7.003609199
99.83550,6.088025976
99.83600,2.425693084
99.83650,-0.01586217811
99.83700,0.5945266373
99.83750,3.341276307
99.83800,3.951665122
99.83850,1.815304268
99.83900,-0.01586217811
99.83950,-0.01586217811
99.84000,-0.9314454012
99.84050,-3.373000663
99.84100,-4.898972701
99.84150,-3.067806255
99.84200,1.204915453
99.84250,5.782831568
99.84300,8.834775645
99.84350,10.66594209
99.84400,12.19191413
99.84450,13.41269176
99.84500,12.19191413
99.84550,6.088025976
99.84600,-5.204167109
99.84650,-15.88597138
99.84700,-17.71713782
99.84750,-11.00286086
99.84800,-5.509361517
99.84850,-6.730139148
99.84900,-8.256111186
99.84950,-2.45741744
99.85000,6.698414791
99.85050,10.36074768
99.85100,4.867248345
99.85150,-4.898972701
99.85200,-15.27558256
99.85250,-23.51583157
99.85300,-26.26258124
99.85350,-23.51583157
99.85400,-21.98985953
99.85450,-22.29505394
99.85500,-10.08727763
99.85550,23.78930162
99.85600,63.15938022
99.85650,77.19832297
99.85700,58.5814641
99.85750,31.11396741
99.85800,17.99060788
99.85850,16.46463584
99.85900,12.19191413
99.85950,4.867248345
99.86000,3.951665122
99.86050,9.445164461
99.86100,10.9711365
99.86150,4.867248345
99.86200,-1.541834217
99.86250,-0.6262509935
99.86300,3.951665122
99.86350,4.867248345
99.86400,-2.762611847
99.86450,-16.49636019
99.86500,-29.00933091
99.86550,-34.19763584
99.86600,-31.14569176
99.86650,-23.51583157
99.86700,-14.05480493
99.86750,-5.509361517
99.86800,-0.01586217811
99.86850,-0.3210565858
99.86900,-6.119750332
99.86950,-14.05480493
99.87000,-18.32752664
99.87050,-16.49636019
99.87100,-11.00286086
99.87150,-7.035333555
99.87200,-8.561305594
99.87250,-12.52883289
99.87300,-10.69766645
99.87350,0.5945266373
99.87400,15.24385821
99.87450,22.26332958
99.87500,18.60099669
99.87550,12.19191413
99.87600,10.36074768
99.87650,11.88671972
99.87700,13.71788617
99.87750,14.63346939
99.87800,13.41269176
99.87850,7.003609199
99.87900,-3.373000663
99.87950,-11.00286086
99.88000,-11.00286086
99.88050,-7.645722371
99.88100,-8.256111186
99.88150,-11.30805526
99.88200,-10.69766645
99.88250,-6.42494474
99.88300,-3.678195071
99.88350,-3.678195071
99.88400,-0.6262509935
99.88450,7.003609199
99.88500,14.9386638
99.88550,16.15944143
99.88600,11.88671972
99.88650,6.698414791
99.88700,3.036081899
99.88750,1.204915453
99.88800,0.899721045
99.88850,0.2893322296
99.88900,-4.593778294
99.88950,-13.74961052
99.89000,-22.29505394
99.89050,-24.7366092
99.89100,-19.24310986
99.89150,-9.476888817
99.89200,0.2893322296
99.89250,7.308803607
99.89300,9.750358868
99.89350,8.834775645
99.89400,6.393220384
99.89450,3.646470714
99.89500,4.562053937
99.89550,10.9711365
99.89600,19.82177432
99.89650,21.65294077
99.89700,12.19191413
99.89750,0.5945266373
99.89800,-2.45741744
99.89850,0.5945266373
99.89900,0.5945266373
99.89950,-6.42494474
99.90000,-15.27558256
99.90050,-20.46388749
99.90100,-22.60024835
99.90150,-23.21063716
99.90200,-19.54830427
99.90250,-11.30805526
99.90300,-2.152223032
99.90350,3.951665122
99.90400,5.782831568
99.90450,4.867248345
99.90500,1.51010986
99.90550,-2.762611847
99.90600,-6.730139148
99.90650,-8.256111186
99.90700,-6.42494474
99.90750,-3.067806255
99.90800,-1.236639809
99.90850,-1.847028624
99.90900,-0.9314454012
99.90950,5.172442753
99.91000,14.32827498
99.91050,18.9061911
99.91100,15.24385821
99.91150,8.529581238
99.91200,4.562053937
99.91250,4.562053937
99.91300,5.782831568
99.91350,6.393220384
99.91400,4.867248345
99.91450,1.51010986
99.91500,-0.3210565858
99.91550,0.5945266373
99.91600,3.951665122
99.91650,3.951665122
99.91700,-0.01586217811
99.91750,-3.373000663
99.91800,-2.152223032
99.91850,-0.01586217811
99.91900,-0.9314454012
99.91950,-3.983389478
99.92000,-5.509361517
99.92050,-4.898972701
99.92100,-5.509361517
99.92150,-7.340527963
99.92200,-7.950916778
99.92250,-5.204167109
99.92300,-1.236639809
99.92350,0.5945266373
99.92400,-0.01586217811
99.92450,-1.541834217
99.92500,-3.067806255
99.92550,-2.762611847
99.92600,-1.541834217
99.92650,-0.9314454012
99.92700,-2.45741744
99.92750,-4.898972701
99.92800,-5.509361517
99.92850,-2.152223032
99.92900,3.341276307
99.92950,7.919192422
99.93000,9.750358868
99.93050,9.445164461
99.93100,9.445164461
99.93150,10.05555328
99.93200,11.88671972
99.93250,13.71788617
99.93300,14.32827498
99.93350,11.88671972
99.93400,4.867248345
99.93450,-4.593778294
99.93500,-11.00286086
99.93550,-9.171694409
99.93600,-2.762611847
99.93650,-2.152223032
99.93700,-10.69766645
99.93750,-20.15869309
99.93800,-20.46388749
99.93850,-12.52883289
99.93900,-4.593778294
99.93950,0.5945266373
99.94000,6.393220384
99.94050,11.27633091
99.94100,8.529581238
99.94150,-0.9314454012
99.94200,-5.814555924
99.94250,-0.9314454012
99.94300,4.867248345
99.94350,3.341276307
99.94400,-1.847028624
99.94450,-2.152223032
99.94500,1.815304268
99.94550,2.120498676
99.94600,-1.847028624
99.94650,-3.983389478
99.94700,-1.541834217
99.94750,0.899721045
99.94800,1.204915453
99.94850,1.51010986
99.94900,3.341276307
99.94950,3.646470714
99.95000,2.425693084
99.95050,3.036081899
99.95100,6.698414791
99.95150,9.445164461
99.95200,8.834775645
99.95250,7.613998014
99.95300,7.308803607
99.95350,6.698414791
99.95400,3.646470714
99.95450,-2.45741744
99.95500,-13.13922171
99.95550,-26.56777565
99.95600,-35.41841347
99.95650,-35.72360788
99.95700,-33.28205262
99.95750,-34.50283025
99.95800,-29.92491413
99.95850,-3.983389478
99.95900,39.65941082
99.95950,73.84118449
99.96000,76.89312856
99.96050,57.97107529
99.96100,39.04902201
99.96150,28.97760655
99.96200,22.26332958
99.96250,16.15944143
99.96300,14.02308058
99.96350,11.27633091
99.96400,-0.01586217811
99.96450,-16.19116579
99.96500,-23.21063716
99.96550,-13.13922171
99.96600,1.51010986
99.96650,6.698414791
99.96700,2.730887491
99.96750,-0.3210565858
99.96800,0.5945266373
99.96850,1.51010986
99.96900,-1.847028624
99.96950,-5.814555924
99.97000,-6.42494474
99.97050,-5.204167109
99.97100,-5.509361517
99.97150,-7.035333555
99.97200,-7.950916778
99.97250,-7.950916778
99.97300,-9.171694409
99.97350,-10.08727763
99.97400,-8.561305594
99.97450,-4.288583886
99.97500,-0.01586217811
99.97550,1.204915453
99.97600,1.815304268
99.97650,2.120498676
99.97700,1.815304268
99.97750,-0.6262509935
99.97800,-3.373000663
99.97850,-3.678195071
99.97900,-0.9314454012
99.97950,0.5945266373
99.98000,-0.3210565858
99.98050,-3.373000663
99.98100,-5.204167109
99.98150,-5.204167109
99.98200,-4.593778294
99.98250,-4.288583886
99.98300,-4.288583886
99.98350,-3.373000663
99.98400,-2.152223032
99.98450,-0.6262509935
99.98500,0.5945266373
99.98550,1.204915453
99.98600,-0.3210565858
99.98650,-4.288583886
99.98700,-8.256111186
99.98750,-10.39247204
99.98800,-11.00286086
99.98850,-11.30805526
99.98900,-10.69766645
99.98950,-8.866500001
99.99000,-6.42494474
99.99050,-4.898972701
99.99100,-4.288583886
99.99150,-3.067806255
99.99200,-1.541834217
99.99250,-0.3210565858
99.99300,-0.01586217811
99.99350,1.51010986
99.99400,3.646470714
99.99450,5.782831568
99.99500,6.698414791
99.99550,7.003609199
99.99600,7.308803607
99.99650,7.919192422
99.99700,7.003609199
99.99750,2.120498676
99.99800,-6.730139148
99.99850,-16.49636019
99.99900,-20.15869309
99.99950,-15.27558256
100.00000,-6.119750332
100.00050,-0.01586217811
100.00100,-0.01586217811
100.00150,-1.541834217
100.00200,-2.762611847
100.00250,-6.119750332
100.00300,-14.97038816
100.00350,-26.56777565
100.00400,-34.50283025
100.00450,-36.33399669
100.00500,-35.11321906
100.00550,-33.58724703
100.00600,-26.56777565
100.00650,-6.730139148
100.00700,21.34774636
100.00750,44.54252135
100.00800,50.95160391
100.00850,42.7113549
100.00900,29.58799537
100.00950,18.9061911
100.01000,10.66594209
100.01050,4.562053937
100.01100,1.204915453
100.01150,-1.236639809
100.01200,-6.42494474
100.01250,-12.22363849
100.01300,-11.00286086
100.01350,0.899721045
100.01400,17.99060788
100.01450,28.36721774
100.01500,27.75682892
100.01550,21.34774636
100.01600,14.63346939
100.01650,7.919192422
100.01700,-0.01586217811
100.01750,-7.645722371
100.01800,-13.13922171
100.01850,-14.97038816
100.01900,-14.35999934
100.01950,-11.00286086
100.02000,-6.42494474
100.02050,-2.45741744
100.02100,0.899721045
100.02150,5.782831568
100.02200,12.19191413
100.02250,15.24385821
100.02300,11.27633091
100.02350,4.562053937
100.02400,1.204915453
100.02450,2.730887491
100.02500,5.172442753
100.02550,5.172442753
100.02600,3.341276307
100.02650,1.815304268
100.02700,0.899721045
100.02750,1.204915453
100.02800,2.425693084
100.02850,3.951665122
100.02900,5.477637161
100.02950,6.088025976
100.03000,6.393220384
100.03050,4.25685953
100.03100,-0.6262509935
100.03150,-6.42494474
100.03200,-8.561305594
100.03250,-7.645722371
100.03300,-7.035333555
100.03350,-7.645722371
100.03400,-6.730139148
100.03450,-4.288583886
100.03500,-2.152223032
100.03550,-2.45741744
100.03600,-3.373000663
100.03650,-4.288583886
100.03700,-5.509361517
100.03750,-6.730139148
100.03800,-6.730139148
100.03850,-5.509361517
100.03900,-3.983389478
100.03950,-0.6262509935
100.04000,5.782831568
100.04050,11.27633091
100.04100,10.36074768
100.04150,4.867248345
100.04200,1.815304268
100.04250,4.867248345
100.04300,8.834775645
100.04350,9.750358868
100.04400,8.834775645
100.04450,8.529581238
100.04500,7.919192422
100.04550,5.477637161
100.04600,2.120498676
100.04650,-1.236639809
100.04700,-3.373000663
100.04750,-2.762611847
100.04800,-2.762611847
100.04850,-12.22363849
100.04900,-34.19763584
100.04950,-53.11968912
100.05000,-52.2041059
100.05050,-36.33399669
100.05100,-26.26258124
100.05150,-24.12622039
100.05200,-7.950916778
100.05250,29.58799537
100.05300,59.19185292
100.05350,50.6464095
100.05400,16.46463584
100.05450,-4.593778294
100.05500,1.204915453
100.05550,14.32827498
100.05600,15.85424702
100.05650,10.36074768
100.05700,10.66594209
100.05750,14.9386638
100.05800,12.80230295
100.05850,2.120498676
100.05900,-7.950916778
100.05950,-10.39247204
100.06000,-4.288583886
100.06050,4.562053937
100.06100,9.445164461
100.06150,7.919192422
100.06200,3.646470714
100.06250,2.425693084
100.06300,3.951665122
100.06350,4.25685953
100.06400,1.815304268
100.06450,-0.01586217811
100.06500,0.5945266373
100.06550,3.646470714
100.06600,5.782831568
100.06650,5.477637161
100.06700,4.562053937
100.06750,3.341276307
100.06800,0.2893322296
100.06850,-5.204167109
100.06900,-12.52883289
100.06950,-17.10674901
100.07000,-16.19116579
100.07050,-11.00286086
100.07100,-6.119750332
100.07150,-4.898972701
100.07200,-5.204167109
100.07250,-3.983389478
100.07300,-1.847028624
100.07350,-2.152223032
100.07400,-7.035333555
100.07450,-12.52883289
100.07500,-13.74961052
100.07550,-8.866500001
100.07600,-2.152223032
100.07650,0.5945266373
100.07700,0.2893322296
100.07750,0.5945266373
100.07800,3.036081899
100.07850,4.867248345
100.07900,3.951665122
100.07950,1.51010986
100.08000,-0.01586217811
100.08050,-0.6262509935
100.08100,-1.847028624
100.08150,-3.678195071
100.08200,-3.373000663
100.08250,-0.3210565858
100.08300,2.425693084
100.08350,2.730887491
100.08400,1.204915453
100.08450,0.2893322296
100.08500,1.51010986
100.08550,3.341276307
100.08600,2.730887491
100.08650,0.899721045
100.08700,0.2893322296
100.08750,1.815304268
100.08800,4.562053937
100.08850,6.393220384
100.08900,6.698414791
100.08950,5.782831568
100.09000,3.951665122
100.09050,1.204915453
100.09100,-0.01586217811
100.09150,-0.01586217811
100.09200,-0.6262509935
100.09250,-2.762611847
100.09300,-4.898972701
100.09350,-4.898972701
100.09400,-2.762611847
100.09450,-0.3210565858
100.09500,0.5945266373
100.09550,-0.01586217811
100.09600,-3.067806255
100.09650,-5.204167109
100.09700,-3.373000663
100.09750,2.730887491
100.09800,8.529581238
100.09850,9.750358868
100.09900,7.308803607
100.09950,5.172442753
100.10000,3.036081899
100.10050,-0.01586217811
100.10100,-3.373000663
100.10150,-5.204167109
100.10200,-6.119750332
100.10250,-8.561305594
100.10300,-12.52883289
100.10350,-13.13922171
100.10400,-7.035333555
100.10450,1.815304268
100.10500,7.613998014
100.10550,8.529581238
100.10600,7.003609199
100.10650,4.562053937
100.10700,0.2893322296
100.10750,-6.42494474
100.10800,-11.61324967
100.10850,-9.782083225
100.10900,-1.541834217
100.10950,3.951665122
100.11000,1.204915453
100.11050,-5.509361517
100.11100,-4.593778294
100.11150,7.613998014
100.11200,20.12696873
100.11250,19.82177432
100.11300,7.919192422
100.11350,-2.762611847
100.11400,-4.898972701
100.11450,-2.762611847
100.11500,-1.847028624
100.11550,-1.847028624
100.11600,-0.01586217811
100.11650,0.899721045
100.11700,-0.9314454012
100.11750,-3.983389478
100.11800,-3.373000663
100.11850,1.51010986
100.11900,5.477637161
100.11950,5.782831568
100.12000,3.951665122
100.12050,2.730887491
100.12100,3.036081899
100.12150,2.730887491
100.12200,1.51010986
100.12250,-0.01586217811
100.12300,-0.3210565858
100.12350,0.2893322296
100.12400,2.120498676
100.12450,2.425693084
100.12500,0.899721045
100.12550,-0.01586217811
100.12600,-0.01586217811
100.12650,0.5945266373
100.12700,0.899721045
100.12750,1.204915453
100.12800,2.120498676
100.12850,2.425693084
100.12900,1.51010986
100.12950,1.204915453
100.13000,2.730887491
100.13050,3.951665122
100.13100,2.730887491
100.13150,0.2893322296
100.13200,-0.6262509935
100.13250,-0.9314454012
100.13300,-2.45741744
100.13350,-4.898972701
100.13400,-4.593778294
100.13450,-2.152223032
100.13500,-0.01586217811
100.13550,-0.01586217811
100.13600,-1.236639809
100.13650,-2.152223032
100.13700,-2.45741744
100.13750,-2.762611847
100.13800,-3.067806255
100.13850,-2.762611847
100.13900,-1.236639809
100.13950,0.2893322296
100.14000,1.204915453
100.14050,0.2893322296
100.14100,-1.236639809
100.14150,-2.762611847
100.14200,-3.373000663
100.14250,-4.593778294
100.14300,-6.42494474
100.14350,-7.340527963
100.14400,-7.035333555
100.14450,-6.119750332
100.14500,-5.204167109
100.14550,-3.983389478
100.14600,-1.847028624
100.14650,0.5945266373
100.14700,2.730887491
100.14750,3.646470714
100.14800,4.562053937
100.14850,5.477637161
100.14900,5.477637161
100.14950,4.25685953
100.15000,4.867248345
100.15050,8.834775645
100.15100,13.10749735
100.15150,10.36074768
100.15200,-0.01586217811
100.15250,-10.69766645
100.15300,-14.35999934
100.15350,-14.66519375
100.15400,-18.02233223
100.15450,-18.93791546
100.15500,-3.373000663
100.15550,27.45163452
100.15600,53.08796476
100.15650,55.22432562
100.15700,39.65941082
100.15750,25.01007925
100.15800,19.21138551
100.15850,15.24385821
100.15900,6.393220384
100.15950,-3.067806255
100.16000,-8.256111186
100.16050,-9.782083225
100.16100,-11.91844408
100.16150,-16.8015546
100.16200,-19.85349868
100.16250,-17.41194342
100.16300,-11.91844408
100.16350,-9.476888817
100.16400,-13.44441612
100.16450,-16.19116579
100.16500,-10.39247204
100.16550,-0.01586217811
100.16600,4.867248345
100.16650,0.5945266373
100.16700,-4.288583886
100.16750,-5.509361517
100.16800,-6.42494474
100.16850,-10.39247204
100.16900,-11.61324967
100.16950,-5.814555924
100.17000,1.51010986
100.17050,3.646470714
100.17100,2.120498676
100.17150,1.51010986
100.17200,0.5945266373
100.17250,-2.45741744
100.17300,-5.204167109
100.17350,-2.45741744
100.17400,2.425693084
100.17450,3.951665122
100.17500,1.204915453
100.17550,0.2893322296
100.17600,2.425693084
100.17650,3.646470714
100.17700,1.204915453
100.17750,-0.9314454012
100.17800,-0.3210565858
100.17850,2.120498676
100.17900,4.867248345
100.17950,5.782831568
100.18000,3.951665122
100.18050,0.2893322296
100.18100,-2.152223032
100.18150,-2.152223032
100.18200,-1.236639809
100.18250,-1.541834217
100.18300,-2.152223032
100.18350,-1.847028624
100.18400,-1.541834217
100.18450,-2.762611847
100.18500,-4.288583886
100.18550,-4.898972701
100.18600,-4.593778294
100.18650,-5.204167109
100.18700,-5.509361517
100.18750,-5.509361517
100.18800,-5.509361517
100.18850,-6.119750332
100.18900,-6.730139148
100.18950,-7.950916778
100.19000,-10.08727763
100.19050,-10.08727763
100.19100,-3.678195071
100.19150,5.782831568
100.19200,10.9711365
100.19250,8.834775645
100.19300,4.562053937
100.19350,2.730887491
100.19400,0.5945266373
100.19450,-3.373000663
100.19500,-4.288583886
100.19550,0.5945266373
100.19600,5.782831568
100.19650,3.646470714
100.19700,-1.541834217
100.19750,-2.152223032
100.19800,0.899721045
100.19850,2.120498676
100.19900,1.204915453
100.19950,1.51010986
100.20000,0.2893322296
100.20050,-7.645722371
100.20100,-18.63272105
100.20150,-20.7690819
100.20200,-12.52883289
100.20250,-2.152223032
100.20300,3.646470714
100.20350,9.445164461
100.20400,16.46463584
100.20450,17.99060788
100.20500,10.05555328
100.20550,0.5945266373
100.20600,-0.9314454012
100.20650,2.730887491
100.20700,3.341276307
100.20750,-0.01586217811
100.20800,-0.01586217811
100.20850,4.562053937
100.20900,8.529581238
100.20950,7.308803607
100.21000,3.646470714
100.21050,1.815304268
100.21100,1.51010986
100.21150,0.899721045
100.21200,-0.01586217811
100.21250,1.815304268
100.21300,6.393220384
100.21350,10.66594209
100.21400,10.66594209
100.21450,6.393220384
100.21500,2.120498676
100.21550,1.51010986
100.21600,3.341276307
100.21650,2.425693084
100.21700,-2.762611847
100.21750,-7.950916778
100.21800,-8.866500001
100.21850,-7.340527963
100.21900,-6.119750332
100.21950,-4.593778294
100.22000,-1.541834217
100.22050,-1.236639809
100.22100,-5.509361517
100.22150,-9.171694409
100.22200,-5.509361517
100.22250,1.815304268
100.22300,4.562053937
100.22350,0.5945266373
100.22400,-3.373000663
100.22450,-3.678195071
100.22500,-3.067806255
100.22550,-6.42494474
100.22600,-13.74961052
100.22650,-20.7690819
100.22700,-22.60024835
100.22750,-16.8015546
100.22800,-5.204167109
100.22850,5.782831568
100.22900,11.27633091
100.22950,12.49710854
100.23000,14.63346939
100.23050,17.07502465
100.23100,14.02308058
100.23150,6.698414791
100.23200,2.120498676
100.23250,2.120498676
100.23300,0.899721045
100.23350,-1.847028624
100.23400,0.5945266373
100.23450,10.66594209
100.23500,18.9061911
100.23550,17.07502465
100.23600,8.834775645
100.23650,3.646470714
100.23700,1.815304268
100.23750,0.2893322296
100.23800,-1.236639809
100.23850,-0.6262509935
100.23900,1.204915453
100.23950,3.951665122
100.24000,7.003609199
100.24050,9.750358868
100.24100,10.36074768
100.24150,8.834775645
100.24200,9.139970053
100.24250,9.750358868
100.24300,3.036081899
100.24350,-12.52883289
100.24400,-25.65219243
100.24450,-24.43141479
100.24500,-12.52883289
100.24550,-3.678195071
100.24600,-3.373000663
100.24650,-6.42494474
100.24700,-6.42494474
100.24750,-4.593778294
100.24800,-4.593778294
100.24850,-7.645722371
100.24900,-11.61324967
100.24950,-13.13922171
100.25000,-11.30805526
100.25050,-8.561305594
100.25100,-8.866500001
100.25150,-11.61324967
100.25200,-10.39247204
100.25250,-2.45741744
100.25300,7.003609199
100.25350,11.88671972
100.25400,11.88671972
100.25450,10.05555328
100.25500,6.698414791
100.25550,1.815304268
100.25600,-0.9314454012
100.25650,0.899721045
100.25700,6.088025976
100.25750,7.919192422
100.25800,6.698414791
100.25850,6.088025976
100.25900,7.308803607
100.25950,7.003609199
100.26000,2.730887491
100.26050,-2.45741744
100.26100,-10.08727763
100.26150,-22.60024835
100.26200,-38.47035755
100.26250,-45.79502333
100.26300,-37.55477433
100.26350,-22.60024835
100.26400,-14.66519375
100.26450,-11.91844408
100.26500,1.51010986
100.26550,32.02955063
100.26600,60.71782495
100.26650,64.68535225
100.26700,44.54252135
100.26750,21.65294077
100.26800,10.66594209
100.26850,7.613998014
100.26900,3.951665122
100.26950,-0.3210565858
100.27000,-0.9314454012
100.27050,0.2893322296
100.27100,-0.01586217811
100.27150,-3.373000663
100.27200,-4.593778294
100.27250,-3.067806255
100.27300,-1.541834217
100.27350,-2.762611847
100.27400,-4.898972701
100.27450,-5.814555924
100.27500,-4.898972701
100.27550,-3.678195071
100.27600,-1.847028624
100.27650,0.899721045
100.27700,4.562053937
100.27750,7.003609199
100.27800,7.919192422
100.27850,8.834775645
100.27900,10.9711365
100.27950,11.88671972
100.28000,10.05555328
100.28050,6.698414791
100.28100,5.477637161
100.28150,4.867248345
100.28200,-0.6262509935
100.28250,-11.91844408
100.28300,-20.15869309
100.28350,-19.85349868
100.28400,-14.97038816
100.28450,-12.52883289
100.28500,-13.13922171
100.28550,-11.61324967
100.28600,-9.171694409
100.28650,-10.39247204
100.28700,-15.58077697
100.28750,-17.10674901
100.28800,-11.61324967
100.28850,-3.983389478
100.28900,-0.01586217811
100.28950,1.51010986
100.29000,3.036081899
100.29050,2.120498676
100.29100,-2.45741744
100.29150,-6.42494474
100.29200,-3.678195071
100.29250,2.425693084
100.29300,6.088025976
100.29350,5.172442753
100.29400,2.730887491
100.29450,0.2893322296
100.29500,-2.45741744
100.29550,-5.204167109
100.29600,-5.509361517
100.29650,-3.983389478
100.29700,-1.541834217
100.29750,-0.3210565858
100.29800,-1.847028624
100.29850,-6.730139148
100.29900,-10.39247204
100.29950,-6.42494474
100.30000,4.867248345
100.30050,13.41269176
100.30100,13.41269176
100.30150,10.36074768
100.30200,13.10749735
100.30250,20.43216314
100.30300,24.09449603
100.30350,21.65294077
100.30400,17.38021906
100.30450,14.63346939
100.30500,11.58152531
100.30550,6.393220384
100.30600,1.204915453
100.30650,-3.067806255
100.30700,-6.42494474
100.30750,-7.645722371
100.30800,-5.814555924
100.30850,-2.762611847
100.30900,-1.236639809
100.30950,0.2893322296
100.31000,4.867248345
100.31050,9.750358868
100.31100,10.05555328
100.31150,5.172442753
100.31200,0.5945266373
100.31250,-0.3210565858
100.31300,-0.01586217811
100.31350,-0.01586217811
100.31400,-0.6262509935
100.31450,-1.541834217
100.31500,-3.983389478
100.31550,-7.035333555
100.31600,-8.561305594
100.31650,-7.645722371
100.31700,-6.42494474
100.31750,-6.42494474
100.31800,-6.730139148
100.31850,-4.593778294
100.31900,-0.6262509935
100.31950,1.204915453
100.32000,-0.01586217811
100.32050,-1.236639809
100.32100,-0.3210565858
100.32150,1.51010986
100.32200,1.204915453
100.32250,-1.541834217
100.32300,-2.762611847
100.32350,-0.01586217811
100.32400,3.646470714
100.32450,3.646470714
100.32500,0.2893322296
100.32550,-1.236639809
100.32600,0.2893322296
100.32650,2.730887491
100.32700,1.815304268
100.32750,-1.236639809
100.32800,-3.067806255
100.32850,-2.45741744
100.32900,-1.236639809
100.32950,-2.45741744
100.33000,-4.288583886
100.33050,-5.204167109
100.33100,-4.288583886
100.33150,-3.678195071
100.33200,-3.678195071
100.33250,-2.762611847
100.33300,-0.01586217811
100.33350,3.951665122
100.33400,5.172442753
100.33450,3.341276307
100.33500,1.204915453
100.33550,1.51010986
100.33600,3.951665122
100.33650,7.003609199
100.33700,8.529581238
100.33750,8.22438683
100.33800,6.698414791
100.33850,4.562053937
100.33900,1.815304268
100.33950,-0.3210565858
100.34000,-2.152223032
100.34050,-3.373000663
100.34100,-4.898972701
100.34150,-7.645722371
100.34200,-10.08727763
100.34250,-10.08727763
100.34300,-8.256111186
100.34350,-6.42494474
100.34400,-5.204167109
100.34450,-2.152223032
100.34500,1.204915453
100.34550,2.730887491
100.34600,1.51010986
100.34650,0.5945266373
100.34700,1.51010986
100.34750,2.425693084
100.34800,1.815304268
100.34850,0.5945266373
100.34900,0.899721045
100.34950,1.204915453
100.35000,0.899721045
100.35050,1.204915453
100.35100,2.120498676
100.35150,0.899721045
100.35200,-2.762611847
100.35250,-5.814555924
100.35300,-3.067806255
100.35350,2.425693084
100.35400,4.562053937
100.35450,0.899721045
100.35500,-3.373000663
100.35550,-3.678195071
100.35600,-1.541834217
100.35650,-0.01586217811
100.35700,2.425693084
100.35750,10.9711365
100.35800,21.95813518
100.35850,24.09449603
100.35900,11.27633091
100.35950,-7.645722371
100.36000,-21.07427631
100.36050,-23.82102598
100.36100,-20.7690819
100.36150,-14.97038816
100.36200,-7.645722371
100.36250,-3.067806255
100.36300,-3.983389478
100.36350,-3.983389478
100.36400,6.088025976
100.36450,23.17891281
100.36500,31.11396741
100.36550,22.56852399
100.36600,9.445164461
100.36650,3.951665122
100.36700,3.951665122
100.36750,0.899721045
100.36800,-6.119750332
100.36850,-15.88597138
100.36900,-27.48335887
100.36950,-37.55477433
100.37000,-37.55477433
100.37050,-28.39894209
100.37100,-23.21063716
100.37150,-22.29505394
100.37200,-7.340527963
100.37250,30.50357859
100.37300,64.07496344
100.37350,59.80224173
100.37400,24.39969044
100.37450,-2.762611847
100.37500,-2.762611847
100.37550,5.477637161
100.37600,1.204915453
100.37650,-6.730139148
100.37700,-1.541834217
100.37750,14.02308058
100.37800,23.78930162
100.37850,21.65294077
100.37900,16.15944143
100.37950,14.63346939
100.38000,14.63346939
100.38050,13.41269176
100.38100,10.05555328
100.38150,0.2893322296
100.38200,-15.58077697
100.38250,-29.61971973
100.38300,-30.84049736
100.38350,-20.7690819
100.38400,-12.22363849
100.38450,-12.52883289
100.38500,-15.58077697
100.38550,-12.52883289
100.38600,-4.898972701
100.38650,-1.847028624
100.38700,-5.509361517
100.38750,-8.561305594
100.38800,-7.035333555
100.38850,-3.983389478
100.38900,-3.983389478
100.38950,-6.730139148
100.39000,-8.866500001
100.39050,-9.476888817
100.39100,-9.782083225
100.39150,-9.782083225
100.39200,-7.950916778
100.39250,-5.204167109
100.39300,-3.067806255
100.39350,-0.01586217811
100.39400,6.393220384
100.39450,15.54905261
100.39500,21.34774636
100.39550,20.12696873
100.39600,12.80230295
100.39650,3.951665122
100.39700,-3.678195071
100.39750,-7.340527963
100.39800,-4.898972701
100.39850,1.204915453
100.39900,6.088025976
100.39950,7.003609199
100.40000,8.22438683
100.40050,11.27633091
100.40100,13.41269176
100.40150,10.05555328
100.40200,2.730887491
100.40250,-2.762611847
100.40300,-5.509361517
100.40350,-7.340527963
100.40400,-9.171694409
100.40450,-8.561305594
100.40500,-5.509361517
100.40550,-2.762611847
100.40600,-2.762611847
100.40650,-5.204167109
100.40700,-7.035333555
100.40750,-7.035333555
100.40800,-5.204167109
100.40850,-1.847028624
100.40900,2.425693084
100.40950,7.613998014
100.41000,10.66594209
100.41050,9.445164461
100.41100,5.477637161
100.41150,2.120498676
100.41200,2.120498676
100.41250,3.341276307
100.41300,3.951665122
100.41350,4.25685953
100.41400,5.782831568
100.41450,7.308803607
100.41500,6.698414791
100.41550,4.25685953
100.41600,2.120498676
100.41650,0.5945266373
100.41700,-1.847028624
100.41750,-5.814555924
100.41800,-7.645722371
100.41850,-6.42494474
100.41900,-4.593778294
100.41950,-3.678195071
100.42000,-1.847028624
100.42050,1.815304268
100.42100,5.782831568
100.42150,6.088025976
100.42200,3.646470714
100.42250,3.036081899
100.42300,5.782831568
100.42350,8.529581238
100.42400,8.834775645
100.42450,7.919192422
100.42500,8.22438683
100.42550,9.139970053
100.42600,7.613998014
100.42650,3.646470714
100.42700,-0.3210565858
100.42750,-1.847028624
100.42800,-2.152223032
100.42850,-3.067806255
100.42900,-3.983389478
100.42950,-3.067806255
100.43000,-1.236639809
100.43050,-0.3210565858
100.43100,-1.236639809
100.43150,-2.762611847
100.43200,-4.288583886
100.43250,-5.509361517
100.43300,-5.509361517
100.43350,-3.983389478
100.43400,-1.847028624
100.43450,-0.6262509935
100.43500,-1.236639809
100.43550,-2.152223032
100.43600,-1.847028624
100.43650,-0.6262509935
100.43700,0.5945266373
100.43750,3.036081899
100.43800,6.088025976
100.43850,8.529581238
100.43900,8.22438683
100.43950,5.477637161
100.44000,1.51010986
100.44050,-0.01586217811
100.44100,2.120498676
100.44150,5.477637161
100.44200,4.562053937
100.44250,-3.067806255
100.44300,-14.05480493
100.44350,-22.29505394
100.44400,-24.12622039
100.44450,-21.07427631
100.44500,-16.49636019
100.44550,-12.22363849
100.44600,-9.476888817
100.44650,-7.645722371
100.44700,-4.593778294
100.44750,-0.9314454012
100.44800,-0.01586217811
100.44850,-4.288583886
100.44900,-11.30805526
100.44950,-15.88597138
100.45000,-14.05480493
100.45050,-7.340527963
100.45100,0.5945266373
100.45150,5.782831568
100.45200,4.25685953
100.45250,-1.541834217
100.45300,-3.067806255
100.45350,4.867248345
100.45400,18.29580228
100.45450,24.39969044
100.45500,19.82177432
100.45550,12.80230295
100.45600,11.88671972
100.45650,15.85424702
100.45700,17.99060788
100.45750,14.9386638
100.45800,7.003609199
100.45850,-4.593778294
100.45900,-17.41194342
100.45950,-24.43141479
100.46000,-22.29505394
100.46050,-15.58077697
100.46100,-10.39247204
100.46150,-6.42494474
100.46200,-0.01586217811
100.46250,6.393220384
100.46300,8.529581238
100.46350,6.698414791
100.46400,7.003609199
100.46450,10.05555328
100.46500,9.139970053
100.46550,2.425693084
100.46600,-4.898972701
100.46650,-10.08727763
100.46700,-17.41194342
100.46750,-28.09374769
100.46800,-33.58724703
100.46850,-28.7041365
100.46900,-21.37947072
100.46950,-21.07427631
100.47000,-18.63272105
100.47050,2.425693084
100.47100,39.04902201
100.47150,64.38015785
100.47200,60.10743614
100.47250,35.08149471
100.47300,13.10749735
100.47350,5.477637161
100.47400,5.782831568
100.47450,6.393220384
100.47500,5.782831568
100.47550,5.782831568
100.47600,5.172442753
100.47650,2.120498676
100.47700,-3.067806255
100.47750,-7.645722371
100.47800,-8.866500001
100.47850,-7.950916778
100.47900,-7.035333555
100.47950,-6.42494474
100.48000,-3.678195071
100.48050,3.036081899
100.48100,11.58152531
100.48150,17.38021906
100.48200,18.9061911
100.48250,16.76983025
100.48300,11.88671972
100.48350,5.782831568
100.48400,1.815304268
100.48450,0.5945266373
100.48500,-0.3210565858
100.48550,-2.45741744
100.48600,-1.847028624
100.48650,3.646470714
100.48700,9.445164461
100.48750,9.139970053
100.48800,4.867248345
100.48850,1.51010986
100.48900,-2.45741744
100.48950,-12.22363849
100.49000,-25.65219243
100.49050,-32.06127499
100.49100,-25.95738683
100.49150,-13.13922171
100.49200,-1.541834217
100.49250,5.782831568
100.49300,9.750358868
100.49350,8.22438683
100.49400,2.425693084
100.49450,-3.983389478
100.49500,-7.950916778
100.49550,-8.256111186
100.49600,-7.340527963
100.49650,-7.340527963
100.49700,-10.69766645
100.49750,-16.19116579
100.49800,-18.93791546
100.49850,-14.35999934
100.49900,-5.204167109
100.49950,-0.6262509935
100.50000,-5.814555924
100.50050,-17.41194342
100.50100,-26.87297006
100.50150,-27.48335887
100.50200,-17.71713782
100.50250,-2.152223032
100.50300,11.58152531
100.50350,18.29580228
100.50400,17.99060788
100.50450,14.32827498
100.50500,9.445164461
100.50550,5.782831568
100.50600,4.25685953
100.50650,4.867248345
100.50700,5.172442753
100.50750,4.25685953
100.50800,4.562053937
100.50850,7.919192422
100.50900,10.9711365
100.50950,10.05555328
100.51000,7.613998014
100.51050,7.919192422
100.51100,10.36074768
100.51150,9.139970053
100.51200,4.25685953
100.51250,0.2893322296
100.51300,0.2893322296
100.51350,1.204915453
100.51400,0.5945266373
100.51450,-0.01586217811
100.51500,1.204915453
100.51550,3.341276307
100.51600,4.562053937
100.51650,4.25685953
100.51700,3.646470714
100.51750,1.51010986
100.51800,-3.067806255
100.51850,-7.645722371
100.51900,-8.256111186
100.51950,-3.067806255
100.52000,4.25685953
100.52050,12.19191413
100.52100,17.07502465
100.52150,17.38021906
100.52200,12.80230295
100.52250,5.782831568
100.52300,1.204915453
100.52350,0.2893322296
100.52400,1.51010986
100.52450,3.036081899
100.52500,4.562053937
100.52550,5.477637161
100.52600,4.25685953
100.52650,0.899721045
100.52700,-2.152223032
100.52750,-3.983389478
100.52800,-4.288583886
100.52850,-4.593778294
100.52900,-5.509361517
100.52950,-6.119750332
100.53000,-6.42494474
100.53050,-6.42494474
100.53100,-5.814555924
100.53150,-4.898972701
100.53200,-3.678195071
100.53250,-3.373000663
100.53300,-4.593778294
100.53350,-6.119750332
100.53400,-6.42494474
100.53450,-5.509361517
100.53500,-3.678195071
100.53550,-0.3210565858
100.53600,3.341276307
100.53650,5.782831568
100.53700,4.25685953
100.53750,0.899721045
100.53800,-0.6262509935
100.53850,-1.847028624
100.53900,-6.730139148
100.53950,-15.88597138
100.54000,-23.51583157
100.54050,-25.34699802
100.54100,-22.90544276
100.54150,-17.71713782
100.54200,-9.171694409
100.54250,1.815304268
100.54300,8.834775645
100.54350,8.529581238
100.54400,6.088025976
100.54450,9.445164461
100.54500,13.71788617
100.54550,7.613998014
100.54600,-8.561305594
100.54650,-22.90544276
100.54700,-24.12622039
100.54750,-15.88597138
100.54800,-8.866500001
100.54850,-5.814555924
100.54900,-2.152223032
100.54950,4.562053937
100.55000,11.58152531
100.55050,14.02308058
100.55100,10.66594209
100.55150,5.477637161
100.55200,3.951665122
100.55250,7.003609199
100.55300,9.139970053
100.55350,5.172442753
100.55400,-1.847028624
100.55450,-5.204167109
100.55500,-2.152223032
100.55550,2.425693084
100.55600,4.867248345
100.55650,5.172442753
100.55700,5.782831568
100.55750,5.477637161
100.55800,3.646470714
100.55850,1.51010986
100.55900,0.899721045
100.55950,0.5945266373
100.56000,-0.3210565858
100.56050,-1.236639809
100.56100,-0.9314454012
100.56150,-2.45741744
100.56200,-5.814555924
100.56250,-7.035333555
100.56300,-3.373000663
100.56350,2.120498676
100.56400,3.646470714
100.56450,-0.01586217811
100.56500,-3.678195071
100.56550,-4.593778294
100.56600,-1.847028624
100.56650,1.204915453
100.56700,3.951665122
100.56750,4.867248345
100.56800,4.25685953
100.56850,4.25685953
100.56900,6.393220384
100.56950,8.22438683
100.57000,8.22438683
100.57050,7.308803607
100.57100,7.003609199
100.57150,6.088025976
100.57200,2.425693084
100.57250,-1.541834217
100.57300,-2.45741744
100.57350,0.5945266373
100.57400,3.951665122
100.57450,4.867248345
100.57500,4.25685953
100.57550,3.951665122
100.57600,3.036081899
100.57650,1.51010986
100.57700,1.815304268
100.57750,4.867248345
100.57800,6.393220384
100.57850,4.562053937
100.57900,0.5945266373
100.57950,-0.9314454012
100.58000,-0.9314454012
100.58050,-0.9314454012
100.58100,-0.9314454012
100.58150,-0.6262509935
100.58200,-1.236639809
100.58250,-1.847028624
100.58300,-2.152223032
100.58350,-4.593778294
100.58400,-14.66519375
100.58450,-29.00933091
100.58500,-35.41841347
100.58550,-29.00933091
100.58600,-22.60024835
100.58650,-26.26258124
100.58700,-27.17816446
100.58750,-3.983389478
100.58800,38.13343878
100.58850,66.21132429
100.58900,59.19185292
100.58950,32.02955063
100.59000,12.80230295
100.59050,7.308803607
100.59100,3.951665122
100.59150,-1.541834217
100.59200,-3.373000663
100.59250,-0.9314454012
100.59300,-2.152223032
100.59350,-8.561305594
100.59400,-12.22363849
100.59450,-10.39247204
100.59500,-10.08727763
100.59550,-14.66519375
100.59600,-15.88597138
100.59650,-5.814555924
100.59700,11.27633091
100.59750,26.23085688
100.59800,34.47110589
100.59850,36.30227234
100.59900,29.28280096
100.59950,15.54905261
100.60000,3.646470714
100.60050,0.5945266373
100.60100,-0.3210565858
100.60150,-9.782083225
100.60200,-24.7366092
100.60250,-30.53530295
100.60300,-21.07427631
100.60350,-7.645722371
100.60400,-3.067806255
100.60450,-7.340527963
100.60500,-9.782083225
100.60550,-6.119750332
100.60600,-1.847028624
100.60650,-2.45741744
100.60700,-6.42494474
100.60750,-7.950916778
100.60800,-4.898972701
100.60850,-0.9314454012
100.60900,-0.6262509935
100.60950,-2.45741744
100.61000,-2.45741744
100.61050,-0.01586217811
100.61100,1.815304268
100.61150,2.120498676
100.61200,2.425693084
100.61250,3.036081899
100.61300,3.036081899
100.61350,1.204915453
100.61400,-0.6262509935
100.61450,-0.9314454012
100.61500,-1.236639809
100.61550,-1.847028624
100.61600,-2.762611847
100.61650,-3.373000663
100.61700,-4.898972701
100.61750,-7.340527963
100.61800,-7.645722371
100.61850,-5.509361517
100.61900,-3.678195071
100.61950,-4.288583886
100.62000,-4.898972701
100.62050,-3.067806255
100.62100,-1.847028624
100.62150,-3.373000663
100.62200,-4.898972701
100.62250,-2.152223032
100.62300,2.730887491
100.62350,4.562053937
100.62400,1.51010986
100.62450,-1.236639809
100.62500,-0.01586217811
100.62550,4.562053937
100.62600,8.529581238
100.62650,9.139970053
100.62700,6.393220384
100.62750,3.036081899
100.62800,1.815304268
100.62850,3.646470714
100.62900,6.088025976
100.62950,5.477637161
100.63000,2.425693084
100.63050,-0.6262509935
100.63100,-2.152223032
100.63150,-3.067806255
100.63200,-4.593778294
100.63250,-6.119750332
100.63300,-4.593778294
100.63350,-0.01586217811
100.63400,4.562053937
100.63450,5.782831568
100.63500,3.036081899
100.63550,-0.3210565858
100.63600,-1.847028624
100.63650,-1.847028624
100.63700,-1.236639809
100.63750,-0.6262509935
100.63800,0.2893322296
100.63850,0.2893322296
100.63900,-0.9314454012
100.63950,-1.847028624
100.64000,-0.3210565858
100.64050,2.120498676
100.64100,4.25685953
100.64150,4.25685953
100.64200,3.036081899
100.64250,3.036081899
100.64300,5.172442753
100.64350,7.003609199
100.64400,4.867248345
100.64450,-0.01586217811
100.64500,-1.236639809
100.64550,3.036081899
100.64600,7.003609199
100.64650,0.899721045
100.64700,-14.35999934
100.64750,-25.34699802
100.64800,-21.68466512
100.64850,-6.42494474
100.64900,6.393220384
100.64950,10.66594209
100.65000,8.529581238
100.65050,7.919192422
100.65100,9.750358868
100.65150,10.36074768
100.65200,8.22438683
100.65250,4.25685953
100.65300,1.204915453
100.65350,-1.541834217
100.65400,-7.035333555
100.65450,-11.30805526
100.65500,-10.08727763
100.65550,-3.983389478
100.65600,0.5945266373
100.65650,0.899721045
100.65700,0.5945266373
100.65750,3.951665122
100.65800,7.919192422
100.65850,7.613998014
100.65900,3.951665122
100.65950,2.730887491
100.66000,5.172442753
100.66050,6.698414791
100.66100,4.867248345
100.66150,2.730887491
100.66200,2.730887491
100.66250,2.120498676
100.66300,-0.3210565858
100.66350,-2.45741744
100.66400,-2.152223032
100.66450,-2.152223032
100.66500,-4.288583886
100.66550,-5.814555924
100.66600,-3.983389478
100.66650,-1.236639809
100.66700,-1.847028624
100.66750,-4.898972701
100.66800,-8.256111186
100.66850,-11.61324967
100.66900,-17.41194342
100.66950,-20.46388749
100.67000,-15.88597138
100.67050,-5.814555924
100.67100,0.2893322296
100.67150,-0.3210565858
100.67200,-4.288583886
100.67250,-6.119750332
100.67300,-7.035333555
100.67350,-8.561305594
100.67400,-10.69766645
100.67450,-14.97038816
100.67500,-22.60024835
100.67550,-27.17816446
100.67600,-20.46388749
100.67650,-6.730139148
100.67700,-1.541834217
100.67750,-7.035333555
100.67800,-6.42494474
100.67850,14.63346939
100.67900,43.01654931
100.67950,55.22432562
100.68000,46.98407661
100.68050,34.16591148
100.68100,28.67241215
100.68150,24.70488485
100.68200,17.07502465
100.68250,8.834775645
100.68300,4.562053937
100.68350,3.036081899
100.68400,0.5945266373
100.68450,-0.3210565858
100.68500,-0.01586217811
100.68550,0.2893322296
100.68600,-0.3210565858
100.68650,-0.01586217811
100.68700,2.730887491
100.68750,2.425693084
100.68800,-2.45741744
100.68850,-8.561305594
100.68900,-10.69766645
100.68950,-9.476888817
100.69000,-8.256111186
100.69050,-7.950916778
100.69100,-8.561305594
100.69150,-9.782083225
100.69200,-10.69766645
100.69250,-8.561305594
100.69300,-4.898972701
100.69350,-4.898972701
100.69400,-8.561305594
100.69450,-7.340527963
100.69500,3.036081899
100.69550,15.24385821
100.69600,17.68541347
100.69650,10.36074768
100.69700,2.425693084
100.69750,-0.01586217811
100.69800,-0.01586217811
100.69850,-0.6262509935
100.69900,-0.3210565858
100.69950,1.815304268
100.70000,4.562053937
100.70050,6.088025976
100.70100,7.003609199
100.70150,7.919192422
100.70200,7.308803607
100.70250,3.951665122
100.70300,0.5945266373
100.70350,-0.3210565858
100.70400,-0.3210565858
100.70450,-0.3210565858
100.70500,-0.01586217811
100.70550,2.120498676
100.70600,1.51010986
100.70650,-3.983389478
100.70700,-9.171694409
100.70750,-5.509361517
100.70800,6.393220384
100.70850,16.15944143
100.70900,16.76983025
100.70950,11.88671972
100.71000,7.919192422
100.71050,5.477637161
100.71100,0.5945266373
100.71150,-6.119750332
100.71200,-10.69766645
100.71250,-11.61324967
100.71300,-10.69766645
100.71350,-7.645722371
100.71400,-2.152223032
100.71450,2.730887491
100.71500,3.646470714
100.71550,2.730887491
100.71600,4.867248345
100.71650,7.919192422
100.71700,3.646470714
100.71750,-7.950916778
100.71800,-18.02233223
100.71850,-16.19116579
100.71900,-4.898972701
100.71950,5.172442753
100.72000,9.750358868
100.72050,10.05555328
100.72100,7.613998014
100.72150,2.120498676
100.72200,-5.814555924
100.72250,-12.52883289
100.72300,-13.74961052
100.72350,-12.22363849
100.72400,-12.22363849
100.72450,-14.97038816
100.72500,-17.10674901
100.72550,-15.58077697
100.72600,-11.91844408
100.72650,-8.866500001
100.72700,-7.340527963
100.72750,-4.593778294
100.72800,-0.6262509935
100.72850,1.815304268
100.72900,3.036081899
100.72950,3.951665122
100.73000,3.951665122
100.73050,1.204915453
100.73100,-1.541834217
100.73150,-0.9314454012
100.73200,2.730887491
100.73250,4.562053937
100.73300,1.51010986
100.73350,-2.762611847
100.73400,-5.509361517
100.73450,-6.730139148
100.73500,-7.035333555
100.73550,-3.678195071
100.73600,3.341276307
100.73650,9.750358868
100.73700,11.58152531
100.73750,10.66594209
100.73800,11.58152531
100.73850,14.02308058
100.73900,15.24385821
100.73950,15.54905261
100.74000,15.54905261
100.74050,13.41269176
100.74100,7.613998014
100.74150,1.815304268
100.74200,-0.9314454012
100.74250,-1.541834217
100.74300,-2.762611847
100.74350,-4.593778294
100.74400,-5.509361517
100.74450,-5.509361517
100.74500,-6.42494474
100.74550,-7.035333555
100.74600,-5.204167109
100.74650,-1.236639809
100.74700,1.51010986
100.74750,3.646470714
100.74800,6.088025976
100.74850,8.529581238
100.74900,9.139970053
100.74950,6.393220384
100.75000,1.815304268
100.75050,-2.152223032
100.75100,-4.593778294
100.75150,-5.204167109
100.75200,-5.814555924
100.75250,-6.42494474
100.75300,-6.730139148
100.75350,-5.814555924
100.75400,-3.983389478
100.75450,-3.983389478
100.75500,-5.509361517
100.75550,-6.730139148
100.75600,-6.42494474
100.75650,-5.204167109
100.75700,-5.204167109
100.75750,-6.42494474
100.75800,-8.256111186
100.75850,-8.866500001
100.75900,-4.288583886
100.75950,4.562053937
100.76000,13.10749735
100.76050,15.54905261
100.76100,11.88671972
100.76150,7.308803607
100.76200,4.867248345
100.76250,4.562053937
100.76300,7.919192422
100.76350,14.02308058
100.76400,18.60099669
100.76450,14.9386638
100.76500,5.477637161
100.76550,-1.847028624
100.76600,-3.373000663
100.76650,-2.762611847
100.76700,-2.152223032
100.76750,0.899721045
100.76800,7.308803607
100.76850,12.19191413
100.76900,11.58152531
100.76950,5.782831568
100.77000,-1.847028624
100.77050,-8.256111186
100.77100,-10.69766645
100.77150,-6.42494474
100.77200,-0.01586217811
100.77250,2.730887491
100.77300,-0.6262509935
100.77350,-5.509361517
100.77400,-7.950916778
100.77450,-8.866500001
100.77500,-11.61324967
100.77550,-16.49636019
100.77600,-23.51583157
100.77650,-28.7041365
100.77700,-25.95738683
100.77750,-16.19116579
100.77800,-11.00286086
100.77850,-16.8015546
100.77900,-19.54830427
100.77950,0.899721045
100.78000,38.43863319
100.78050,61.63340818
100.78100,51.86718713
100.78150,25.31527366
100.78200,7.919192422
100.78250,5.172442753
100.78300,4.867248345
100.78350,1.815304268
100.78400,0.899721045
100.78450,0.899721045
100.78500,-2.762611847
100.78550,-9.476888817
100.78600,-11.00286086
100.78650,-6.119750332
100.78700,-1.847028624
100.78750,-2.762611847
100.78800,-5.509361517
100.78850,-6.730139148
100.78900,-6.730139148
100.78950,-7.035333555
100.79000,-6.42494474
100.79050,-5.204167109
100.79100,-3.373000663
100.79150,-2.152223032
100.79200,-2.45741744
100.79250,-3.983389478
100.79300,-5.204167109
100.79350,-1.541834217
100.79400,3.951665122
100.79450,4.25685953
100.79500,-3.678195071
100.79550,-10.69766645
100.79600,-7.035333555
100.79650,4.25685953
100.79700,11.88671972
100.79750,11.27633091
100.79800,9.750358868
100.79850,10.9711365
100.79900,8.529581238
100.79950,-3.373000663
100.80000,-18.93791546
100.80050,-26.87297006
100.80100,-23.82102598
100.80150,-17.41194342
100.80200,-16.19116579
100.80250,-20.15869309
100.80300,-22.29505394
100.80350,-16.49636019
100.80400,-6.730139148
100.80450,-3.373000663
100.80500,-8.866500001
100.80550,-13.13922171
100.80600,-4.898972701
100.80650,13.10749735
100.80700,28.67241215
100.80750,33.55552267
100.80800,30.50357859
100.80850,23.78930162
100.80900,15.24385821
100.80950,6.698414791
100.81000,1.51010986
100.81050,1.204915453
100.81100,3.036081899
100.81150,4.25685953
100.81200,6.088025976
100.81250,8.834775645
100.81300,9.750358868
100.81350,6.393220384
100.81400,-0.6262509935
100.81450,-7.950916778
100.81500,-12.22363849
100.81550,-11.91844408
100.81600,-7.950916778
100.81650,-3.983389478
100.81700,-2.45741744
100.81750,-2.45741744
100.81800,-2.152223032
100.81850,-0.9314454012
100.81900,-1.236639809
100.81950,-3.983389478
100.82000,-7.340527963
100.82050,-9.782083225
100.82100,-9.171694409
100.82150,-4.898972701
100.82200,1.815304268
100.82250,8.22438683
100.82300,10.66594209
100.82350,10.66594209
100.82400,10.66594209
100.82450,11.88671972
100.82500,14.32827498
100.82550,14.32827498
100.82600,5.782831568
100.82650,-13.44441612
100.82700,-33.58724703
100.82750,-38.47035755
100.82800,-24.7366092
100.82850,-7.340527963
100.82900,-0.6262509935
100.82950,-2.45741744
100.83000,-1.847028624
100.83050,2.730887491
100.83100,6.088025976
100.83150,4.867248345
100.83200,2.730887491
100.83250,1.51010986
100.83300,0.5945266373
100.83350,0.2893322296
100.83400,3.646470714
100.83450,7.308803607
100.83500,7.308803607
100.83550,3.951665122
100.83600,3.646470714
100.83650,7.003609199
100.83700,9.139970053
100.83750,7.003609199
100.83800,3.646470714
100.83850,2.120498676
100.83900,1.815304268
100.83950,1.815304268
100.84000,2.730887491
100.84050,5.477637161
100.84100,7.919192422
100.84150,7.919192422
100.84200,7.919192422
100.84250,9.750358868
100.84300,12.19191413
100.84350,10.36074768
100.84400,2.730887491
100.84450,-8.256111186
100.84500,-17.41194342
100.84550,-20.7690819
100.84600,-16.19116579
100.84650,-5.204167109
100.84700,5.477637161
100.84750,10.66594209
100.84800,7.613998014
100.84850,1.204915453
100.84900,-2.152223032
100.84950,-0.9314454012
100.85000,1.815304268
100.85050,2.120498676
100.85100,-0.3210565858
100.85150,-2.45741744
100.85200,-0.3210565858
100.85250,4.867248345
100.85300,10.9711365
100.85350,13.71788617
100.85400,10.9711365
100.85450,5.172442753
100.85500,1.51010986
100.85550,2.120498676
100.85600,2.730887491
100.85650,-1.236639809
100.85700,-8.561305594
100.85750,-12.8340273
100.85800,-11.61324967
100.85850,-7.645722371
100.85900,-4.288583886
100.85950,-4.288583886
100.86000,-6.730139148
100.86050,-8.866500001
100.86100,-5.814555924
100.86150,4.25685953
100.86200,17.38021906
100.86250,25.92566248
100.86300,24.09449603
100.86350,11.58152531
100.86400,-7.035333555
100.86450,-24.12622039
100.86500,-31.14569176
100.86550,-31.14569176
100.86600,-32.97685821
100.86650,-35.72360788
100.86700,-25.04180361
100.86750,6.088025976
100.86800,42.40616049
100.86850,59.19185292
100.86900,52.78277035
100.86950,38.13343878
100.87000,27.14644011
100.87050,16.15944143
100.87100,2.120498676
100.87150,-8.561305594
100.87200,-11.00286086
100.87250,-8.256111186
100.87300,-6.730139148
100.87350,-7.340527963
100.87400,-7.950916778
100.87450,-8.561305594
100.87500,-9.476888817
100.87550,-7.950916778
100.87600,-3.373000663
100.87650,0.5945266373
100.87700,2.120498676
100.87750,2.120498676
100.87800,2.120498676
100.87850,1.815304268
100.87900,-0.01586217811
100.87950,-0.9314454012
100.88000,0.5945266373
100.88050,4.867248345
100.88100,7.613998014
100.88150,5.782831568
100.88200,0.899721045
100.88250,-1.236639809
100.88300,0.899721045
100.88350,4.25685953
100.88400,2.120498676
100.88450,-4.898972701
100.88500,-11.30805526
100.88550,-11.61324967
100.88600,-8.561305594
100.88650,-6.730139148
100.88700,-6.119750332
100.88750,-5.204167109
100.88800,-4.288583886
100.88850,-6.119750332
100.88900,-9.782083225
100.88950,-10.69766645
100.89000,-5.204167109
100.89050,2.730887491
100.89100,5.477637161
100.89150,0.2893322296
100.89200,-6.119750332
100.89250,-5.814555924
100.89300,0.5945266373
100.89350,4.867248345
100.89400,1.51010986
100.89450,-5.204167109
100.89500,-8.561305594
100.89550,-7.645722371
100.89600,-4.898972701
100.89650,-2.152223032
100.89700,0.2893322296
100.89750,2.120498676
100.89800,1.204915453
100.89850,-1.541834217
100.89900,-4.898972701
100.89950,-6.730139148
100.90000,-6.119750332
100.90050,-0.9314454012
100.90100,8.22438683
100.90150,15.85424702
100.90200,17.99060788
100.90250,18.29580228
100.90300,22.26332958
100.90350,28.06202333
100.90400,25.92566248
100.90450,11.58152531
100.90500,-8.866500001
100.90550,-26.26258124
100.90600,-36.02880229
100.90650,-38.77555196
100.90700,-36.02880229
100.90750,-27.78855328
100.90800,-16.49636019
100.90850,-7.035333555
100.90900,-3.983389478
100.90950,-4.898972701
100.91000,-4.898972701
100.91050,-1.541834217
100.91100,0.2893322296
100.91150,-0.9314454012
100.91200,-0.6262509935
100.91250,7.003609199
100.91300,18.9061911
100.91350,24.70488485
100.91400,19.51657991
100.91450,10.66594209
100.91500,6.088025976
100.91550,6.393220384
100.91600,7.308803607
100.91650,6.393220384
100.91700,4.25685953
100.91750,1.51010986
100.91800,-2.762611847
100.91850,-5.814555924
100.91900,-3.373000663
100.91950,3.036081899
100.92000,7.613998014
100.92050,6.088025976
100.92100,2.425693084
100.92150,2.730887491
100.92200,6.393220384
100.92250,7.613998014
100.92300,5.172442753
100.92350,3.036081899
100.92400,3.341276307
100.92450,3.341276307
100.92500,0.2893322296
100.92550,-2.45741744
100.92600,-4.593778294
100.92650,-7.645722371
100.92700,-11.61324967
100.92750,-11.61324967
100.92800,-4.898972701
100.92850,0.2893322296
100.92900,-1.847028624
100.92950,-7.340527963
100.93000,-5.204167109
100.93050,4.25685953
100.93100,10.66594209
100.93150,7.308803607
100.93200,1.815304268
100.93250,3.341276307
100.93300,11.88671972
100.93350,18.60099669
100.93400,16.76983025
100.93450,6.698414791
100.93500,-3.373000663
100.93550,-6.730139148
100.93600,-3.983389478
100.93650,-2.45741744
100.93700,-6.42494474
100.93750,-9.476888817
100.93800,-5.814555924
100.93850,-0.01586217811
100.93900,-0.01586217811
100.93950,-4.593778294
100.94000,-6.42494474
100.94050,-2.152223032
100.94100,2.120498676
100.94150,2.730887491
100.94200,2.730887491
100.94250,4.867248345
100.94300,3.951665122
100.94350,-3.678195071
100.94400,-11.91844408
100.94450,-10.39247204
100.94500,-0.01586217811
100.94550,7.919192422
100.94600,6.698414791
100.94650,0.2893322296
100.94700,-3.678195071
100.94750,-2.762611847
100.94800,-0.3210565858
100.94850,-0.01586217811
100.94900,-0.01586217811
100.94950,-0.6262509935
100.95000,-0.01586217811
100.95050,0.2893322296
100.95100,-0.01586217811
100.95150,-1.541834217
100.95200,-3.067806255
100.95250,-2.45741744
100.95300,-0.9314454012
100.95350,-1.541834217
100.95400,-3.678195071
100.95450,-3.678195071
100.95500,1.51010986
100.95550,7.919192422
100.95600,9.445164461
100.95650,7.308803607
100.95700,5.477637161
100.95750,5.782831568
100.95800,5.782831568
100.95850,5.172442753
100.95900,5.172442753
100.95950,5.172442753
100.96000,3.341276307
100.96050,1.204915453
100.96100,2.120498676
100.96150,0.899721045
100.96200,-9.171694409
100.96250,-25.34699802
100.96300,-33.89244143
100.96350,-27.48335887
100.96400,-15.27558256
100.96450,-8.561305594
100.96500,-5.509361517
100.96550,1.815304268
100.96600,12.80230295
100.96650,18.60099669
100.96700,17.07502465
100.96750,12.19191413
100.96800,6.088025976
100.96850,-0.01586217811
100.96900,-2.152223032
100.96950,-0.01586217811
100.97000,2.425693084
100.97050,1.815304268
100.97100,0.5945266373
100.97150,2.425693084
100.97200,3.341276307
100.97250,-0.6262509935
100.97300,-7.340527963
100.97350,-12.22363849
100.97400,-18.32752664
100.97450,-27.48335887
100.97500,-31.45088617
100.97550,-25.95738683
100.97600,-20.7690819
100.97650,-24.43141479
100.97700,-23.51583157
100.97750,1.204915453
100.97800,40.88018845
100.97850,63.15938022
100.97900,52.17238154
100.97950,28.36721774
100.98000,15.54905261
100.98050,14.9386638
100.98100,16.15944143
100.98150,16.15944143
100.98200,18.29580228
100.98250,18.9061911
100.98300,13.41269176
100.98350,6.088025976
100.98400,4.25685953
100.98450,6.698414791
100.98500,6.698414791
100.98550,3.341276307
100.98600,0.5945266373
100.98650,-0.01586217811
100.98700,-0.9314454012
100.98750,-3.983389478
100.98800,-7.035333555
100.98850,-9.171694409
100.98900,-11.61324967
100.98950,-15.58077697
100.99000,-19.54830427
100.99050,-21.37947072
100.99100,-18.93791546
100.99150,-13.44441612
100.99200,-8.256111186
100.99250,-6.42494474
100.99300,-6.42494474
100.99350,-4.898972701
100.99400,-0.9314454012
100.99450,3.646470714
100.99500,7.003609199
100.99550,6.698414791
100.99600,0.899721045
100.99650,-7.645722371
100.99700,-12.22363849
100.99750,-8.866500001
100.99800,-2.45741744
100.99850,0.5945266373
100.99900,0.2893322296
100.99950,-0.01586217811
101.00000,-0.01586217811
101.00050,-3.067806255
101.00100,-7.340527963
101.00150,-7.340527963
101.00200,-2.45741744
101.00250,1.815304268
101.00300,2.120498676
101.00350,0.2893322296
101.00400,0.5945266373
101.00450,2.425693084
101.00500,2.120498676
101.00550,-1.541834217
101.00600,-7.645722371
101.00650,-11.61324967
101.00700,-11.30805526
101.00750,-7.035333555
101.00800,-2.152223032
101.00850,-0.01586217811
101.00900,-1.541834217
101.00950,-4.898972701
101.01000,-6.730139148
101.01050,-4.898972701
101.01100,-0.3210565858
101.01150,5.172442753
101.01200,11.88671972
101.01250,19.21138551
101.01300,24.70488485
101.01350,25.01007925
101.01400,19.51657991
101.01450,11.58152531
101.01500,4.562053937
101.01550,-0.9314454012
101.01600,-6.42494474
101.01650,-10.08727763
101.01700,-9.782083225
101.01750,-6.119750332
101.01800,-2.762611847
101.01850,-1.236639809
101.01900,-1.236639809
101.01950,-2.152223032
101.02000,-4.288583886
101.02050,-7.035333555
101.02100,-8.866500001
101.02150,-8.866500001
101.02200,-7.340527963
101.02250,-4.593778294
101.02300,-0.6262509935
101.02350,3.341276307
101.02400,5.477637161
101.02450,3.646470714
101.02500,-0.3210565858
101.02550,-4.288583886
101.02600,-5.509361517
101.02650,-3.678195071
101.02700,-1.541834217
101.02750,-0.01586217811
101.02800,1.51010986
101.02850,2.730887491
101.02900,2.425693084
101.02950,-0.01586217811
101.03000,-0.9314454012
101.03050,1.51010986
101.03100,5.172442753
101.03150,5.172442753
101.03200,1.51010986
101.03250,-0.01586217811
101.03300,3.646470714
101.03350,10.66594209
101.03400,12.49710854
101.03450,7.003609199
101.03500,-1.847028624
101.03550,-8.256111186
101.03600,-10.39247204
101.03650,-11.00286086
101.03700,-11.91844408
101.03750,-10.69766645
101.03800,-4.288583886
101.03850,6.088025976
101.03900,13.71788617
101.03950,14.02308058
101.04000,10.36074768
101.04050,7.919192422
101.04100,7.919192422
101.04150,6.698414791
101.04200,3.341276307
101.04250,1.815304268
101.04300,2.425693084
101.04350,2.120498676
101.04400,-1.541834217
101.04450,-4.593778294
101.04500,-2.45741744
101.04550,3.036081899
101.04600,5.782831568
101.04650,4.25685953
101.04700,2.425693084
101.04750,2.730887491
101.04800,1.51010986
101.04850,-4.288583886
101.04900,-11.61324967
101.04950,-13.44441612
101.05000,-7.950916778
101.05050,-1.847028624
101.05100,-1.236639809
101.05150,-4.593778294
101.05200,-6.119750332
101.05250,-4.288583886
101.05300,-2.152223032
101.05350,-3.373000663
101.05400,-5.509361517
101.05450,-3.678195071
101.05500,2.120498676
101.05550,8.529581238
101.05600,10.66594209
101.05650,8.834775645
101.05700,5.172442753
101.05750,0.899721045
101.05800,-1.541834217
101.05850,0.2893322296
101.05900,7.003609199
101.05950,13.41269176
101.06000,15.24385821
101.06050,12.49710854
101.06100,8.22438683
101.06150,3.646470714
101.06200,-0.01586217811
101.06250,-1.236639809
101.06300,1.204915453
101.06350,6.698414791
101.06400,10.05555328
101.06450,9.445164461
101.06500,6.088025976
101.06550,2.730887491
101.06600,0.2893322296
101.06650,-2.45741744
101.06700,-7.340527963
101.06750,-15.58077697
101.06800,-24.7366092
101.06850,-29.92491413
101.06900,-25.34699802
101.06950,-13.13922171
101.07000,-0.3210565858
101.07050,6.393220384
101.07100,7.003609199
101.07150,4.867248345
101.07200,3.036081899
101.07250,1.815304268
101.07300,2.120498676
101.07350,3.646470714
101.07400,4.25685953
101.07450,1.815304268
101.07500,-2.152223032
101.07550,-3.678195071
101.07600,-1.541834217
101.07650,0.899721045
101.07700,0.5945266373
101.07750,-0.9314454012
101.07800,-0.6262509935
101.07850,1.204915453
101.07900,2.425693084
101.07950,2.120498676
101.08000,1.51010986
101.08050,1.51010986
101.08100,1.51010986
101.08150,2.120498676
101.08200,4.25685953
101.08250,6.088025976
101.08300,5.172442753
101.08350,3.036081899
101.08400,3.036081899
101.08450,3.646470714
101.08500,-0.01586217811
101.08550,-9.171694409
101.08600,-18.02233223
101.08650,-19.85349868
101.08700,-14.97038816
101.08750,-8.256111186
101.08800,-3.373000663
101.08850,-3.067806255
101.08900,-6.730139148
101.08950,-9.476888817
101.09000,-7.950916778
101.09050,-6.119750332
101.09100,-13.44441612
101.09150,-29.00933091
101.09200,-39.08074636
101.09250,-35.11321906
101.09300,-26.26258124
101.09350,-26.56777565
101.09400,-30.23010854
101.09450,-16.19116579
101.09500,21.95813518
101.09550,62.5489914
101.09600,75.97754534
101.09650,59.19185292
101.09700,35.08149471
101.09750,25.31527366
101.09800,29.89318978
101.09850,34.16591148
101.09900,27.75682892
101.09950,14.63346939
101.10000,4.562053937
101.10050,2.425693084
101.10100,4.867248345
101.10150,6.393220384
101.10200,4.25685953
101.10250,-0.01586217811
101.10300,-5.204167109
101.10350,-9.476888817
101.10400,-10.69766645
101.10450,-7.950916778
101.10500,-2.45741744
101.10550,2.120498676
101.10600,3.036081899
101.10650,-0.3210565858
101.10700,-6.42494474
101.10750,-11.30805526
101.10800,-11.30805526
101.10850,-8.866500001
101.10900,-7.035333555
101.10950,-6.119750332
101.11000,-2.152223032
101.11050,3.951665122
101.11100,8.22438683
101.11150,8.22438683
101.11200,5.782831568
101.11250,2.120498676
101.11300,-3.067806255
101.11350,-8.866500001
101.11400,-10.08727763
101.11450,-5.509361517
101.11500,0.2893322296
101.11550,2.730887491
101.11600,2.120498676
101.11650,1.815304268
101.11700,1.51010986
101.11750,-0.01586217811
101.11800,-0.9314454012
101.11850,-0.01586217811
101.11900,0.5945266373
101.11950,-0.01586217811
101.12000,-0.3210565858
101.12050,0.5945266373
101.12100,2.120498676
101.12150,-0.01586217811
101.12200,-5.814555924
101.12250,-12.22363849
101.12300,-15.58077697
101.12350,-15.27558256
101.12400,-12.52883289
101.12450,-10.69766645
101.12500,-11.61324967
101.12550,-12.52883289
101.12600,-9.782083225
101.12650,-4.593778294
101.12700,-2.152223032
101.12750,-3.373000663
101.12800,-1.847028624
101.12850,5.782831568
101.12900,14.9386638
101.12950,16.76983025
101.13000,11.27633091
101.13050,5.172442753
101.13100,3.951665122
101.13150,6.393220384
101.13200,8.22438683
101.13250,7.308803607
101.13300,4.867248345
101.13350,1.815304268
101.13400,-0.6262509935
101.13450,-3.373000663
101.13500,-6.119750332
101.13550,-7.950916778
101.13600,-9.171694409
101.13650,-11.30805526
101.13700,-15.58077697
101.13750,-18.32752664
101.13800,-13.74961052
101.13850,-1.847028624
101.13900,8.529581238
101.13950,11.88671972
101.14000,9.750358868
101.14050,9.750358868
101.14100,12.80230295
101.14150,14.32827498
101.14200,10.36074768
101.14250,5.477637161
101.14300,3.646470714
101.14350,1.51010986
101.14400,-6.119750332
101.14450,-17.71713782
101.14500,-22.90544276
101.14550,-17.71713782
101.14600,-8.866500001
101.14650,-3.067806255
101.14700,-0.6262509935
101.14750,3.341276307
101.14800,7.308803607
101.14850,7.003609199
101.14900,2.425693084
101.14950,0.2893322296
101.15000,3.341276307
101.15050,6.698414791
101.15100,6.088025976
101.15150,1.204915453
101.15200,-2.45741744
101.15250,-3.983389478
101.15300,-3.678195071
101.15350,-2.152223032
101.15400,-0.6262509935
101.15450,0.2893322296
101.15500,1.204915453
101.15550,2.120498676
101.15600,2.730887491
101.15650,2.120498676
101.15700,3.341276307
101.15750,7.613998014
101.15800,11.88671972
101.15850,10.36074768
101.15900,3.646470714
101.15950,0.5945266373
101.16000,7.308803607
101.16050,16.76983025
101.16100,18.9061911
101.16150,12.49710854
101.16200,5.172442753
101.16250,0.5945266373
101.16300,-2.45741744
101.16350,-5.509361517
101.16400,-8.256111186
101.16450,-11.91844408
101.16500,-18.32752664
101.16550,-23.21063716
101.16600,-20.46388749
101.16650,-10.39247204
101.16700,-0.9314454012
101.16750,3.646470714
101.16800,7.308803607
101.16850,11.88671972
101.16900,12.80230295
101.16950,7.003609199
101.17000,0.5945266373
101.17050,-0.01586217811
101.17100,0.5945266373
101.17150,-2.152223032
101.17200,-7.035333555
101.17250,-6.730139148
101.17300,-0.9314454012
101.17350,2.425693084
101.17400,-0.01586217811
101.17450,-3.067806255
101.17500,-2.762611847
101.17550,-0.6262509935
101.17600,-0.01586217811
101.17650,0.2893322296
101.17700,2.730887491
101.17750,3.646470714
101.17800,-0.01586217811
101.17850,-4.898972701
101.17900,-4.288583886
101.17950,1.51010986
101.18000,6.698414791
101.18050,7.613998014
101.18100,6.088025976
101.18150,4.25685953
101.18200,3.036081899
101.18250,2.730887491
101.18300,5.172442753
101.18350,7.919192422
101.18400,5.477637161
101.18450,-1.847028624
101.18500,-5.204167109
101.18550,-1.236639809
101.18600,1.815304268
101.18650,-6.119750332
101.18700,-23.21063716
101.18750,-36.33399669
101.18800,-35.11321906
101.18850,-21.07427631
101.18900,-3.983389478
101.18950,6.088025976
101.19000,7.308803607
101.19050,3.646470714
101.19100,2.425693084
101.19150,4.25685953
101.19200,3.036081899
101.19250,-3.373000663
101.19300,-7.645722371
101.19350,-2.152223032
101.19400,8.834775645
101.19450,14.02308058
101.19500,7.613998014
101.19550,-2.45741744
101.19600,-7.340527963
101.19650,-8.256111186
101.19700,-13.44441612
101.19750,-24.12622039
101.19800,-30.53530295
101.19850,-26.56777565
101.19900,-19.24310986
101.19950,-19.24310986
101.20000,-21.07427631
101.20050,-6.730139148
101.20100,28.06202333
101.20150,60.41263055
101.20200,64.99054666
101.20250,44.54252135
101.20300,23.17891281
101.20350,15.85424702
101.20400,14.63346939
101.20450,7.308803607
101.20500,-3.067806255
101.20550,-6.730139148
101.20600,-2.762611847
101.20650,1.204915453
101.20700,2.120498676
101.20750,2.425693084
101.20800,4.25685953
101.20850,6.698414791
101.20900,8.834775645
101.20950,9.750358868
101.21000,8.834775645
101.21050,5.172442753
101.21100,0.5945266373
101.21150,-1.541834217
101.21200,-2.152223032
101.21250,-2.45741744
101.21300,-3.067806255
101.21350,-2.45741744
101.21400,-0.6262509935
101.21450,-1.236639809
101.21500,-6.42494474
101.21550,-12.22363849
101.21600,-14.66519375
101.21650,-13.44441612
101.21700,-11.91844408
101.21750,-11.30805526
101.21800,-9.476888817
101.21850,-5.204167109
101.21900,-0.6262509935
101.21950,0.899721045
101.22000,1.815304268
101.22050,3.646470714
101.22100,5.477637161
101.22150,4.562053937
101.22200,2.120498676
101.22250,1.204915453
101.22300,3.036081899
101.22350,4.25685953
101.22400,1.815304268
101.22450,-3.678195071
101.22500,-10.39247204
101.22550,-15.27558256
101.22600,-17.41194342
101.22650,-17.71713782
101.22700,-16.8015546
101.22750,-13.74961052
101.22800,-6.42494474
101.22850,3.951665122
101.22900,13.10749735
101.22950,16.46463584
101.23000,13.71788617
101.23050,9.139970053
101.23100,5.782831568
101.23150,3.951665122
101.23200,2.730887491
101.23250,2.425693084
101.23300,2.425693084
101.23350,0.899721045
101.23400,-1.541834217
101.23450,-2.762611847
101.23500,-2.762611847
101.23550,-2.762611847
101.23600,-2.45741744
101.23650,-0.01586217811
101.23700,6.393220384
101.23750,11.27633091
101.23800,9.139970053
101.23850,1.815304268
101.23900,-4.593778294
101.23950,-5.509361517
101.24000,-2.152223032
101.24050,2.425693084
101.24100,4.867248345
101.24150,3.036081899
101.24200,-1.847028624
101.24250,-5.814555924
101.24300,-5.509361517
101.24350,-3.983389478
101.24400,-5.204167109
101.24450,-5.204167109
101.24500,1.204915453
101.24550,12.49710854
101.24600,17.99060788
101.24650,13.41269176
101.24700,5.172442753
101.24750,1.51010986
101.24800,-0.01586217811
101.24850,-4.898972701
101.24900,-10.08727763
101.24950,-8.256111186
101.25000,-0.3210565858
101.25050,4.867248345
101.25100,2.120498676
101.25150,-3.678195071
101.25200,-7.340527963
101.25250,-8.256111186
101.25300,-9.171694409
101.25350,-9.782083225
101.25400,-7.340527963
101.25450,-0.9314454012
101.25500,6.088025976
101.25550,10.05555328
101.25600,8.22438683
101.25650,2.425693084
101.25700,-3.678195071
101.25750,-5.814555924
101.25800,-3.067806255
101.25850,1.204915453
101.25900,5.477637161
101.25950,7.613998014
101.26000,7.003609199
101.26050,4.25685953
101.26100,1.815304268
101.26150,2.730887491
101.26200,6.698414791
101.26250,9.750358868
101.26300,9.445164461
101.26350,8.22438683
101.26400,7.613998014
101.26450,6.698414791
101.26500,4.25685953
101.26550,2.425693084
101.26600,0.899721045
101.26650,-1.847028624
101.26700,-7.035333555
101.26750,-8.561305594
101.26800,-4.898972701
101.26850,-2.152223032
101.26900,-5.814555924
101.26950,-11.00286086
101.27000,-7.645722371
101.27050,2.730887491
101.27100,10.9711365
101.27150,11.27633091
101.27200,9.750358868
101.27250,10.36074768
101.27300,9.139970053
101.27350,0.5945266373
101.27400,-7.645722371
101.27450,-6.730139148
101.27500,2.425693084
101.27550,8.22438683
101.27600,1.815304268
101.27650,-11.61324967
101.27700,-19.85349868
101.27750,-18.32752664
101.27800,-14.05480493
101.27850,-15.88597138
101.27900,-20.7690819
101.27950,-19.24310986
101.28000,-7.950916778
101.28050,3.341276307
101.28100,6.393220384
101.28150,3.036081899
101.28200,3.341276307
101.28250,8.529581238
101.28300,11.27633091
101.28350,7.613998014
101.28400,3.036081899
101.28450,1.815304268
101.28500,3.341276307
101.28550,4.562053937
101.28600,6.698414791
101.28650,10.36074768
101.28700,12.49710854
101.28750,9.139970053
101.28800,0.5945266373
101.28850,-12.8340273
101.28900,-29.92491413
101.28950,-43.96385689
101.29000,-46.40541215
101.29050,-39.08074636
101.29100,-31.45088617
101.29150,-24.7366092
101.29200,-5.509361517
101.29250,28.36721774
101.29300,57.36068647
101.29350,57.97107529
101.29400,34.7763003
101.29450,12.80230295
101.29500,7.003609199
101.29550,8.529581238
101.29600,5.782831568
101.29650,1.204915453
101.29700,1.815304268
101.29750,6.393220384
101.29800,7.613998014
101.29850,3.036081899
101.29900,-1.236639809
101.29950,-0.01586217811
101.30000,6.698414791
101.30050,13.41269176
101.30100,13.10749735
101.30150,5.477637161
101.30200,-3.373000663
101.30250,-8.866500001
101.30300,-12.52883289
101.30350,-19.24310986
101.30400,-27.17816446
101.30450,-29.00933091
101.30500,-21.37947072
101.30550,-9.782083225
101.30600,-0.01586217811
101.30650,7.613998014
101.30700,13.71788617
101.30750,15.54905261
101.30800,12.49710854
101.30850,6.698414791
101.30900,1.815304268
101.30950,-2.45741744
101.31000,-7.035333555
101.31050,-8.866500001
101.31100,-5.814555924
101.31150,-1.236639809
101.31200,-0.3210565858
101.31250,-3.678195071
101.31300,-5.814555924
101.31350,-3.373000663
101.31400,1.204915453
101.31450,4.562053937
101.31500,5.782831568
101.31550,6.698414791
101.31600,6.698414791
101.31650,3.951665122
101.31700,-0.9314454012
101.31750,-5.204167109
101.31800,-5.814555924
101.31850,-4.288583886
101.31900,-2.762611847
101.31950,-2.45741744
101.32000,-1.541834217
101.32050,1.815304268
101.32100,6.393220384
101.32150,9.445164461
101.32200,10.36074768
101.32250,10.9711365
101.32300,11.27633091
101.32350,7.919192422
101.32400,-0.6262509935
101.32450,-10.08727763
101.32500,-13.13922171
101.32550,-11.61324967
101.32600,-11.30805526
101.32650,-14.05480493
101.32700,-14.66519375
101.32750,-10.69766645
101.32800,-7.340527963
101.32850,-8.256111186
101.32900,-9.171694409
101.32950,-4.288583886
101.33000,3.341276307
101.33050,8.22438683
101.33100,10.05555328
101.33150,13.41269176
101.33200,17.99060788
101.33250,18.29580228
101.33300,12.80230295
101.33350,6.698414791
101.33400,4.25685953
101.33450,3.341276307
101.33500,0.899721045
101.33550,-2.152223032
101.33600,-2.762611847
101.33650,-0.01586217811
101.33700,5.172442753
101.33750,8.529581238
101.33800,8.22438683
101.33850,3.646470714
101.33900,-1.847028624
101.33950,-4.898972701
101.34000,-3.983389478
101.34050,-1.236639809
101.34100,0.2893322296
101.34150,-0.6262509935
101.34200,-3.678195071
101.34250,-6.42494474
101.34300,-7.340527963
101.34350,-7.645722371
101.34400,-8.256111186
101.34450,-7.340527963
101.34500,-2.152223032
101.34550,5.172442753
101.34600,9.750358868
101.34650,7.003609199
101.34700,1.204915453
101.34750,-0.9314454012
101.34800,1.51010986
101.34850,4.867248345
101.34900,4.562053937
101.34950,0.2893322296
101.35000,-5.204167109
101.35050,-10.39247204
101.35100,-13.74961052
101.35150,-13.44441612
101.35200,-9.476888817
101.35250,-3.067806255
101.35300,2.120498676
101.35350,4.867248345
101.35400,4.562053937
101.35450,3.951665122
101.35500,5.782831568
101.35550,10.05555328
101.35600,13.71788617
101.35650,13.71788617
101.35700,10.05555328
101.35750,5.782831568
101.35800,3.341276307
101.35850,2.730887491
101.35900,0.899721045
101.35950,-2.45741744
101.36000,-4.898972701
101.36050,-3.373000663
101.36100,-0.01586217811
101.36150,-0.6262509935
101.36200,-4.593778294
101.36250,-6.730139148
101.36300,-4.288583886
101.36350,-1.541834217
101.36400,-3.067806255
101.36450,-4.898972701
101.36500,-2.762611847
101.36550,-0.01586217811
101.36600,-0.9314454012
101.36650,-6.119750332
101.36700,-8.866500001
101.36750,-6.730139148
101.36800,-3.983389478
101.36850,-4.593778294
101.36900,-7.645722371
101.36950,-11.91844408
101.37000,-17.41194342
101.37050,-21.37947072
101.37100,-18.63272105
101.37150,-7.340527963
101.37200,6.088025976
101.37250,16.46463584
101.37300,22.56852399
101.37350,28.36721774
101.37400,32.33474504
101.37450,30.808773
101.37500,25.62046807
101.37550,22.8737184
101.37600,24.09449603
101.37650,23.17891281
101.37700,15.54905261
101.37750,6.088025976
101.37800,2.120498676
101.37850,2.425693084
101.37900,-1.236639809
101.37950,-11.30805526
101.38000,-18.63272105
101.38050,-14.66519375
101.38100,-3.373000663
101.38150,4.25685953
101.38200,5.172442753
101.38250,3.951665122
101.38300,5.477637161
101.38350,7.003609199
101.38400,4.25685953
101.38450,-0.9314454012
101.38500,-4.593778294
101.38550,-5.204167109
101.38600,-8.561305594
101.38650,-18.93791546
101.38700,-31.14569176
101.38750,-36.33399669
101.38800,-35.41841347
101.38850,-35.11321906
101.38900,-35.11321906
101.38950,-23.21063716
101.39000,7.308803607
101.39050,42.10096608
101.39100,57.05549206
101.39150,45.76329898
101.39200,24.09449603
101.39250,10.36074768
101.39300,6.698414791
101.39350,6.088025976
101.39400,4.25685953
101.39450,2.120498676
101.39500,-0.01586217811
101.39550,-1.847028624
101.39600,-1.847028624
101.39650,0.2893322296
101.39700,2.120498676
101.39750,1.51010986
101.39800,-0.3210565858
101.39850,-3.678195071
101.39900,-8.256111186
101.39950,-13.44441612
101.40000,-15.27558256
101.40050,-12.8340273
101.40100,-8.866500001
101.40150,-7.035333555
101.40200,-6.730139148
101.40250,-4.898972701
101.40300,-1.847028624
101.40350,-0.01586217811
101.40400,-0.3210565858
101.40450,-3.067806255
101.40500,-5.204167109
101.40550,-4.288583886
101.40600,-0.9314454012
101.40650,-0.3210565858
101.40700,-4.593778294
101.40750,-9.782083225
101.40800,-9.782083225
101.40850,-4.898972701
101.40900,-2.45741744
101.40950,-4.898972701
101.41000,-7.035333555
101.41050,-4.288583886
101.41100,0.2893322296
101.41150,3.036081899
101.41200,4.562053937
101.41250,6.393220384
101.41300,6.393220384
101.41350,2.425693084
101.41400,-1.847028624
101.41450,-3.373000663
101.41500,-4.593778294
101.41550,-9.171694409
101.41600,-14.05480493
101.41650,-10.69766645
101.41700,0.899721045
101.41750,10.66594209
101.41800,10.36074768
101.41850,4.25685953
101.41900,2.120498676
101.41950,6.393220384
101.42000,12.19191413
101.42050,15.54905261
101.42100,17.07502465
101.42150,17.38021906
101.42200,14.9386638
101.42250,10.05555328
101.42300,5.782831568
101.42350,2.425693084
101.42400,-0.3210565858
101.42450,-5.204167109
101.42500,-11.00286086
101.42550,-15.27558256
101.42600,-15.88597138
101.42650,-12.22363849
101.42700,-7.645722371
101.42750,-5.204167109
101.42800,-4.288583886
101.42850,-0.6262509935
101.42900,5.172442753
101.42950,8.529581238
101.43000,6.393220384
101.43050,2.120498676
101.43100,0.2893322296
101.43150,0.5945266373
101.43200,-0.01586217811
101.43250,-0.3210565858
101.43300,1.204915453
101.43350,4.562053937
101.43400,5.782831568
101.43450,5.477637161
101.43500,6.088025976
101.43550,7.308803607
101.43600,6.088025976
101.43650,2.425693084
101.43700,-0.01586217811
101.43750,-0.9314454012
101.43800,-3.373000663
101.43850,-8.256111186
101.43900,-11.61324967
101.43950,-10.69766645
101.44000,-6.730139148
101.44050,-2.45741744
101.44100,1.51010986
101.44150,5.477637161
101.44200,6.088025976
101.44250,2.730887491
101.44300,-1.541834217
101.44350,-3.983389478
101.44400,-4.288583886
101.44450,-4.593778294
101.44500,-5.509361517
101.44550,-6.119750332
101.44600,-5.204167109
101.44650,-1.541834217
101.44700,2.425693084
101.44750,3.646470714
101.44800,-0.6262509935
101.44850,-7.645722371
101.44900,-11.91844408
101.44950,-11.61324967
101.45000,-8.256111186
101.45050,-4.593778294
101.45100,-1.236639809
101.45150,-0.01586217811
101.45200,-0.9314454012
101.45250,-3.983389478
101.45300,-6.119750332
101.45350,-6.119750332
101.45400,-4.593778294
101.45450,-2.762611847
101.45500,-0.01586217811
101.45550,2.730887491
101.45600,3.951665122
101.45650,3.646470714
101.45700,2.730887491
101.45750,2.425693084
101.45800,2.120498676
101.45850,0.899721045
101.45900,0.5945266373
101.45950,3.036081899
101.46000,7.613998014
101.46050,11.27633091
101.46100,13.10749735
101.46150,14.63346939
101.46200,14.9386638
101.46250,12.80230295
101.46300,8.529581238
101.46350,4.867248345
101.46400,4.25685953
101.46450,5.172442753
101.46500,4.25685953
101.46550,0.899721045
101.46600,-3.373000663
101.46650,-7.950916778
101.46700,-11.30805526
101.46750,-11.00286086
101.46800,-7.035333555
101.46850,-2.762611847
101.46900,-0.6262509935
101.46950,-0.01586217811
101.47000,1.51010986
101.47050,0.5945266373
101.47100,-3.678195071
101.47150,-7.950916778
101.47200,-7.340527963
101.47250,-3.983389478
101.47300,-3.678195071
101.47350,-6.42494474
101.47400,-6.42494474
101.47450,-3.067806255
101.47500,-1.236639809
101.47550,-2.762611847
101.47600,-5.814555924
101.47650,-7.340527963
101.47700,-7.035333555
101.47750,-3.983389478
101.47800,4.562053937
101.47850,16.46463584
101.47900,23.78930162
101.47950,21.95813518
101.48000,15.54905261
101.48050,10.36074768
101.48100,6.698414791
101.48150,1.815304268
101.48200,-5.204167109
101.48250,-11.91844408
101.48300,-15.58077697
101.48350,-14.35999934
101.48400,-8.561305594
101.48450,-0.6262509935
101.48500,3.951665122
101.48550,3.951665122
101.48600,1.815304268
101.48650,2.120498676
101.48700,7.003609199
101.48750,13.41269176
101.48800,16.15944143
101.48850,14.02308058
101.48900,11.58152531
101.48950,10.9711365
101.49000,7.613998014
101.49050,-4.593778294
101.49100,-20.7690819
101.49150,-28.39894209
101.49200,-22.60024835
101.49250,-11.61324967
101.49300,-5.509361517
101.49350,-7.340527963
101.49400,-14.35999934
101.49450,-22.90544276
101.49500,-27.17816446
101.49550,-23.82102598
101.49600,-20.15869309
101.49650,-24.7366092
101.49700,-27.78855328
101.49750,-7.645722371
101.49800,36.60746675
101.49850,73.53599008
101.49900,73.23079567
101.49950,46.06849338
101.50000,24.39969044
101.50050,20.12696873
101.50100,16.76983025
101.50150,0.899721045
101.50200,-17.10674901
101.50250,-23.82102598
101.50300,-21.07427631
101.50350,-18.02233223
101.50400,-15.88597138
101.50450,-11.00286086
101.50500,-5.204167109
101.50550,-3.373000663
101.50600,-7.035333555
101.50650,-9.476888817
101.50700,-5.509361517
101.50750,4.25685953
101.50800,13.71788617
101.50850,16.15944143
101.50900,12.19191413
101.50950,8.22438683
101.51000,9.445164461
101.51050,12.49710854
101.51100,10.66594209
101.51150,3.036081899
101.51200,-5.204167109
101.51250,-9.782083225
101.51300,-11.00286086
101.51350,-10.08727763
101.51400,-8.561305594
101.51450,-5.509361517
101.51500,-2.45741744
101.51550,-0.9314454012
101.51600,-0.6262509935
101.51650,0.5945266373
101.51700,5.477637161
101.51750,10.9711365
101.51800,10.9711365
101.51850,3.341276307
101.51900,-6.730139148
101.51950,-12.22363849
101.52000,-11.30805526
101.52050,-7.035333555
101.52100,-3.067806255
101.52150,-0.01586217811
101.52200,1.204915453
101.52250,1.51010986
101.52300,1.815304268
101.52350,3.951665122
101.52400,6.698414791
101.52450,8.22438683
101.52500,8.834775645
101.52550,9.445164461
101.52600,8.834775645
101.52650,4.25685953
101.52700,-3.373000663
101.52750,-10.69766645
101.52800,-16.19116579
101.52850,-19.24310986
101.52900,-19.85349868
101.52950,-16.8015546
101.53000,-12.22363849
101.53050,-11.30805526
101.53100,-14.05480493
101.53150,-15.27558256
101.53200,-10.69766645
101.53250,-3.373000663
101.53300,-0.01586217811
101.53350,-1.541834217
101.53400,-2.45741744
101.53450,3.646470714
101.53500,16.76983025
101.53550,28.97760655
101.53600,34.16591148
101.53650,31.72435622
101.53700,24.70488485
101.53750,17.68541347
101.53800,10.66594209
101.53850,2.120498676
101.53900,-7.035333555
101.53950,-15.27558256
101.54000,-19.54830427
101.54050,-19.85349868
101.54100,-14.97038816
101.54150,-3.983389478
101.54200,8.834775645
101.54250,16.46463584
101.54300,13.71788617
101.54350,6.088025976
101.54400,1.815304268
101.54450,1.204915453
101.54500,-1.541834217
101.54550,-8.561305594
101.54600,-13.74961052
101.54650,-12.52883289
101.54700,-8.256111186
101.54750,-6.119750332
101.54800,-5.814555924
101.54850,-3.678195071
101.54900,-0.3210565858
101.54950,0.2893322296
101.55000,-2.152223032
101.55050,-5.509361517
101.55100,-4.898972701
101.55150,-0.9314454012
101.55200,2.730887491
101.55250,2.120498676
101.55300,-2.45741744
101.55350,-6.42494474
101.55400,-4.898972701
101.55450,0.2893322296
101.55500,5.172442753
101.55550,7.308803607
101.55600,9.139970053
101.55650,10.36074768
101.55700,9.139970053
101.55750,5.782831568
101.55800,4.867248345
101.55850,7.308803607
101.55900,10.05555328
101.55950,9.750358868
101.56000,8.22438683
101.56050,7.919192422
101.56100,8.834775645
101.56150,8.834775645
101.56200,8.22438683
101.56250,7.003609199
101.56300,5.172442753
101.56350,2.120498676
101.56400,-1.847028624
101.56450,-6.730139148
101.56500,-11.30805526
101.56550,-12.52883289
101.56600,-9.476888817
101.56650,-4.288583886
101.56700,-0.01586217811
101.56750,2.120498676
101.56800,1.51010986
101.56850,-2.152223032
101.56900,-6.42494474
101.56950,-5.814555924
101.57000,-0.3210565858
101.57050,4.562053937
101.57100,4.25685953
101.57150,1.815304268
101.57200,1.815304268
101.57250,3.341276307
101.57300,2.425693084
101.57350,0.5945266373
101.57400,0.2893322296
101.57450,0.899721045
101.57500,-0.3210565858
101.57550,-1.847028624
101.57600,-0.3210565858
101.57650,0.899721045
101.57700,-2.152223032
101.57750,-6.730139148
101.57800,-3.983389478
101.57850,6.698414791
101.57900,14.63346939
101.57950,11.58152531
101.58000,2.120498676
101.58050,-2.152223032
101.58100,0.5945266373
101.58150,5.477637161
101.58200,8.529581238
101.58250,11.58152531
101.58300,12.49710854
101.58350,3.951665122
101.58400,-14.66519375
101.58450,-30.23010854
101.58500,-32.6716638
101.58550,-32.06127499
101.58600,-42.43788485
101.58650,-54.34046675
101.58700,-39.08074636
101.58750,9.139970053
101.58800,56.44510325
101.58850,65.60093548
101.58900,40.88018845
101.58950,16.76983025
101.59000,11.58152531
101.59050,14.02308058
101.59100,10.05555328
101.59150,3.646470714
101.59200,1.51010986
101.59250,1.51010986
101.59300,0.2893322296
101.59350,3.951665122
101.59400,13.71788617
101.59450,18.60099669
101.59500,10.66594209
101.59550,-2.152223032
101.59600,-8.256111186
101.59650,-6.730139148
101.59700,-4.898972701
101.59750,-3.678195071
101.59800,-0.3210565858
101.59850,3.646470714
101.59900,4.562053937
101.59950,3.036081899
101.60000,3.341276307
101.60050,4.867248345
101.60100,3.341276307
101.60150,-0.01586217811
101.60200,-1.847028624
101.60250,-2.762611847
101.60300,-5.509361517
101.60350,-9.782083225
101.60400,-11.00286086
101.60450,-7.950916778
101.60500,-4.288583886
101.60550,-1.236639809
101.60600,0.2893322296
101.60650,-0.9314454012
101.60700,-7.340527963
101.60750,-14.97038816
101.60800,-17.10674901
101.60850,-13.13922171
101.60900,-7.950916778
101.60950,-4.898972701
101.61000,-3.373000663
101.61050,-2.152223032
101.61100,-0.6262509935
101.61150,-0.01586217811
101.61200,0.2893322296
101.61250,-1.236639809
101.61300,-5.814555924
101.61350,-9.476888817
101.61400,-7.950916778
101.61450,-0.6262509935
101.61500,6.698414791
101.61550,9.139970053
101.61600,5.782831568
101.61650,-0.6262509935
101.61700,-6.42494474
101.61750,-6.42494474
101.61800,-1.541834217
101.61850,1.51010986
101.61900,-2.152223032
101.61950,-11.00286086
101.62000,-18.02233223
101.62050,-19.54830427
101.62100,-16.8015546
101.62150,-12.52883289
101.62200,-8.256111186
101.62250,-6.42494474
101.62300,-5.204167109
101.62350,0.899721045
101.62400,14.32827498
101.62450,26.53605129
101.62500,26.53605129
101.62550,15.85424702
101.62600,6.698414791
101.62650,4.867248345
101.62700,5.477637161
101.62750,3.036081899
101.62800,0.2893322296
101.62850,0.5945266373
101.62900,0.899721045
101.62950,-2.45741744
101.63000,-8.866500001
101.63050,-14.05480493
101.63100,-18.02233223
101.63150,-21.37947072
101.63200,-20.46388749
101.63250,-12.22363849
101.63300,-1.541834217
101.63350,1.815304268
101.63400,-1.847028624
101.63450,-1.847028624
101.63500,8.529581238
101.63550,23.78930162
101.63600,32.02955063
101.63650,30.19838418
101.63700,24.70488485
101.63750,20.73735755
101.63800,17.07502465
101.63850,11.88671972
101.63900,5.782831568
101.63950,0.899721045
101.64000,-0.9314454012
101.64050,-0.3210565858
101.64100,2.120498676
101.64150,3.036081899
101.64200,-0.01586217811
101.64250,-2.45741744
101.64300,-0.01586217811
101.64350,4.25685953
101.64400,1.51010986
101.64450,-9.171694409
101.64500,-16.8015546
101.64550,-12.52883289
101.64600,-3.678195071
101.64650,-1.847028624
101.64700,-7.340527963
101.64750,-11.30805526
101.64800,-10.08727763
101.64850,-8.256111186
101.64900,-10.69766645
101.64950,-14.35999934
101.65000,-13.74961052
101.65050,-6.730139148
101.65100,3.646470714
101.65150,11.58152531
101.65200,11.58152531
101.65250,4.562053937
101.65300,-0.9314454012
101.65350,-0.01586217811
101.65400,3.341276307
101.65450,2.730887491
101.65500,-2.762611847
101.65550,-6.119750332
101.65600,-3.373000663
101.65650,0.5945266373
101.65700,1.204915453
101.65750,-2.152223032
101.65800,-7.035333555
101.65850,-9.171694409
101.65900,-7.035333555
101.65950,-2.152223032
101.66000,1.815304268
101.66050,3.646470714
101.66100,2.730887491
101.66150,1.204915453
101.66200,0.2893322296
101.66250,0.5945266373
101.66300,1.51010986
101.66350,1.51010986
101.66400,-0.01586217811
101.66450,-1.541834217
101.66500,-0.3210565858
101.66550,3.646470714
101.66600,7.308803607
101.66650,7.308803607
101.66700,2.425693084
101.66750,-5.509361517
101.66800,-15.27558256
101.66850,-23.51583157
101.66900,-26.87297006
101.66950,-23.51583157
101.67000,-16.19116579
101.67050,-8.256111186
101.67100,-1.541834217
101.67150,3.341276307
101.67200,6.393220384
101.67250,5.477637161
101.67300,-0.6262509935
101.67350,-11.00286086
101.67400,-19.85349868
101.67450,-22.60024835
101.67500,-20.7690819
101.67550,-20.15869309
101.67600,-18.93791546
101.67650,-3.678195071
101.67700,31.11396741
101.67750,67.73729633
101.67800,78.4191006
101.67850,60.10743614
