"type","name","time_units","begin_time","frequency","count","units"
"signal","Ultium EMG-BRACHIORAD. RT","s",175.96000,2000,22000,"uV"

"time","value"
175.96000,-33.2913564
175.96050,-30.23941232
175.96100,-30.54460673
175.96150,-30.23941232
175.96200,-24.13552416
175.96250,-14.97969193
175.96300,-10.09658141
175.96350,-12.84333108
175.96400,-18.64202483
175.96450,-22.60955213
175.96500,-24.44071857
175.96550,-25.6614962
175.96600,-25.35630179
175.96650,-20.16799686
175.96700,-10.09658141
175.96750,-0.3303603634
175.96800,5.773527791
175.96850,9.741055091
175.96900,13.70858239
175.96950,17.67610969
175.97000,21.33844258
175.97050,27.13713633
175.97100,35.98777415
175.97150,44.83841198
175.97200,48.19555046
175.97250,46.05918961
175.97300,42.09166231
175.97350,37.51374619
175.97400,29.883886
175.97450,18.59169291
175.97500,6.383916606
175.97550,-2.16152681
175.97600,-7.044637333
175.97650,-8.265414964
175.97700,-6.434248517
175.97750,-4.297887663
175.97800,-3.992693256
175.97850,-6.12905411
175.97900,-8.265414964
175.97950,-8.265414964
175.98000,-6.434248517
175.98050,-2.771915625
175.98100,0.280028452
175.98150,1.500806083
175.98200,2.416389306
175.98250,6.383916606
175.98300,14.0137768
175.98350,17.9813041
175.98400,13.70858239
175.98450,6.994305421
175.98500,6.383916606
175.98550,11.87741594
175.98600,16.76052647
175.98650,17.9813041
175.98700,20.11766495
175.98750,22.86441462
175.98800,21.03324818
175.98850,12.48780476
175.98900,2.416389306
175.98950,-4.603082071
175.99000,-9.180998187
175.99050,-10.09658141
175.99100,-3.38230444
175.99150,11.26702713
175.99200,26.22155311
175.99250,31.71505245
175.99300,27.74752515
175.99350,19.50727614
175.99400,10.0462495
175.99450,2.111194898
175.99500,-2.16152681
175.99550,-3.077110033
175.99600,-4.297887663
175.99650,-8.570609371
175.99700,-13.14852549
175.99750,-14.36930312
175.99800,-12.53813667
175.99850,-10.09658141
175.99900,-7.655026148
175.99950,-5.213470887
176.00000,-3.992693256
176.00050,-2.771915625
176.00100,0.280028452
176.00150,4.857944568
176.00200,6.078722198
176.00250,0.8904172674
176.00300,-6.434248517
176.00350,-10.40177582
176.00400,-9.180998187
176.00450,-5.823859702
176.00500,-1.245943586
176.00550,3.026778121
176.00600,5.773527791
176.00650,6.383916606
176.00700,6.383916606
176.00750,7.604694237
176.00800,8.215083052
176.00850,6.689111014
176.00900,3.026778121
176.00950,-0.02516595566
176.01000,-1.245943586
176.01050,-0.3303603634
176.01100,2.416389306
176.01150,3.331972529
176.01200,-1.245943586
176.01250,-10.09658141
176.01300,-13.14852549
176.01350,-6.434248517
176.01400,0.8904172674
176.01450,-1.245943586
176.01500,-13.14852549
176.01550,-23.83032976
176.01600,-27.49266265
176.01650,-26.57707943
176.01700,-24.44071857
176.01750,-21.38877449
176.01800,-16.20046956
176.01850,-10.40177582
176.01900,-6.739442925
176.01950,-5.823859702
176.02000,-6.434248517
176.02050,-7.960220556
176.02100,-8.875803779
176.02150,-7.34983174
176.02200,-3.38230444
176.02250,0.280028452
176.02300,1.806000491
176.02350,0.5852228597
176.02400,-1.551137994
176.02450,-3.687498848
176.02500,-4.603082071
176.02550,-3.077110033
176.02600,0.280028452
176.02650,4.55275016
176.02700,6.994305421
176.02750,7.604694237
176.02800,8.215083052
176.02850,9.435860683
176.02900,10.96183272
176.02950,11.26702713
176.03000,11.26702713
176.03050,11.26702713
176.03100,10.35144391
176.03150,7.604694237
176.03200,3.331972529
176.03250,-0.3303603634
176.03300,-3.077110033
176.03350,-4.908276479
176.03400,-7.655026148
176.03450,-10.70697023
176.03500,-12.53813667
176.03550,-11.92774786
176.03600,-10.09658141
176.03650,-8.570609371
176.03700,-7.960220556
176.03750,-6.12905411
176.03800,-2.16152681
176.03850,1.500806083
176.03900,3.331972529
176.03950,3.026778121
176.04000,2.111194898
176.04050,1.500806083
176.04100,-0.02516595566
176.04150,-1.551137994
176.04200,-2.16152681
176.04250,-1.245943586
176.04300,-1.245943586
176.04350,-3.077110033
176.04400,-4.908276479
176.04450,-6.12905411
176.04500,-7.34983174
176.04550,-8.265414964
176.04600,-7.34983174
176.04650,-5.823859702
176.04700,-7.044637333
176.04750,-10.09658141
176.04800,-10.40177582
176.04850,-5.823859702
176.04900,-0.3303603634
176.04950,1.500806083
176.05000,0.8904172674
176.05050,-0.02516595566
176.05100,-0.9407491788
176.05150,-3.077110033
176.05200,-3.38230444
176.05250,-0.3303603634
176.05300,2.416389306
176.05350,1.806000491
176.05400,-1.856332402
176.05450,-4.908276479
176.05500,-4.908276479
176.05550,-4.297887663
176.05600,-3.687498848
176.05650,-2.16152681
176.05700,-0.02516595566
176.05750,1.195611675
176.05800,0.8904172674
176.05850,-0.3303603634
176.05900,-2.466721217
176.05950,-3.687498848
176.06000,-4.297887663
176.06050,-4.603082071
176.06100,-5.213470887
176.06150,-6.434248517
176.06200,-7.960220556
176.06250,-9.486192594
176.06300,-9.180998187
176.06350,-6.12905411
176.06400,-0.02516595566
176.06450,5.163138975
176.06500,7.604694237
176.06550,7.604694237
176.06600,7.909888645
176.06650,8.52027746
176.06700,8.825471868
176.06750,9.435860683
176.06800,11.26702713
176.06850,12.79299917
176.06900,12.79299917
176.06950,12.48780476
176.07000,15.23455443
176.07050,20.11766495
176.07100,24.39038666
176.07150,25.61116429
176.07200,24.69558107
176.07250,23.16960903
176.07300,21.33844258
176.07350,18.59169291
176.07400,15.23455443
176.07450,11.87741594
176.07500,7.604694237
176.07550,1.500806083
176.07600,-6.434248517
176.07650,-16.50566397
176.07700,-27.18746824
176.07750,-35.12252284
176.07800,-37.2588837
176.07850,-35.12252284
176.07900,-32.98616199
176.07950,-32.37577317
176.08000,-32.07057876
176.08050,-29.6290235
176.08100,-23.83032976
176.08150,-14.36930312
176.08200,-2.16152681
176.08250,8.215083052
176.08300,13.40338798
176.08350,13.40338798
176.08400,14.92936002
176.08450,21.9488314
176.08500,32.02024685
176.08550,40.26049586
176.08600,46.97477283
176.08650,52.46827217
176.08700,54.29943862
176.08750,47.58516165
176.08800,34.76699652
176.08850,22.55922021
176.08900,16.15013765
176.08950,14.31897121
176.09000,14.31897121
176.09050,13.40338798
176.09100,9.741055091
176.09150,0.5852228597
176.09200,-11.31735904
176.09250,-20.77838568
176.09300,-23.83032976
176.09350,-21.99916331
176.09400,-18.33683042
176.09450,-13.7589143
176.09500,-8.570609371
176.09550,-4.603082071
176.09600,-3.687498848
176.09650,-5.823859702
176.09700,-9.180998187
176.09750,-11.92774786
176.09800,-13.14852549
176.09850,-13.14852549
176.09900,-15.28488634
176.09950,-21.6939689
176.10000,-27.79785706
176.10050,-29.3238291
176.10100,-26.57707943
176.10150,-24.13552416
176.10200,-23.52513535
176.10250,-21.38877449
176.10300,-17.42124719
176.10350,-14.67449753
176.10400,-12.84333108
176.10450,-8.570609371
176.10500,-1.245943586
176.10550,3.331972529
176.10600,2.721583714
176.10650,0.5852228597
176.10700,0.8904172674
176.10750,2.111194898
176.10800,1.806000491
176.10850,2.416389306
176.10900,6.689111014
176.10950,11.26702713
176.11000,11.87741594
176.11050,9.435860683
176.11100,7.299499829
176.11150,6.383916606
176.11200,5.468333383
176.11250,5.773527791
176.11300,9.130666275
176.11350,13.40338798
176.11400,13.40338798
176.11450,10.0462495
176.11500,7.604694237
176.11550,5.773527791
176.11600,0.8904172674
176.11650,-6.12905411
176.11700,-11.01216463
176.11750,-10.40177582
176.11800,-7.044637333
176.11850,-4.603082071
176.11900,-3.687498848
176.11950,-3.077110033
176.12000,-2.771915625
176.12050,-4.603082071
176.12100,-7.044637333
176.12150,-7.044637333
176.12200,-2.466721217
176.12250,4.247555752
176.12300,11.26702713
176.12350,15.23455443
176.12400,14.92936002
176.12450,12.79299917
176.12500,12.18261035
176.12550,13.70858239
176.12600,13.70858239
176.12650,10.0462495
176.12700,5.773527791
176.12750,6.383916606
176.12800,10.96183272
176.12850,12.79299917
176.12900,10.35144391
176.12950,9.435860683
176.13000,16.76052647
176.13050,28.66310837
176.13100,33.54621889
176.13150,25.61116429
176.13200,11.57222154
176.13250,1.500806083
176.13300,-0.9407491788
176.13350,-1.245943586
176.13400,-3.687498848
176.13450,-6.434248517
176.13500,-5.518665294
176.13550,-3.687498848
176.13600,-5.518665294
176.13650,-12.23294226
176.13700,-18.03163601
176.13750,-18.94721923
176.13800,-16.50566397
176.13850,-15.59008075
176.13900,-16.81085838
176.13950,-17.11605279
176.14000,-15.59008075
176.14050,-13.14852549
176.14100,-11.31735904
176.14150,-9.486192594
176.14200,-6.739442925
176.14250,-3.992693256
176.14300,-2.466721217
176.14350,-2.16152681
176.14400,-3.38230444
176.14450,-4.603082071
176.14500,-4.908276479
176.14550,-3.992693256
176.14600,-3.077110033
176.14650,-2.466721217
176.14700,-1.245943586
176.14750,0.8904172674
176.14800,3.331972529
176.14850,3.026778121
176.14900,1.195611675
176.14950,-0.02516595566
176.15000,1.195611675
176.15050,4.55275016
176.15100,9.741055091
176.15150,14.0137768
176.15200,13.70858239
176.15250,9.435860683
176.15300,4.857944568
176.15350,3.331972529
176.15400,2.111194898
176.15450,-1.856332402
176.15500,-8.265414964
176.15550,-12.23294226
176.15600,-11.62255345
176.15650,-8.875803779
176.15700,-5.518665294
176.15750,-2.466721217
176.15800,-0.6355547711
176.15850,-0.9407491788
176.15900,-2.16152681
176.15950,-1.551137994
176.16000,-0.02516595566
176.16050,0.5852228597
176.16100,-0.02516595566
176.16150,-1.245943586
176.16200,-0.9407491788
176.16250,-0.02516595566
176.16300,0.5852228597
176.16350,2.416389306
176.16400,5.773527791
176.16450,10.65663831
176.16500,14.92936002
176.16550,14.92936002
176.16600,10.65663831
176.16650,6.078722198
176.16700,5.163138975
176.16750,6.994305421
176.16800,6.383916606
176.16850,2.721583714
176.16900,0.280028452
176.16950,0.280028452
176.17000,-0.3303603634
176.17050,-2.466721217
176.17100,-0.6355547711
176.17150,4.247555752
176.17200,3.942361344
176.17250,-5.823859702
176.17300,-18.33683042
176.17350,-22.91474653
176.17400,-21.08358009
176.17450,-22.30435772
176.17500,-28.10305146
176.17550,-32.68096758
176.17600,-33.2913564
176.17650,-32.68096758
176.17700,-32.07057876
176.17750,-28.10305146
176.17800,-20.77838568
176.17850,-14.36930312
176.17900,-11.92774786
176.17950,-10.70697023
176.18000,-8.875803779
176.18050,-7.960220556
176.18100,-7.655026148
176.18150,-4.603082071
176.18200,3.331972529
176.18250,13.09819358
176.18300,19.81247054
176.18350,22.55922021
176.18400,23.47480344
176.18450,25.30596988
176.18500,28.66310837
176.18550,33.24102448
176.18600,37.20855178
176.18650,39.34491264
176.18700,39.03971823
176.18750,37.20855178
176.18800,34.15660771
176.18850,29.883886
176.18900,23.77999785
176.18950,16.15013765
176.19000,8.52027746
176.19050,3.942361344
176.19100,3.942361344
176.19150,6.383916606
176.19200,6.994305421
176.19250,3.942361344
176.19300,-0.02516595566
176.19350,-1.551137994
176.19400,-0.9407491788
176.19450,0.280028452
176.19500,-0.02516595566
176.19550,-1.551137994
176.19600,-3.992693256
176.19650,-5.213470887
176.19700,-5.518665294
176.19750,-5.823859702
176.19800,-7.34983174
176.19850,-8.875803779
176.19900,-10.40177582
176.19950,-12.23294226
176.20000,-15.59008075
176.20050,-21.08358009
176.20100,-26.27188502
176.20150,-27.49266265
176.20200,-22.91474653
176.20250,-13.7589143
176.20300,-6.12905411
176.20350,-3.992693256
176.20400,-6.12905411
176.20450,-8.265414964
176.20500,-7.655026148
176.20550,-5.823859702
176.20600,-3.687498848
176.20650,-0.3303603634
176.20700,4.247555752
176.20750,6.994305421
176.20800,6.078722198
176.20850,4.247555752
176.20900,5.773527791
176.20950,9.741055091
176.21000,13.70858239
176.21050,17.06572088
176.21100,21.33844258
176.21150,24.39038666
176.21200,23.77999785
176.21250,18.59169291
176.21300,12.79299917
176.21350,6.689111014
176.21400,-1.551137994
176.21450,-12.23294226
176.21500,-19.25241364
176.21550,-19.25241364
176.21600,-14.06410871
176.21650,-9.791387002
176.21700,-8.875803779
176.21750,-8.570609371
176.21800,-5.213470887
176.21850,-0.02516595566
176.21900,3.637166937
176.21950,2.721583714
176.22000,-3.38230444
176.22050,-11.92774786
176.22100,-17.7264416
176.22150,-18.94721923
176.22200,-18.64202483
176.22250,-19.55760805
176.22300,-19.86280246
176.22350,-16.20046956
176.22400,-9.486192594
176.22450,-5.213470887
176.22500,-4.297887663
176.22550,-1.856332402
176.22600,3.942361344
176.22650,8.825471868
176.22700,9.435860683
176.22750,9.435860683
176.22800,14.92936002
176.22850,24.39038666
176.22900,30.49427481
176.22950,28.96830278
176.23000,23.77999785
176.23050,18.89688732
176.23100,16.45533206
176.23150,14.62416561
176.23200,13.70858239
176.23250,12.48780476
176.23300,10.0462495
176.23350,6.383916606
176.23400,3.637166937
176.23450,2.721583714
176.23500,1.806000491
176.23550,-1.856332402
176.23600,-7.34983174
176.23650,-11.92774786
176.23700,-14.36930312
176.23750,-15.28488634
176.23800,-14.97969193
176.23850,-14.67449753
176.23900,-14.67449753
176.23950,-15.59008075
176.24000,-14.97969193
176.24050,-11.62255345
176.24100,-6.739442925
176.24150,-3.38230444
176.24200,-2.466721217
176.24250,-1.245943586
176.24300,1.195611675
176.24350,5.163138975
176.24400,7.909888645
176.24450,9.741055091
176.24500,10.96183272
176.24550,10.35144391
176.24600,7.299499829
176.24650,2.111194898
176.24700,-2.16152681
176.24750,-4.603082071
176.24800,-7.044637333
176.24850,-10.09658141
176.24900,-13.14852549
176.24950,-13.14852549
176.25000,-8.265414964
176.25050,-1.551137994
176.25100,3.026778121
176.25150,3.942361344
176.25200,1.500806083
176.25250,-0.9407491788
176.25300,-0.6355547711
176.25350,2.416389306
176.25400,4.857944568
176.25450,1.806000491
176.25500,-5.823859702
176.25550,-13.14852549
176.25600,-15.89527516
176.25650,-15.59008075
176.25700,-14.67449753
176.25750,-13.45371989
176.25800,-10.40177582
176.25850,-7.655026148
176.25900,-7.655026148
176.25950,-8.265414964
176.26000,-6.739442925
176.26050,-2.16152681
176.26100,1.195611675
176.26150,3.942361344
176.26200,8.52027746
176.26250,15.23455443
176.26300,21.03324818
176.26350,22.55922021
176.26400,22.55922021
176.26450,24.69558107
176.26500,28.35791396
176.26550,29.57869159
176.26600,27.44233074
176.26650,23.77999785
176.26700,21.03324818
176.26750,18.89688732
176.26800,16.15013765
176.26850,12.48780476
176.26900,9.130666275
176.26950,6.078722198
176.27000,3.331972529
176.27050,-0.02516595566
176.27100,-4.297887663
176.27150,-10.70697023
176.27200,-17.7264416
176.27250,-24.13552416
176.27300,-28.10305146
176.27350,-29.3238291
176.27400,-30.23941232
176.27450,-33.90174521
176.27500,-36.95368929
176.27550,-33.90174521
176.27600,-23.21994094
176.27650,-10.70697023
176.27700,-4.297887663
176.27750,-5.518665294
176.27800,-8.570609371
176.27850,-9.486192594
176.27900,-9.180998187
176.27950,-10.70697023
176.28000,-12.53813667
176.28050,-11.92774786
176.28100,-9.486192594
176.28150,-7.960220556
176.28200,-9.791387002
176.28250,-12.53813667
176.28300,-12.53813667
176.28350,-9.486192594
176.28400,-4.908276479
176.28450,-0.6355547711
176.28500,2.416389306
176.28550,4.55275016
176.28600,6.689111014
176.28650,8.825471868
176.28700,11.87741594
176.28750,14.92936002
176.28800,16.45533206
176.28850,16.45533206
176.28900,15.84494324
176.28950,15.53974884
176.29000,15.53974884
176.29050,16.45533206
176.29100,17.67610969
176.29150,17.9813041
176.29200,17.06572088
176.29250,16.45533206
176.29300,16.76052647
176.29350,17.9813041
176.29400,16.76052647
176.29450,11.87741594
176.29500,4.55275016
176.29550,-0.9407491788
176.29600,-3.687498848
176.29650,-3.992693256
176.29700,-3.687498848
176.29750,-4.297887663
176.29800,-5.823859702
176.29850,-7.655026148
176.29900,-7.655026148
176.29950,-6.434248517
176.30000,-4.603082071
176.30050,-2.771915625
176.30100,-1.245943586
176.30150,-0.3303603634
176.30200,-1.856332402
176.30250,-5.518665294
176.30300,-9.486192594
176.30350,-11.92774786
176.30400,-13.14852549
176.30450,-14.36930312
176.30500,-14.36930312
176.30550,-11.62255345
176.30600,-5.823859702
176.30650,-0.02516595566
176.30700,4.55275016
176.30750,7.604694237
176.30800,8.215083052
176.30850,6.383916606
176.30900,3.331972529
176.30950,1.500806083
176.31000,2.721583714
176.31050,5.468333383
176.31100,8.215083052
176.31150,11.26702713
176.31200,16.45533206
176.31250,23.16960903
176.31300,29.883886
176.31350,33.54621889
176.31400,32.93583008
176.31450,27.74752515
176.31500,18.89688732
176.31550,9.435860683
176.31600,2.111194898
176.31650,-2.466721217
176.31700,-4.908276479
176.31750,-5.518665294
176.31800,-6.739442925
176.31850,-10.40177582
176.31900,-15.89527516
176.31950,-18.64202483
176.32000,-16.20046956
176.32050,-11.92774786
176.32100,-9.486192594
176.32150,-8.570609371
176.32200,-6.434248517
176.32250,-3.38230444
176.32300,-0.3303603634
176.32350,1.195611675
176.32400,3.026778121
176.32450,4.857944568
176.32500,5.468333383
176.32550,6.078722198
176.32600,9.130666275
176.32650,13.40338798
176.32700,16.15013765
176.32750,14.92936002
176.32800,12.48780476
176.32850,10.65663831
176.32900,8.52027746
176.32950,5.773527791
176.33000,2.721583714
176.33050,1.195611675
176.33100,0.5852228597
176.33150,1.500806083
176.33200,4.247555752
176.33250,9.130666275
176.33300,10.96183272
176.33350,5.163138975
176.33400,-6.434248517
176.33450,-16.20046956
176.33500,-18.64202483
176.33550,-15.89527516
176.33600,-13.7589143
176.33650,-13.7589143
176.33700,-14.36930312
176.33750,-14.97969193
176.33800,-15.59008075
176.33850,-17.11605279
176.33900,-18.33683042
176.33950,-18.64202483
176.34000,-17.42124719
176.34050,-15.59008075
176.34100,-12.84333108
176.34150,-9.486192594
176.34200,-5.518665294
176.34250,-0.9407491788
176.34300,3.026778121
176.34350,5.468333383
176.34400,4.55275016
176.34450,1.195611675
176.34500,-0.6355547711
176.34550,-0.02516595566
176.34600,4.247555752
176.34650,8.215083052
176.34700,10.35144391
176.34750,10.65663831
176.34800,10.96183272
176.34850,11.87741594
176.34900,12.48780476
176.34950,12.79299917
176.35000,14.31897121
176.35050,18.89688732
176.35100,24.69558107
176.35150,25.61116429
176.35200,18.89688732
176.35250,7.909888645
176.35300,-0.3303603634
176.35350,-3.687498848
176.35400,-3.687498848
176.35450,-4.908276479
176.35500,-9.180998187
176.35550,-16.81085838
176.35600,-25.05110739
176.35650,-30.23941232
176.35700,-29.93421791
176.35750,-25.05110739
176.35800,-19.25241364
176.35850,-15.89527516
176.35900,-14.67449753
176.35950,-14.36930312
176.36000,-14.06410871
176.36050,-14.06410871
176.36100,-12.53813667
176.36150,-10.40177582
176.36200,-7.960220556
176.36250,-5.823859702
176.36300,-3.38230444
176.36350,1.195611675
176.36400,8.215083052
176.36450,15.23455443
176.36500,18.28649851
176.36550,16.76052647
176.36600,14.0137768
176.36650,12.18261035
176.36700,10.65663831
176.36750,7.604694237
176.36800,3.942361344
176.36850,1.806000491
176.36900,0.280028452
176.36950,-2.16152681
176.37000,-4.603082071
176.37050,-2.771915625
176.37100,2.721583714
176.37150,5.773527791
176.37200,1.806000491
176.37250,-4.908276479
176.37300,-8.570609371
176.37350,-8.570609371
176.37400,-8.570609371
176.37450,-8.875803779
176.37500,-8.875803779
176.37550,-9.180998187
176.37600,-11.01216463
176.37650,-12.84333108
176.37700,-12.53813667
176.37750,-10.70697023
176.37800,-10.70697023
176.37850,-12.23294226
176.37900,-12.53813667
176.37950,-11.62255345
176.38000,-12.53813667
176.38050,-14.67449753
176.38100,-13.45371989
176.38150,-7.34983174
176.38200,-0.3303603634
176.38250,3.637166937
176.38300,5.468333383
176.38350,5.468333383
176.38400,2.721583714
176.38450,-1.245943586
176.38500,-3.687498848
176.38550,-2.466721217
176.38600,0.5852228597
176.38650,3.637166937
176.38700,7.909888645
176.38750,14.62416561
176.38800,20.72805377
176.38850,21.33844258
176.38900,17.37091528
176.38950,13.09819358
176.39000,12.79299917
176.39050,15.84494324
176.39100,19.81247054
176.39150,21.64363699
176.39200,18.89688732
176.39250,13.09819358
176.39300,9.130666275
176.39350,9.130666275
176.39400,10.0462495
176.39450,7.299499829
176.39500,3.026778121
176.39550,1.806000491
176.39600,3.942361344
176.39650,4.247555752
176.39700,-0.3303603634
176.39750,-6.12905411
176.39800,-7.044637333
176.39850,-4.297887663
176.39900,-2.771915625
176.39950,-4.297887663
176.40000,-6.12905411
176.40050,-6.12905411
176.40100,-6.434248517
176.40150,-9.180998187
176.40200,-11.92774786
176.40250,-11.01216463
176.40300,-5.213470887
176.40350,1.806000491
176.40400,7.909888645
176.40450,12.79299917
176.40500,17.37091528
176.40550,20.42285936
176.40600,18.89688732
176.40650,13.70858239
176.40700,9.435860683
176.40750,8.52027746
176.40800,9.130666275
176.40850,7.299499829
176.40900,4.247555752
176.40950,2.721583714
176.41000,4.55275016
176.41050,6.078722198
176.41100,5.773527791
176.41150,4.857944568
176.41200,5.468333383
176.41250,6.689111014
176.41300,7.299499829
176.41350,7.909888645
176.41400,9.741055091
176.41450,11.26702713
176.41500,9.130666275
176.41550,3.637166937
176.41600,-1.245943586
176.41650,-3.38230444
176.41700,-3.687498848
176.41750,-6.739442925
176.41800,-13.7589143
176.41850,-21.99916331
176.41900,-28.71344028
176.41950,-32.37577317
176.42000,-31.76538436
176.42050,-25.6614962
176.42100,-14.67449753
176.42150,-2.771915625
176.42200,7.299499829
176.42250,14.92936002
176.42300,20.11766495
176.42350,21.9488314
176.42400,20.42285936
176.42450,18.28649851
176.42500,17.67610969
176.42550,15.23455443
176.42600,6.994305421
176.42650,-4.297887663
176.42700,-13.7589143
176.42750,-18.33683042
176.42800,-19.86280246
176.42850,-17.42124719
176.42900,-9.180998187
176.42950,0.5852228597
176.43000,3.637166937
176.43050,-2.466721217
176.43100,-10.40177582
176.43150,-11.62255345
176.43200,-7.960220556
176.43250,-5.518665294
176.43300,-5.823859702
176.43350,-5.823859702
176.43400,-3.077110033
176.43450,-0.02516595566
176.43500,1.500806083
176.43550,2.111194898
176.43600,1.500806083
176.43650,0.8904172674
176.43700,0.5852228597
176.43750,1.500806083
176.43800,2.416389306
176.43850,1.806000491
176.43900,0.280028452
176.43950,-2.16152681
176.44000,-6.739442925
176.44050,-13.14852549
176.44100,-18.33683042
176.44150,-19.55760805
176.44200,-17.42124719
176.44250,-12.84333108
176.44300,-6.739442925
176.44350,-0.02516595566
176.44400,3.637166937
176.44450,2.721583714
176.44500,0.280028452
176.44550,2.111194898
176.44600,10.35144391
176.44650,20.11766495
176.44700,24.39038666
176.44750,21.33844258
176.44800,14.31897121
176.44850,8.825471868
176.44900,6.078722198
176.44950,6.078722198
176.45000,6.994305421
176.45050,6.994305421
176.45100,5.468333383
176.45150,3.942361344
176.45200,3.637166937
176.45250,3.331972529
176.45300,1.806000491
176.45350,-0.3303603634
176.45400,-2.771915625
176.45450,-4.908276479
176.45500,-8.265414964
176.45550,-11.62255345
176.45600,-12.23294226
176.45650,-10.09658141
176.45700,-8.570609371
176.45750,-9.180998187
176.45800,-10.70697023
176.45850,-10.70697023
176.45900,-10.40177582
176.45950,-9.486192594
176.46000,-7.960220556
176.46050,-4.908276479
176.46100,-2.16152681
176.46150,-0.6355547711
176.46200,-0.02516595566
176.46250,1.195611675
176.46300,1.806000491
176.46350,1.195611675
176.46400,1.195611675
176.46450,3.942361344
176.46500,7.299499829
176.46550,7.604694237
176.46600,4.55275016
176.46650,0.8904172674
176.46700,-0.6355547711
176.46750,-0.9407491788
176.46800,-0.02516595566
176.46850,1.500806083
176.46900,4.857944568
176.46950,8.825471868
176.47000,12.48780476
176.47050,14.31897121
176.47100,13.70858239
176.47150,10.65663831
176.47200,7.604694237
176.47250,6.383916606
176.47300,6.994305421
176.47350,7.604694237
176.47400,7.299499829
176.47450,5.773527791
176.47500,2.111194898
176.47550,-4.297887663
176.47600,-11.31735904
176.47650,-14.97969193
176.47700,-14.97969193
176.47750,-13.45371989
176.47800,-12.23294226
176.47850,-9.791387002
176.47900,-5.823859702
176.47950,-3.687498848
176.48000,-5.823859702
176.48050,-9.486192594
176.48100,-11.01216463
176.48150,-11.01216463
176.48200,-11.92774786
176.48250,-13.45371989
176.48300,-11.31735904
176.48350,-6.739442925
176.48400,-4.603082071
176.48450,-6.739442925
176.48500,-10.09658141
176.48550,-11.92774786
176.48600,-12.23294226
176.48650,-11.31735904
176.48700,-7.655026148
176.48750,-2.466721217
176.48800,-0.02516595566
176.48850,-0.02516595566
176.48900,1.500806083
176.48950,6.689111014
176.49000,11.57222154
176.49050,12.79299917
176.49100,12.48780476
176.49150,13.09819358
176.49200,14.31897121
176.49250,13.70858239
176.49300,13.09819358
176.49350,13.40338798
176.49400,11.57222154
176.49450,5.773527791
176.49500,-0.6355547711
176.49550,-4.297887663
176.49600,-5.213470887
176.49650,-6.12905411
176.49700,-6.434248517
176.49750,-4.908276479
176.49800,-4.297887663
176.49850,-7.044637333
176.49900,-11.92774786
176.49950,-13.7589143
176.50000,-11.62255345
176.50050,-9.180998187
176.50100,-8.265414964
176.50150,-7.044637333
176.50200,-4.297887663
176.50250,-0.6355547711
176.50300,2.416389306
176.50350,6.383916606
176.50400,9.741055091
176.50450,12.48780476
176.50500,14.62416561
176.50550,16.45533206
176.50600,17.06572088
176.50650,15.23455443
176.50700,12.79299917
176.50750,12.79299917
176.50800,16.15013765
176.50850,19.50727614
176.50900,20.42285936
176.50950,20.42285936
176.51000,21.9488314
176.51050,22.25402581
176.51100,17.67610969
176.51150,9.435860683
176.51200,3.637166937
176.51250,4.55275016
176.51300,7.909888645
176.51350,6.689111014
176.51400,1.195611675
176.51450,-3.38230444
176.51500,-5.823859702
176.51550,-10.09658141
176.51600,-18.94721923
176.51650,-29.01863469
176.51700,-34.81732843
176.51750,-36.64849488
176.51800,-36.95368929
176.51850,-36.64849488
176.51900,-34.20693962
176.51950,-31.46018995
176.52000,-29.01863469
176.52050,-25.35630179
176.52100,-18.33683042
176.52150,-10.40177582
176.52200,-5.213470887
176.52250,-3.077110033
176.52300,-0.3303603634
176.52350,2.111194898
176.52400,2.111194898
176.52450,0.8904172674
176.52500,3.026778121
176.52550,10.96183272
176.52600,21.64363699
176.52650,29.883886
176.52700,33.8514133
176.52750,35.37738534
176.52800,34.46180211
176.52850,31.10466363
176.52900,23.47480344
176.52950,12.18261035
176.53000,-0.3303603634
176.53050,-9.791387002
176.53100,-13.14852549
176.53150,-11.92774786
176.53200,-8.265414964
176.53250,-5.213470887
176.53300,-4.297887663
176.53350,-4.603082071
176.53400,-4.603082071
176.53450,-4.297887663
176.53500,-5.823859702
176.53550,-10.70697023
176.53600,-16.50566397
176.53650,-19.55760805
176.53700,-18.33683042
176.53750,-14.06410871
176.53800,-7.655026148
176.53850,0.8904172674
176.53900,10.0462495
176.53950,14.62416561
176.54000,14.0137768
176.54050,13.40338798
176.54100,14.92936002
176.54150,16.76052647
176.54200,14.92936002
176.54250,9.741055091
176.54300,3.026778121
176.54350,-4.603082071
176.54400,-10.70697023
176.54450,-10.70697023
176.54500,-2.771915625
176.54550,8.215083052
176.54600,17.06572088
176.54650,22.55922021
176.54700,26.22155311
176.54750,26.83194192
176.54800,22.86441462
176.54850,17.06572088
176.54900,13.70858239
176.54950,12.18261035
176.55000,8.825471868
176.55050,3.331972529
176.55100,-1.245943586
176.55150,-4.603082071
176.55200,-10.40177582
176.55250,-17.42124719
176.55300,-19.86280246
176.55350,-13.7589143
176.55400,-5.518665294
176.55450,-1.856332402
176.55500,-0.9407491788
176.55550,3.331972529
176.55600,9.130666275
176.55650,8.825471868
176.55700,0.280028452
176.55750,-7.655026148
176.55800,-8.570609371
176.55850,-4.908276479
176.55900,-3.687498848
176.55950,-7.655026148
176.56000,-13.45371989
176.56050,-16.81085838
176.56100,-18.33683042
176.56150,-18.64202483
176.56200,-17.7264416
176.56250,-14.67449753
176.56300,-8.875803779
176.56350,-2.16152681
176.56400,3.942361344
176.56450,8.825471868
176.56500,11.26702713
176.56550,13.09819358
176.56600,15.84494324
176.56650,19.81247054
176.56700,23.77999785
176.56750,25.61116429
176.56800,23.16960903
176.56850,17.37091528
176.56900,10.35144391
176.56950,3.331972529
176.57000,-1.856332402
176.57050,-3.687498848
176.57100,-1.245943586
176.57150,1.195611675
176.57200,0.8904172674
176.57250,-3.077110033
176.57300,-7.044637333
176.57350,-8.570609371
176.57400,-7.960220556
176.57450,-6.434248517
176.57500,-5.823859702
176.57550,-6.434248517
176.57600,-8.265414964
176.57650,-9.791387002
176.57700,-9.791387002
176.57750,-9.180998187
176.57800,-10.09658141
176.57850,-9.791387002
176.57900,-6.12905411
176.57950,-0.02516595566
176.58000,3.942361344
176.58050,3.026778121
176.58100,0.280028452
176.58150,-0.6355547711
176.58200,-2.16152681
176.58250,-4.603082071
176.58300,-6.12905411
176.58350,-4.297887663
176.58400,-0.02516595566
176.58450,3.637166937
176.58500,5.468333383
176.58550,5.773527791
176.58600,5.773527791
176.58650,5.163138975
176.58700,4.55275016
176.58750,4.55275016
176.58800,6.078722198
176.58850,8.215083052
176.58900,9.435860683
176.58950,9.130666275
176.59000,8.215083052
176.59050,8.52027746
176.59100,8.825471868
176.59150,8.52027746
176.59200,7.299499829
176.59250,6.383916606
176.59300,6.383916606
176.59350,6.383916606
176.59400,5.468333383
176.59450,4.55275016
176.59500,4.247555752
176.59550,3.942361344
176.59600,3.026778121
176.59650,1.806000491
176.59700,0.8904172674
176.59750,-0.6355547711
176.59800,-3.077110033
176.59850,-4.297887663
176.59900,-3.992693256
176.59950,-4.297887663
176.60000,-6.739442925
176.60050,-10.40177582
176.60100,-13.7589143
176.60150,-16.81085838
176.60200,-21.08358009
176.60250,-25.35630179
176.60300,-27.79785706
176.60350,-26.88227383
176.60400,-24.13552416
176.60450,-20.16799686
176.60500,-15.89527516
176.60550,-12.53813667
176.60600,-11.62255345
176.60650,-12.23294226
176.60700,-12.23294226
176.60750,-10.40177582
176.60800,-8.265414964
176.60850,-7.34983174
176.60900,-6.739442925
176.60950,-4.908276479
176.61000,-0.9407491788
176.61050,2.721583714
176.61100,5.468333383
176.61150,7.909888645
176.61200,11.26702713
176.61250,15.53974884
176.61300,19.20208173
176.61350,22.86441462
176.61400,28.35791396
176.61450,34.15660771
176.61500,35.68257975
176.61550,29.57869159
176.61600,19.20208173
176.61650,9.130666275
176.61700,0.8904172674
176.61750,-6.434248517
176.61800,-12.23294226
176.61850,-14.36930312
176.61900,-14.36930312
176.61950,-15.28488634
176.62000,-17.7264416
176.62050,-18.33683042
176.62100,-14.97969193
176.62150,-9.180998187
176.62200,-4.603082071
176.62250,-2.771915625
176.62300,-2.771915625
176.62350,-3.077110033
176.62400,-3.077110033
176.62450,-2.466721217
176.62500,-1.856332402
176.62550,-1.245943586
176.62600,0.8904172674
176.62650,4.857944568
176.62700,8.52027746
176.62750,9.130666275
176.62800,6.078722198
176.62850,0.280028452
176.62900,-5.823859702
176.62950,-10.70697023
176.63000,-11.62255345
176.63050,-7.655026148
176.63100,-2.16152681
176.63150,-0.3303603634
176.63200,-3.992693256
176.63250,-11.62255345
176.63300,-18.64202483
176.63350,-22.30435772
176.63400,-22.30435772
176.63450,-19.25241364
176.63500,-14.06410871
176.63550,-8.570609371
176.63600,-4.908276479
176.63650,-3.687498848
176.63700,-3.992693256
176.63750,-3.38230444
176.63800,-1.856332402
176.63850,-1.856332402
176.63900,-4.297887663
176.63950,-6.739442925
176.64000,-5.823859702
176.64050,-2.16152681
176.64100,0.5852228597
176.64150,0.8904172674
176.64200,0.8904172674
176.64250,3.942361344
176.64300,11.87741594
176.64350,21.9488314
176.64400,31.71505245
176.64450,36.90335738
176.64500,37.20855178
176.64550,35.68257975
176.64600,35.68257975
176.64650,36.29296856
176.64700,32.93583008
176.64750,22.86441462
176.64800,9.741055091
176.64850,0.5852228597
176.64900,-0.9407491788
176.64950,2.721583714
176.65000,8.52027746
176.65050,13.70858239
176.65100,17.9813041
176.65150,21.9488314
176.65200,24.08519225
176.65250,23.47480344
176.65300,20.42285936
176.65350,16.76052647
176.65400,13.70858239
176.65450,9.435860683
176.65500,1.806000491
176.65550,-6.739442925
176.65600,-12.23294226
176.65650,-12.84333108
176.65700,-11.92774786
176.65750,-13.7589143
176.65800,-18.64202483
176.65850,-22.91474653
176.65900,-23.83032976
176.65950,-22.30435772
176.66000,-21.99916331
176.66050,-24.44071857
176.66100,-27.49266265
176.66150,-27.18746824
176.66200,-22.91474653
176.66250,-17.11605279
176.66300,-10.40177582
176.66350,-1.551137994
176.66400,7.909888645
176.66450,14.31897121
176.66500,15.23455443
176.66550,12.18261035
176.66600,10.35144391
176.66650,10.35144391
176.66700,10.65663831
176.66750,10.35144391
176.66800,9.741055091
176.66850,8.215083052
176.66900,3.637166937
176.66950,-3.38230444
176.67000,-11.01216463
176.67050,-16.20046956
176.67100,-17.42124719
176.67150,-14.67449753
176.67200,-8.875803779
176.67250,-4.908276479
176.67300,-4.908276479
176.67350,-8.570609371
176.67400,-11.01216463
176.67450,-11.01216463
176.67500,-10.40177582
176.67550,-11.01216463
176.67600,-11.62255345
176.67650,-11.01216463
176.67700,-10.70697023
176.67750,-12.84333108
176.67800,-15.28488634
176.67850,-13.14852549
176.67900,-4.908276479
176.67950,2.721583714
176.68000,4.857944568
176.68050,1.806000491
176.68100,0.280028452
176.68150,2.416389306
176.68200,5.468333383
176.68250,5.773527791
176.68300,6.383916606
176.68350,9.741055091
176.68400,14.31897121
176.68450,15.53974884
176.68500,12.18261035
176.68550,9.130666275
176.68600,9.130666275
176.68650,11.26702713
176.68700,12.48780476
176.68750,12.48780476
176.68800,12.79299917
176.68850,12.79299917
176.68900,12.18261035
176.68950,10.65663831
176.69000,7.909888645
176.69050,3.942361344
176.69100,-0.6355547711
176.69150,-3.687498848
176.69200,-3.687498848
176.69250,-2.771915625
176.69300,-2.466721217
176.69350,-2.771915625
176.69400,-2.466721217
176.69450,-1.856332402
176.69500,-2.16152681
176.69550,-2.771915625
176.69600,-1.856332402
176.69650,-0.02516595566
176.69700,1.500806083
176.69750,1.195611675
176.69800,0.5852228597
176.69850,1.195611675
176.69900,1.500806083
176.69950,-0.3303603634
176.70000,-3.687498848
176.70050,-6.12905411
176.70100,-6.12905411
176.70150,-6.12905411
176.70200,-8.570609371
176.70250,-13.14852549
176.70300,-16.50566397
176.70350,-15.89527516
176.70400,-11.62255345
176.70450,-7.34983174
176.70500,-5.518665294
176.70550,-3.687498848
176.70600,1.195611675
176.70650,7.604694237
176.70700,10.0462495
176.70750,6.994305421
176.70800,3.637166937
176.70850,6.383916606
176.70900,13.09819358
176.70950,16.45533206
176.71000,13.40338798
176.71050,7.604694237
176.71100,3.331972529
176.71150,0.8904172674
176.71200,-2.16152681
176.71250,-6.739442925
176.71300,-9.791387002
176.71350,-8.875803779
176.71400,-5.518665294
176.71450,-2.466721217
176.71500,-0.3303603634
176.71550,1.195611675
176.71600,2.721583714
176.71650,2.721583714
176.71700,0.8904172674
176.71750,-0.9407491788
176.71800,-2.16152681
176.71850,-3.38230444
176.71900,-5.518665294
176.71950,-7.655026148
176.72000,-8.875803779
176.72050,-10.70697023
176.72100,-15.28488634
176.72150,-19.55760805
176.72200,-19.55760805
176.72250,-16.20046956
176.72300,-15.89527516
176.72350,-21.08358009
176.72400,-26.88227383
176.72450,-27.79785706
176.72500,-23.52513535
176.72550,-18.33683042
176.72600,-13.45371989
176.72650,-8.570609371
176.72700,-3.077110033
176.72750,1.806000491
176.72800,6.383916606
176.72850,11.87741594
176.72900,19.50727614
176.72950,30.49427481
176.73000,42.39685671
176.73050,50.63710572
176.73100,50.33191132
176.73150,43.31243994
176.73200,35.68257975
176.73250,31.40985804
176.73300,28.66310837
176.73350,24.08519225
176.73400,17.37091528
176.73450,10.65663831
176.73500,3.331972529
176.73550,-3.992693256
176.73600,-9.486192594
176.73650,-11.31735904
176.73700,-10.40177582
176.73750,-10.70697023
176.73800,-14.67449753
176.73850,-21.08358009
176.73900,-25.35630179
176.73950,-25.6614962
176.74000,-21.6939689
176.74050,-17.11605279
176.74100,-15.59008075
176.74150,-18.03163601
176.74200,-21.6939689
176.74250,-22.60955213
176.74300,-20.16799686
176.74350,-16.50566397
176.74400,-13.14852549
176.74450,-8.570609371
176.74500,-1.856332402
176.74550,4.857944568
176.74600,9.130666275
176.74650,11.26702713
176.74700,13.40338798
176.74750,16.76052647
176.74800,18.28649851
176.74850,15.53974884
176.74900,10.96183272
176.74950,7.909888645
176.75000,6.383916606
176.75050,4.857944568
176.75100,3.637166937
176.75150,3.942361344
176.75200,3.942361344
176.75250,1.500806083
176.75300,-3.077110033
176.75350,-6.434248517
176.75400,-6.434248517
176.75450,-3.38230444
176.75500,0.5852228597
176.75550,4.55275016
176.75600,7.299499829
176.75650,10.65663831
176.75700,15.84494324
176.75750,21.33844258
176.75800,22.55922021
176.75850,18.59169291
176.75900,13.09819358
176.75950,10.0462495
176.76000,9.435860683
176.76050,8.52027746
176.76100,5.773527791
176.76150,-0.02516595566
176.76200,-10.40177582
176.76250,-22.30435772
176.76300,-27.79785706
176.76350,-22.91474653
176.76400,-13.14852549
176.76450,-6.739442925
176.76500,-4.908276479
176.76550,-1.245943586
176.76600,6.383916606
176.76650,14.92936002
176.76700,19.50727614
176.76750,20.42285936
176.76800,19.50727614
176.76850,19.50727614
176.76900,19.81247054
176.76950,20.11766495
176.77000,20.11766495
176.77050,19.20208173
176.77100,17.67610969
176.77150,15.84494324
176.77200,12.18261035
176.77250,6.994305421
176.77300,1.500806083
176.77350,-2.466721217
176.77400,-4.908276479
176.77450,-6.12905411
176.77500,-5.823859702
176.77550,-5.213470887
176.77600,-5.823859702
176.77650,-8.265414964
176.77700,-9.486192594
176.77750,-7.34983174
176.77800,-4.297887663
176.77850,-2.771915625
176.77900,-3.077110033
176.77950,-2.771915625
176.78000,-2.466721217
176.78050,-3.687498848
176.78100,-6.12905411
176.78150,-6.12905411
176.78200,-2.466721217
176.78250,0.5852228597
176.78300,-0.02516595566
176.78350,-1.245943586
176.78400,1.806000491
176.78450,9.435860683
176.78500,14.0137768
176.78550,10.35144391
176.78600,2.416389306
176.78650,-0.6355547711
176.78700,0.8904172674
176.78750,3.026778121
176.78800,0.5852228597
176.78850,-3.687498848
176.78900,-6.739442925
176.78950,-6.434248517
176.79000,-4.297887663
176.79050,-1.551137994
176.79100,0.280028452
176.79150,0.5852228597
176.79200,-0.6355547711
176.79250,-3.077110033
176.79300,-5.518665294
176.79350,-9.791387002
176.79400,-15.59008075
176.79450,-19.25241364
176.79500,-18.94721923
176.79550,-16.81085838
176.79600,-16.50566397
176.79650,-18.33683042
176.79700,-19.25241364
176.79750,-17.7264416
176.79800,-15.59008075
176.79850,-15.28488634
176.79900,-16.81085838
176.79950,-17.7264416
176.80000,-16.50566397
176.80050,-13.14852549
176.80100,-9.486192594
176.80150,-7.655026148
176.80200,-7.960220556
176.80250,-8.570609371
176.80300,-7.960220556
176.80350,-7.044637333
176.80400,-6.434248517
176.80450,-4.603082071
176.80500,1.806000491
176.80550,10.96183272
176.80600,17.67610969
176.80650,18.59169291
176.80700,15.53974884
176.80750,12.48780476
176.80800,10.65663831
176.80850,7.604694237
176.80900,3.942361344
176.80950,2.416389306
176.81000,4.857944568
176.81050,8.215083052
176.81100,9.435860683
176.81150,8.215083052
176.81200,6.383916606
176.81250,3.942361344
176.81300,0.8904172674
176.81350,-0.6355547711
176.81400,0.280028452
176.81450,3.331972529
176.81500,3.026778121
176.81550,-2.466721217
176.81600,-9.791387002
176.81650,-13.7589143
176.81700,-13.45371989
176.81750,-11.62255345
176.81800,-10.09658141
176.81850,-8.265414964
176.81900,-6.12905411
176.81950,-5.823859702
176.82000,-6.434248517
176.82050,-7.044637333
176.82100,-7.655026148
176.82150,-10.70697023
176.82200,-15.59008075
176.82250,-18.33683042
176.82300,-15.59008075
176.82350,-10.40177582
176.82400,-7.044637333
176.82450,-7.655026148
176.82500,-8.875803779
176.82550,-7.34983174
176.82600,-3.992693256
176.82650,-0.6355547711
176.82700,1.500806083
176.82750,3.942361344
176.82800,7.909888645
176.82850,12.79299917
176.82900,17.9813041
176.82950,21.33844258
176.83000,21.33844258
176.83050,18.59169291
176.83100,15.53974884
176.83150,14.31897121
176.83200,15.23455443
176.83250,15.23455443
176.83300,14.31897121
176.83350,14.31897121
176.83400,16.15013765
176.83450,18.28649851
176.83500,17.06572088
176.83550,11.57222154
176.83600,2.416389306
176.83650,-7.655026148
176.83700,-16.81085838
176.83750,-22.60955213
176.83800,-23.21994094
176.83850,-19.86280246
176.83900,-15.89527516
176.83950,-13.14852549
176.84000,-11.62255345
176.84050,-9.791387002
176.84100,-7.655026148
176.84150,-6.739442925
176.84200,-7.960220556
176.84250,-10.40177582
176.84300,-12.84333108
176.84350,-14.36930312
176.84400,-13.7589143
176.84450,-9.486192594
176.84500,-0.9407491788
176.84550,8.215083052
176.84600,14.92936002
176.84650,17.9813041
176.84700,20.42285936
176.84750,23.16960903
176.84800,25.00077548
176.84850,24.08519225
176.84900,22.86441462
176.84950,22.55922021
176.85000,20.42285936
176.85050,13.40338798
176.85100,3.331972529
176.85150,-4.297887663
176.85200,-8.265414964
176.85250,-9.486192594
176.85300,-9.180998187
176.85350,-7.960220556
176.85400,-6.12905411
176.85450,-4.908276479
176.85500,-3.992693256
176.85550,-2.466721217
176.85600,-0.02516595566
176.85650,1.500806083
176.85700,-0.02516595566
176.85750,-3.687498848
176.85800,-5.823859702
176.85850,-5.518665294
176.85900,-2.771915625
176.85950,2.416389306
176.86000,11.57222154
176.86050,21.03324818
176.86100,25.9163587
176.86150,25.00077548
176.86200,22.86441462
176.86250,23.77999785
176.86300,25.30596988
176.86350,21.64363699
176.86400,11.57222154
176.86450,-0.02516595566
176.86500,-7.34983174
176.86550,-8.875803779
176.86600,-4.908276479
176.86650,1.806000491
176.86700,8.825471868
176.86750,12.18261035
176.86800,12.18261035
176.86850,12.79299917
176.86900,16.45533206
176.86950,20.72805377
176.87000,20.11766495
176.87050,13.70858239
176.87100,6.078722198
176.87150,2.721583714
176.87200,4.247555752
176.87250,7.299499829
176.87300,9.741055091
176.87350,10.65663831
176.87400,10.65663831
176.87450,7.909888645
176.87500,1.806000491
176.87550,-5.823859702
176.87600,-12.53813667
176.87650,-16.81085838
176.87700,-19.86280246
176.87750,-21.6939689
176.87800,-22.60955213
176.87850,-22.91474653
176.87900,-23.83032976
176.87950,-27.49266265
176.88000,-31.76538436
176.88050,-33.2913564
176.88100,-32.37577317
176.88150,-30.84980113
176.88200,-30.23941232
176.88250,-28.10305146
176.88300,-21.6939689
176.88350,-12.23294226
176.88400,-4.297887663
176.88450,-1.245943586
176.88500,-1.551137994
176.88550,-3.077110033
176.88600,-3.687498848
176.88650,-2.466721217
176.88700,-0.02516595566
176.88750,2.721583714
176.88800,6.078722198
176.88850,10.35144391
176.88900,15.53974884
176.88950,19.81247054
176.89000,19.81247054
176.89050,15.23455443
176.89100,8.825471868
176.89150,4.247555752
176.89200,2.111194898
176.89250,0.8904172674
176.89300,0.5852228597
176.89350,0.280028452
176.89400,-1.245943586
176.89450,-3.992693256
176.89500,-6.739442925
176.89550,-8.265414964
176.89600,-10.09658141
176.89650,-13.45371989
176.89700,-15.28488634
176.89750,-11.62255345
176.89800,-4.297887663
176.89850,-0.02516595566
176.89900,-0.3303603634
176.89950,-1.551137994
176.90000,0.5852228597
176.90050,5.468333383
176.90100,6.689111014
176.90150,4.55275016
176.90200,3.942361344
176.90250,8.215083052
176.90300,12.18261035
176.90350,7.604694237
176.90400,-4.603082071
176.90450,-16.50566397
176.90500,-21.38877449
176.90550,-19.86280246
176.90600,-16.20046956
176.90650,-10.70697023
176.90700,-1.551137994
176.90750,9.741055091
176.90800,18.89688732
176.90850,21.03324818
176.90900,17.06572088
176.90950,12.48780476
176.91000,10.96183272
176.91050,11.57222154
176.91100,12.48780476
176.91150,12.79299917
176.91200,13.40338798
176.91250,15.23455443
176.91300,16.76052647
176.91350,14.92936002
176.91400,10.65663831
176.91450,6.689111014
176.91500,4.247555752
176.91550,1.806000491
176.91600,-1.551137994
176.91650,-4.297887663
176.91700,-3.992693256
176.91750,-1.856332402
176.91800,-0.9407491788
176.91850,-1.856332402
176.91900,-3.687498848
176.91950,-4.908276479
176.92000,-5.823859702
176.92050,-6.739442925
176.92100,-7.34983174
176.92150,-7.044637333
176.92200,-6.739442925
176.92250,-5.213470887
176.92300,-2.466721217
176.92350,-0.3303603634
176.92400,-0.02516595566
176.92450,-0.02516595566
176.92500,3.026778121
176.92550,7.909888645
176.92600,12.18261035
176.92650,13.70858239
176.92700,13.09819358
176.92750,9.741055091
176.92800,3.331972529
176.92850,-3.38230444
176.92900,-6.12905411
176.92950,-4.603082071
176.93000,-2.771915625
176.93050,-3.992693256
176.93100,-5.823859702
176.93150,-5.213470887
176.93200,-2.771915625
176.93250,-1.856332402
176.93300,-4.297887663
176.93350,-8.875803779
176.93400,-12.84333108
176.93450,-15.59008075
176.93500,-15.89527516
176.93550,-15.28488634
176.93600,-14.97969193
176.93650,-15.89527516
176.93700,-15.28488634
176.93750,-11.62255345
176.93800,-6.12905411
176.93850,-2.771915625
176.93900,-3.077110033
176.93950,-5.213470887
176.94000,-5.518665294
176.94050,-3.687498848
176.94100,-0.3303603634
176.94150,2.721583714
176.94200,3.637166937
176.94250,1.806000491
176.94300,-0.9407491788
176.94350,-2.771915625
176.94400,-3.38230444
176.94450,-3.687498848
176.94500,-1.856332402
176.94550,3.026778121
176.94600,9.130666275
176.94650,11.26702713
176.94700,10.35144391
176.94750,10.35144391
176.94800,12.18261035
176.94850,10.35144391
176.94900,3.026778121
176.94950,-3.992693256
176.95000,-7.960220556
176.95050,-12.23294226
176.95100,-18.94721923
176.95150,-21.6939689
176.95200,-15.59008075
176.95250,-5.518665294
176.95300,-0.9407491788
176.95350,-1.245943586
176.95400,0.8904172674
176.95450,7.299499829
176.95500,10.96183272
176.95550,7.299499829
176.95600,-0.02516595566
176.95650,-6.739442925
176.95700,-10.70697023
176.95750,-11.31735904
176.95800,-8.570609371
176.95850,-5.213470887
176.95900,-2.466721217
176.95950,2.111194898
176.96000,11.26702713
176.96050,20.11766495
176.96100,25.30596988
176.96150,27.74752515
176.96200,31.71505245
176.96250,34.46180211
176.96300,30.79946922
176.96350,21.9488314
176.96400,14.92936002
176.96450,12.79299917
176.96500,11.26702713
176.96550,6.689111014
176.96600,1.500806083
176.96650,0.5852228597
176.96700,3.637166937
176.96750,7.299499829
176.96800,8.825471868
176.96850,8.825471868
176.96900,9.435860683
176.96950,10.65663831
176.97000,10.96183272
176.97050,8.52027746
176.97100,4.857944568
176.97150,2.416389306
176.97200,2.111194898
176.97250,1.806000491
176.97300,-0.6355547711
176.97350,-5.518665294
176.97400,-12.84333108
176.97450,-21.6939689
176.97500,-28.71344028
176.97550,-30.54460673
176.97600,-27.18746824
176.97650,-22.60955213
176.97700,-20.47319127
176.97750,-19.55760805
176.97800,-17.11605279
176.97850,-13.45371989
176.97900,-11.62255345
176.97950,-13.14852549
176.98000,-16.50566397
176.98050,-18.64202483
176.98100,-18.03163601
176.98150,-14.67449753
176.98200,-10.40177582
176.98250,-6.434248517
176.98300,-2.16152681
176.98350,1.806000491
176.98400,3.942361344
176.98450,1.806000491
176.98500,0.5852228597
176.98550,4.857944568
176.98600,13.09819358
176.98650,17.06572088
176.98700,12.48780476
176.98750,6.994305421
176.98800,8.52027746
176.98850,16.45533206
176.98900,22.86441462
176.98950,23.16960903
176.99000,19.81247054
176.99050,14.62416561
176.99100,8.52027746
176.99150,1.806000491
176.99200,-2.16152681
176.99250,-3.38230444
176.99300,-4.603082071
176.99350,-7.044637333
176.99400,-8.570609371
176.99450,-7.34983174
176.99500,-5.213470887
176.99550,-5.213470887
176.99600,-7.044637333
176.99650,-9.486192594
176.99700,-11.92774786
176.99750,-15.28488634
176.99800,-16.20046956
176.99850,-11.01216463
176.99900,-1.551137994
176.99950,5.468333383
177.00000,5.468333383
177.00050,0.5852228597
177.00100,-4.603082071
177.00150,-6.739442925
177.00200,-5.213470887
177.00250,-0.9407491788
177.00300,4.247555752
177.00350,9.130666275
177.00400,11.87741594
177.00450,12.48780476
177.00500,12.48780476
177.00550,12.48780476
177.00600,13.40338798
177.00650,14.62416561
177.00700,15.84494324
177.00750,16.45533206
177.00800,16.15013765
177.00850,14.92936002
177.00900,12.79299917
177.00950,10.35144391
177.01000,6.689111014
177.01050,1.195611675
177.01100,-5.213470887
177.01150,-9.486192594
177.01200,-8.875803779
177.01250,-4.297887663
177.01300,-0.02516595566
177.01350,1.500806083
177.01400,2.416389306
177.01450,3.637166937
177.01500,4.55275016
177.01550,3.331972529
177.01600,1.195611675
177.01650,-0.6355547711
177.01700,-3.687498848
177.01750,-7.34983174
177.01800,-10.40177582
177.01850,-11.62255345
177.01900,-11.01216463
177.01950,-9.791387002
177.02000,-7.960220556
177.02050,-7.34983174
177.02100,-7.655026148
177.02150,-9.180998187
177.02200,-10.09658141
177.02250,-9.486192594
177.02300,-5.518665294
177.02350,0.8904172674
177.02400,6.994305421
177.02450,8.215083052
177.02500,3.637166937
177.02550,-0.9407491788
177.02600,-3.38230444
177.02650,-4.297887663
177.02700,-4.603082071
177.02750,-1.856332402
177.02800,4.55275016
177.02850,7.604694237
177.02900,1.195611675
177.02950,-9.486192594
177.03000,-14.36930312
177.03050,-11.01216463
177.03100,-5.518665294
177.03150,-2.466721217
177.03200,-0.3303603634
177.03250,1.500806083
177.03300,0.5852228597
177.03350,-1.551137994
177.03400,-1.551137994
177.03450,0.280028452
177.03500,-0.02516595566
177.03550,-5.823859702
177.03600,-11.01216463
177.03650,-11.31735904
177.03700,-8.875803779
177.03750,-7.044637333
177.03800,-6.12905411
177.03850,-6.12905411
177.03900,-7.044637333
177.03950,-6.739442925
177.04000,-2.466721217
177.04050,2.416389306
177.04100,2.416389306
177.04150,-3.077110033
177.04200,-8.265414964
177.04250,-8.265414964
177.04300,-3.992693256
177.04350,1.806000491
177.04400,10.35144391
177.04450,19.20208173
177.04500,23.47480344
177.04550,21.64363699
177.04600,18.59169291
177.04650,17.37091528
177.04700,15.84494324
177.04750,10.35144391
177.04800,3.637166937
177.04850,1.195611675
177.04900,3.637166937
177.04950,7.299499829
177.05000,10.0462495
177.05050,12.18261035
177.05100,13.40338798
177.05150,12.18261035
177.05200,9.741055091
177.05250,8.825471868
177.05300,10.96183272
177.05350,11.87741594
177.05400,9.435860683
177.05450,4.55275016
177.05500,1.195611675
177.05550,1.195611675
177.05600,1.500806083
177.05650,-0.3303603634
177.05700,-3.992693256
177.05750,-6.12905411
177.05800,-5.823859702
177.05850,-6.12905411
177.05900,-9.791387002
177.05950,-15.59008075
177.06000,-20.47319127
177.06050,-22.91474653
177.06100,-23.21994094
177.06150,-22.91474653
177.06200,-22.60955213
177.06250,-22.91474653
177.06300,-24.44071857
177.06350,-24.44071857
177.06400,-20.16799686
177.06450,-12.53813667
177.06500,-6.12905411
177.06550,-3.687498848
177.06600,-3.077110033
177.06650,-0.9407491788
177.06700,2.721583714
177.06750,5.468333383
177.06800,6.078722198
177.06850,6.689111014
177.06900,9.435860683
177.06950,13.40338798
177.07000,17.06572088
177.07050,21.9488314
177.07100,28.05271955
177.07150,33.24102448
177.07200,35.68257975
177.07250,35.68257975
177.07300,34.46180211
177.07350,29.883886
177.07400,20.42285936
177.07450,7.909888645
177.07500,-0.3303603634
177.07550,-3.077110033
177.07600,-3.38230444
177.07650,-5.518665294
177.07700,-7.044637333
177.07750,-5.823859702
177.07800,-4.297887663
177.07850,-6.739442925
177.07900,-10.70697023
177.07950,-10.70697023
177.08000,-4.908276479
177.08050,0.5852228597
177.08100,2.416389306
177.08150,3.026778121
177.08200,6.078722198
177.08250,10.65663831
177.08300,10.35144391
177.08350,2.721583714
177.08400,-5.823859702
177.08450,-9.180998187
177.08500,-7.34983174
177.08550,-7.044637333
177.08600,-12.53813667
177.08650,-19.55760805
177.08700,-19.86280246
177.08750,-12.53813667
177.08800,-3.992693256
177.08850,-1.856332402
177.08900,-6.12905411
177.08950,-13.14852549
177.09000,-19.25241364
177.09050,-21.6939689
177.09100,-19.25241364
177.09150,-13.14852549
177.09200,-7.044637333
177.09250,-4.297887663
177.09300,-4.908276479
177.09350,-5.823859702
177.09400,-7.044637333
177.09450,-9.486192594
177.09500,-11.62255345
177.09550,-11.01216463
177.09600,-7.34983174
177.09650,-3.992693256
177.09700,-3.687498848
177.09750,-4.908276479
177.09800,-4.603082071
177.09850,-2.16152681
177.09900,-0.9407491788
177.09950,-2.16152681
177.10000,-4.297887663
177.10050,-4.908276479
177.10100,-3.687498848
177.10150,-2.771915625
177.10200,-2.16152681
177.10250,-1.551137994
177.10300,0.8904172674
177.10350,4.55275016
177.10400,7.909888645
177.10450,10.35144391
177.10500,12.18261035
177.10550,11.57222154
177.10600,7.909888645
177.10650,3.637166937
177.10700,3.637166937
177.10750,8.52027746
177.10800,14.92936002
177.10850,18.59169291
177.10900,18.89688732
177.10950,16.15013765
177.11000,11.57222154
177.11050,6.994305421
177.11100,5.163138975
177.11150,7.604694237
177.11200,12.48780476
177.11250,16.45533206
177.11300,18.89688732
177.11350,20.72805377
177.11400,22.55922021
177.11450,23.47480344
177.11500,22.86441462
177.11550,22.55922021
177.11600,23.47480344
177.11650,24.39038666
177.11700,22.25402581
177.11750,17.9813041
177.11800,13.40338798
177.11850,9.435860683
177.11900,3.026778121
177.11950,-6.12905411
177.12000,-15.28488634
177.12050,-19.86280246
177.12100,-21.38877449
177.12150,-23.52513535
177.12200,-27.18746824
177.12250,-29.6290235
177.12300,-31.46018995
177.12350,-33.2913564
177.12400,-33.2913564
177.12450,-28.10305146
177.12500,-20.16799686
177.12550,-13.14852549
177.12600,-8.265414964
177.12650,-1.856332402
177.12700,4.857944568
177.12750,6.689111014
177.12800,1.195611675
177.12850,-4.908276479
177.12900,-5.823859702
177.12950,-1.245943586
177.13000,3.331972529
177.13050,7.299499829
177.13100,10.35144391
177.13150,11.87741594
177.13200,10.96183272
177.13250,9.741055091
177.13300,9.435860683
177.13350,7.299499829
177.13400,2.416389306
177.13450,-2.16152681
177.13500,-3.38230444
177.13550,-3.38230444
177.13600,-5.518665294
177.13650,-8.570609371
177.13700,-7.960220556
177.13750,-4.297887663
177.13800,-3.38230444
177.13850,-8.875803779
177.13900,-17.11605279
177.13950,-22.91474653
177.14000,-22.91474653
177.14050,-15.89527516
177.14100,-4.603082071
177.14150,5.773527791
177.14200,10.35144391
177.14250,8.825471868
177.14300,5.468333383
177.14350,4.857944568
177.14400,7.299499829
177.14450,11.26702713
177.14500,15.23455443
177.14550,17.37091528
177.14600,16.45533206
177.14650,12.79299917
177.14700,9.741055091
177.14750,9.435860683
177.14800,10.0462495
177.14850,10.35144391
177.14900,10.65663831
177.14950,12.18261035
177.15000,14.0137768
177.15050,14.62416561
177.15100,15.53974884
177.15150,17.67610969
177.15200,17.9813041
177.15250,12.79299917
177.15300,2.721583714
177.15350,-6.739442925
177.15400,-12.23294226
177.15450,-13.45371989
177.15500,-13.45371989
177.15550,-14.06410871
177.15600,-15.59008075
177.15650,-16.81085838
177.15700,-17.11605279
177.15750,-16.81085838
177.15800,-16.50566397
177.15850,-15.59008075
177.15900,-14.36930312
177.15950,-13.14852549
177.16000,-12.23294226
177.16050,-10.70697023
177.16100,-7.655026148
177.16150,-4.603082071
177.16200,-2.771915625
177.16250,-0.6355547711
177.16300,4.55275016
177.16350,11.87741594
177.16400,17.37091528
177.16450,19.20208173
177.16500,19.20208173
177.16550,20.42285936
177.16600,20.72805377
177.16650,17.9813041
177.16700,11.57222154
177.16750,3.331972529
177.16800,-6.434248517
177.16850,-16.81085838
177.16900,-23.52513535
177.16950,-21.99916331
177.17000,-13.45371989
177.17050,-4.297887663
177.17100,1.195611675
177.17150,3.942361344
177.17200,6.078722198
177.17250,7.299499829
177.17300,4.55275016
177.17350,-0.9407491788
177.17400,-5.823859702
177.17450,-8.265414964
177.17500,-8.570609371
177.17550,-9.791387002
177.17600,-11.01216463
177.17650,-11.62255345
177.17700,-11.92774786
177.17750,-11.62255345
177.17800,-9.486192594
177.17850,-4.908276479
177.17900,-1.856332402
177.17950,-3.687498848
177.18000,-8.265414964
177.18050,-10.09658141
177.18100,-6.12905411
177.18150,-0.3303603634
177.18200,2.721583714
177.18250,4.247555752
177.18300,6.689111014
177.18350,8.52027746
177.18400,7.299499829
177.18450,2.721583714
177.18500,-0.02516595566
177.18550,0.280028452
177.18600,2.721583714
177.18650,4.247555752
177.18700,4.55275016
177.18750,4.857944568
177.18800,4.857944568
177.18850,4.55275016
177.18900,3.942361344
177.18950,3.637166937
177.19000,3.026778121
177.19050,1.195611675
177.19100,-1.551137994
177.19150,-4.603082071
177.19200,-5.518665294
177.19250,-3.687498848
177.19300,-0.6355547711
177.19350,-0.02516595566
177.19400,-1.856332402
177.19450,-5.213470887
177.19500,-7.34983174
177.19550,-7.960220556
177.19600,-7.34983174
177.19650,-6.12905411
177.19700,-4.297887663
177.19750,-3.077110033
177.19800,-3.38230444
177.19850,-6.739442925
177.19900,-11.62255345
177.19950,-16.50566397
177.20000,-17.42124719
177.20050,-13.14852549
177.20100,-6.739442925
177.20150,-3.077110033
177.20200,-4.297887663
177.20250,-7.044637333
177.20300,-7.34983174
177.20350,-4.603082071
177.20400,0.280028452
177.20450,6.689111014
177.20500,12.48780476
177.20550,15.53974884
177.20600,15.53974884
177.20650,14.92936002
177.20700,14.92936002
177.20750,13.09819358
177.20800,9.130666275
177.20850,5.163138975
177.20900,1.806000491
177.20950,-2.16152681
177.21000,-7.34983174
177.21050,-9.791387002
177.21100,-8.265414964
177.21150,-7.655026148
177.21200,-11.62255345
177.21250,-17.42124719
177.21300,-19.25241364
177.21350,-17.7264416
177.21400,-15.28488634
177.21450,-10.40177582
177.21500,-0.02516595566
177.21550,13.09819358
177.21600,21.64363699
177.21650,24.39038666
177.21700,26.83194192
177.21750,32.63063567
177.21800,37.51374619
177.21850,38.12413501
177.21900,36.29296856
177.21950,35.07219093
177.22000,30.79946922
177.22050,18.28649851
177.22100,-0.02516595566
177.22150,-14.97969193
177.22200,-19.86280246
177.22250,-19.25241364
177.22300,-19.55760805
177.22350,-19.86280246
177.22400,-14.67449753
177.22450,-3.687498848
177.22500,6.994305421
177.22550,14.31897121
177.22600,18.89688732
177.22650,21.64363699
177.22700,21.64363699
177.22750,19.81247054
177.22800,17.67610969
177.22850,17.06572088
177.22900,15.53974884
177.22950,12.48780476
177.23000,9.741055091
177.23050,8.52027746
177.23100,6.078722198
177.23150,0.8904172674
177.23200,-3.38230444
177.23250,-3.992693256
177.23300,-2.771915625
177.23350,-1.551137994
177.23400,-0.3303603634
177.23450,0.8904172674
177.23500,0.8904172674
177.23550,-2.16152681
177.23600,-6.739442925
177.23650,-9.180998187
177.23700,-10.70697023
177.23750,-13.45371989
177.23800,-15.59008075
177.23850,-12.84333108
177.23900,-5.213470887
177.23950,0.5852228597
177.24000,0.8904172674
177.24050,-1.551137994
177.24100,-4.297887663
177.24150,-5.213470887
177.24200,-5.518665294
177.24250,-6.739442925
177.24300,-9.791387002
177.24350,-13.45371989
177.24400,-15.28488634
177.24450,-14.67449753
177.24500,-13.45371989
177.24550,-14.06410871
177.24600,-15.59008075
177.24650,-16.20046956
177.24700,-15.28488634
177.24750,-14.97969193
177.24800,-15.28488634
177.24850,-13.7589143
177.24900,-9.486192594
177.24950,-6.12905411
177.25000,-6.12905411
177.25050,-7.960220556
177.25100,-7.655026148
177.25150,-4.297887663
177.25200,0.5852228597
177.25250,6.383916606
177.25300,12.79299917
177.25350,19.81247054
177.25400,27.13713633
177.25450,32.93583008
177.25500,35.07219093
177.25550,33.24102448
177.25600,30.18908041
177.25650,28.05271955
177.25700,26.22155311
177.25750,20.72805377
177.25800,8.825471868
177.25850,-5.518665294
177.25900,-16.81085838
177.25950,-20.47319127
177.26000,-18.64202483
177.26050,-14.97969193
177.26100,-12.84333108
177.26150,-12.23294226
177.26200,-12.53813667
177.26250,-12.84333108
177.26300,-11.62255345
177.26350,-8.875803779
177.26400,-6.434248517
177.26450,-4.908276479
177.26500,-3.077110033
177.26550,1.500806083
177.26600,8.215083052
177.26650,11.87741594
177.26700,9.435860683
177.26750,3.942361344
177.26800,1.195611675
177.26850,1.806000491
177.26900,3.331972529
177.26950,2.721583714
177.27000,1.195611675
177.27050,0.280028452
177.27100,-1.245943586
177.27150,-4.603082071
177.27200,-9.486192594
177.27250,-13.7589143
177.27300,-16.50566397
177.27350,-16.81085838
177.27400,-15.59008075
177.27450,-13.7589143
177.27500,-11.31735904
177.27550,-8.265414964
177.27600,-4.297887663
177.27650,-0.6355547711
177.27700,0.280028452
177.27750,-0.02516595566
177.27800,-1.245943586
177.27850,-0.6355547711
177.27900,0.5852228597
177.27950,0.5852228597
177.28000,-0.3303603634
177.28050,-0.3303603634
177.28100,1.500806083
177.28150,4.857944568
177.28200,7.604694237
177.28250,7.299499829
177.28300,4.55275016
177.28350,3.026778121
177.28400,5.773527791
177.28450,11.57222154
177.28500,14.0137768
177.28550,9.741055091
177.28600,0.8904172674
177.28650,-4.603082071
177.28700,-4.603082071
177.28750,-2.466721217
177.28800,-0.6355547711
177.28850,0.8904172674
177.28900,2.416389306
177.28950,1.195611675
177.29000,-2.771915625
177.29050,-6.434248517
177.29100,-4.908276479
177.29150,0.280028452
177.29200,4.247555752
177.29250,4.247555752
177.29300,3.026778121
177.29350,2.416389306
177.29400,0.8904172674
177.29450,-3.077110033
177.29500,-9.486192594
177.29550,-13.7589143
177.29600,-13.45371989
177.29650,-9.486192594
177.29700,-6.12905411
177.29750,-5.823859702
177.29800,-6.12905411
177.29850,-3.38230444
177.29900,0.280028452
177.29950,-1.245943586
177.30000,-9.486192594
177.30050,-17.11605279
177.30100,-18.33683042
177.30150,-15.59008075
177.30200,-13.14852549
177.30250,-10.40177582
177.30300,-5.213470887
177.30350,-0.9407491788
177.30400,-2.771915625
177.30450,-9.180998187
177.30500,-12.23294226
177.30550,-8.875803779
177.30600,-2.771915625
177.30650,2.721583714
177.30700,7.299499829
177.30750,9.741055091
177.30800,7.299499829
177.30850,1.806000491
177.30900,-0.6355547711
177.30950,0.8904172674
177.31000,3.331972529
177.31050,3.026778121
177.31100,3.026778121
177.31150,5.468333383
177.31200,9.435860683
177.31250,11.87741594
177.31300,12.18261035
177.31350,11.57222154
177.31400,10.35144391
177.31450,8.825471868
177.31500,6.994305421
177.31550,5.163138975
177.31600,3.331972529
177.31650,2.721583714
177.31700,3.637166937
177.31750,4.857944568
177.31800,3.942361344
177.31850,2.111194898
177.31900,1.195611675
177.31950,1.806000491
177.32000,1.195611675
177.32050,-1.856332402
177.32100,-5.213470887
177.32150,-6.12905411
177.32200,-4.603082071
177.32250,-3.38230444
177.32300,-2.466721217
177.32350,-0.02516595566
177.32400,4.247555752
177.32450,8.825471868
177.32500,11.57222154
177.32550,12.79299917
177.32600,15.53974884
177.32650,20.11766495
177.32700,23.77999785
177.32750,25.9163587
177.32800,26.83194192
177.32850,27.74752515
177.32900,27.74752515
177.32950,25.61116429
177.33000,22.25402581
177.33050,17.9813041
177.33100,12.79299917
177.33150,6.383916606
177.33200,0.8904172674
177.33250,-1.245943586
177.33300,-0.3303603634
177.33350,0.8904172674
177.33400,1.500806083
177.33450,1.500806083
177.33500,1.195611675
177.33550,0.280028452
177.33600,-0.02516595566
177.33650,-0.02516595566
177.33700,-0.02516595566
177.33750,-1.856332402
177.33800,-5.518665294
177.33850,-8.265414964
177.33900,-8.265414964
177.33950,-7.044637333
177.34000,-7.960220556
177.34050,-10.70697023
177.34100,-12.84333108
177.34150,-10.40177582
177.34200,-5.213470887
177.34250,-1.245943586
177.34300,-0.3303603634
177.34350,0.5852228597
177.34400,4.247555752
177.34450,8.52027746
177.34500,9.741055091
177.34550,7.909888645
177.34600,6.383916606
177.34650,5.773527791
177.34700,4.247555752
177.34750,1.195611675
177.34800,-0.02516595566
177.34850,0.8904172674
177.34900,2.721583714
177.34950,4.247555752
177.35000,6.383916606
177.35050,6.078722198
177.35100,-0.6355547711
177.35150,-12.84333108
177.35200,-23.21994094
177.35250,-25.6614962
177.35300,-23.21994094
177.35350,-21.6939689
177.35400,-21.6939689
177.35450,-20.47319127
177.35500,-16.81085838
177.35550,-12.23294226
177.35600,-9.791387002
177.35650,-9.180998187
177.35700,-9.791387002
177.35750,-10.09658141
177.35800,-8.875803779
177.35850,-7.34983174
177.35900,-7.655026148
177.35950,-9.791387002
177.36000,-10.40177582
177.36050,-7.34983174
177.36100,-3.992693256
177.36150,-3.38230444
177.36200,-5.213470887
177.36250,-5.518665294
177.36300,-4.297887663
177.36350,-3.992693256
177.36400,-4.603082071
177.36450,-4.603082071
177.36500,-3.077110033
177.36550,-1.856332402
177.36600,-0.3303603634
177.36650,2.416389306
177.36700,6.078722198
177.36750,8.52027746
177.36800,9.130666275
177.36850,11.57222154
177.36900,16.45533206
177.36950,19.81247054
177.37000,19.20208173
177.37050,15.84494324
177.37100,12.18261035
177.37150,9.435860683
177.37200,5.773527791
177.37250,1.806000491
177.37300,-1.856332402
177.37350,-5.213470887
177.37400,-9.180998187
177.37450,-13.45371989
177.37500,-16.20046956
177.37550,-15.89527516
177.37600,-13.45371989
177.37650,-11.01216463
177.37700,-10.70697023
177.37750,-10.40177582
177.37800,-8.265414964
177.37850,-4.908276479
177.37900,-2.771915625
177.37950,-1.551137994
177.38000,1.500806083
177.38050,7.604694237
177.38100,13.09819358
177.38150,16.76052647
177.38200,19.50727614
177.38250,23.47480344
177.38300,25.9163587
177.38350,24.08519225
177.38400,19.81247054
177.38450,15.84494324
177.38500,11.26702713
177.38550,3.331972529
177.38600,-6.739442925
177.38650,-14.36930312
177.38700,-15.28488634
177.38750,-9.180998187
177.38800,0.280028452
177.38850,10.35144391
177.38900,17.37091528
177.38950,18.89688732
177.39000,15.53974884
177.39050,10.65663831
177.39100,6.078722198
177.39150,2.416389306
177.39200,-0.6355547711
177.39250,-2.466721217
177.39300,-3.077110033
177.39350,-3.077110033
177.39400,-3.38230444
177.39450,-2.466721217
177.39500,-0.6355547711
177.39550,0.5852228597
177.39600,0.280028452
177.39650,-0.6355547711
177.39700,-3.687498848
177.39750,-10.09658141
177.39800,-20.16799686
177.39850,-29.01863469
177.39900,-31.15499554
177.39950,-26.57707943
177.40000,-21.08358009
177.40050,-18.03163601
177.40100,-16.81085838
177.40150,-16.50566397
177.40200,-18.33683042
177.40250,-20.77838568
177.40300,-20.16799686
177.40350,-13.14852549
177.40400,-4.603082071
177.40450,-0.3303603634
177.40500,-2.16152681
177.40550,-5.518665294
177.40600,-6.739442925
177.40650,-4.603082071
177.40700,-0.3303603634
177.40750,4.247555752
177.40800,7.909888645
177.40850,10.35144391
177.40900,12.48780476
177.40950,15.53974884
177.41000,18.28649851
177.41050,19.50727614
177.41100,21.03324818
177.41150,25.61116429
177.41200,29.883886
177.41250,27.44233074
177.41300,16.76052647
177.41350,4.247555752
177.41400,-2.16152681
177.41450,-3.687498848
177.41500,-3.687498848
177.41550,-4.603082071
177.41600,-5.213470887
177.41650,-5.823859702
177.41700,-7.960220556
177.41750,-11.62255345
177.41800,-13.7589143
177.41850,-12.84333108
177.41900,-9.791387002
177.41950,-7.044637333
177.42000,-5.823859702
177.42050,-5.823859702
177.42100,-6.434248517
177.42150,-5.518665294
177.42200,-1.856332402
177.42250,1.806000491
177.42300,3.026778121
177.42350,-0.02516595566
177.42400,-4.603082071
177.42450,-6.739442925
177.42500,-6.12905411
177.42550,-4.297887663
177.42600,-1.551137994
177.42650,1.806000491
177.42700,6.078722198
177.42750,8.52027746
177.42800,8.825471868
177.42850,8.52027746
177.42900,9.741055091
177.42950,10.96183272
177.43000,10.65663831
177.43050,9.130666275
177.43100,8.825471868
177.43150,10.35144391
177.43200,11.26702713
177.43250,9.741055091
177.43300,7.299499829
177.43350,6.383916606
177.43400,6.383916606
177.43450,4.857944568
177.43500,3.026778121
177.43550,3.942361344
177.43600,6.078722198
177.43650,6.383916606
177.43700,3.637166937
177.43750,0.280028452
177.43800,-1.856332402
177.43850,-3.687498848
177.43900,-4.908276479
177.43950,-4.603082071
177.44000,-3.077110033
177.44050,-3.687498848
177.44100,-7.044637333
177.44150,-9.791387002
177.44200,-9.486192594
177.44250,-8.265414964
177.44300,-9.486192594
177.44350,-11.31735904
177.44400,-10.70697023
177.44450,-8.265414964
177.44500,-7.960220556
177.44550,-11.62255345
177.44600,-15.28488634
177.44650,-15.28488634
177.44700,-11.92774786
177.44750,-9.486192594
177.44800,-9.180998187
177.44850,-9.791387002
177.44900,-8.875803779
177.44950,-6.434248517
177.45000,-2.771915625
177.45050,1.806000491
177.45100,7.909888645
177.45150,13.09819358
177.45200,14.62416561
177.45250,12.48780476
177.45300,9.435860683
177.45350,8.215083052
177.45400,8.215083052
177.45450,7.909888645
177.45500,6.689111014
177.45550,5.468333383
177.45600,4.247555752
177.45650,4.247555752
177.45700,6.383916606
177.45750,12.18261035
177.45800,17.9813041
177.45850,17.37091528
177.45900,8.215083052
177.45950,-5.213470887
177.46000,-16.20046956
177.46050,-20.77838568
177.46100,-19.55760805
177.46150,-14.67449753
177.46200,-9.486192594
177.46250,-6.739442925
177.46300,-7.655026148
177.46350,-9.791387002
177.46400,-8.875803779
177.46450,-4.297887663
177.46500,-0.02516595566
177.46550,2.721583714
177.46600,3.942361344
177.46650,5.163138975
177.46700,4.247555752
177.46750,1.806000491
177.46800,-0.3303603634
177.46850,-0.02516595566
177.46900,1.500806083
177.46950,2.111194898
177.47000,1.806000491
177.47050,2.721583714
177.47100,3.637166937
177.47150,2.721583714
177.47200,1.500806083
177.47250,3.942361344
177.47300,9.435860683
177.47350,14.31897121
177.47400,15.23455443
177.47450,14.31897121
177.47500,13.40338798
177.47550,11.57222154
177.47600,9.130666275
177.47650,7.299499829
177.47700,7.909888645
177.47750,10.0462495
177.47800,12.79299917
177.47850,15.23455443
177.47900,17.06572088
177.47950,16.45533206
177.48000,12.48780476
177.48050,7.299499829
177.48100,1.195611675
177.48150,-7.34983174
177.48200,-17.7264416
177.48250,-24.44071857
177.48300,-23.83032976
177.48350,-16.81085838
177.48400,-9.180998187
177.48450,-3.38230444
177.48500,-0.3303603634
177.48550,0.8904172674
177.48600,3.026778121
177.48650,6.078722198
177.48700,8.825471868
177.48750,9.130666275
177.48800,7.299499829
177.48850,4.247555752
177.48900,1.806000491
177.48950,0.5852228597
177.49000,3.026778121
177.49050,9.130666275
177.49100,13.70858239
177.49150,10.65663831
177.49200,2.111194898
177.49250,-3.077110033
177.49300,-3.38230444
177.49350,-2.466721217
177.49400,-4.297887663
177.49450,-6.434248517
177.49500,-5.213470887
177.49550,-2.771915625
177.49600,-1.551137994
177.49650,-0.9407491788
177.49700,-0.9407491788
177.49750,-3.687498848
177.49800,-10.40177582
177.49850,-16.81085838
177.49900,-16.20046956
177.49950,-8.875803779
177.50000,-0.9407491788
177.50050,3.026778121
177.50100,4.247555752
177.50150,4.247555752
177.50200,4.857944568
177.50250,6.994305421
177.50300,10.0462495
177.50350,11.87741594
177.50400,11.87741594
177.50450,12.18261035
177.50500,14.0137768
177.50550,12.79299917
177.50600,4.857944568
177.50650,-4.603082071
177.50700,-8.265414964
177.50750,-6.12905411
177.50800,-3.687498848
177.50850,-2.16152681
177.50900,2.111194898
177.50950,9.435860683
177.51000,12.79299917
177.51050,7.604694237
177.51100,-2.16152681
177.51150,-9.791387002
177.51200,-13.14852549
177.51250,-15.59008075
177.51300,-17.7264416
177.51350,-16.81085838
177.51400,-10.70697023
177.51450,-3.077110033
177.51500,-0.6355547711
177.51550,-5.823859702
177.51600,-13.45371989
177.51650,-14.36930312
177.51700,-7.655026148
177.51750,-0.9407491788
177.51800,-2.771915625
177.51850,-11.01216463
177.51900,-17.42124719
177.51950,-18.33683042
177.52000,-16.20046956
177.52050,-13.45371989
177.52100,-10.40177582
177.52150,-7.044637333
177.52200,-5.518665294
177.52250,-7.655026148
177.52300,-11.01216463
177.52350,-13.45371989
177.52400,-13.45371989
177.52450,-10.40177582
177.52500,-3.687498848
177.52550,3.942361344
177.52600,10.0462495
177.52650,13.40338798
177.52700,14.31897121
177.52750,12.48780476
177.52800,8.825471868
177.52850,3.942361344
177.52900,-0.02516595566
177.52950,-1.856332402
177.53000,-3.077110033
177.53050,-3.38230444
177.53100,-3.687498848
177.53150,-6.12905411
177.53200,-10.70697023
177.53250,-13.14852549
177.53300,-10.40177582
177.53350,-4.908276479
177.53400,-0.3303603634
177.53450,1.806000491
177.53500,3.942361344
177.53550,6.689111014
177.53600,8.215083052
177.53650,7.909888645
177.53700,7.604694237
177.53750,7.909888645
177.53800,8.52027746
177.53850,9.130666275
177.53900,10.65663831
177.53950,13.40338798
177.54000,14.31897121
177.54050,12.18261035
177.54100,9.130666275
177.54150,6.689111014
177.54200,4.247555752
177.54250,0.280028452
177.54300,-4.908276479
177.54350,-9.180998187
177.54400,-10.40177582
177.54450,-7.960220556
177.54500,-2.771915625
177.54550,2.416389306
177.54600,6.383916606
177.54650,7.909888645
177.54700,7.909888645
177.54750,8.825471868
177.54800,11.26702713
177.54850,14.0137768
177.54900,14.31897121
177.54950,12.48780476
177.55000,11.26702713
177.55050,11.57222154
177.55100,12.48780476
177.55150,12.79299917
177.55200,13.40338798
177.55250,14.62416561
177.55300,14.62416561
177.55350,12.18261035
177.55400,8.215083052
177.55450,5.773527791
177.55500,4.857944568
177.55550,3.942361344
177.55600,2.416389306
177.55650,-0.9407491788
177.55700,-6.739442925
177.55750,-13.7589143
177.55800,-18.33683042
177.55850,-19.86280246
177.55900,-20.16799686
177.55950,-21.6939689
177.56000,-23.52513535
177.56050,-23.52513535
177.56100,-21.6939689
177.56150,-18.33683042
177.56200,-11.92774786
177.56250,-3.077110033
177.56300,3.942361344
177.56350,4.857944568
177.56400,0.8904172674
177.56450,-1.856332402
177.56500,-2.16152681
177.56550,-2.16152681
177.56600,-3.077110033
177.56650,-3.077110033
177.56700,-0.9407491788
177.56750,0.8904172674
177.56800,1.806000491
177.56850,3.942361344
177.56900,8.52027746
177.56950,12.79299917
177.57000,14.0137768
177.57050,12.48780476
177.57100,11.57222154
177.57150,11.87741594
177.57200,13.40338798
177.57250,14.31897121
177.57300,14.92936002
177.57350,15.23455443
177.57400,15.23455443
177.57450,14.62416561
177.57500,12.48780476
177.57550,9.130666275
177.57600,6.078722198
177.57650,4.55275016
177.57700,2.721583714
177.57750,0.280028452
177.57800,-0.9407491788
177.57850,0.280028452
177.57900,3.331972529
177.57950,3.026778121
177.58000,-2.466721217
177.58050,-11.62255345
177.58100,-20.77838568
177.58150,-27.49266265
177.58200,-29.01863469
177.58250,-24.74591298
177.58300,-17.7264416
177.58350,-13.45371989
177.58400,-12.53813667
177.58450,-11.92774786
177.58500,-7.655026148
177.58550,-2.466721217
177.58600,0.5852228597
177.58650,1.806000491
177.58700,2.111194898
177.58750,2.111194898
177.58800,2.416389306
177.58850,3.331972529
177.58900,5.773527791
177.58950,7.299499829
177.59000,5.773527791
177.59050,1.195611675
177.59100,-3.687498848
177.59150,-7.960220556
177.59200,-9.486192594
177.59250,-6.434248517
177.59300,-0.6355547711
177.59350,3.026778121
177.59400,1.500806083
177.59450,-3.077110033
177.59500,-6.434248517
177.59550,-6.12905411
177.59600,-4.297887663
177.59650,-3.077110033
177.59700,-3.38230444
177.59750,-5.518665294
177.59800,-8.875803779
177.59850,-11.92774786
177.59900,-13.14852549
177.59950,-12.53813667
177.60000,-11.01216463
177.60050,-10.40177582
177.60100,-10.40177582
177.60150,-9.791387002
177.60200,-7.34983174
177.60250,-3.992693256
177.60300,-1.856332402
177.60350,-1.245943586
177.60400,-2.16152681
177.60450,-3.077110033
177.60500,-2.466721217
177.60550,-0.9407491788
177.60600,0.5852228597
177.60650,2.416389306
177.60700,4.247555752
177.60750,6.078722198
177.60800,7.604694237
177.60850,9.130666275
177.60900,10.96183272
177.60950,14.0137768
177.61000,16.45533206
177.61050,15.84494324
177.61100,12.79299917
177.61150,10.35144391
177.61200,10.35144391
177.61250,10.96183272
177.61300,9.741055091
177.61350,7.299499829
177.61400,6.383916606
177.61450,7.299499829
177.61500,8.825471868
177.61550,9.130666275
177.61600,8.215083052
177.61650,6.078722198
177.61700,1.500806083
177.61750,-4.603082071
177.61800,-10.70697023
177.61850,-14.97969193
177.61900,-16.50566397
177.61950,-14.06410871
177.62000,-9.486192594
177.62050,-6.739442925
177.62100,-9.791387002
177.62150,-17.42124719
177.62200,-24.44071857
177.62250,-26.27188502
177.62300,-23.83032976
177.62350,-21.6939689
177.62400,-20.77838568
177.62450,-20.47319127
177.62500,-18.64202483
177.62550,-14.36930312
177.62600,-9.180998187
177.62650,-3.992693256
177.62700,1.806000491
177.62750,8.215083052
177.62800,13.70858239
177.62850,16.45533206
177.62900,16.45533206
177.62950,15.23455443
177.63000,15.23455443
177.63050,15.84494324
177.63100,15.84494324
177.63150,14.62416561
177.63200,12.18261035
177.63250,10.0462495
177.63300,9.130666275
177.63350,10.65663831
177.63400,13.09819358
177.63450,14.31897121
177.63500,13.70858239
177.63550,11.57222154
177.63600,8.215083052
177.63650,3.331972529
177.63700,-0.6355547711
177.63750,-2.466721217
177.63800,-3.077110033
177.63850,-6.12905411
177.63900,-10.70697023
177.63950,-13.45371989
177.64000,-11.31735904
177.64050,-7.044637333
177.64100,-4.297887663
177.64150,-4.603082071
177.64200,-5.518665294
177.64250,-4.908276479
177.64300,-1.551137994
177.64350,4.55275016
177.64400,11.57222154
177.64450,15.53974884
177.64500,15.23455443
177.64550,11.26702713
177.64600,5.468333383
177.64650,-0.6355547711
177.64700,-4.908276479
177.64750,-6.739442925
177.64800,-7.34983174
177.64850,-8.875803779
177.64900,-10.40177582
177.64950,-9.486192594
177.65000,-6.739442925
177.65050,-4.603082071
177.65100,-2.466721217
177.65150,1.806000491
177.65200,8.52027746
177.65250,12.79299917
177.65300,12.48780476
177.65350,10.35144391
177.65400,9.435860683
177.65450,10.35144391
177.65500,12.79299917
177.65550,17.06572088
177.65600,20.42285936
177.65650,18.89688732
177.65700,12.79299917
177.65750,8.825471868
177.65800,8.825471868
177.65850,6.994305421
177.65900,-1.551137994
177.65950,-13.14852549
177.66000,-18.64202483
177.66050,-16.50566397
177.66100,-13.14852549
177.66150,-13.14852549
177.66200,-14.97969193
177.66250,-14.67449753
177.66300,-12.84333108
177.66350,-11.31735904
177.66400,-9.486192594
177.66450,-6.434248517
177.66500,-3.687498848
177.66550,-3.077110033
177.66600,-3.687498848
177.66650,-3.077110033
177.66700,-0.02516595566
177.66750,3.942361344
177.66800,6.078722198
177.66850,5.773527791
177.66900,4.857944568
177.66950,5.468333383
177.67000,8.215083052
177.67050,12.18261035
177.67100,14.62416561
177.67150,15.53974884
177.67200,15.53974884
177.67250,15.23455443
177.67300,15.53974884
177.67350,15.84494324
177.67400,15.84494324
177.67450,15.53974884
177.67500,14.0137768
177.67550,10.96183272
177.67600,5.163138975
177.67650,-3.687498848
177.67700,-13.14852549
177.67750,-18.33683042
177.67800,-15.89527516
177.67850,-9.180998187
177.67900,-3.992693256
177.67950,-2.771915625
177.68000,-1.245943586
177.68050,3.026778121
177.68100,8.52027746
177.68150,12.48780476
177.68200,15.23455443
177.68250,17.67610969
177.68300,19.50727614
177.68350,17.9813041
177.68400,11.57222154
177.68450,1.500806083
177.68500,-8.875803779
177.68550,-16.20046956
177.68600,-16.50566397
177.68650,-9.180998187
177.68700,0.280028452
177.68750,6.994305421
177.68800,8.215083052
177.68850,6.383916606
177.68900,5.163138975
177.68950,5.163138975
177.69000,5.773527791
177.69050,5.468333383
177.69100,3.026778121
177.69150,0.5852228597
177.69200,0.280028452
177.69250,1.500806083
177.69300,1.500806083
177.69350,-0.3303603634
177.69400,-1.551137994
177.69450,-1.551137994
177.69500,-1.856332402
177.69550,-4.603082071
177.69600,-6.12905411
177.69650,-4.603082071
177.69700,-2.16152681
177.69750,-3.992693256
177.69800,-9.486192594
177.69850,-13.7589143
177.69900,-15.28488634
177.69950,-15.28488634
177.70000,-16.20046956
177.70050,-16.81085838
177.70100,-16.50566397
177.70150,-15.89527516
177.70200,-15.59008075
177.70250,-14.67449753
177.70300,-12.53813667
177.70350,-11.01216463
177.70400,-11.31735904
177.70450,-10.70697023
177.70500,-7.34983174
177.70550,-3.077110033
177.70600,-0.02516595566
177.70650,2.111194898
177.70700,4.857944568
177.70750,9.435860683
177.70800,13.09819358
177.70850,14.92936002
177.70900,15.53974884
177.70950,16.45533206
177.71000,17.06572088
177.71050,15.53974884
177.71100,12.48780476
177.71150,10.96183272
177.71200,10.96183272
177.71250,10.35144391
177.71300,6.994305421
177.71350,1.500806083
177.71400,-3.992693256
177.71450,-9.486192594
177.71500,-12.53813667
177.71550,-12.23294226
177.71600,-9.180998187
177.71650,-7.34983174
177.71700,-8.875803779
177.71750,-11.01216463
177.71800,-11.92774786
177.71850,-11.31735904
177.71900,-11.62255345
177.71950,-11.31735904
177.72000,-9.486192594
177.72050,-6.739442925
177.72100,-5.213470887
177.72150,-4.603082071
177.72200,-3.992693256
177.72250,-3.687498848
177.72300,-5.518665294
177.72350,-9.486192594
177.72400,-12.84333108
177.72450,-13.45371989
177.72500,-11.01216463
177.72550,-6.739442925
177.72600,-1.856332402
177.72650,0.8904172674
177.72700,1.195611675
177.72750,-0.02516595566
177.72800,0.280028452
177.72850,1.806000491
177.72900,3.331972529
177.72950,4.857944568
177.73000,7.299499829
177.73050,9.435860683
177.73100,9.435860683
177.73150,6.383916606
177.73200,3.637166937
177.73250,3.331972529
177.73300,3.331972529
177.73350,2.111194898
177.73400,0.5852228597
177.73450,0.5852228597
177.73500,0.8904172674
177.73550,-0.02516595566
177.73600,-1.245943586
177.73650,-1.245943586
177.73700,-0.3303603634
177.73750,-0.3303603634
177.73800,-2.771915625
177.73850,-6.12905411
177.73900,-8.875803779
177.73950,-11.01216463
177.74000,-13.7589143
177.74050,-16.81085838
177.74100,-19.25241364
177.74150,-19.25241364
177.74200,-15.59008075
177.74250,-8.265414964
177.74300,-1.856332402
177.74350,-0.02516595566
177.74400,-1.856332402
177.74450,-2.771915625
177.74500,2.416389306
177.74550,14.31897121
177.74600,27.74752515
177.74650,35.98777415
177.74700,36.29296856
177.74750,30.18908041
177.74800,22.86441462
177.74850,19.81247054
177.74900,20.72805377
177.74950,20.72805377
177.75000,17.06572088
177.75050,11.57222154
177.75100,8.215083052
177.75150,4.857944568
177.75200,-3.992693256
177.75250,-18.64202483
177.75300,-31.46018995
177.75350,-35.12252284
177.75400,-29.93421791
177.75450,-21.08358009
177.75500,-12.23294226
177.75550,-4.297887663
177.75600,1.195611675
177.75650,2.416389306
177.75700,-0.9407491788
177.75750,-6.12905411
177.75800,-9.180998187
177.75850,-9.180998187
177.75900,-7.34983174
177.75950,-5.518665294
177.76000,-5.213470887
177.76050,-6.12905411
177.76100,-7.34983174
177.76150,-8.570609371
177.76200,-11.31735904
177.76250,-16.50566397
177.76300,-21.08358009
177.76350,-21.08358009
177.76400,-13.7589143
177.76450,-1.551137994
177.76500,9.435860683
177.76550,15.23455443
177.76600,15.53974884
177.76650,12.79299917
177.76700,10.65663831
177.76750,10.0462495
177.76800,10.35144391
177.76850,10.35144391
177.76900,10.35144391
177.76950,10.96183272
177.77000,12.18261035
177.77050,12.18261035
177.77100,10.35144391
177.77150,8.52027746
177.77200,8.215083052
177.77250,9.435860683
177.77300,10.0462495
177.77350,8.215083052
177.77400,5.773527791
177.77450,4.55275016
177.77500,4.55275016
177.77550,3.637166937
177.77600,1.500806083
177.77650,0.280028452
177.77700,-0.3303603634
177.77750,-3.992693256
177.77800,-10.40177582
177.77850,-15.28488634
177.77900,-15.28488634
177.77950,-12.84333108
177.78000,-11.92774786
177.78050,-12.84333108
177.78100,-11.92774786
177.78150,-8.875803779
177.78200,-5.823859702
177.78250,-3.992693256
177.78300,-1.856332402
177.78350,0.5852228597
177.78400,3.637166937
177.78450,6.689111014
177.78500,11.87741594
177.78550,18.89688732
177.78600,25.00077548
177.78650,28.96830278
177.78700,32.63063567
177.78750,35.98777415
177.78800,35.98777415
177.78850,31.10466363
177.78900,24.08519225
177.78950,18.28649851
177.79000,12.18261035
177.79050,3.637166937
177.79100,-4.908276479
177.79150,-10.40177582
177.79200,-11.01216463
177.79250,-8.265414964
177.79300,-3.992693256
177.79350,-0.02516595566
177.79400,2.416389306
177.79450,1.500806083
177.79500,-1.551137994
177.79550,-4.603082071
177.79600,-7.655026148
177.79650,-11.01216463
177.79700,-14.97969193
177.79750,-18.03163601
177.79800,-19.55760805
177.79850,-20.16799686
177.79900,-19.55760805
177.79950,-17.11605279
177.80000,-14.06410871
177.80050,-11.62255345
177.80100,-9.486192594
177.80150,-6.739442925
177.80200,-3.992693256
177.80250,-3.992693256
177.80300,-7.655026148
177.80350,-11.01216463
177.80400,-9.791387002
177.80450,-4.603082071
177.80500,0.5852228597
177.80550,3.026778121
177.80600,3.942361344
177.80650,4.857944568
177.80700,5.468333383
177.80750,4.857944568
177.80800,3.637166937
177.80850,2.721583714
177.80900,1.500806083
177.80950,-1.245943586
177.81000,-4.297887663
177.81050,-5.213470887
177.81100,-3.38230444
177.81150,-0.02516595566
177.81200,4.55275016
177.81250,10.65663831
177.81300,15.53974884
177.81350,15.23455443
177.81400,8.52027746
177.81450,0.8904172674
177.81500,-1.856332402
177.81550,-0.9407491788
177.81600,0.5852228597
177.81650,0.280028452
177.81700,-0.3303603634
177.81750,-0.6355547711
177.81800,-0.3303603634
177.81850,-0.6355547711
177.81900,-3.077110033
177.81950,-6.739442925
177.82000,-9.180998187
177.82050,-9.180998187
177.82100,-9.486192594
177.82150,-12.84333108
177.82200,-17.11605279
177.82250,-17.11605279
177.82300,-12.84333108
177.82350,-8.570609371
177.82400,-7.655026148
177.82450,-8.265414964
177.82500,-5.518665294
177.82550,-0.02516595566
177.82600,5.163138975
177.82650,7.909888645
177.82700,7.604694237
177.82750,5.773527791
177.82800,3.942361344
177.82850,3.331972529
177.82900,5.163138975
177.82950,9.435860683
177.83000,14.62416561
177.83050,17.37091528
177.83100,16.45533206
177.83150,13.09819358
177.83200,10.0462495
177.83250,8.52027746
177.83300,7.299499829
177.83350,7.299499829
177.83400,8.215083052
177.83450,8.825471868
177.83500,5.773527791
177.83550,-0.6355547711
177.83600,-6.434248517
177.83650,-7.655026148
177.83700,-4.297887663
177.83750,0.5852228597
177.83800,6.383916606
177.83850,10.35144391
177.83900,8.825471868
177.83950,2.416389306
177.84000,-1.551137994
177.84050,0.8904172674
177.84100,7.604694237
177.84150,10.35144391
177.84200,7.909888645
177.84250,5.468333383
177.84300,6.383916606
177.84350,8.52027746
177.84400,9.435860683
177.84450,9.130666275
177.84500,7.604694237
177.84550,2.721583714
177.84600,-5.213470887
177.84650,-12.53813667
177.84700,-14.97969193
177.84750,-11.92774786
177.84800,-7.34983174
177.84850,-5.213470887
177.84900,-6.12905411
177.84950,-6.434248517
177.85000,-2.771915625
177.85050,3.026778121
177.85100,7.909888645
177.85150,9.741055091
177.85200,10.96183272
177.85250,12.48780476
177.85300,11.57222154
177.85350,6.383916606
177.85400,-0.3303603634
177.85450,-3.992693256
177.85500,-4.908276479
177.85550,-6.434248517
177.85600,-8.875803779
177.85650,-10.09658141
177.85700,-10.70697023
177.85750,-14.97969193
177.85800,-24.44071857
177.85850,-35.42771725
177.85900,-41.83679981
177.85950,-41.226411
177.86000,-35.42771725
177.86050,-26.57707943
177.86100,-17.7264416
177.86150,-11.01216463
177.86200,-7.34983174
177.86250,-4.908276479
177.86300,-3.38230444
177.86350,-2.16152681
177.86400,-1.856332402
177.86450,-0.6355547711
177.86500,0.280028452
177.86550,0.5852228597
177.86600,-0.3303603634
177.86650,-0.9407491788
177.86700,0.5852228597
177.86750,4.247555752
177.86800,8.52027746
177.86850,12.79299917
177.86900,17.06572088
177.86950,19.81247054
177.87000,21.64363699
177.87050,23.77999785
177.87100,25.9163587
177.87150,25.00077548
177.87200,21.33844258
177.87250,18.59169291
177.87300,18.59169291
177.87350,18.28649851
177.87400,14.0137768
177.87450,7.604694237
177.87500,4.55275016
177.87550,5.468333383
177.87600,6.689111014
177.87650,4.55275016
177.87700,-0.02516595566
177.87750,-2.771915625
177.87800,-2.466721217
177.87850,-0.6355547711
177.87900,-0.9407491788
177.87950,-4.603082071
177.88000,-8.570609371
177.88050,-10.09658141
177.88100,-9.486192594
177.88150,-8.875803779
177.88200,-10.09658141
177.88250,-11.01216463
177.88300,-9.791387002
177.88350,-6.434248517
177.88400,-3.38230444
177.88450,-3.077110033
177.88500,-5.213470887
177.88550,-8.875803779
177.88600,-11.62255345
177.88650,-11.92774786
177.88700,-10.09658141
177.88750,-8.570609371
177.88800,-7.34983174
177.88850,-5.518665294
177.88900,-2.771915625
177.88950,0.280028452
177.89000,2.416389306
177.89050,4.857944568
177.89100,8.215083052
177.89150,12.48780476
177.89200,17.67610969
177.89250,23.77999785
177.89300,30.18908041
177.89350,35.37738534
177.89400,38.42932941
177.89450,39.34491264
177.89500,39.03971823
177.89550,36.90335738
177.89600,32.63063567
177.89650,25.61116429
177.89700,16.76052647
177.89750,6.689111014
177.89800,-2.771915625
177.89850,-9.791387002
177.89900,-12.23294226
177.89950,-11.62255345
177.90000,-11.31735904
177.90050,-12.84333108
177.90100,-14.06410871
177.90150,-13.14852549
177.90200,-10.40177582
177.90250,-9.791387002
177.90300,-12.23294226
177.90350,-15.59008075
177.90400,-16.20046956
177.90450,-14.67449753
177.90500,-13.14852549
177.90550,-11.92774786
177.90600,-7.960220556
177.90650,-0.3303603634
177.90700,6.994305421
177.90750,8.825471868
177.90800,3.331972529
177.90850,-3.077110033
177.90900,-6.739442925
177.90950,-6.739442925
177.91000,-7.044637333
177.91050,-7.960220556
177.91100,-7.34983174
177.91150,-4.603082071
177.91200,-1.551137994
177.91250,-0.9407491788
177.91300,-3.077110033
177.91350,-4.908276479
177.91400,-5.518665294
177.91450,-5.518665294
177.91500,-5.518665294
177.91550,-6.12905411
177.91600,-8.265414964
177.91650,-11.92774786
177.91700,-15.89527516
177.91750,-18.64202483
177.91800,-19.86280246
177.91850,-20.16799686
177.91900,-20.16799686
177.91950,-19.55760805
177.92000,-18.33683042
177.92050,-16.20046956
177.92100,-13.7589143
177.92150,-11.92774786
177.92200,-9.791387002
177.92250,-7.044637333
177.92300,-2.771915625
177.92350,0.280028452
177.92400,2.111194898
177.92450,3.331972529
177.92500,6.383916606
177.92550,12.79299917
177.92600,21.9488314
177.92650,32.32544126
177.92700,41.48127349
177.92750,46.97477283
177.92800,48.19555046
177.92850,46.36438401
177.92900,42.39685671
177.92950,35.07219093
177.93000,22.55922021
177.93050,9.435860683
177.93100,-0.02516595566
177.93150,-7.960220556
177.93200,-18.03163601
177.93250,-26.88227383
177.93300,-27.18746824
177.93350,-20.16799686
177.93400,-15.59008075
177.93450,-19.25241364
177.93500,-24.44071857
177.93550,-23.52513535
177.93600,-17.7264416
177.93650,-13.7589143
177.93700,-13.14852549
177.93750,-11.92774786
177.93800,-8.570609371
177.93850,-6.434248517
177.93900,-7.34983174
177.93950,-11.01216463
177.94000,-15.59008075
177.94050,-19.55760805
177.94100,-20.77838568
177.94150,-19.25241364
177.94200,-17.42124719
177.94250,-15.59008075
177.94300,-11.92774786
177.94350,-5.213470887
177.94400,0.280028452
177.94450,0.5852228597
177.94500,-3.992693256
177.94550,-8.570609371
177.94600,-9.791387002
177.94650,-7.960220556
177.94700,-4.603082071
177.94750,-0.02516595566
177.94800,5.163138975
177.94850,10.0462495
177.94900,13.09819358
177.94950,14.62416561
177.95000,15.23455443
177.95050,16.15013765
177.95100,17.9813041
177.95150,21.33844258
177.95200,24.69558107
177.95250,25.30596988
177.95300,22.25402581
177.95350,17.67610969
177.95400,14.0137768
177.95450,12.79299917
177.95500,12.48780476
177.95550,10.96183272
177.95600,7.299499829
177.95650,2.416389306
177.95700,-3.077110033
177.95750,-8.875803779
177.95800,-13.45371989
177.95850,-15.59008075
177.95900,-16.50566397
177.95950,-16.50566397
177.96000,-15.59008075
177.96050,-12.23294226
177.96100,-8.570609371
177.96150,-6.434248517
177.96200,-5.518665294
177.96250,-3.687498848
177.96300,-1.245943586
177.96350,-0.3303603634
177.96400,-0.6355547711
177.96450,-0.02516595566
177.96500,1.806000491
177.96550,2.721583714
177.96600,2.111194898
177.96650,3.331972529
177.96700,6.689111014
177.96750,10.0462495
177.96800,10.96183272
177.96850,10.0462495
177.96900,10.0462495
177.96950,10.65663831
177.97000,12.48780476
177.97050,15.84494324
177.97100,18.89688732
177.97150,17.9813041
177.97200,13.40338798
177.97250,10.96183272
177.97300,13.70858239
177.97350,17.37091528
177.97400,17.06572088
177.97450,14.31897121
177.97500,14.0137768
177.97550,14.0137768
177.97600,7.909888645
177.97650,-4.908276479
177.97700,-18.33683042
177.97750,-25.6614962
177.97800,-25.96669061
177.97850,-19.86280246
177.97900,-11.31735904
177.97950,-6.12905411
177.98000,-7.960220556
177.98050,-13.14852549
177.98100,-13.45371989
177.98150,-8.570609371
177.98200,-6.12905411
177.98250,-9.791387002
177.98300,-13.14852549
177.98350,-8.570609371
177.98400,0.8904172674
177.98450,6.689111014
177.98500,3.637166937
177.98550,-2.771915625
177.98600,-7.34983174
177.98650,-7.655026148
177.98700,-4.603082071
177.98750,-0.02516595566
177.98800,3.942361344
177.98850,6.078722198
177.98900,6.689111014
177.98950,7.604694237
177.99000,10.65663831
177.99050,14.92936002
177.99100,17.9813041
177.99150,17.67610969
177.99200,14.92936002
177.99250,12.48780476
177.99300,12.18261035
177.99350,11.87741594
177.99400,9.435860683
177.99450,5.773527791
177.99500,3.942361344
177.99550,3.331972529
177.99600,0.5852228597
177.99650,-3.992693256
177.99700,-7.655026148
177.99750,-6.739442925
177.99800,-4.297887663
177.99850,-3.077110033
177.99900,-3.687498848
177.99950,-3.992693256
178.00000,-3.38230444
178.00050,-3.38230444
178.00100,-3.38230444
178.00150,-2.771915625
178.00200,-2.16152681
178.00250,-2.16152681
178.00300,-2.771915625
178.00350,-1.856332402
178.00400,-0.02516595566
178.00450,1.500806083
178.00500,2.721583714
178.00550,3.637166937
178.00600,3.637166937
178.00650,3.026778121
178.00700,2.111194898
178.00750,0.8904172674
178.00800,-0.02516595566
178.00850,-1.245943586
178.00900,-3.077110033
178.00950,-4.297887663
178.01000,-4.603082071
178.01050,-3.992693256
178.01100,-1.856332402
178.01150,0.280028452
178.01200,2.111194898
178.01250,2.111194898
178.01300,1.500806083
178.01350,0.8904172674
178.01400,0.5852228597
178.01450,-0.02516595566
178.01500,-0.9407491788
178.01550,-1.245943586
178.01600,-1.551137994
178.01650,-1.551137994
178.01700,0.280028452
178.01750,4.857944568
178.01800,8.215083052
178.01850,7.604694237
178.01900,5.468333383
178.01950,6.689111014
178.02000,10.65663831
178.02050,12.48780476
178.02100,9.435860683
178.02150,3.637166937
178.02200,-3.077110033
178.02250,-11.62255345
178.02300,-18.03163601
178.02350,-17.11605279
178.02400,-10.40177582
178.02450,-5.213470887
178.02500,-6.434248517
178.02550,-10.09658141
178.02600,-11.31735904
178.02650,-10.09658141
178.02700,-9.180998187
178.02750,-7.34983174
178.02800,-3.077110033
178.02850,1.500806083
178.02900,3.942361344
178.02950,3.026778121
178.03000,1.806000491
178.03050,0.280028452
178.03100,-1.245943586
178.03150,-3.38230444
178.03200,-4.603082071
178.03250,-3.992693256
178.03300,-3.077110033
178.03350,-3.38230444
178.03400,-4.908276479
178.03450,-6.739442925
178.03500,-5.518665294
178.03550,-0.3303603634
178.03600,4.55275016
178.03650,4.247555752
178.03700,-1.551137994
178.03750,-7.655026148
178.03800,-9.486192594
178.03850,-8.875803779
178.03900,-10.40177582
178.03950,-13.7589143
178.04000,-16.50566397
178.04050,-18.03163601
178.04100,-18.94721923
178.04150,-19.55760805
178.04200,-17.7264416
178.04250,-13.7589143
178.04300,-8.875803779
178.04350,-3.687498848
178.04400,2.111194898
178.04450,8.215083052
178.04500,13.09819358
178.04550,17.06572088
178.04600,21.33844258
178.04650,25.00077548
178.04700,26.22155311
178.04750,25.30596988
178.04800,23.77999785
178.04850,21.64363699
178.04900,15.84494324
178.04950,5.773527791
178.05000,-3.38230444
178.05050,-8.570609371
178.05100,-10.70697023
178.05150,-13.14852549
178.05200,-15.28488634
178.05250,-13.45371989
178.05300,-8.265414964
178.05350,-5.823859702
178.05400,-7.655026148
178.05450,-9.486192594
178.05500,-6.739442925
178.05550,-1.856332402
178.05600,0.8904172674
178.05650,1.195611675
178.05700,1.195611675
178.05750,-0.02516595566
178.05800,-3.077110033
178.05850,-6.434248517
178.05900,-7.044637333
178.05950,-4.908276479
178.06000,-3.992693256
178.06050,-4.297887663
178.06100,-2.16152681
178.06150,3.331972529
178.06200,7.604694237
178.06250,7.299499829
178.06300,5.468333383
178.06350,7.604694237
178.06400,14.0137768
178.06450,18.89688732
178.06500,18.59169291
178.06550,14.92936002
178.06600,11.26702713
178.06650,8.825471868
178.06700,6.994305421
178.06750,5.773527791
178.06800,4.857944568
178.06850,3.942361344
178.06900,2.416389306
178.06950,0.5852228597
178.07000,-0.02516595566
178.07050,1.195611675
178.07100,4.247555752
178.07150,5.468333383
178.07200,2.111194898
178.07250,-4.908276479
178.07300,-11.01216463
178.07350,-12.84333108
178.07400,-11.31735904
178.07450,-10.40177582
178.07500,-10.70697023
178.07550,-12.23294226
178.07600,-13.7589143
178.07650,-14.67449753
178.07700,-14.97969193
178.07750,-14.06410871
178.07800,-14.97969193
178.07850,-18.94721923
178.07900,-23.83032976
178.07950,-24.74591298
178.08000,-21.38877449
178.08050,-15.59008075
178.08100,-10.70697023
178.08150,-6.434248517
178.08200,-3.077110033
178.08250,-0.6355547711
178.08300,1.195611675
178.08350,3.637166937
178.08400,6.689111014
178.08450,7.604694237
178.08500,5.163138975
178.08550,1.500806083
178.08600,0.280028452
178.08650,3.637166937
178.08700,9.435860683
178.08750,13.70858239
178.08800,14.31897121
178.08850,10.96183272
178.08900,6.383916606
178.08950,4.55275016
178.09000,6.078722198
178.09050,9.741055091
178.09100,13.40338798
178.09150,16.15013765
178.09200,18.28649851
178.09250,21.03324818
178.09300,23.16960903
178.09350,23.47480344
178.09400,21.64363699
178.09450,19.50727614
178.09500,21.03324818
178.09550,25.61116429
178.09600,31.40985804
178.09650,35.07219093
178.09700,35.68257975
178.09750,32.63063567
178.09800,25.61116429
178.09850,15.84494324
178.09900,5.773527791
178.09950,-3.992693256
178.10000,-13.7589143
178.10050,-19.25241364
178.10100,-17.7264416
178.10150,-9.791387002
178.10200,-1.551137994
178.10250,2.111194898
178.10300,2.111194898
178.10350,2.416389306
178.10400,4.247555752
178.10450,5.773527791
178.10500,6.689111014
178.10550,8.215083052
178.10600,13.09819358
178.10650,20.11766495
178.10700,24.39038666
178.10750,22.55922021
178.10800,15.53974884
178.10850,8.52027746
178.10900,3.942361344
178.10950,-0.3303603634
178.11000,-6.739442925
178.11050,-12.84333108
178.11100,-15.28488634
178.11150,-14.06410871
178.11200,-13.14852549
178.11250,-14.06410871
178.11300,-18.33683042
178.11350,-26.57707943
178.11400,-37.2588837
178.11450,-43.36277185
178.11500,-40.00563336
178.11550,-30.54460673
178.11600,-24.13552416
178.11650,-23.52513535
178.11700,-24.74591298
178.11750,-24.13552416
178.11800,-22.60955213
178.11850,-21.38877449
178.11900,-18.94721923
178.11950,-15.59008075
178.12000,-14.36930312
178.12050,-14.97969193
178.12100,-13.14852549
178.12150,-7.044637333
178.12200,-2.466721217
178.12250,-4.603082071
178.12300,-8.570609371
178.12350,-7.044637333
178.12400,0.8904172674
178.12450,8.52027746
178.12500,12.18261035
178.12550,13.70858239
178.12600,15.53974884
178.12650,16.45533206
178.12700,14.92936002
178.12750,14.0137768
178.12800,15.84494324
178.12850,17.06572088
178.12900,12.79299917
178.12950,5.163138975
178.13000,0.5852228597
178.13050,-0.02516595566
178.13100,-0.02516595566
178.13150,-2.466721217
178.13200,-5.213470887
178.13250,-5.213470887
178.13300,-3.38230444
178.13350,-2.16152681
178.13400,-1.245943586
178.13450,-0.02516595566
178.13500,2.111194898
178.13550,2.721583714
178.13600,3.026778121
178.13650,5.163138975
178.13700,7.909888645
178.13750,9.435860683
178.13800,10.0462495
178.13850,12.18261035
178.13900,15.23455443
178.13950,16.45533206
178.14000,15.84494324
178.14050,15.84494324
178.14100,18.59169291
178.14150,20.11766495
178.14200,15.53974884
178.14250,6.078722198
178.14300,-2.466721217
178.14350,-6.434248517
178.14400,-5.213470887
178.14450,-1.856332402
178.14500,-0.02516595566
178.14550,-1.245943586
178.14600,-5.518665294
178.14650,-9.180998187
178.14700,-10.09658141
178.14750,-8.875803779
178.14800,-6.434248517
178.14850,-2.466721217
178.14900,3.637166937
178.14950,10.65663831
178.15000,16.15013765
178.15050,19.20208173
178.15100,20.42285936
178.15150,19.20208173
178.15200,14.31897121
178.15250,7.604694237
178.15300,1.195611675
178.15350,-2.466721217
178.15400,-2.466721217
178.15450,1.195611675
178.15500,5.773527791
178.15550,6.383916606
178.15600,1.195611675
178.15650,-5.823859702
178.15700,-10.40177582
178.15750,-11.62255345
178.15800,-11.62255345
178.15850,-11.01216463
178.15900,-10.70697023
178.15950,-11.62255345
178.16000,-14.36930312
178.16050,-16.50566397
178.16100,-14.67449753
178.16150,-11.62255345
178.16200,-11.62255345
178.16250,-15.28488634
178.16300,-17.42124719
178.16350,-14.97969193
178.16400,-10.70697023
178.16450,-7.960220556
178.16500,-6.739442925
178.16550,-5.518665294
178.16600,-3.992693256
178.16650,-1.856332402
178.16700,1.195611675
178.16750,4.857944568
178.16800,7.909888645
178.16850,8.825471868
178.16900,8.52027746
178.16950,8.825471868
178.17000,8.825471868
178.17050,8.52027746
178.17100,7.909888645
178.17150,8.52027746
178.17200,10.0462495
178.17250,10.96183272
178.17300,10.35144391
178.17350,7.909888645
178.17400,5.163138975
178.17450,3.942361344
178.17500,4.857944568
178.17550,5.468333383
178.17600,3.026778121
178.17650,-1.856332402
178.17700,-7.655026148
178.17750,-12.23294226
178.17800,-17.11605279
178.17850,-22.30435772
178.17900,-26.88227383
178.17950,-29.01863469
178.18000,-28.71344028
178.18050,-25.96669061
178.18100,-20.77838568
178.18150,-15.89527516
178.18200,-13.7589143
178.18250,-13.45371989
178.18300,-12.53813667
178.18350,-10.09658141
178.18400,-7.655026148
178.18450,-6.739442925
178.18500,-4.603082071
178.18550,-0.6355547711
178.18600,2.111194898
178.18650,2.721583714
178.18700,5.163138975
178.18750,11.87741594
178.18800,20.42285936
178.18850,24.69558107
178.18900,23.47480344
178.18950,21.33844258
178.19000,20.11766495
178.19050,16.76052647
178.19100,9.130666275
178.19150,-0.02516595566
178.19200,-5.518665294
178.19250,-5.518665294
178.19300,-1.856332402
178.19350,1.500806083
178.19400,4.247555752
178.19450,6.078722198
178.19500,6.994305421
178.19550,6.078722198
178.19600,4.247555752
178.19650,2.111194898
178.19700,0.5852228597
178.19750,-1.551137994
178.19800,-7.044637333
178.19850,-12.53813667
178.19900,-14.67449753
178.19950,-13.45371989
178.20000,-12.53813667
178.20050,-14.97969193
178.20100,-18.94721923
178.20150,-21.08358009
178.20200,-20.47319127
178.20250,-17.7264416
178.20300,-14.06410871
178.20350,-9.791387002
178.20400,-5.213470887
178.20450,-0.02516595566
178.20500,4.55275016
178.20550,7.299499829
178.20600,8.825471868
178.20650,11.57222154
178.20700,15.53974884
178.20750,17.67610969
178.20800,15.53974884
178.20850,11.26702713
178.20900,8.215083052
178.20950,7.909888645
178.21000,8.52027746
178.21050,10.0462495
178.21100,11.87741594
178.21150,13.09819358
178.21200,12.79299917
178.21250,11.57222154
178.21300,10.96183272
178.21350,11.57222154
178.21400,11.87741594
178.21450,8.52027746
178.21500,1.806000491
178.21550,-4.297887663
178.21600,-6.739442925
178.21650,-6.739442925
178.21700,-9.180998187
178.21750,-15.89527516
178.21800,-22.30435772
178.21850,-23.52513535
178.21900,-22.30435772
178.21950,-23.21994094
178.22000,-26.27188502
178.22050,-27.18746824
178.22100,-25.6614962
178.22150,-26.57707943
178.22200,-31.15499554
178.22250,-34.20693962
178.22300,-30.54460673
178.22350,-22.60955213
178.22400,-16.20046956
178.22450,-13.45371989
178.22500,-11.31735904
178.22550,-5.823859702
178.22600,3.331972529
178.22650,11.57222154
178.22700,13.40338798
178.22750,9.435860683
178.22800,6.078722198
178.22850,9.130666275
178.22900,16.45533206
178.22950,22.86441462
178.23000,25.9163587
178.23050,27.44233074
178.23100,28.05271955
178.23150,24.69558107
178.23200,15.84494324
178.23250,3.942361344
178.23300,-4.603082071
178.23350,-6.434248517
178.23400,-2.466721217
178.23450,1.806000491
178.23500,4.857944568
178.23550,6.994305421
178.23600,8.825471868
178.23650,10.0462495
178.23700,10.0462495
178.23750,9.130666275
178.23800,8.215083052
178.23850,6.994305421
178.23900,4.857944568
178.23950,4.55275016
178.24000,6.383916606
178.24050,8.825471868
178.24100,10.35144391
178.24150,13.09819358
178.24200,16.45533206
178.24250,16.76052647
178.24300,13.40338798
178.24350,11.57222154
178.24400,13.40338798
178.24450,14.92936002
178.24500,10.65663831
178.24550,4.857944568
178.24600,3.026778121
178.24650,2.721583714
178.24700,-0.9407491788
178.24750,-4.908276479
178.24800,-1.551137994
178.24850,7.604694237
178.24900,14.31897121
178.24950,14.31897121
178.25000,13.40338798
178.25050,16.15013765
178.25100,18.89688732
178.25150,17.67610969
178.25200,14.31897121
178.25250,12.18261035
178.25300,10.65663831
178.25350,9.741055091
178.25400,10.0462495
178.25450,11.87741594
178.25500,12.18261035
178.25550,8.825471868
178.25600,2.721583714
178.25650,-2.466721217
178.25700,-5.518665294
178.25750,-6.434248517
178.25800,-5.823859702
178.25850,-6.12905411
178.25900,-8.265414964
178.25950,-10.40177582
178.26000,-10.09658141
178.26050,-8.875803779
178.26100,-9.486192594
178.26150,-12.53813667
178.26200,-15.89527516
178.26250,-17.7264416
178.26300,-18.64202483
178.26350,-19.25241364
178.26400,-18.64202483
178.26450,-16.20046956
178.26500,-13.14852549
178.26550,-10.40177582
178.26600,-8.875803779
178.26650,-6.739442925
178.26700,-3.992693256
178.26750,-1.245943586
178.26800,1.195611675
178.26850,4.857944568
178.26900,10.35144391
178.26950,16.15013765
178.27000,20.11766495
178.27050,22.25402581
178.27100,23.77999785
178.27150,25.30596988
178.27200,25.61116429
178.27250,25.30596988
178.27300,24.39038666
178.27350,24.39038666
178.27400,24.08519225
178.27450,21.64363699
178.27500,17.06572088
178.27550,10.96183272
178.27600,3.331972529
178.27650,-5.518665294
178.27700,-14.67449753
178.27750,-20.47319127
178.27800,-20.47319127
178.27850,-16.81085838
178.27900,-14.36930312
178.27950,-15.59008075
178.28000,-18.94721923
178.28050,-21.99916331
178.28100,-24.13552416
178.28150,-25.05110739
178.28200,-23.83032976
178.28250,-19.55760805
178.28300,-12.84333108
178.28350,-6.739442925
178.28400,-1.551137994
178.28450,4.247555752
178.28500,10.65663831
178.28550,14.62416561
178.28600,13.70858239
178.28650,10.0462495
178.28700,5.773527791
178.28750,2.721583714
178.28800,0.8904172674
178.28850,1.500806083
178.28900,4.247555752
178.28950,7.299499829
178.29000,7.909888645
178.29050,6.078722198
178.29100,3.637166937
178.29150,1.806000491
178.29200,-0.02516595566
178.29250,-0.3303603634
178.29300,1.195611675
178.29350,4.857944568
178.29400,6.078722198
178.29450,2.111194898
178.29500,-4.297887663
178.29550,-9.791387002
178.29600,-12.84333108
178.29650,-14.97969193
178.29700,-16.50566397
178.29750,-16.20046956
178.29800,-15.28488634
178.29850,-15.59008075
178.29900,-16.20046956
178.29950,-15.59008075
178.30000,-15.89527516
178.30050,-18.94721923
178.30100,-24.74591298
178.30150,-28.40824587
178.30200,-28.40824587
178.30250,-27.49266265
178.30300,-28.40824587
178.30350,-28.10305146
178.30400,-22.30435772
178.30450,-11.01216463
178.30500,-0.3303603634
178.30550,5.773527791
178.30600,8.52027746
178.30650,11.57222154
178.30700,17.06572088
178.30750,22.86441462
178.30800,26.52674751
178.30850,26.83194192
178.30900,25.00077548
178.30950,22.25402581
178.31000,17.9813041
178.31050,11.87741594
178.31100,7.909888645
178.31150,7.604694237
178.31200,8.215083052
178.31250,4.55275016
178.31300,-3.992693256
178.31350,-11.92774786
178.31400,-14.67449753
178.31450,-14.06410871
178.31500,-13.7589143
178.31550,-14.36930312
178.31600,-14.06410871
178.31650,-12.84333108
178.31700,-12.23294226
178.31750,-12.84333108
178.31800,-13.7589143
178.31850,-14.36930312
178.31900,-16.50566397
178.31950,-18.64202483
178.32000,-19.55760805
178.32050,-17.42124719
178.32100,-14.36930312
178.32150,-12.23294226
178.32200,-10.70697023
178.32250,-8.570609371
178.32300,-5.518665294
178.32350,-2.16152681
178.32400,1.500806083
178.32450,5.163138975
178.32500,7.604694237
178.32550,8.52027746
178.32600,8.52027746
178.32650,10.0462495
178.32700,12.48780476
178.32750,14.92936002
178.32800,17.37091528
178.32850,20.42285936
178.32900,24.08519225
178.32950,26.22155311
178.33000,26.52674751
178.33050,26.22155311
178.33100,25.00077548
178.33150,20.42285936
178.33200,12.48780476
178.33250,4.55275016
178.33300,-0.02516595566
178.33350,-3.077110033
178.33400,-7.960220556
178.33450,-12.84333108
178.33500,-12.84333108
178.33550,-8.875803779
178.33600,-4.908276479
178.33650,-3.992693256
178.33700,-4.297887663
178.33750,-5.213470887
178.33800,-8.570609371
178.33850,-13.7589143
178.33900,-17.11605279
178.33950,-16.50566397
178.34000,-14.06410871
178.34050,-12.53813667
178.34100,-11.62255345
178.34150,-8.265414964
178.34200,-1.856332402
178.34250,4.857944568
178.34300,10.0462495
178.34350,11.87741594
178.34400,11.87741594
178.34450,13.70858239
178.34500,17.9813041
178.34550,21.9488314
178.34600,20.42285936
178.34650,12.79299917
178.34700,4.857944568
178.34750,-0.02516595566
178.34800,-3.992693256
178.34850,-11.01216463
178.34900,-16.81085838
178.34950,-15.89527516
178.35000,-8.265414964
178.35050,-0.02516595566
178.35100,3.942361344
178.35150,4.247555752
178.35200,4.247555752
178.35250,5.773527791
178.35300,10.0462495
178.35350,16.76052647
178.35400,24.08519225
178.35450,28.35791396
178.35500,29.27349718
178.35550,29.57869159
178.35600,30.49427481
178.35650,30.18908041
178.35700,25.61116429
178.35750,17.9813041
178.35800,8.52027746
178.35850,-2.771915625
178.35900,-15.89527516
178.35950,-27.18746824
178.36000,-32.98616199
178.36050,-31.76538436
178.36100,-26.57707943
178.36150,-19.86280246
178.36200,-14.36930312
178.36250,-11.01216463
178.36300,-9.180998187
178.36350,-6.434248517
178.36400,-3.38230444
178.36450,-3.38230444
178.36500,-7.044637333
178.36550,-9.791387002
178.36600,-7.34983174
178.36650,-1.245943586
178.36700,3.331972529
178.36750,5.468333383
178.36800,6.994305421
178.36850,9.741055091
178.36900,11.57222154
178.36950,10.96183272
178.37000,9.741055091
178.37050,9.130666275
178.37100,8.52027746
178.37150,7.299499829
178.37200,6.078722198
178.37250,6.078722198
178.37300,6.689111014
178.37350,6.383916606
178.37400,4.857944568
178.37450,3.942361344
178.37500,3.942361344
178.37550,4.857944568
178.37600,5.163138975
178.37650,4.55275016
178.37700,3.026778121
178.37750,1.500806083
178.37800,-0.02516595566
178.37850,-2.16152681
178.37900,-4.297887663
178.37950,-5.213470887
178.38000,-4.908276479
178.38050,-5.518665294
178.38100,-7.044637333
178.38150,-8.570609371
178.38200,-7.960220556
178.38250,-5.213470887
178.38300,-0.6355547711
178.38350,3.637166937
178.38400,5.468333383
178.38450,3.637166937
178.38500,0.280028452
178.38550,-0.6355547711
178.38600,1.195611675
178.38650,4.857944568
178.38700,8.215083052
178.38750,10.65663831
178.38800,9.741055091
178.38850,4.55275016
178.38900,-2.16152681
178.38950,-5.213470887
178.39000,-3.687498848
178.39050,-2.466721217
178.39100,-4.603082071
178.39150,-6.739442925
178.39200,-5.213470887
178.39250,-1.551137994
178.39300,-0.02516595566
178.39350,0.280028452
178.39400,2.721583714
178.39450,7.604694237
178.39500,11.87741594
178.39550,12.79299917
178.39600,11.57222154
178.39650,10.35144391
178.39700,6.994305421
178.39750,0.5852228597
178.39800,-7.044637333
178.39850,-12.84333108
178.39900,-15.59008075
178.39950,-17.42124719
178.40000,-18.94721923
178.40050,-18.94721923
178.40100,-15.59008075
178.40150,-10.70697023
178.40200,-7.34983174
178.40250,-7.34983174
178.40300,-9.180998187
178.40350,-9.791387002
178.40400,-7.655026148
178.40450,-4.297887663
178.40500,-2.16152681
178.40550,-3.077110033
178.40600,-4.603082071
178.40650,-4.297887663
178.40700,-0.6355547711
178.40750,2.721583714
178.40800,4.857944568
178.40850,5.773527791
178.40900,7.604694237
178.40950,10.35144391
178.41000,11.57222154
178.41050,11.87741594
178.41100,11.57222154
178.41150,11.26702713
178.41200,10.0462495
178.41250,8.215083052
178.41300,7.299499829
178.41350,6.994305421
178.41400,4.857944568
178.41450,0.8904172674
178.41500,-1.551137994
178.41550,-1.551137994
178.41600,-0.6355547711
178.41650,-0.9407491788
178.41700,-3.38230444
178.41750,-7.044637333
178.41800,-11.62255345
178.41850,-15.89527516
178.41900,-18.03163601
178.41950,-17.42124719
178.42000,-16.50566397
178.42050,-17.7264416
178.42100,-20.16799686
178.42150,-21.38877449
178.42200,-21.38877449
178.42250,-21.08358009
178.42300,-20.47319127
178.42350,-18.64202483
178.42400,-14.67449753
178.42450,-9.486192594
178.42500,-3.992693256
178.42550,0.5852228597
178.42600,4.247555752
178.42650,7.909888645
178.42700,13.40338798
178.42750,21.33844258
178.42800,28.96830278
178.42850,32.32544126
178.42900,32.02024685
178.42950,30.79946922
178.43000,30.18908041
178.43050,27.44233074
178.43100,21.03324818
178.43150,13.70858239
178.43200,9.741055091
178.43250,9.130666275
178.43300,7.909888645
178.43350,5.468333383
178.43400,5.468333383
178.43450,7.909888645
178.43500,8.215083052
178.43550,2.416389306
178.43600,-4.297887663
178.43650,-6.434248517
178.43700,-3.077110033
178.43750,0.280028452
178.43800,2.416389306
178.43850,5.773527791
178.43900,10.0462495
178.43950,10.96183272
178.44000,5.468333383
178.44050,-3.077110033
178.44100,-12.23294226
178.44150,-21.08358009
178.44200,-28.10305146
178.44250,-28.71344028
178.44300,-20.77838568
178.44350,-9.791387002
178.44400,-4.297887663
178.44450,-5.213470887
178.44500,-7.34983174
178.44550,-7.044637333
178.44600,-5.823859702
178.44650,-3.992693256
178.44700,0.280028452
178.44750,6.383916606
178.44800,10.0462495
178.44850,10.35144391
178.44900,9.435860683
178.44950,9.741055091
178.45000,9.435860683
178.45050,7.909888645
178.45100,7.604694237
178.45150,10.65663831
178.45200,13.40338798
178.45250,13.09819358
178.45300,10.65663831
178.45350,8.215083052
178.45400,4.55275016
178.45450,-0.9407491788
178.45500,-4.297887663
178.45550,-2.16152681
178.45600,1.500806083
178.45650,0.8904172674
178.45700,-1.551137994
178.45750,-2.466721217
178.45800,-3.077110033
178.45850,-10.70697023
178.45900,-24.44071857
178.45950,-34.81732843
178.46000,-36.03810606
178.46050,-33.5965508
178.46100,-33.2913564
178.46150,-34.20693962
178.46200,-32.68096758
178.46250,-31.46018995
178.46300,-35.73291166
178.46350,-45.4991327
178.46400,-52.21340967
178.46450,-50.38224323
178.46500,-41.83679981
178.46550,-32.68096758
178.46600,-26.27188502
178.46650,-20.77838568
178.46700,-12.53813667
178.46750,-0.02516595566
178.46800,14.0137768
178.46850,25.30596988
178.46900,32.63063567
178.46950,36.29296856
178.47000,36.90335738
178.47050,34.15660771
178.47100,28.66310837
178.47150,22.55922021
178.47200,17.06572088
178.47250,11.87741594
178.47300,7.604694237
178.47350,6.383916606
178.47400,7.299499829
178.47450,7.909888645
178.47500,6.383916606
178.47550,3.942361344
178.47600,3.331972529
178.47650,4.55275016
178.47700,4.857944568
178.47750,3.637166937
178.47800,2.721583714
178.47850,3.026778121
178.47900,3.942361344
178.47950,4.55275016
178.48000,3.637166937
178.48050,1.806000491
178.48100,0.280028452
178.48150,-0.6355547711
178.48200,-2.16152681
178.48250,-4.297887663
178.48300,-5.518665294
178.48350,-3.687498848
178.48400,2.111194898
178.48450,9.435860683
178.48500,13.40338798
178.48550,12.79299917
178.48600,10.35144391
178.48650,9.130666275
178.48700,10.65663831
178.48750,13.70858239
178.48800,16.15013765
178.48850,14.92936002
178.48900,9.741055091
178.48950,2.721583714
178.49000,-1.856332402
178.49050,-2.771915625
178.49100,-1.245943586
178.49150,0.280028452
178.49200,3.026778121
178.49250,6.383916606
178.49300,9.741055091
178.49350,11.57222154
178.49400,11.57222154
178.49450,11.26702713
178.49500,10.65663831
178.49550,9.741055091
178.49600,10.0462495
178.49650,10.96183272
178.49700,10.0462495
178.49750,6.078722198
178.49800,0.5852228597
178.49850,-1.856332402
178.49900,-0.9407491788
178.49950,1.195611675
178.50000,2.721583714
178.50050,0.8904172674
178.50100,-3.687498848
178.50150,-7.655026148
178.50200,-7.655026148
178.50250,-4.908276479
178.50300,-3.077110033
178.50350,-2.771915625
178.50400,-1.551137994
178.50450,1.806000491
178.50500,4.247555752
178.50550,2.721583714
178.50600,-0.02516595566
178.50650,-0.02516595566
178.50700,1.500806083
178.50750,3.637166937
178.50800,5.163138975
178.50850,6.383916606
178.50900,6.994305421
178.50950,6.689111014
178.51000,6.689111014
178.51050,6.994305421
178.51100,6.689111014
178.51150,5.163138975
178.51200,5.773527791
178.51250,10.35144391
178.51300,14.92936002
178.51350,14.31897121
178.51400,8.825471868
178.51450,3.942361344
178.51500,3.026778121
178.51550,3.637166937
178.51600,4.247555752
178.51650,4.55275016
178.51700,4.55275016
178.51750,2.111194898
178.51800,-1.856332402
178.51850,-6.434248517
178.51900,-8.570609371
178.51950,-9.486192594
178.52000,-10.40177582
178.52050,-12.23294226
178.52100,-14.36930312
178.52150,-16.50566397
178.52200,-18.03163601
178.52250,-17.42124719
178.52300,-14.06410871
178.52350,-10.70697023
178.52400,-8.265414964
178.52450,-5.213470887
178.52500,-0.6355547711
178.52550,2.721583714
178.52600,2.416389306
178.52650,-0.02516595566
178.52700,-0.02516595566
178.52750,3.637166937
178.52800,6.994305421
178.52850,5.468333383
178.52900,1.500806083
178.52950,-0.3303603634
178.53000,0.5852228597
178.53050,1.806000491
178.53100,2.111194898
178.53150,2.416389306
178.53200,3.637166937
178.53250,4.857944568
178.53300,5.773527791
178.53350,6.078722198
178.53400,5.468333383
178.53450,3.331972529
178.53500,1.500806083
178.53550,1.806000491
178.53600,3.331972529
178.53650,3.331972529
178.53700,1.806000491
178.53750,2.721583714
178.53800,6.383916606
178.53850,8.825471868
178.53900,5.773527791
178.53950,-1.245943586
178.54000,-9.180998187
178.54050,-16.81085838
178.54100,-22.60955213
178.54150,-24.44071857
178.54200,-22.30435772
178.54250,-19.55760805
178.54300,-19.25241364
178.54350,-20.16799686
178.54400,-19.55760805
178.54450,-17.42124719
178.54500,-15.59008075
178.54550,-14.36930312
178.54600,-11.92774786
178.54650,-9.180998187
178.54700,-8.265414964
178.54750,-8.265414964
178.54800,-7.34983174
178.54850,-3.077110033
178.54900,2.721583714
178.54950,9.435860683
178.55000,14.92936002
178.55050,17.37091528
178.55100,17.67610969
178.55150,17.9813041
178.55200,18.59169291
178.55250,18.28649851
178.55300,15.23455443
178.55350,11.26702713
178.55400,6.689111014
178.55450,-0.02516595566
178.55500,-7.960220556
178.55550,-12.23294226
178.55600,-10.70697023
178.55650,-7.34983174
178.55700,-6.434248517
178.55750,-6.434248517
178.55800,-3.38230444
178.55850,-0.02516595566
178.55900,1.500806083
178.55950,2.416389306
178.56000,6.689111014
178.56050,10.96183272
178.56100,9.130666275
178.56150,2.416389306
178.56200,1.195611675
178.56250,7.604694237
178.56300,13.40338798
178.56350,10.35144391
178.56400,2.416389306
178.56450,-2.466721217
178.56500,-4.603082071
178.56550,-9.791387002
178.56600,-17.42124719
178.56650,-21.6939689
178.56700,-19.25241364
178.56750,-14.06410871
178.56800,-11.01216463
178.56850,-10.09658141
178.56900,-8.570609371
178.56950,-3.992693256
178.57000,2.111194898
178.57050,7.299499829
178.57100,9.435860683
178.57150,7.909888645
178.57200,4.55275016
178.57250,1.806000491
178.57300,0.8904172674
178.57350,1.806000491
178.57400,4.247555752
178.57450,6.994305421
178.57500,7.604694237
178.57550,5.163138975
178.57600,1.806000491
178.57650,-0.02516595566
178.57700,-0.6355547711
178.57750,-3.077110033
178.57800,-7.34983174
178.57850,-11.92774786
178.57900,-14.36930312
178.57950,-15.59008075
178.58000,-15.89527516
178.58050,-15.89527516
178.58100,-15.59008075
178.58150,-14.36930312
178.58200,-11.62255345
178.58250,-7.34983174
178.58300,-4.908276479
178.58350,-5.213470887
178.58400,-5.823859702
178.58450,-2.16152681
178.58500,5.163138975
178.58550,11.87741594
178.58600,14.31897121
178.58650,14.62416561
178.58700,15.84494324
178.58750,17.9813041
178.58800,19.50727614
178.58850,19.20208173
178.58900,17.67610969
178.58950,16.15013765
178.59000,14.62416561
178.59050,13.40338798
178.59100,12.18261035
178.59150,11.57222154
178.59200,10.65663831
178.59250,7.909888645
178.59300,2.416389306
178.59350,-3.992693256
178.59400,-8.570609371
178.59450,-10.09658141
178.59500,-11.01216463
178.59550,-11.31735904
178.59600,-9.180998187
178.59650,-2.771915625
178.59700,3.637166937
178.59750,7.299499829
178.59800,7.909888645
178.59850,6.994305421
178.59900,5.468333383
178.59950,4.857944568
178.60000,6.078722198
178.60050,8.825471868
178.60100,8.52027746
178.60150,5.468333383
178.60200,3.942361344
178.60250,6.383916606
178.60300,7.909888645
178.60350,3.026778121
178.60400,-2.771915625
178.60450,-2.16152681
178.60500,3.026778121
178.60550,5.163138975
178.60600,0.280028452
178.60650,-5.213470887
178.60700,-6.739442925
178.60750,-5.213470887
178.60800,-4.908276479
178.60850,-4.297887663
178.60900,-2.466721217
178.60950,-1.856332402
178.61000,-4.603082071
178.61050,-8.265414964
178.61100,-7.960220556
178.61150,-3.38230444
178.61200,1.195611675
178.61250,3.637166937
178.61300,3.942361344
178.61350,3.331972529
178.61400,1.500806083
178.61450,-0.3303603634
178.61500,-3.077110033
178.61550,-6.434248517
178.61600,-10.40177582
178.61650,-12.23294226
178.61700,-11.92774786
178.61750,-11.01216463
178.61800,-10.40177582
178.61850,-8.875803779
178.61900,-6.434248517
178.61950,-4.908276479
178.62000,-6.12905411
178.62050,-8.570609371
178.62100,-10.09658141
