"type","name","time_units","begin_time","frequency","count","units"
"signal","Ultium EMG-FLEX.CAPR.U RT","s",109.96000,2000,22000,"uV"

"time","value"
109.96000,-0.9203113723
109.96050,2.436827112
109.96100,4.878382374
109.96150,0.9108550739
109.96200,-8.244977157
109.96250,-15.87483735
109.96300,-15.87483735
109.96350,-9.465754788
109.96400,-3.667061042
109.96450,-1.22550578
109.96500,-1.530700188
109.96550,-2.141089003
109.96600,-3.056672226
109.96650,-3.667061042
109.96700,-3.056672226
109.96750,-2.446283411
109.96800,-2.446283411
109.96850,-2.751477819
109.96900,-1.835894595
109.96950,-1.530700188
109.97000,-3.972255449
109.97050,-7.939782749
109.97100,-9.465754788
109.97150,-7.329393934
109.97200,-4.277449857
109.97250,-2.141089003
109.97300,-1.530700188
109.97350,-1.22550578
109.97400,-2.141089003
109.97450,-4.277449857
109.97500,-6.719005119
109.97550,-7.329393934
109.97600,-5.498227488
109.97650,-3.361866634
109.97700,-1.835894595
109.97750,-2.446283411
109.97800,-4.582644265
109.97850,-5.803421896
109.97900,-3.667061042
109.97950,-0.004728149245
109.98000,2.436827112
109.98050,1.216049482
109.98100,-0.6151169646
109.98150,-0.6151169646
109.98200,0.9108550739
109.98250,1.826438297
109.98300,1.216049482
109.98350,0.6056606662
109.98400,0.9108550739
109.98450,-0.004728149245
109.98500,-1.530700188
109.98550,-1.835894595
109.98600,0.6056606662
109.98650,4.573187966
109.98700,6.099160005
109.98750,4.267993559
109.98800,2.436827112
109.98850,3.047215928
109.98900,4.267993559
109.98950,3.352410335
109.99000,0.9108550739
109.99050,0.3004662585
109.99100,2.131632705
109.99150,2.74202152
109.99200,0.6056606662
109.99250,-1.835894595
109.99300,-3.056672226
109.99350,-3.056672226
109.99400,-3.667061042
109.99450,-3.361866634
109.99500,-2.751477819
109.99550,-4.887838672
109.99600,-11.60211564
109.99650,-19.84236465
109.99700,-24.72547517
109.99750,-26.25144721
109.99800,-25.9462528
109.99850,-24.11508636
109.99900,-19.23197583
109.99950,-12.21250446
110.00000,-3.667061042
110.00050,8.235520859
110.00100,25.02121328
110.00150,39.97573926
110.00200,44.55365538
110.00250,39.06015604
110.00300,31.12510144
110.00350,24.71601887
110.00400,16.78096427
110.00450,6.70954882
110.00500,-0.9203113723
110.00550,-3.972255449
110.00600,-4.887838672
110.00650,-6.108616303
110.00700,-5.803421896
110.00750,-2.751477819
110.00800,0.6056606662
110.00850,2.74202152
110.00900,3.352410335
110.00950,4.573187966
110.01000,6.099160005
110.01050,6.404354412
110.01100,5.488771189
110.01150,3.657604743
110.01200,0.3004662585
110.01250,-3.667061042
110.01300,-6.413810711
110.01350,-6.108616303
110.01400,-4.582644265
110.01450,-3.972255449
110.01500,-4.277449857
110.01550,-3.056672226
110.01600,0.3004662585
110.01650,3.657604743
110.01700,3.962799151
110.01750,2.74202152
110.01800,3.352410335
110.01850,5.488771189
110.01900,6.099160005
110.01950,5.488771189
110.02000,7.625132043
110.02050,11.59265934
110.02100,10.0666873
110.02150,-1.530700188
110.02200,-17.40080939
110.02250,-24.42028077
110.02300,-19.23197583
110.02350,-9.770949196
110.02400,-4.582644265
110.02450,-2.446283411
110.02500,-0.004728149245
110.02550,2.74202152
110.02600,4.267993559
110.02650,4.267993559
110.02700,4.573187966
110.02750,4.878382374
110.02800,4.878382374
110.02850,5.488771189
110.02900,6.404354412
110.02950,4.573187966
110.03000,-2.141089003
110.03050,-10.0761436
110.03100,-12.51769887
110.03150,-8.855365973
110.03200,-4.582644265
110.03250,-2.141089003
110.03300,-0.004728149245
110.03350,4.267993559
110.03400,8.235520859
110.03450,10.0666873
110.03500,10.0666873
110.03550,7.625132043
110.03600,2.131632705
110.03650,-3.361866634
110.03700,-2.141089003
110.03750,6.404354412
110.03800,15.25499224
110.03850,17.6965475
110.03900,16.47576987
110.03950,15.86538105
110.04000,12.81343697
110.04050,7.319937636
110.04100,8.845909674
110.04150,20.74849157
110.04200,24.71601887
110.04250,-1.530700188
110.04300,-50.66699983
110.04350,-84.23838467
110.04400,-78.13449652
110.04450,-46.39427812
110.04500,-19.23197583
110.04550,-8.550171565
110.04600,-7.939782749
110.04650,-8.550171565
110.04700,-9.16056038
110.04750,-7.939782749
110.04800,-3.056672226
110.04850,1.216049482
110.04900,2.74202152
110.04950,4.878382374
110.05000,12.81343697
110.05050,21.96926921
110.05100,23.49524124
110.05150,17.6965475
110.05200,11.89785375
110.05250,10.98227053
110.05300,11.89785375
110.05350,11.89785375
110.05400,10.37188171
110.05450,8.235520859
110.05500,4.573187966
110.05550,1.826438297
110.05600,1.826438297
110.05650,3.352410335
110.05700,2.436827112
110.05750,-0.9203113723
110.05800,-3.056672226
110.05850,-1.22550578
110.05900,1.521243889
110.05950,2.436827112
110.06000,1.826438297
110.06050,1.521243889
110.06100,1.216049482
110.06150,0.6056606662
110.06200,-0.004728149245
110.06250,-0.3099225569
110.06300,-1.835894595
110.06350,-4.582644265
110.06400,-7.329393934
110.06450,-7.329393934
110.06500,-5.498227488
110.06550,-3.056672226
110.06600,-1.530700188
110.06650,-0.004728149245
110.06700,0.9108550739
110.06750,1.826438297
110.06800,3.962799151
110.06850,7.014743228
110.06900,9.45629849
110.06950,10.0666873
110.07000,9.151104082
110.07050,7.930326451
110.07100,6.404354412
110.07150,3.962799151
110.07200,1.216049482
110.07250,-0.004728149245
110.07300,1.216049482
110.07350,1.521243889
110.07400,-0.004728149245
110.07450,-1.835894595
110.07500,-2.751477819
110.07550,-2.446283411
110.07600,-2.751477819
110.07650,-3.972255449
110.07700,-4.582644265
110.07750,-4.887838672
110.07800,-5.19303308
110.07850,-5.803421896
110.07900,-5.803421896
110.07950,-5.19303308
110.08000,-5.803421896
110.08050,-7.634588342
110.08100,-9.16056038
110.08150,-8.244977157
110.08200,-4.887838672
110.08250,-0.6151169646
110.08300,2.131632705
110.08350,3.657604743
110.08400,3.352410335
110.08450,2.131632705
110.08500,0.6056606662
110.08550,-0.004728149245
110.08600,0.6056606662
110.08650,1.216049482
110.08700,0.6056606662
110.08750,-0.004728149245
110.08800,-0.004728149245
110.08850,-0.004728149245
110.08900,-0.3099225569
110.08950,-1.22550578
110.09000,-0.004728149245
110.09050,2.131632705
110.09100,3.352410335
110.09150,2.131632705
110.09200,-0.004728149245
110.09250,-0.9203113723
110.09300,-1.22550578
110.09350,-2.446283411
110.09400,-3.972255449
110.09450,-3.361866634
110.09500,-0.9203113723
110.09550,-0.004728149245
110.09600,-0.004728149245
110.09650,0.3004662585
110.09700,3.047215928
110.09750,5.488771189
110.09800,5.793965597
110.09850,4.573187966
110.09900,3.962799151
110.09950,3.962799151
110.10000,3.962799151
110.10050,3.657604743
110.10100,3.962799151
110.10150,3.657604743
110.10200,2.436827112
110.10250,1.521243889
110.10300,2.436827112
110.10350,2.436827112
110.10400,-0.3099225569
110.10450,-3.056672226
110.10500,-2.141089003
110.10550,0.6056606662
110.10600,0.3004662585
110.10650,-2.751477819
110.10700,-4.887838672
110.10750,-3.361866634
110.10800,-0.9203113723
110.10850,-0.6151169646
110.10900,-1.530700188
110.10950,-1.530700188
110.11000,-1.530700188
110.11050,-2.446283411
110.11100,-3.361866634
110.11150,-2.446283411
110.11200,-1.835894595
110.11250,-3.056672226
110.11300,-5.498227488
110.11350,-5.803421896
110.11400,-4.277449857
110.11450,-3.667061042
110.11500,-4.277449857
110.11550,-5.19303308
110.11600,-4.277449857
110.11650,-2.446283411
110.11700,-0.6151169646
110.11750,0.3004662585
110.11800,0.9108550739
110.11850,2.131632705
110.11900,4.878382374
110.11950,6.70954882
110.12000,5.488771189
110.12050,2.131632705
110.12100,0.3004662585
110.12150,0.6056606662
110.12200,1.216049482
110.12250,0.9108550739
110.12300,0.6056606662
110.12350,0.9108550739
110.12400,1.216049482
110.12450,1.826438297
110.12500,3.352410335
110.12550,4.573187966
110.12600,3.962799151
110.12650,2.131632705
110.12700,2.131632705
110.12750,3.657604743
110.12800,2.131632705
110.12850,-3.361866634
110.12900,-7.939782749
110.12950,-7.024199526
110.13000,-3.972255449
110.13050,-4.887838672
110.13100,-7.939782749
110.13150,-6.108616303
110.13200,0.9108550739
110.13250,6.70954882
110.13300,6.099160005
110.13350,2.74202152
110.13400,0.6056606662
110.13450,0.6056606662
110.13500,1.521243889
110.13550,4.573187966
110.13600,9.761492897
110.13650,11.59265934
110.13700,4.573187966
110.13750,-10.0761436
110.13800,-25.03066958
110.13850,-32.96572418
110.13900,-31.74494655
110.13950,-24.11508636
110.14000,-14.95925413
110.14050,-6.719005119
110.14100,0.9108550739
110.14150,12.20304816
110.14200,25.32640769
110.14250,35.39782314
110.14300,39.67054485
110.14350,41.19651689
110.14400,43.63807215
110.14450,42.41729452
110.14500,32.04068466
110.14550,13.42382579
110.14600,-5.498227488
110.14650,-19.23197583
110.14700,-24.11508636
110.14750,-20.45275347
110.14800,-11.90731005
110.14850,-6.719005119
110.14900,-9.465754788
110.14950,-15.87483735
110.15000,-17.7060038
110.15050,-13.43328209
110.15100,-9.16056038
110.15150,-7.024199526
110.15200,-4.887838672
110.15250,-1.22550578
110.15300,1.521243889
110.15350,4.267993559
110.15400,7.930326451
110.15450,12.50824257
110.15500,15.25499224
110.15550,17.39135309
110.15600,20.13810276
110.15650,21.05368598
110.15700,15.56018664
110.15750,7.014743228
110.15800,3.352410335
110.15850,3.657604743
110.15900,-0.3099225569
110.15950,-11.60211564
110.16000,-21.36833669
110.16050,-20.75794787
110.16100,-13.43328209
110.16150,-8.550171565
110.16200,-7.939782749
110.16250,-6.719005119
110.16300,-3.361866634
110.16350,-0.3099225569
110.16400,0.3004662585
110.16450,0.6056606662
110.16500,2.436827112
110.16550,4.573187966
110.16600,5.793965597
110.16650,4.878382374
110.16700,1.826438297
110.16750,-0.6151169646
110.16800,-1.835894595
110.16850,-1.835894595
110.16900,-2.751477819
110.16950,-4.277449857
110.17000,-4.887838672
110.17050,-5.19303308
110.17100,-6.108616303
110.17150,-7.329393934
110.17200,-7.024199526
110.17250,-4.582644265
110.17300,-2.446283411
110.17350,-1.22550578
110.17400,-0.3099225569
110.17450,0.9108550739
110.17500,1.826438297
110.17550,0.9108550739
110.17600,-0.3099225569
110.17650,-1.835894595
110.17700,-3.056672226
110.17750,-4.277449857
110.17800,-4.582644265
110.17850,-3.056672226
110.17900,-1.835894595
110.17950,-1.530700188
110.18000,-1.22550578
110.18050,-0.004728149245
110.18100,1.521243889
110.18150,1.216049482
110.18200,-0.004728149245
110.18250,-0.004728149245
110.18300,1.521243889
110.18350,1.826438297
110.18400,1.216049482
110.18450,2.131632705
110.18500,4.878382374
110.18550,5.793965597
110.18600,3.962799151
110.18650,3.352410335
110.18700,6.70954882
110.18750,8.235520859
110.18800,1.521243889
110.18850,-12.82289327
110.18900,-25.03066958
110.18950,-27.47222484
110.19000,-21.9787255
110.19050,-14.0436709
110.19100,-7.329393934
110.19150,-1.835894595
110.19200,1.826438297
110.19250,3.657604743
110.19300,3.962799151
110.19350,3.962799151
110.19400,3.352410335
110.19450,1.521243889
110.19500,-0.004728149245
110.19550,1.826438297
110.19600,6.099160005
110.19650,7.930326451
110.19700,5.183576782
110.19750,1.521243889
110.19800,1.826438297
110.19850,3.962799151
110.19900,0.9108550739
110.19950,-7.024199526
110.20000,-13.7384765
110.20050,-14.0436709
110.20100,-9.465754788
110.20150,-4.887838672
110.20200,-1.530700188
110.20250,1.216049482
110.20300,3.352410335
110.20350,3.962799151
110.20400,4.573187966
110.20450,6.099160005
110.20500,7.014743228
110.20550,6.099160005
110.20600,4.573187966
110.20650,5.183576782
110.20700,6.404354412
110.20750,5.793965597
110.20800,4.573187966
110.20850,4.573187966
110.20900,6.404354412
110.20950,6.099160005
110.21000,3.047215928
110.21050,0.3004662585
110.21100,0.3004662585
110.21150,1.826438297
110.21200,1.826438297
110.21250,0.9108550739
110.21300,1.216049482
110.21350,3.047215928
110.21400,3.657604743
110.21450,1.521243889
110.21500,-1.22550578
110.21550,-2.446283411
110.21600,-2.446283411
110.21650,-3.056672226
110.21700,-3.361866634
110.21750,-1.835894595
110.21800,0.3004662585
110.21850,0.6056606662
110.21900,-0.6151169646
110.21950,-1.22550578
110.22000,0.6056606662
110.22050,2.74202152
110.22100,2.74202152
110.22150,1.521243889
110.22200,1.521243889
110.22250,0.6056606662
110.22300,-1.835894595
110.22350,-3.972255449
110.22400,-3.667061042
110.22450,-2.141089003
110.22500,-2.751477819
110.22550,-5.498227488
110.22600,-6.719005119
110.22650,-6.413810711
110.22700,-6.413810711
110.22750,-7.024199526
110.22800,-6.108616303
110.22850,-3.361866634
110.22900,-0.6151169646
110.22950,-0.004728149245
110.23000,-0.004728149245
110.23050,0.9108550739
110.23100,3.047215928
110.23150,5.183576782
110.23200,7.319937636
110.23250,9.45629849
110.23300,10.37188171
110.23350,8.845909674
110.23400,5.488771189
110.23450,1.521243889
110.23500,-0.9203113723
110.23550,-2.446283411
110.23600,-0.9203113723
110.23650,2.74202152
110.23700,6.404354412
110.23750,6.099160005
110.23800,3.352410335
110.23850,1.521243889
110.23900,2.74202152
110.23950,5.183576782
110.24000,5.793965597
110.24050,3.352410335
110.24100,1.216049482
110.24150,1.521243889
110.24200,3.352410335
110.24250,3.352410335
110.24300,-0.004728149245
110.24350,-4.582644265
110.24400,-7.329393934
110.24450,-6.413810711
110.24500,-4.277449857
110.24550,-1.22550578
110.24600,1.826438297
110.24650,4.267993559
110.24700,4.267993559
110.24750,2.436827112
110.24800,2.131632705
110.24850,3.047215928
110.24900,3.352410335
110.24950,0.3004662585
110.25000,-3.361866634
110.25050,-5.19303308
110.25100,-4.582644265
110.25150,-4.277449857
110.25200,-4.582644265
110.25250,-4.277449857
110.25300,-2.751477819
110.25350,-1.835894595
110.25400,-2.751477819
110.25450,-4.277449857
110.25500,-5.19303308
110.25550,-5.19303308
110.25600,-4.582644265
110.25650,-3.056672226
110.25700,-0.3099225569
110.25750,2.131632705
110.25800,3.047215928
110.25850,2.131632705
110.25900,1.216049482
110.25950,0.9108550739
110.26000,0.9108550739
110.26050,1.216049482
110.26100,1.521243889
110.26150,0.3004662585
110.26200,-3.056672226
110.26250,-8.550171565
110.26300,-12.21250446
110.26350,-10.38133801
110.26400,-4.887838672
110.26450,-0.004728149245
110.26500,0.9108550739
110.26550,0.3004662585
110.26600,0.9108550739
110.26650,1.826438297
110.26700,2.436827112
110.26750,2.131632705
110.26800,1.826438297
110.26850,1.521243889
110.26900,-0.004728149245
110.26950,-1.835894595
110.27000,-3.056672226
110.27050,-3.361866634
110.27100,-3.667061042
110.27150,-3.667061042
110.27200,-3.056672226
110.27250,-1.530700188
110.27300,-1.530700188
110.27350,-2.751477819
110.27400,-1.835894595
110.27450,2.131632705
110.27500,6.404354412
110.27550,6.70954882
110.27600,4.267993559
110.27650,5.183576782
110.27700,10.37188171
110.27750,14.03421461
110.27800,9.761492897
110.27850,-0.004728149245
110.27900,-8.855365973
110.27950,-11.90731005
110.28000,-8.550171565
110.28050,-2.751477819
110.28100,1.216049482
110.28150,1.826438297
110.28200,-0.004728149245
110.28250,-0.9203113723
110.28300,-0.3099225569
110.28350,-0.004728149245
110.28400,0.6056606662
110.28450,2.74202152
110.28500,6.099160005
110.28550,7.014743228
110.28600,1.216049482
110.28650,-8.855365973
110.28700,-18.62158702
110.28750,-22.58911432
110.28800,-18.31639261
110.28850,-10.38133801
110.28900,-7.329393934
110.28950,-14.0436709
110.29000,-24.42028077
110.29050,-29.30339129
110.29100,-26.55664162
110.29150,-22.58911432
110.29200,-19.84236465
110.29250,-13.7384765
110.29300,-2.141089003
110.29350,8.540715266
110.29400,13.42382579
110.29450,17.6965475
110.29500,28.07315736
110.29550,41.5017113
110.29600,47.30040504
110.29650,42.11210011
110.29700,31.73549025
110.29750,22.57965802
110.29800,14.94979783
110.29850,8.540715266
110.29900,4.878382374
110.29950,5.183576782
110.30000,7.625132043
110.30050,9.151104082
110.30100,7.014743228
110.30150,-0.6151169646
110.30200,-10.99172683
110.30250,-17.40080939
110.30300,-13.7384765
110.30350,-2.751477819
110.30400,7.319937636
110.30450,11.89785375
110.30500,11.59265934
110.30550,9.761492897
110.30600,8.235520859
110.30650,7.014743228
110.30700,6.70954882
110.30750,7.319937636
110.30800,9.151104082
110.30850,12.50824257
110.30900,16.17057546
110.30950,18.00174191
110.31000,16.47576987
110.31050,12.50824257
110.31100,8.845909674
110.31150,6.404354412
110.31200,4.267993559
110.31250,2.74202152
110.31300,1.521243889
110.31350,0.9108550739
110.31400,-0.6151169646
110.31450,-3.056672226
110.31500,-4.582644265
110.31550,-3.667061042
110.31600,-2.141089003
110.31650,-1.530700188
110.31700,-2.446283411
110.31750,-3.361866634
110.31800,-3.361866634
110.31850,-3.056672226
110.31900,-3.667061042
110.31950,-4.582644265
110.32000,-4.887838672
110.32050,-3.667061042
110.32100,-1.835894595
110.32150,-0.9203113723
110.32200,-1.22550578
110.32250,-1.530700188
110.32300,-1.22550578
110.32350,-0.9203113723
110.32400,-1.530700188
110.32450,-2.751477819
110.32500,-2.446283411
110.32550,-1.22550578
110.32600,-1.22550578
110.32650,-2.446283411
110.32700,-4.277449857
110.32750,-3.972255449
110.32800,-2.751477819
110.32850,-1.835894595
110.32900,-1.530700188
110.32950,-1.530700188
110.33000,-1.530700188
110.33050,-1.530700188
110.33100,-1.530700188
110.33150,-2.141089003
110.33200,-4.277449857
110.33250,-7.024199526
110.33300,-9.465754788
110.33350,-10.38133801
110.33400,-10.68653242
110.33450,-10.68653242
110.33500,-9.465754788
110.33550,-6.719005119
110.33600,-2.751477819
110.33650,-0.004728149245
110.33700,0.3004662585
110.33750,-1.22550578
110.33800,-3.361866634
110.33850,-4.582644265
110.33900,-4.277449857
110.33950,-2.751477819
110.34000,-0.6151169646
110.34050,1.521243889
110.34100,2.74202152
110.34150,1.826438297
110.34200,-0.004728149245
110.34250,-0.6151169646
110.34300,-0.3099225569
110.34350,-0.6151169646
110.34400,-3.056672226
110.34450,-5.498227488
110.34500,-6.719005119
110.34550,-6.413810711
110.34600,-5.803421896
110.34650,-4.582644265
110.34700,-3.056672226
110.34750,-3.056672226
110.34800,-5.19303308
110.34850,-7.634588342
110.34900,-6.719005119
110.34950,-3.972255449
110.35000,-1.22550578
110.35050,-0.3099225569
110.35100,-0.004728149245
110.35150,-0.004728149245
110.35200,-0.3099225569
110.35250,-0.3099225569
110.35300,0.9108550739
110.35350,3.047215928
110.35400,2.74202152
110.35450,-0.004728149245
110.35500,-2.751477819
110.35550,-3.667061042
110.35600,-2.751477819
110.35650,-1.22550578
110.35700,0.3004662585
110.35750,1.826438297
110.35800,1.826438297
110.35850,-0.004728149245
110.35900,-3.361866634
110.35950,-5.498227488
110.36000,-5.803421896
110.36050,-3.972255449
110.36100,-1.835894595
110.36150,-0.9203113723
110.36200,-2.751477819
110.36250,-4.887838672
110.36300,-3.667061042
110.36350,-0.004728149245
110.36400,0.9108550739
110.36450,-3.056672226
110.36500,-8.855365973
110.36550,-9.465754788
110.36600,-5.19303308
110.36650,-1.530700188
110.36700,-2.446283411
110.36750,-4.887838672
110.36800,-5.498227488
110.36850,-4.277449857
110.36900,-3.056672226
110.36950,-2.141089003
110.37000,0.6056606662
110.37050,4.878382374
110.37100,7.319937636
110.37150,6.70954882
110.37200,4.573187966
110.37250,3.657604743
110.37300,3.352410335
110.37350,1.826438297
110.37400,-0.004728149245
110.37450,-0.6151169646
110.37500,0.3004662585
110.37550,1.826438297
110.37600,2.436827112
110.37650,3.047215928
110.37700,3.962799151
110.37750,3.352410335
110.37800,0.3004662585
110.37850,-2.446283411
110.37900,-2.751477819
110.37950,-0.004728149245
110.38000,3.962799151
110.38050,5.793965597
110.38100,5.488771189
110.38150,4.878382374
110.38200,4.573187966
110.38250,4.878382374
110.38300,4.573187966
110.38350,3.352410335
110.38400,3.047215928
110.38450,6.099160005
110.38500,12.20304816
110.38550,14.33940901
110.38600,7.625132043
110.38650,-3.361866634
110.38700,-7.634588342
110.38750,-1.835894595
110.38800,6.099160005
110.38850,7.625132043
110.38900,2.74202152
110.38950,-1.835894595
110.39000,-3.361866634
110.39050,-4.277449857
110.39100,-6.413810711
110.39150,-8.550171565
110.39200,-8.550171565
110.39250,-7.939782749
110.39300,-8.244977157
110.39350,-7.329393934
110.39400,-3.972255449
110.39450,-0.3099225569
110.39500,0.9108550739
110.39550,0.9108550739
110.39600,1.826438297
110.39650,2.74202152
110.39700,1.826438297
110.39750,0.9108550739
110.39800,3.352410335
110.39850,8.845909674
110.39900,11.89785375
110.39950,10.67707612
110.40000,9.761492897
110.40050,11.28746494
110.40100,10.0666873
110.40150,1.521243889
110.40200,-9.465754788
110.40250,-15.26444853
110.40300,-13.43328209
110.40350,-11.60211564
110.40400,-12.21250446
110.40450,-11.90731005
110.40500,-7.634588342
110.40550,-2.751477819
110.40600,-3.056672226
110.40650,-6.413810711
110.40700,-7.024199526
110.40750,-2.751477819
110.40800,1.521243889
110.40850,3.047215928
110.40900,2.436827112
110.40950,1.826438297
110.41000,0.9108550739
110.41050,-0.004728149245
110.41100,-0.6151169646
110.41150,-0.004728149245
110.41200,1.826438297
110.41250,2.436827112
110.41300,1.826438297
110.41350,1.521243889
110.41400,2.131632705
110.41450,3.352410335
110.41500,4.267993559
110.41550,5.488771189
110.41600,7.625132043
110.41650,9.45629849
110.41700,9.45629849
110.41750,7.319937636
110.41800,5.488771189
110.41850,4.573187966
110.41900,4.878382374
110.41950,4.573187966
110.42000,2.436827112
110.42050,-0.004728149245
110.42100,-2.141089003
110.42150,-2.141089003
110.42200,-1.22550578
110.42250,-1.22550578
110.42300,-2.141089003
110.42350,-2.446283411
110.42400,-0.6151169646
110.42450,2.436827112
110.42500,5.488771189
110.42550,8.845909674
110.42600,13.11863138
110.42650,16.17057546
110.42700,14.94979783
110.42750,7.319937636
110.42800,-3.056672226
110.42850,-10.99172683
110.42900,-12.21250446
110.42950,-8.244977157
110.43000,-4.887838672
110.43050,-5.803421896
110.43100,-9.16056038
110.43150,-8.855365973
110.43200,-2.751477819
110.43250,5.488771189
110.43300,11.89785375
110.43350,15.86538105
110.43400,19.52771394
110.43450,21.6640748
110.43500,20.44329717
110.43550,15.25499224
110.43600,9.45629849
110.43650,5.488771189
110.43700,4.573187966
110.43750,5.793965597
110.43800,7.319937636
110.43850,5.793965597
110.43900,1.521243889
110.43950,-3.667061042
110.44000,-10.0761436
110.44050,-18.92678143
110.44100,-27.77741925
110.44150,-27.16703043
110.44200,-13.43328209
110.44250,1.826438297
110.44300,6.099160005
110.44350,0.6056606662
110.44400,-2.446283411
110.44450,2.74202152
110.44500,10.0666873
110.44550,11.28746494
110.44600,7.014743228
110.44650,2.131632705
110.44700,-1.530700188
110.44750,-5.803421896
110.44800,-8.244977157
110.44850,-6.719005119
110.44900,-3.667061042
110.44950,-2.446283411
110.45000,-3.056672226
110.45050,-2.141089003
110.45100,-0.004728149245
110.45150,0.9108550739
110.45200,-0.004728149245
110.45250,-0.004728149245
110.45300,3.047215928
110.45350,5.793965597
110.45400,5.183576782
110.45450,2.436827112
110.45500,0.6056606662
110.45550,0.6056606662
110.45600,0.9108550739
110.45650,0.6056606662
110.45700,0.6056606662
110.45750,-1.530700188
110.45800,-10.0761436
110.45850,-22.89430873
110.45900,-32.66052977
110.45950,-33.8813074
110.46000,-29.30339129
110.46050,-24.11508636
110.46100,-21.06314228
110.46150,-18.62158702
110.46200,-14.0436709
110.46250,-4.887838672
110.46300,9.45629849
110.46350,24.71601887
110.46400,32.65107347
110.46450,29.5991294
110.46500,20.44329717
110.46550,11.89785375
110.46600,5.488771189
110.46650,0.9108550739
110.46700,0.3004662585
110.46750,4.573187966
110.46800,10.37188171
110.46850,12.20304816
110.46900,9.761492897
110.46950,6.70954882
110.47000,4.878382374
110.47050,3.657604743
110.47100,2.436827112
110.47150,1.521243889
110.47200,-0.004728149245
110.47250,-1.835894595
110.47300,-2.751477819
110.47350,-0.004728149245
110.47400,4.267993559
110.47450,4.878382374
110.47500,0.9108550739
110.47550,-3.667061042
110.47600,-6.108616303
110.47650,-5.803421896
110.47700,-3.361866634
110.47750,0.6056606662
110.47800,3.657604743
110.47850,3.657604743
110.47900,0.6056606662
110.47950,-0.9203113723
110.48000,-0.004728149245
110.48050,3.047215928
110.48100,3.657604743
110.48150,1.826438297
110.48200,-0.3099225569
110.48250,-1.22550578
110.48300,-0.9203113723
110.48350,-1.22550578
110.48400,-1.835894595
110.48450,-1.835894595
110.48500,-1.22550578
110.48550,-0.9203113723
110.48600,-1.530700188
110.48650,-1.835894595
110.48700,-1.835894595
110.48750,-2.446283411
110.48800,-4.887838672
110.48850,-7.634588342
110.48900,-8.855365973
110.48950,-7.634588342
110.49000,-5.803421896
110.49050,-4.277449857
110.49100,-3.056672226
110.49150,-1.22550578
110.49200,0.9108550739
110.49250,2.131632705
110.49300,1.521243889
110.49350,-1.22550578
110.49400,-5.803421896
110.49450,-9.16056038
110.49500,-10.0761436
110.49550,-9.16056038
110.49600,-7.939782749
110.49650,-7.329393934
110.49700,-7.024199526
110.49750,-6.719005119
110.49800,-6.108616303
110.49850,-5.803421896
110.49900,-6.413810711
110.49950,-6.413810711
110.50000,-4.887838672
110.50050,-2.751477819
110.50100,-2.141089003
110.50150,-4.887838672
110.50200,-7.939782749
110.50250,-7.939782749
110.50300,-4.887838672
110.50350,-1.530700188
110.50400,-0.6151169646
110.50450,-0.9203113723
110.50500,-1.530700188
110.50550,-0.9203113723
110.50600,0.6056606662
110.50650,2.74202152
110.50700,3.352410335
110.50750,1.826438297
110.50800,-0.004728149245
110.50850,0.9108550739
110.50900,4.267993559
110.50950,5.488771189
110.51000,3.352410335
110.51050,2.131632705
110.51100,5.488771189
110.51150,10.37188171
110.51200,11.28746494
110.51250,7.014743228
110.51300,1.216049482
110.51350,-2.141089003
110.51400,-3.056672226
110.51450,-2.141089003
110.51500,-0.6151169646
110.51550,0.9108550739
110.51600,2.74202152
110.51650,5.183576782
110.51700,9.45629849
110.51750,15.56018664
110.51800,21.6640748
110.51850,24.41082447
110.51900,21.96926921
110.51950,16.47576987
110.52000,14.03421461
110.52050,16.47576987
110.52100,19.52771394
110.52150,14.33940901
110.52200,-0.9203113723
110.52250,-19.23197583
110.52300,-29.6085857
110.52350,-28.99819688
110.52400,-21.36833669
110.52450,-12.51769887
110.52500,-5.498227488
110.52550,-0.9203113723
110.52600,2.436827112
110.52650,4.573187966
110.52700,5.488771189
110.52750,5.183576782
110.52800,2.74202152
110.52850,-1.530700188
110.52900,-5.803421896
110.52950,-4.887838672
110.53000,1.216049482
110.53050,8.845909674
110.53100,11.28746494
110.53150,7.625132043
110.53200,1.216049482
110.53250,-4.582644265
110.53300,-7.939782749
110.53350,-7.329393934
110.53400,-2.751477819
110.53450,1.826438297
110.53500,3.352410335
110.53550,1.826438297
110.53600,1.826438297
110.53650,6.099160005
110.53700,10.67707612
110.53750,12.50824257
110.53800,11.89785375
110.53850,10.98227053
110.53900,10.98227053
110.53950,9.761492897
110.54000,5.488771189
110.54050,-2.751477819
110.54100,-13.7384765
110.54150,-21.36833669
110.54200,-21.06314228
110.54250,-13.7384765
110.54300,-5.498227488
110.54350,-1.835894595
110.54400,-1.22550578
110.54450,-0.004728149245
110.54500,1.216049482
110.54550,2.436827112
110.54600,2.436827112
110.54650,1.826438297
110.54700,1.826438297
110.54750,4.267993559
110.54800,9.151104082
110.54850,11.59265934
110.54900,7.625132043
110.54950,1.826438297
110.55000,2.131632705
110.55050,7.625132043
110.55100,8.235520859
110.55150,3.657604743
110.55200,2.74202152
110.55250,7.319937636
110.55300,3.657604743
110.55350,-16.48522617
110.55400,-39.68000115
110.55450,-43.95272286
110.55500,-28.08261366
110.55550,-10.38133801
110.55600,-2.751477819
110.55650,-1.835894595
110.55700,-1.530700188
110.55750,-1.22550578
110.55800,-3.056672226
110.55850,-4.582644265
110.55900,-4.277449857
110.55950,-3.667061042
110.56000,-1.835894595
110.56050,1.826438297
110.56100,6.70954882
110.56150,8.540715266
110.56200,7.014743228
110.56250,6.404354412
110.56300,7.319937636
110.56350,7.930326451
110.56400,8.845909674
110.56450,10.98227053
110.56500,11.59265934
110.56550,7.014743228
110.56600,-0.6151169646
110.56650,-5.19303308
110.56700,-4.582644265
110.56750,-1.530700188
110.56800,0.6056606662
110.56850,2.436827112
110.56900,3.962799151
110.56950,3.657604743
110.57000,2.74202152
110.57050,3.352410335
110.57100,4.878382374
110.57150,4.573187966
110.57200,1.826438297
110.57250,-0.9203113723
110.57300,-3.056672226
110.57350,-4.277449857
110.57400,-4.277449857
110.57450,-2.141089003
110.57500,0.9108550739
110.57550,2.436827112
110.57600,2.436827112
110.57650,1.826438297
110.57700,0.9108550739
110.57750,-0.004728149245
110.57800,0.3004662585
110.57850,1.826438297
110.57900,3.657604743
110.57950,4.878382374
110.58000,5.793965597
110.58050,7.014743228
110.58100,7.319937636
110.58150,5.183576782
110.58200,1.216049482
110.58250,-2.141089003
110.58300,-4.887838672
110.58350,-5.498227488
110.58400,-2.141089003
110.58450,2.74202152
110.58500,4.267993559
110.58550,0.6056606662
110.58600,-2.446283411
110.58650,-0.9203113723
110.58700,0.3004662585
110.58750,-3.667061042
110.58800,-11.60211564
110.58850,-14.0436709
110.58900,-7.939782749
110.58950,0.6056606662
110.59000,6.099160005
110.59050,7.930326451
110.59100,8.540715266
110.59150,7.930326451
110.59200,5.183576782
110.59250,1.216049482
110.59300,-2.446283411
110.59350,-5.498227488
110.59400,-6.108616303
110.59450,-4.582644265
110.59500,-2.141089003
110.59550,-0.3099225569
110.59600,0.6056606662
110.59650,2.131632705
110.59700,2.74202152
110.59750,1.521243889
110.59800,-0.6151169646
110.59850,-2.446283411
110.59900,-3.667061042
110.59950,-4.277449857
110.60000,-3.056672226
110.60050,-0.004728149245
110.60100,3.047215928
110.60150,3.047215928
110.60200,0.9108550739
110.60250,0.3004662585
110.60300,1.826438297
110.60350,2.436827112
110.60400,0.9108550739
110.60450,-0.6151169646
110.60500,0.3004662585
110.60550,3.962799151
110.60600,6.404354412
110.60650,5.183576782
110.60700,1.826438297
110.60750,-0.004728149245
110.60800,-0.004728149245
110.60850,-0.3099225569
110.60900,-3.056672226
110.60950,-6.108616303
110.61000,-6.108616303
110.61050,-3.667061042
110.61100,-1.22550578
110.61150,1.216049482
110.61200,4.267993559
110.61250,4.267993559
110.61300,-2.751477819
110.61350,-13.12808768
110.61400,-15.87483735
110.61450,-8.550171565
110.61500,-0.9203113723
110.61550,0.3004662585
110.61600,-1.530700188
110.61650,-1.835894595
110.61700,-2.141089003
110.61750,-6.719005119
110.61800,-13.12808768
110.61850,-14.95925413
110.61900,-11.60211564
110.61950,-7.024199526
110.62000,-3.667061042
110.62050,-0.6151169646
110.62100,1.826438297
110.62150,1.826438297
110.62200,-0.3099225569
110.62250,-3.972255449
110.62300,-6.719005119
110.62350,-7.024199526
110.62400,-4.277449857
110.62450,-0.6151169646
110.62500,-0.004728149245
110.62550,-0.6151169646
110.62600,-0.6151169646
110.62650,1.826438297
110.62700,3.962799151
110.62750,3.962799151
110.62800,4.267993559
110.62850,3.657604743
110.62900,-3.361866634
110.62950,-16.79042057
110.63000,-28.08261366
110.63050,-29.9137801
110.63100,-25.9462528
110.63150,-23.50469754
110.63200,-21.6735311
110.63250,-16.48522617
110.63300,-7.634588342
110.63350,2.74202152
110.63400,17.6965475
110.63450,36.61860077
110.63500,49.13157149
110.63550,46.38482182
110.63600,33.26146229
110.63650,24.10563006
110.63700,22.88485243
110.63750,21.05368598
110.63800,14.03421461
110.63850,8.540715266
110.63900,9.151104082
110.63950,10.98227053
110.64000,9.151104082
110.64050,7.625132043
110.64100,10.37188171
110.64150,10.98227053
110.64200,1.826438297
110.64250,-13.12808768
110.64300,-22.58911432
110.64350,-19.84236465
110.64400,-10.68653242
110.64450,-3.972255449
110.64500,-1.530700188
110.64550,-2.141089003
110.64600,-5.19303308
110.64650,-7.939782749
110.64700,-7.024199526
110.64750,-1.835894595
110.64800,2.436827112
110.64850,3.047215928
110.64900,1.521243889
110.64950,1.216049482
110.65000,2.436827112
110.65050,3.047215928
110.65100,1.826438297
110.65150,0.9108550739
110.65200,-0.004728149245
110.65250,-2.751477819
110.65300,-5.803421896
110.65350,-5.803421896
110.65400,-1.835894595
110.65450,3.657604743
110.65500,7.014743228
110.65550,7.319937636
110.65600,6.099160005
110.65650,4.878382374
110.65700,5.793965597
110.65750,7.625132043
110.65800,4.267993559
110.65850,-9.16056038
110.65900,-29.6085857
110.65950,-43.95272286
110.66000,-43.95272286
110.66050,-33.27091859
110.66100,-21.06314228
110.66150,-9.16056038
110.66200,3.962799151
110.66250,14.64460342
110.66300,12.81343697
110.66350,-0.6151169646
110.66400,-11.29692123
110.66450,-6.413810711
110.66500,8.845909674
110.66550,20.44329717
110.66600,21.6640748
110.66650,18.30693631
110.66700,15.56018664
110.66750,13.42382579
110.66800,11.28746494
110.66850,9.45629849
110.66900,8.235520859
110.66950,6.099160005
110.67000,3.962799151
110.67050,4.573187966
110.67100,7.930326451
110.67150,8.845909674
110.67200,6.099160005
110.67250,3.352410335
110.67300,3.657604743
110.67350,4.878382374
110.67400,3.047215928
110.67450,0.9108550739
110.67500,1.521243889
110.67550,4.878382374
110.67600,6.70954882
110.67650,5.793965597
110.67700,4.878382374
110.67750,4.878382374
110.67800,4.878382374
110.67850,4.573187966
110.67900,4.878382374
110.67950,4.267993559
110.68000,2.131632705
110.68050,-0.3099225569
110.68100,-0.9203113723
110.68150,-0.004728149245
110.68200,-0.6151169646
110.68250,-3.972255449
110.68300,-6.413810711
110.68350,-6.108616303
110.68400,-4.582644265
110.68450,-4.277449857
110.68500,-3.972255449
110.68550,-3.056672226
110.68600,-1.835894595
110.68650,-3.056672226
110.68700,-5.498227488
110.68750,-7.634588342
110.68800,-7.939782749
110.68850,-6.413810711
110.68900,-3.972255449
110.68950,-1.22550578
110.69000,-0.004728149245
110.69050,-0.3099225569
110.69100,-1.530700188
110.69150,-2.446283411
110.69200,-2.751477819
110.69250,-2.446283411
110.69300,-2.141089003
110.69350,-4.277449857
110.69400,-8.855365973
110.69450,-12.21250446
110.69500,-11.60211564
110.69550,-8.244977157
110.69600,-7.024199526
110.69650,-8.855365973
110.69700,-9.465754788
110.69750,-6.719005119
110.69800,-2.751477819
110.69850,-0.004728149245
110.69900,3.047215928
110.69950,5.183576782
110.70000,4.267993559
110.70050,1.521243889
110.70100,2.436827112
110.70150,8.845909674
110.70200,15.56018664
110.70250,14.94979783
110.70300,8.235520859
110.70350,1.826438297
110.70400,-0.6151169646
110.70450,-0.3099225569
110.70500,0.3004662585
110.70550,1.826438297
110.70600,2.74202152
110.70650,3.047215928
110.70700,3.657604743
110.70750,4.878382374
110.70800,5.488771189
110.70850,4.267993559
110.70900,3.047215928
110.70950,5.183576782
110.71000,9.151104082
110.71050,10.67707612
110.71100,7.014743228
110.71150,1.216049482
110.71200,-2.751477819
110.71250,-3.667061042
110.71300,-2.141089003
110.71350,-0.004728149245
110.71400,1.216049482
110.71450,1.216049482
110.71500,1.521243889
110.71550,2.436827112
110.71600,4.573187966
110.71650,6.404354412
110.71700,5.488771189
110.71750,0.3004662585
110.71800,-7.939782749
110.71850,-14.0436709
110.71900,-13.12808768
110.71950,-7.634588342
110.72000,-2.751477819
110.72050,-1.22550578
110.72100,-0.3099225569
110.72150,0.3004662585
110.72200,-0.004728149245
110.72250,-3.667061042
110.72300,-7.329393934
110.72350,-6.719005119
110.72400,-3.056672226
110.72450,-0.004728149245
110.72500,1.521243889
110.72550,1.826438297
110.72600,1.216049482
110.72650,-0.004728149245
110.72700,-0.004728149245
110.72750,2.131632705
110.72800,3.962799151
110.72850,3.047215928
110.72900,0.3004662585
110.72950,-0.6151169646
110.73000,-0.004728149245
110.73050,0.9108550739
110.73100,0.3004662585
110.73150,-1.22550578
110.73200,-3.056672226
110.73250,-3.972255449
110.73300,-3.667061042
110.73350,-1.835894595
110.73400,-0.004728149245
110.73450,0.9108550739
110.73500,0.9108550739
110.73550,-0.004728149245
110.73600,-1.835894595
110.73650,-2.751477819
110.73700,-2.446283411
110.73750,-0.9203113723
110.73800,-0.6151169646
110.73850,-1.22550578
110.73900,-2.141089003
110.73950,-2.141089003
110.74000,-1.835894595
110.74050,-1.835894595
110.74100,-1.530700188
110.74150,-0.3099225569
110.74200,-0.004728149245
110.74250,-0.6151169646
110.74300,-1.530700188
110.74350,0.3004662585
110.74400,4.573187966
110.74450,5.488771189
110.74500,0.6056606662
110.74550,-4.887838672
110.74600,-5.19303308
110.74650,-0.004728149245
110.74700,5.183576782
110.74750,7.014743228
110.74800,6.70954882
110.74850,6.404354412
110.74900,5.793965597
110.74950,4.878382374
110.75000,5.183576782
110.75050,7.014743228
110.75100,7.930326451
110.75150,6.70954882
110.75200,5.488771189
110.75250,5.183576782
110.75300,3.657604743
110.75350,-0.3099225569
110.75400,-3.056672226
110.75450,-1.835894595
110.75500,-0.004728149245
110.75550,-2.141089003
110.75600,-7.329393934
110.75650,-11.90731005
110.75700,-15.56964294
110.75750,-21.6735311
110.75800,-28.69300247
110.75850,-32.05014096
110.75900,-30.52416892
110.75950,-25.6410584
110.76000,-17.7060038
110.76050,-5.19303308
110.76100,5.183576782
110.76150,6.70954882
110.76200,0.3004662585
110.76250,-3.056672226
110.76300,-0.6151169646
110.76350,0.9108550739
110.76400,-0.6151169646
110.76450,-0.6151169646
110.76500,5.488771189
110.76550,13.7290202
110.76600,19.52771394
110.76650,25.6316021
110.76700,31.73549025
110.76750,31.43029584
110.76800,24.10563006
110.76850,19.52771394
110.76900,23.80043565
110.76950,25.02121328
110.77000,11.28746494
110.77050,-9.465754788
110.77100,-19.23197583
110.77150,-12.82289327
110.77200,-3.056672226
110.77250,-0.6151169646
110.77300,-2.446283411
110.77350,-3.361866634
110.77400,-3.667061042
110.77450,-5.803421896
110.77500,-8.244977157
110.77550,-8.855365973
110.77600,-7.939782749
110.77650,-7.024199526
110.77700,-6.719005119
110.77750,-7.634588342
110.77800,-10.0761436
110.77850,-10.68653242
110.77900,-5.19303308
110.77950,4.267993559
110.78000,10.37188171
110.78050,9.151104082
110.78100,4.573187966
110.78150,2.436827112
110.78200,2.436827112
110.78250,0.9108550739
110.78300,-0.3099225569
110.78350,0.3004662585
110.78400,2.74202152
110.78450,3.047215928
110.78500,0.6056606662
110.78550,-1.22550578
110.78600,-1.22550578
110.78650,-0.3099225569
110.78700,-1.22550578
110.78750,-3.056672226
110.78800,-4.582644265
110.78850,-4.887838672
110.78900,-4.887838672
110.78950,-4.582644265
110.79000,-3.361866634
110.79050,-1.22550578
110.79100,0.9108550739
110.79150,1.521243889
110.79200,0.6056606662
110.79250,-0.004728149245
110.79300,-0.3099225569
110.79350,-0.004728149245
110.79400,-0.9203113723
110.79450,-2.751477819
110.79500,-3.972255449
110.79550,-3.667061042
110.79600,-2.446283411
110.79650,-3.056672226
110.79700,-4.277449857
110.79750,-4.582644265
110.79800,-3.972255449
110.79850,-3.667061042
110.79900,-4.277449857
110.79950,-4.582644265
110.80000,-3.667061042
110.80050,-3.361866634
110.80100,-4.277449857
110.80150,-5.19303308
110.80200,-3.972255449
110.80250,-2.141089003
110.80300,-1.530700188
110.80350,-2.141089003
110.80400,-2.446283411
110.80450,-2.446283411
110.80500,-3.056672226
110.80550,-4.582644265
110.80600,-4.277449857
110.80650,-1.530700188
110.80700,1.521243889
110.80750,2.436827112
110.80800,1.826438297
110.80850,1.216049482
110.80900,1.521243889
110.80950,2.436827112
110.81000,2.74202152
110.81050,2.436827112
110.81100,1.826438297
110.81150,2.74202152
110.81200,4.878382374
110.81250,5.488771189
110.81300,2.436827112
110.81350,-0.6151169646
110.81400,-0.3099225569
110.81450,2.131632705
110.81500,3.657604743
110.81550,1.826438297
110.81600,0.3004662585
110.81650,0.6056606662
110.81700,1.521243889
110.81750,0.6056606662
110.81800,-0.004728149245
110.81850,-0.004728149245
110.81900,0.3004662585
110.81950,0.3004662585
110.82000,0.3004662585
110.82050,1.521243889
110.82100,3.047215928
110.82150,3.047215928
110.82200,1.521243889
110.82250,-0.004728149245
110.82300,-1.22550578
110.82350,-2.141089003
110.82400,-2.141089003
110.82450,-0.9203113723
110.82500,0.6056606662
110.82550,1.826438297
110.82600,2.74202152
110.82650,4.878382374
110.82700,7.930326451
110.82750,9.45629849
110.82800,8.540715266
110.82850,5.793965597
110.82900,3.962799151
110.82950,3.657604743
110.83000,3.047215928
110.83050,1.216049482
110.83100,-0.3099225569
110.83150,-1.530700188
110.83200,-1.530700188
110.83250,-0.9203113723
110.83300,-0.9203113723
110.83350,-0.9203113723
110.83400,-1.22550578
110.83450,-1.530700188
110.83500,-1.530700188
110.83550,-1.22550578
110.83600,-1.835894595
110.83650,-2.751477819
110.83700,-2.446283411
110.83750,-0.004728149245
110.83800,1.826438297
110.83850,2.74202152
110.83900,3.962799151
110.83950,7.014743228
110.84000,10.67707612
110.84050,10.37188171
110.84100,7.014743228
110.84150,3.657604743
110.84200,2.74202152
110.84250,3.352410335
110.84300,3.047215928
110.84350,2.74202152
110.84400,2.74202152
110.84450,3.047215928
110.84500,3.047215928
110.84550,3.047215928
110.84600,3.047215928
110.84650,2.436827112
110.84700,1.826438297
110.84750,1.521243889
110.84800,0.3004662585
110.84850,-2.446283411
110.84900,-4.582644265
110.84950,-1.530700188
110.85000,4.878382374
110.85050,8.845909674
110.85100,5.793965597
110.85150,-0.9203113723
110.85200,-4.582644265
110.85250,-2.141089003
110.85300,3.352410335
110.85350,8.235520859
110.85400,10.37188171
110.85450,10.98227053
110.85500,10.67707612
110.85550,8.235520859
110.85600,4.878382374
110.85650,2.436827112
110.85700,3.047215928
110.85750,3.962799151
110.85800,1.826438297
110.85850,-1.835894595
110.85900,-3.056672226
110.85950,-0.004728149245
110.86000,4.573187966
110.86050,7.930326451
110.86100,8.845909674
110.86150,7.930326451
110.86200,4.267993559
110.86250,0.9108550739
110.86300,2.131632705
110.86350,5.183576782
110.86400,-0.004728149245
110.86450,-18.92678143
110.86500,-42.12155641
110.86550,-55.55011035
110.86600,-54.02413831
110.86650,-42.73194523
110.86700,-28.38780807
110.86750,-12.82289327
110.86800,0.3004662585
110.86850,7.930326451
110.86900,10.0666873
110.86950,10.98227053
110.87000,12.50824257
110.87050,12.50824257
110.87100,9.761492897
110.87150,6.404354412
110.87200,3.962799151
110.87250,2.131632705
110.87300,-0.004728149245
110.87350,-0.9203113723
110.87400,-0.9203113723
110.87450,-0.3099225569
110.87500,-0.3099225569
110.87550,-0.6151169646
110.87600,-0.004728149245
110.87650,1.521243889
110.87700,4.267993559
110.87750,7.014743228
110.87800,7.625132043
110.87850,5.793965597
110.87900,3.047215928
110.87950,1.216049482
110.88000,0.6056606662
110.88050,0.9108550739
110.88100,1.216049482
110.88150,0.3004662585
110.88200,-1.835894595
110.88250,-4.582644265
110.88300,-3.056672226
110.88350,3.962799151
110.88400,10.0666873
110.88450,6.70954882
110.88500,-4.887838672
110.88550,-13.43328209
110.88600,-10.99172683
110.88650,-2.446283411
110.88700,3.657604743
110.88750,4.878382374
110.88800,4.267993559
110.88850,3.657604743
110.88900,1.826438297
110.88950,0.3004662585
110.89000,-0.004728149245
110.89050,-0.004728149245
110.89100,-0.9203113723
110.89150,-1.835894595
110.89200,-0.3099225569
110.89250,0.6056606662
110.89300,-3.056672226
110.89350,-11.60211564
110.89400,-19.23197583
110.89450,-23.19950313
110.89500,-24.42028077
110.89550,-22.89430873
110.89600,-18.62158702
110.89650,-14.65405972
110.89700,-12.82289327
110.89750,-9.465754788
110.89800,0.9108550739
110.89850,17.08615868
110.89900,30.20951821
110.89950,34.17704551
110.90000,30.20951821
110.90050,23.80043565
110.90100,18.30693631
110.90150,14.94979783
110.90200,14.94979783
110.90250,15.86538105
110.90300,14.03421461
110.90350,9.761492897
110.90400,6.404354412
110.90450,5.793965597
110.90500,5.183576782
110.90550,2.436827112
110.90600,-0.004728149245
110.90650,-0.3099225569
110.90700,-0.3099225569
110.90750,-2.141089003
110.90800,-3.972255449
110.90850,-4.582644265
110.90900,-5.19303308
110.90950,-6.413810711
110.91000,-6.719005119
110.91050,-4.887838672
110.91100,-2.751477819
110.91150,-2.141089003
110.91200,-2.141089003
110.91250,-2.141089003
110.91300,-2.751477819
110.91350,-3.972255449
110.91400,-5.19303308
110.91450,-5.803421896
110.91500,-5.803421896
110.91550,-5.19303308
110.91600,-2.751477819
110.91650,0.3004662585
110.91700,2.436827112
110.91750,1.216049482
110.91800,-0.9203113723
110.91850,-2.446283411
110.91900,-2.751477819
110.91950,-3.972255449
110.92000,-5.498227488
110.92050,-6.108616303
110.92100,-5.498227488
110.92150,-4.277449857
110.92200,-2.751477819
110.92250,-1.835894595
110.92300,-2.446283411
110.92350,-3.056672226
110.92400,-2.141089003
110.92450,-0.004728149245
110.92500,0.3004662585
110.92550,-1.530700188
110.92600,-3.056672226
110.92650,-2.446283411
110.92700,-1.530700188
110.92750,-3.361866634
110.92800,-7.634588342
110.92850,-10.38133801
110.92900,-9.465754788
110.92950,-5.803421896
110.93000,-1.530700188
110.93050,0.6056606662
110.93100,0.9108550739
110.93150,-0.3099225569
110.93200,-2.751477819
110.93250,-5.498227488
110.93300,-7.329393934
110.93350,-7.024199526
110.93400,-3.667061042
110.93450,-0.3099225569
110.93500,0.3004662585
110.93550,-0.004728149245
110.93600,2.74202152
110.93650,7.930326451
110.93700,11.59265934
110.93750,10.37188171
110.93800,7.319937636
110.93850,5.793965597
110.93900,4.878382374
110.93950,1.826438297
110.94000,-2.446283411
110.94050,-4.582644265
110.94100,-2.446283411
110.94150,0.6056606662
110.94200,1.521243889
110.94250,-0.6151169646
110.94300,-3.361866634
110.94350,-4.277449857
110.94400,-3.667061042
110.94450,-2.446283411
110.94500,-1.530700188
110.94550,-1.22550578
110.94600,-1.22550578
110.94650,-1.22550578
110.94700,-2.446283411
110.94750,-3.972255449
110.94800,-5.19303308
110.94850,-5.19303308
110.94900,-4.277449857
110.94950,-2.751477819
110.95000,-1.530700188
110.95050,-0.9203113723
110.95100,-0.6151169646
110.95150,-0.3099225569
110.95200,-0.004728149245
110.95250,1.216049482
110.95300,3.047215928
110.95350,4.878382374
110.95400,5.793965597
110.95450,5.793965597
110.95500,6.099160005
110.95550,6.404354412
110.95600,6.099160005
110.95650,3.962799151
110.95700,0.9108550739
110.95750,-0.6151169646
110.95800,-0.3099225569
110.95850,0.3004662585
110.95900,0.9108550739
110.95950,0.9108550739
110.96000,0.3004662585
110.96050,0.3004662585
110.96100,0.9108550739
110.96150,1.521243889
110.96200,1.521243889
110.96250,0.6056606662
110.96300,-0.004728149245
110.96350,-0.3099225569
110.96400,-0.9203113723
110.96450,-0.6151169646
110.96500,0.6056606662
110.96550,2.436827112
110.96600,3.352410335
110.96650,3.962799151
110.96700,5.183576782
110.96750,5.793965597
110.96800,4.878382374
110.96850,3.657604743
110.96900,5.793965597
110.96950,9.761492897
110.97000,9.151104082
110.97050,2.131632705
110.97100,-5.498227488
110.97150,-8.550171565
110.97200,-6.413810711
110.97250,-3.056672226
110.97300,1.216049482
110.97350,5.488771189
110.97400,6.099160005
110.97450,-0.004728149245
110.97500,-9.465754788
110.97550,-14.34886531
110.97600,-13.7384765
110.97650,-11.60211564
110.97700,-9.465754788
110.97750,-5.803421896
110.97800,0.6056606662
110.97850,7.014743228
110.97900,9.45629849
110.97950,9.45629849
110.98000,10.37188171
110.98050,12.20304816
110.98100,12.50824257
110.98150,9.45629849
110.98200,6.70954882
110.98250,8.540715266
110.98300,12.20304816
110.98350,7.625132043
110.98400,-10.99172683
110.98450,-35.10208503
110.98500,-47.92025016
110.98550,-42.73194523
110.98600,-29.30339129
110.98650,-19.53717024
110.98700,-14.65405972
110.98750,-8.855365973
110.98800,-1.22550578
110.98850,2.74202152
110.98900,3.047215928
110.98950,2.436827112
110.99000,3.657604743
110.99050,4.878382374
110.99100,5.488771189
110.99150,6.70954882
110.99200,8.845909674
110.99250,10.37188171
110.99300,10.37188171
110.99350,9.761492897
110.99400,8.845909674
110.99450,7.930326451
110.99500,9.761492897
110.99550,13.42382579
110.99600,12.81343697
110.99650,2.131632705
110.99700,-13.12808768
110.99750,-21.06314228
110.99800,-16.48522617
110.99850,-7.329393934
110.99900,-2.141089003
110.99950,-1.530700188
111.00000,-0.9203113723
111.00050,-0.004728149245
111.00100,0.3004662585
111.00150,0.6056606662
111.00200,3.047215928
111.00250,6.70954882
111.00300,9.761492897
111.00350,12.20304816
111.00400,14.33940901
111.00450,14.64460342
111.00500,11.89785375
111.00550,8.235520859
111.00600,6.70954882
111.00650,7.930326451
111.00700,9.45629849
111.00750,9.45629849
111.00800,8.540715266
111.00850,7.625132043
111.00900,7.014743228
111.00950,6.404354412
111.01000,5.488771189
111.01050,4.878382374
111.01100,4.878382374
111.01150,4.878382374
111.01200,3.962799151
111.01250,2.436827112
111.01300,2.436827112
111.01350,4.573187966
111.01400,6.70954882
111.01450,5.488771189
111.01500,1.521243889
111.01550,-0.004728149245
111.01600,1.826438297
111.01650,5.793965597
111.01700,8.235520859
111.01750,7.625132043
111.01800,5.183576782
111.01850,2.131632705
111.01900,-0.3099225569
111.01950,-1.835894595
111.02000,-1.530700188
111.02050,-0.6151169646
111.02100,-0.004728149245
111.02150,0.6056606662
111.02200,0.6056606662
111.02250,-0.004728149245
111.02300,-1.835894595
111.02350,-3.056672226
111.02400,-3.667061042
111.02450,-3.972255449
111.02500,-4.582644265
111.02550,-3.667061042
111.02600,-1.530700188
111.02650,-0.004728149245
111.02700,-0.004728149245
111.02750,-0.6151169646
111.02800,-0.9203113723
111.02850,-0.9203113723
111.02900,-0.9203113723
111.02950,-0.004728149245
111.03000,3.962799151
111.03050,9.761492897
111.03100,12.50824257
111.03150,10.0666873
111.03200,3.962799151
111.03250,-0.6151169646
111.03300,-3.056672226
111.03350,-3.361866634
111.03400,-3.361866634
111.03450,-3.361866634
111.03500,-3.056672226
111.03550,-3.056672226
111.03600,-3.056672226
111.03650,-2.141089003
111.03700,-1.22550578
111.03750,-0.9203113723
111.03800,-1.530700188
111.03850,-2.141089003
111.03900,-2.141089003
111.03950,-2.446283411
111.04000,-1.835894595
111.04050,-0.6151169646
111.04100,0.9108550739
111.04150,2.131632705
111.04200,1.826438297
111.04250,1.521243889
111.04300,1.826438297
111.04350,1.826438297
111.04400,0.9108550739
111.04450,-0.004728149245
111.04500,-0.9203113723
111.04550,-1.835894595
111.04600,-2.751477819
111.04650,-2.446283411
111.04700,-0.004728149245
111.04750,1.521243889
111.04800,0.3004662585
111.04850,-3.972255449
111.04900,-7.634588342
111.04950,-7.634588342
111.05000,-4.887838672
111.05050,-3.056672226
111.05100,-3.056672226
111.05150,-3.972255449
111.05200,-4.582644265
111.05250,-4.887838672
111.05300,-5.498227488
111.05350,-6.719005119
111.05400,-8.244977157
111.05450,-8.855365973
111.05500,-7.329393934
111.05550,-5.803421896
111.05600,-6.108616303
111.05650,-8.244977157
111.05700,-9.465754788
111.05750,-8.244977157
111.05800,-5.19303308
111.05850,-2.446283411
111.05900,-0.004728149245
111.05950,1.521243889
111.06000,2.74202152
111.06050,2.74202152
111.06100,1.521243889
111.06150,-0.9203113723
111.06200,-3.361866634
111.06250,-3.667061042
111.06300,-1.22550578
111.06350,1.216049482
111.06400,1.521243889
111.06450,-0.004728149245
111.06500,-0.9203113723
111.06550,-0.9203113723
111.06600,-2.141089003
111.06650,-3.972255449
111.06700,-3.972255449
111.06750,-2.446283411
111.06800,-3.056672226
111.06850,-6.108616303
111.06900,-7.634588342
111.06950,-5.19303308
111.07000,-2.141089003
111.07050,-0.9203113723
111.07100,-2.141089003
111.07150,-3.056672226
111.07200,-3.056672226
111.07250,-2.751477819
111.07300,-2.141089003
111.07350,-0.6151169646
111.07400,0.6056606662
111.07450,0.6056606662
111.07500,-0.004728149245
111.07550,-0.004728149245
111.07600,-0.004728149245
111.07650,-0.3099225569
111.07700,-0.3099225569
111.07750,0.6056606662
111.07800,2.74202152
111.07850,2.436827112
111.07900,0.6056606662
111.07950,-0.004728149245
111.08000,1.216049482
111.08050,0.9108550739
111.08100,-2.141089003
111.08150,-6.108616303
111.08200,-7.634588342
111.08250,-6.108616303
111.08300,-3.667061042
111.08350,-1.22550578
111.08400,0.3004662585
111.08450,0.6056606662
111.08500,-0.6151169646
111.08550,-1.835894595
111.08600,-1.835894595
111.08650,-1.22550578
111.08700,-0.6151169646
111.08750,0.6056606662
111.08800,2.74202152
111.08850,3.047215928
111.08900,2.436827112
111.08950,3.657604743
111.09000,6.70954882
111.09050,7.319937636
111.09100,3.657604743
111.09150,1.216049482
111.09200,4.878382374
111.09250,8.845909674
111.09300,-0.004728149245
111.09350,-22.58911432
111.09400,-43.03713964
111.09450,-47.30986134
111.09500,-37.23844589
111.09550,-25.6410584
111.09600,-17.7060038
111.09650,-8.244977157
111.09700,7.014743228
111.09750,24.71601887
111.09800,35.09262874
111.09850,36.00821196
111.09900,31.73549025
111.09950,28.37835177
111.10000,26.54718532
111.10050,21.6640748
111.10100,11.28746494
111.10150,-0.004728149245
111.10200,-4.887838672
111.10250,-2.446283411
111.10300,2.436827112
111.10350,4.878382374
111.10400,6.099160005
111.10450,7.930326451
111.10500,8.540715266
111.10550,5.793965597
111.10600,2.436827112
111.10650,2.74202152
111.10700,5.183576782
111.10750,4.267993559
111.10800,1.216049482
111.10850,2.131632705
111.10900,7.014743228
111.10950,7.625132043
111.11000,3.047215928
111.11050,2.436827112
111.11100,9.761492897
111.11150,12.50824257
111.11200,-0.3099225569
111.11250,-21.36833669
111.11300,-30.52416892
111.11350,-21.6735311
111.11400,-7.634588342
111.11450,-0.9203113723
111.11500,-0.6151169646
111.11550,-0.9203113723
111.11600,-0.9203113723
111.11650,-2.446283411
111.11700,-3.056672226
111.11750,-1.22550578
111.11800,1.826438297
111.11850,3.047215928
111.11900,2.74202152
111.11950,1.521243889
111.12000,-0.004728149245
111.12050,-1.835894595
111.12100,-2.751477819
111.12150,-2.141089003
111.12200,-2.446283411
111.12250,-3.361866634
111.12300,-4.277449857
111.12350,-4.582644265
111.12400,-5.19303308
111.12450,-6.413810711
111.12500,-6.413810711
111.12550,-3.667061042
111.12600,0.6056606662
111.12650,7.014743228
111.12700,14.33940901
111.12750,20.13810276
111.12800,21.35888039
111.12850,18.61213072
111.12900,14.94979783
111.12950,12.81343697
111.13000,12.81343697
111.13050,13.7290202
111.13100,13.11863138
111.13150,5.793965597
111.13200,-7.634588342
111.13250,-20.14755906
111.13300,-21.6735311
111.13350,-10.99172683
111.13400,2.436827112
111.13450,8.845909674
111.13500,6.404354412
111.13550,-0.3099225569
111.13600,-6.108616303
111.13650,-7.634588342
111.13700,-6.108616303
111.13750,-2.751477819
111.13800,-0.004728149245
111.13850,2.74202152
111.13900,6.099160005
111.13950,8.540715266
111.14000,9.151104082
111.14050,7.930326451
111.14100,6.404354412
111.14150,5.183576782
111.14200,3.962799151
111.14250,2.74202152
111.14300,2.436827112
111.14350,2.436827112
111.14400,1.826438297
111.14450,1.216049482
111.14500,1.216049482
111.14550,1.216049482
111.14600,1.216049482
111.14650,1.521243889
111.14700,1.826438297
111.14750,1.216049482
111.14800,-0.3099225569
111.14850,-2.446283411
111.14900,-3.361866634
111.14950,-2.141089003
111.15000,-0.9203113723
111.15050,-0.9203113723
111.15100,-1.835894595
111.15150,-1.22550578
111.15200,0.9108550739
111.15250,3.352410335
111.15300,3.352410335
111.15350,1.826438297
111.15400,1.521243889
111.15450,1.826438297
111.15500,0.6056606662
111.15550,-3.361866634
111.15600,-7.634588342
111.15650,-8.855365973
111.15700,-6.719005119
111.15750,-4.277449857
111.15800,-2.141089003
111.15850,-1.22550578
111.15900,-3.361866634
111.15950,-8.855365973
111.16000,-12.82289327
111.16050,-10.0761436
111.16100,-1.530700188
111.16150,4.267993559
111.16200,2.436827112
111.16250,-2.446283411
111.16300,-3.972255449
111.16350,-0.004728149245
111.16400,3.352410335
111.16450,3.047215928
111.16500,0.3004662585
111.16550,-0.9203113723
111.16600,-0.3099225569
111.16650,-0.004728149245
111.16700,0.3004662585
111.16750,1.216049482
111.16800,2.131632705
111.16850,1.826438297
111.16900,-0.004728149245
111.16950,-1.835894595
111.17000,-3.056672226
111.17050,-3.056672226
111.17100,-2.141089003
111.17150,-0.6151169646
111.17200,-0.004728149245
111.17250,-0.3099225569
111.17300,-0.6151169646
111.17350,-0.6151169646
111.17400,-0.9203113723
111.17450,-2.141089003
111.17500,-3.056672226
111.17550,-2.141089003
111.17600,-0.6151169646
111.17650,-0.9203113723
111.17700,-2.751477819
111.17750,-2.751477819
111.17800,-1.22550578
111.17850,-0.9203113723
111.17900,-3.972255449
111.17950,-6.108616303
111.18000,-4.277449857
111.18050,0.3004662585
111.18100,3.047215928
111.18150,2.131632705
111.18200,-0.004728149245
111.18250,-1.22550578
111.18300,-1.835894595
111.18350,-2.141089003
111.18400,-1.835894595
111.18450,-0.9203113723
111.18500,-0.3099225569
111.18550,-0.9203113723
111.18600,-1.22550578
111.18650,-0.6151169646
111.18700,-0.004728149245
111.18750,-0.004728149245
111.18800,-0.004728149245
111.18850,-0.004728149245
111.18900,-0.004728149245
111.18950,0.9108550739
111.19000,1.216049482
111.19050,1.216049482
111.19100,-0.004728149245
111.19150,-1.835894595
111.19200,-3.056672226
111.19250,-3.361866634
111.19300,-3.361866634
111.19350,-3.361866634
111.19400,-2.751477819
111.19450,-1.22550578
111.19500,-0.9203113723
111.19550,-1.835894595
111.19600,-2.446283411
111.19650,-1.835894595
111.19700,-1.530700188
111.19750,-2.446283411
111.19800,-2.446283411
111.19850,-0.004728149245
111.19900,1.521243889
111.19950,0.9108550739
111.20000,-0.004728149245
111.20050,2.131632705
111.20100,5.183576782
111.20150,5.183576782
111.20200,3.047215928
111.20250,1.521243889
111.20300,1.521243889
111.20350,1.216049482
111.20400,0.6056606662
111.20450,1.826438297
111.20500,3.962799151
111.20550,5.183576782
111.20600,5.793965597
111.20650,7.625132043
111.20700,8.540715266
111.20750,7.014743228
111.20800,6.404354412
111.20850,10.98227053
111.20900,16.78096427
111.20950,14.33940901
111.21000,3.962799151
111.21050,-3.667061042
111.21100,-3.361866634
111.21150,-0.004728149245
111.21200,0.6056606662
111.21250,1.216049482
111.21300,4.878382374
111.21350,5.793965597
111.21400,-2.141089003
111.21450,-15.87483735
111.21500,-24.72547517
111.21550,-25.33586399
111.21600,-21.36833669
111.21650,-17.09561498
111.21700,-12.82289327
111.21750,-8.550171565
111.21800,-6.108616303
111.21850,-5.803421896
111.21900,-4.887838672
111.21950,-1.530700188
111.22000,1.826438297
111.22050,4.878382374
111.22100,7.625132043
111.22150,11.28746494
111.22200,12.50824257
111.22250,9.761492897
111.22300,4.878382374
111.22350,2.436827112
111.22400,3.657604743
111.22450,4.878382374
111.22500,2.74202152
111.22550,-0.004728149245
111.22600,0.3004662585
111.22650,3.657604743
111.22700,5.793965597
111.22750,6.099160005
111.22800,8.845909674
111.22850,14.33940901
111.22900,14.64460342
111.22950,4.573187966
111.23000,-8.855365973
111.23050,-14.65405972
111.23100,-10.38133801
111.23150,-4.887838672
111.23200,-5.803421896
111.23250,-10.0761436
111.23300,-10.68653242
111.23350,-7.329393934
111.23400,-3.667061042
111.23450,-2.141089003
111.23500,-0.9203113723
111.23550,1.826438297
111.23600,5.488771189
111.23650,7.625132043
111.23700,6.70954882
111.23750,5.183576782
111.23800,4.878382374
111.23850,6.404354412
111.23900,7.930326451
111.23950,9.45629849
111.24000,12.20304816
111.24050,14.03421461
111.24100,9.45629849
111.24150,-2.751477819
111.24200,-15.26444853
111.24250,-19.23197583
111.24300,-12.82289327
111.24350,-4.277449857
111.24400,-0.004728149245
111.24450,0.9108550739
111.24500,1.216049482
111.24550,1.826438297
111.24600,2.131632705
111.24650,2.131632705
111.24700,2.74202152
111.24750,3.962799151
111.24800,4.267993559
111.24850,3.047215928
111.24900,1.826438297
111.24950,2.436827112
111.25000,4.267993559
111.25050,3.352410335
111.25100,-2.446283411
111.25150,-10.0761436
111.25200,-14.0436709
111.25250,-11.60211564
111.25300,-6.413810711
111.25350,-1.835894595
111.25400,0.3004662585
111.25450,2.436827112
111.25500,3.047215928
111.25550,1.826438297
111.25600,-0.004728149245
111.25650,-0.6151169646
111.25700,0.6056606662
111.25750,2.131632705
111.25800,3.047215928
111.25850,3.962799151
111.25900,5.488771189
111.25950,6.099160005
111.26000,5.183576782
111.26050,4.573187966
111.26100,4.573187966
111.26150,3.047215928
111.26200,0.3004662585
111.26250,-1.22550578
111.26300,-0.3099225569
111.26350,-0.004728149245
111.26400,-2.141089003
111.26450,-5.498227488
111.26500,-5.803421896
111.26550,-3.361866634
111.26600,-2.141089003
111.26650,-3.361866634
111.26700,-3.361866634
111.26750,-0.9203113723
111.26800,0.6056606662
111.26850,-0.6151169646
111.26900,-4.277449857
111.26950,-6.108616303
111.27000,-7.329393934
111.27050,-8.550171565
111.27100,-9.16056038
111.27150,-7.024199526
111.27200,-4.277449857
111.27250,-4.277449857
111.27300,-6.413810711
111.27350,-7.329393934
111.27400,-7.329393934
111.27450,-7.939782749
111.27500,-8.244977157
111.27550,-5.19303308
111.27600,-0.9203113723
111.27650,-0.004728149245
111.27700,-2.751477819
111.27750,-5.19303308
111.27800,-3.667061042
111.27850,-0.9203113723
111.27900,-0.004728149245
111.27950,0.9108550739
111.28000,5.183576782
111.28050,9.45629849
111.28100,10.37188171
111.28150,8.235520859
111.28200,7.014743228
111.28250,7.319937636
111.28300,5.793965597
111.28350,3.352410335
111.28400,2.436827112
111.28450,4.267993559
111.28500,5.793965597
111.28550,4.267993559
111.28600,0.9108550739
111.28650,-1.835894595
111.28700,-3.972255449
111.28750,-5.498227488
111.28800,-5.803421896
111.28850,-4.277449857
111.28900,-3.056672226
111.28950,-4.277449857
111.29000,-6.413810711
111.29050,-7.024199526
111.29100,-4.582644265
111.29150,-0.3099225569
111.29200,3.657604743
111.29250,7.014743228
111.29300,9.45629849
111.29350,9.151104082
111.29400,6.099160005
111.29450,3.657604743
111.29500,3.657604743
111.29550,4.878382374
111.29600,3.352410335
111.29650,-0.6151169646
111.29700,-3.972255449
111.29750,-3.361866634
111.29800,-0.6151169646
111.29850,2.131632705
111.29900,3.962799151
111.29950,3.962799151
111.30000,2.131632705
111.30050,-0.9203113723
111.30100,-3.056672226
111.30150,-2.751477819
111.30200,-0.9203113723
111.30250,0.3004662585
111.30300,1.216049482
111.30350,1.521243889
111.30400,0.9108550739
111.30450,-0.3099225569
111.30500,-1.22550578
111.30550,-1.22550578
111.30600,-0.004728149245
111.30650,0.6056606662
111.30700,0.3004662585
111.30750,-1.22550578
111.30800,-3.361866634
111.30850,-5.19303308
111.30900,-5.19303308
111.30950,-3.056672226
111.31000,-0.3099225569
111.31050,0.6056606662
111.31100,0.6056606662
111.31150,-0.6151169646
111.31200,-2.446283411
111.31250,-3.972255449
111.31300,-4.277449857
111.31350,-4.277449857
111.31400,-4.277449857
111.31450,-4.582644265
111.31500,-3.361866634
111.31550,-1.22550578
111.31600,-0.3099225569
111.31650,-0.9203113723
111.31700,-1.530700188
111.31750,-0.9203113723
111.31800,-0.3099225569
111.31850,-0.3099225569
111.31900,-0.004728149245
111.31950,1.521243889
111.32000,3.047215928
111.32050,3.352410335
111.32100,3.962799151
111.32150,7.014743228
111.32200,9.761492897
111.32250,9.761492897
111.32300,6.404354412
111.32350,3.657604743
111.32400,3.962799151
111.32450,5.488771189
111.32500,6.70954882
111.32550,7.014743228
111.32600,6.70954882
111.32650,7.319937636
111.32700,8.845909674
111.32750,10.37188171
111.32800,10.67707612
111.32850,10.67707612
111.32900,12.81343697
111.32950,17.08615868
111.33000,17.6965475
111.33050,9.151104082
111.33100,-5.803421896
111.33150,-17.40080939
111.33200,-16.79042057
111.33250,-6.108616303
111.33300,4.267993559
111.33350,7.319937636
111.33400,3.962799151
111.33450,1.826438297
111.33500,3.962799151
111.33550,3.962799151
111.33600,-3.667061042
111.33650,-16.18003176
111.33700,-22.58911432
111.33750,-19.23197583
111.33800,-11.90731005
111.33850,-6.108616303
111.33900,-0.9203113723
111.33950,5.488771189
111.34000,11.89785375
111.34050,14.03421461
111.34100,13.11863138
111.34150,11.59265934
111.34200,8.235520859
111.34250,0.3004662585
111.34300,-10.38133801
111.34350,-18.31639261
111.34400,-19.84236465
111.34450,-14.95925413
111.34500,-7.939782749
111.34550,-4.582644265
111.34600,-8.855365973
111.34650,-17.40080939
111.34700,-22.58911432
111.34750,-18.62158702
111.34800,-8.550171565
111.34850,-0.004728149245
111.34900,3.047215928
111.34950,1.521243889
111.35000,-1.835894595
111.35050,-5.19303308
111.35100,-6.108616303
111.35150,-3.972255449
111.35200,0.3004662585
111.35250,5.183576782
111.35300,8.235520859
111.35350,8.235520859
111.35400,6.70954882
111.35450,5.793965597
111.35500,7.319937636
111.35550,9.151104082
111.35600,9.761492897
111.35650,9.761492897
111.35700,10.67707612
111.35750,9.45629849
111.35800,1.216049482
111.35850,-11.29692123
111.35900,-19.84236465
111.35950,-18.62158702
111.36000,-10.68653242
111.36050,-4.582644265
111.36100,-3.056672226
111.36150,-3.361866634
111.36200,-2.446283411
111.36250,-0.3099225569
111.36300,1.826438297
111.36350,3.657604743
111.36400,5.488771189
111.36450,6.70954882
111.36500,7.014743228
111.36550,4.878382374
111.36600,2.436827112
111.36650,0.9108550739
111.36700,1.216049482
111.36750,1.216049482
111.36800,-0.004728149245
111.36850,-0.004728149245
111.36900,0.9108550739
111.36950,2.74202152
111.37000,3.962799151
111.37050,5.183576782
111.37100,7.319937636
111.37150,7.930326451
111.37200,4.878382374
111.37250,0.6056606662
111.37300,-0.9203113723
111.37350,0.6056606662
111.37400,2.131632705
111.37450,2.74202152
111.37500,3.352410335
111.37550,4.573187966
111.37600,4.267993559
111.37650,2.74202152
111.37700,2.436827112
111.37750,3.962799151
111.37800,4.878382374
111.37850,3.352410335
111.37900,1.521243889
111.37950,1.826438297
111.38000,3.352410335
111.38050,3.047215928
111.38100,0.6056606662
111.38150,-1.530700188
111.38200,-2.141089003
111.38250,-1.835894595
111.38300,-1.530700188
111.38350,-0.6151169646
111.38400,-0.004728149245
111.38450,-0.6151169646
111.38500,-2.141089003
111.38550,-3.361866634
111.38600,-3.667061042
111.38650,-3.361866634
111.38700,-2.751477819
111.38750,-1.835894595
111.38800,-1.835894595
111.38850,-2.751477819
111.38900,-3.056672226
111.38950,-2.446283411
111.39000,-1.530700188
111.39050,-1.22550578
111.39100,-1.22550578
111.39150,-0.3099225569
111.39200,0.6056606662
111.39250,-0.004728149245
111.39300,-2.446283411
111.39350,-4.887838672
111.39400,-5.19303308
111.39450,-3.972255449
111.39500,-1.835894595
111.39550,-0.004728149245
111.39600,0.9108550739
111.39650,0.3004662585
111.39700,-0.6151169646
111.39750,-0.9203113723
111.39800,-0.004728149245
111.39850,0.9108550739
111.39900,0.9108550739
111.39950,0.6056606662
111.40000,1.826438297
111.40050,3.047215928
111.40100,2.74202152
111.40150,1.216049482
111.40200,-0.004728149245
111.40250,-0.3099225569
111.40300,-0.6151169646
111.40350,-0.3099225569
111.40400,0.6056606662
111.40450,2.131632705
111.40500,2.436827112
111.40550,1.826438297
111.40600,0.6056606662
111.40650,-0.6151169646
111.40700,-2.141089003
111.40750,-3.056672226
111.40800,-1.530700188
111.40850,1.826438297
111.40900,4.573187966
111.40950,4.878382374
111.41000,3.657604743
111.41050,2.74202152
111.41100,2.131632705
111.41150,1.216049482
111.41200,1.521243889
111.41250,2.74202152
111.41300,2.74202152
111.41350,0.3004662585
111.41400,-2.141089003
111.41450,-2.751477819
111.41500,-0.9203113723
111.41550,-0.3099225569
111.41600,-1.835894595
111.41650,-3.972255449
111.41700,-4.887838672
111.41750,-4.582644265
111.41800,-3.667061042
111.41850,-1.22550578
111.41900,1.216049482
111.41950,2.74202152
111.42000,2.436827112
111.42050,1.521243889
111.42100,0.3004662585
111.42150,-0.9203113723
111.42200,-0.9203113723
111.42250,2.436827112
111.42300,7.014743228
111.42350,5.183576782
111.42400,-4.887838672
111.42450,-15.87483735
111.42500,-17.7060038
111.42550,-10.0761436
111.42600,-1.22550578
111.42650,2.131632705
111.42700,1.826438297
111.42750,0.9108550739
111.42800,-0.004728149245
111.42850,-2.141089003
111.42900,-4.277449857
111.42950,-4.582644265
111.43000,-2.141089003
111.43050,0.6056606662
111.43100,1.521243889
111.43150,0.3004662585
111.43200,-0.9203113723
111.43250,-1.22550578
111.43300,-0.3099225569
111.43350,-0.004728149245
111.43400,-1.530700188
111.43450,-3.361866634
111.43500,-3.361866634
111.43550,-0.004728149245
111.43600,3.657604743
111.43650,6.70954882
111.43700,7.319937636
111.43750,7.014743228
111.43800,6.404354412
111.43850,6.70954882
111.43900,8.235520859
111.43950,9.761492897
111.44000,9.761492897
111.44050,8.845909674
111.44100,8.540715266
111.44150,8.235520859
111.44200,6.404354412
111.44250,1.826438297
111.44300,-1.835894595
111.44350,-2.141089003
111.44400,1.216049482
111.44450,6.099160005
111.44500,10.0666873
111.44550,13.11863138
111.44600,15.25499224
111.44650,13.7290202
111.44700,7.930326451
111.44750,3.352410335
111.44800,7.930326451
111.44850,19.83290835
111.44900,25.32640769
111.44950,12.81343697
111.45000,-10.68653242
111.45050,-28.08261366
111.45100,-29.6085857
111.45150,-22.58911432
111.45200,-18.31639261
111.45250,-19.84236465
111.45300,-21.9787255
111.45350,-21.36833669
111.45400,-18.92678143
111.45450,-16.79042057
111.45500,-14.65405972
111.45550,-11.90731005
111.45600,-9.465754788
111.45650,-6.719005119
111.45700,-3.667061042
111.45750,-1.22550578
111.45800,1.216049482
111.45850,3.962799151
111.45900,5.183576782
111.45950,3.352410335
111.46000,0.6056606662
111.46050,2.131632705
111.46100,7.625132043
111.46150,8.235520859
111.46200,-1.530700188
111.46250,-15.26444853
111.46300,-20.75794787
111.46350,-14.34886531
111.46400,-4.277449857
111.46450,0.3004662585
111.46500,0.6056606662
111.46550,0.3004662585
111.46600,1.826438297
111.46650,3.657604743
111.46700,4.573187966
111.46750,5.488771189
111.46800,7.319937636
111.46850,10.0666873
111.46900,13.42382579
111.46950,16.78096427
111.47000,17.08615868
111.47050,10.98227053
111.47100,-0.9203113723
111.47150,-13.43328209
111.47200,-18.31639261
111.47250,-14.0436709
111.47300,-4.887838672
111.47350,1.826438297
111.47400,3.047215928
111.47450,1.216049482
111.47500,-0.3099225569
111.47550,-0.6151169646
111.47600,-0.004728149245
111.47650,-0.004728149245
111.47700,-0.9203113723
111.47750,-1.530700188
111.47800,-1.835894595
111.47850,-1.22550578
111.47900,-0.3099225569
111.47950,0.3004662585
111.48000,0.9108550739
111.48050,1.216049482
111.48100,1.521243889
111.48150,2.436827112
111.48200,3.047215928
111.48250,1.826438297
111.48300,-0.6151169646
111.48350,-3.056672226
111.48400,-3.361866634
111.48450,-1.835894595
111.48500,-0.004728149245
111.48550,1.826438297
111.48600,3.657604743
111.48650,5.488771189
111.48700,6.099160005
111.48750,3.962799151
111.48800,0.6056606662
111.48850,-0.3099225569
111.48900,1.216049482
111.48950,4.267993559
111.49000,5.183576782
111.49050,3.962799151
111.49100,3.352410335
111.49150,4.573187966
111.49200,5.183576782
111.49250,2.74202152
111.49300,-0.3099225569
111.49350,-1.22550578
111.49400,-0.3099225569
111.49450,-0.3099225569
111.49500,-1.530700188
111.49550,-1.835894595
111.49600,-1.22550578
111.49650,-0.9203113723
111.49700,-1.835894595
111.49750,-1.530700188
111.49800,1.216049482
111.49850,4.267993559
111.49900,4.267993559
111.49950,2.74202152
111.50000,2.131632705
111.50050,2.74202152
111.50100,2.436827112
111.50150,0.3004662585
111.50200,-2.141089003
111.50250,-4.582644265
111.50300,-7.024199526
111.50350,-8.550171565
111.50400,-7.939782749
111.50450,-4.887838672
111.50500,-1.22550578
111.50550,1.826438297
111.50600,3.962799151
111.50650,4.878382374
111.50700,4.878382374
111.50750,5.183576782
111.50800,5.488771189
111.50850,5.183576782
111.50900,3.047215928
111.50950,0.9108550739
111.51000,-0.004728149245
111.51050,0.3004662585
111.51100,-0.004728149245
111.51150,-0.9203113723
111.51200,-1.835894595
111.51250,-2.141089003
111.51300,-2.141089003
111.51350,-2.751477819
111.51400,-3.667061042
111.51450,-3.667061042
111.51500,-2.751477819
111.51550,-2.446283411
111.51600,-3.667061042
111.51650,-5.498227488
111.51700,-6.108616303
111.51750,-5.498227488
111.51800,-5.19303308
111.51850,-6.413810711
111.51900,-7.634588342
111.51950,-6.413810711
111.52000,-2.751477819
111.52050,-0.004728149245
111.52100,2.131632705
111.52150,3.657604743
111.52200,4.878382374
111.52250,5.183576782
111.52300,4.878382374
111.52350,5.183576782
111.52400,5.793965597
111.52450,5.183576782
111.52500,2.131632705
111.52550,-0.004728149245
111.52600,0.3004662585
111.52650,1.826438297
111.52700,2.436827112
111.52750,2.131632705
111.52800,2.436827112
111.52850,3.657604743
111.52900,3.352410335
111.52950,0.9108550739
111.53000,-0.9203113723
111.53050,-0.9203113723
111.53100,0.6056606662
111.53150,2.131632705
111.53200,2.436827112
111.53250,1.826438297
111.53300,1.216049482
111.53350,0.9108550739
111.53400,0.6056606662
111.53450,-0.004728149245
111.53500,-1.835894595
111.53550,-3.056672226
111.53600,-2.446283411
111.53650,-0.6151169646
111.53700,0.3004662585
111.53750,-0.004728149245
111.53800,-0.9203113723
111.53850,-2.446283411
111.53900,-3.361866634
111.53950,-3.667061042
111.54000,-3.667061042
111.54050,-3.667061042
111.54100,-4.277449857
111.54150,-3.667061042
111.54200,-2.141089003
111.54250,-1.22550578
111.54300,-1.835894595
111.54350,-2.751477819
111.54400,-0.9203113723
111.54450,2.436827112
111.54500,4.878382374
111.54550,5.793965597
111.54600,5.793965597
111.54650,5.793965597
111.54700,5.183576782
111.54750,5.793965597
111.54800,9.45629849
111.54850,12.20304816
111.54900,7.014743228
111.54950,-5.498227488
111.55000,-17.40080939
111.55050,-19.84236465
111.55100,-14.65405972
111.55150,-9.770949196
111.55200,-9.465754788
111.55250,-12.21250446
111.55300,-14.0436709
111.55350,-12.51769887
111.55400,-7.939782749
111.55450,-3.667061042
111.55500,-3.056672226
111.55550,-3.972255449
111.55600,-0.3099225569
111.55650,8.540715266
111.55700,17.08615868
111.55750,18.91732513
111.55800,15.86538105
111.55850,13.7290202
111.55900,12.81343697
111.55950,9.761492897
111.56000,5.183576782
111.56050,3.352410335
111.56100,5.488771189
111.56150,7.930326451
111.56200,6.099160005
111.56250,0.6056606662
111.56300,-5.498227488
111.56350,-9.16056038
111.56400,-7.024199526
111.56450,-0.3099225569
111.56500,5.488771189
111.56550,5.793965597
111.56600,0.3004662585
111.56650,-7.024199526
111.56700,-12.82289327
111.56750,-14.34886531
111.56800,-10.0761436
111.56850,-2.751477819
111.56900,1.521243889
111.56950,0.3004662585
111.57000,-2.751477819
111.57050,-3.056672226
111.57100,-0.9203113723
111.57150,0.3004662585
111.57200,0.3004662585
111.57250,0.6056606662
111.57300,1.826438297
111.57350,2.436827112
111.57400,1.826438297
111.57450,-0.6151169646
111.57500,-4.887838672
111.57550,-8.550171565
111.57600,-7.939782749
111.57650,-3.056672226
111.57700,0.9108550739
111.57750,-0.3099225569
111.57800,-5.498227488
111.57850,-8.855365973
111.57900,-7.024199526
111.57950,-3.056672226
111.58000,-0.3099225569
111.58050,-0.004728149245
111.58100,0.3004662585
111.58150,1.521243889
111.58200,3.657604743
111.58250,6.099160005
111.58300,6.404354412
111.58350,4.573187966
111.58400,3.352410335
111.58450,5.183576782
111.58500,9.151104082
111.58550,11.28746494
111.58600,8.845909674
111.58650,2.74202152
111.58700,-2.141089003
111.58750,-2.141089003
111.58800,1.521243889
111.58850,5.183576782
111.58900,6.404354412
111.58950,6.099160005
111.59000,5.488771189
111.59050,3.352410335
111.59100,-0.004728149245
111.59150,-1.22550578
111.59200,1.216049482
111.59250,2.436827112
111.59300,-3.972255449
111.59350,-15.87483735
111.59400,-22.89430873
111.59450,-19.84236465
111.59500,-11.60211564
111.59550,-6.108616303
111.59600,-2.751477819
111.59650,0.9108550739
111.59700,5.183576782
111.59750,6.404354412
111.59800,4.267993559
111.59850,2.436827112
111.59900,1.826438297
111.59950,1.521243889
111.60000,0.6056606662
111.60050,-0.004728149245
111.60100,0.6056606662
111.60150,2.74202152
111.60200,6.404354412
111.60250,10.37188171
111.60300,13.7290202
111.60350,15.25499224
111.60400,14.64460342
111.60450,12.20304816
111.60500,8.845909674
111.60550,6.099160005
111.60600,5.488771189
111.60650,6.404354412
111.60700,7.014743228
111.60750,6.404354412
111.60800,4.573187966
111.60850,2.131632705
111.60900,0.3004662585
111.60950,-0.004728149245
111.61000,0.9108550739
111.61050,2.131632705
111.61100,1.826438297
111.61150,0.6056606662
111.61200,0.3004662585
111.61250,-0.6151169646
111.61300,-3.972255449
111.61350,-7.634588342
111.61400,-8.244977157
111.61450,-4.887838672
111.61500,-1.835894595
111.61550,-2.141089003
111.61600,-3.667061042
111.61650,-3.056672226
111.61700,-0.3099225569
111.61750,-0.004728149245
111.61800,-1.530700188
111.61850,-2.141089003
111.61900,-0.004728149245
111.61950,4.573187966
111.62000,8.540715266
111.62050,11.59265934
111.62100,13.42382579
111.62150,12.50824257
111.62200,9.45629849
111.62250,7.014743228
111.62300,7.014743228
111.62350,4.878382374
111.62400,-3.667061042
111.62450,-17.40080939
111.62500,-26.25144721
111.62550,-23.19950313
111.62600,-11.90731005
111.62650,-2.141089003
111.62700,2.131632705
111.62750,3.352410335
111.62800,3.962799151
111.62850,4.267993559
111.62900,3.047215928
111.62950,-0.004728149245
111.63000,-2.446283411
111.63050,-3.972255449
111.63100,-3.972255449
111.63150,-2.751477819
111.63200,-2.446283411
111.63250,-2.446283411
111.63300,-1.835894595
111.63350,-0.6151169646
111.63400,-0.9203113723
111.63450,-2.446283411
111.63500,-3.361866634
111.63550,-2.751477819
111.63600,-2.141089003
111.63650,-2.751477819
111.63700,-3.361866634
111.63750,-2.751477819
111.63800,-1.835894595
111.63850,-1.530700188
111.63900,-0.004728149245
111.63950,3.047215928
111.64000,5.793965597
111.64050,4.878382374
111.64100,1.216049482
111.64150,-2.446283411
111.64200,-4.277449857
111.64250,-2.446283411
111.64300,3.047215928
111.64350,8.540715266
111.64400,5.793965597
111.64450,-5.19303308
111.64500,-15.56964294
111.64550,-15.87483735
111.64600,-7.329393934
111.64650,-0.004728149245
111.64700,2.436827112
111.64750,1.826438297
111.64800,1.216049482
111.64850,0.3004662585
111.64900,-0.9203113723
111.64950,-2.141089003
111.65000,-1.530700188
111.65050,-0.004728149245
111.65100,1.826438297
111.65150,2.436827112
111.65200,1.826438297
111.65250,0.3004662585
111.65300,-0.3099225569
111.65350,-0.004728149245
111.65400,0.6056606662
111.65450,1.216049482
111.65500,0.9108550739
111.65550,-0.004728149245
111.65600,-0.6151169646
111.65650,-0.6151169646
111.65700,0.3004662585
111.65750,0.6056606662
111.65800,-1.835894595
111.65850,-6.413810711
111.65900,-9.16056038
111.65950,-8.550171565
111.66000,-6.413810711
111.66050,-6.108616303
111.66100,-7.329393934
111.66150,-6.719005119
111.66200,-3.667061042
111.66250,-1.22550578
111.66300,-1.22550578
111.66350,-2.141089003
111.66400,-1.835894595
111.66450,-0.3099225569
111.66500,0.9108550739
111.66550,1.521243889
111.66600,2.74202152
111.66650,4.573187966
111.66700,6.099160005
111.66750,6.404354412
111.66800,5.793965597
111.66850,6.099160005
111.66900,6.70954882
111.66950,5.793965597
111.67000,3.962799151
111.67050,3.657604743
111.67100,4.878382374
111.67150,6.404354412
111.67200,5.488771189
111.67250,2.436827112
111.67300,-2.141089003
111.67350,-5.803421896
111.67400,-6.108616303
111.67450,-2.446283411
111.67500,1.216049482
111.67550,2.131632705
111.67600,-0.004728149245
111.67650,-1.530700188
111.67700,-1.22550578
111.67750,-0.6151169646
111.67800,-1.530700188
111.67850,-3.056672226
111.67900,-2.751477819
111.67950,-1.835894595
111.68000,-1.530700188
111.68050,-3.056672226
111.68100,-4.887838672
111.68150,-4.887838672
111.68200,-2.446283411
111.68250,0.3004662585
111.68300,2.131632705
111.68350,1.521243889
111.68400,0.3004662585
111.68450,0.6056606662
111.68500,2.436827112
111.68550,3.352410335
111.68600,0.9108550739
111.68650,-2.141089003
111.68700,-3.667061042
111.68750,-2.141089003
111.68800,0.3004662585
111.68850,2.74202152
111.68900,3.962799151
111.68950,3.657604743
111.69000,2.131632705
111.69050,1.216049482
111.69100,1.521243889
111.69150,2.74202152
111.69200,2.74202152
111.69250,2.436827112
111.69300,3.657604743
111.69350,5.183576782
111.69400,3.962799151
111.69450,1.216049482
111.69500,0.9108550739
111.69550,3.962799151
111.69600,6.404354412
111.69650,6.70954882
111.69700,7.625132043
111.69750,9.45629849
111.69800,8.845909674
111.69850,1.521243889
111.69900,-9.465754788
111.69950,-19.53717024
111.70000,-25.33586399
111.70050,-25.33586399
111.70100,-20.14755906
111.70150,-14.95925413
111.70200,-17.40080939
111.70250,-27.47222484
111.70300,-34.79689063
111.70350,-33.27091859
111.70400,-25.9462528
111.70450,-17.7060038
111.70500,-6.413810711
111.70550,8.235520859
111.70600,19.83290835
111.70650,21.35888039
111.70700,20.13810276
111.70750,25.32640769
111.70800,32.34587907
111.70850,29.5991294
111.70900,18.30693631
111.70950,11.59265934
111.71000,13.42382579
111.71050,14.94979783
111.71100,11.28746494
111.71150,7.930326451
111.71200,8.540715266
111.71250,7.625132043
111.71300,3.962799151
111.71350,2.74202152
111.71400,5.183576782
111.71450,3.352410335
111.71500,-5.803421896
111.71550,-12.82289327
111.71600,-10.68653242
111.71650,-4.582644265
111.71700,-1.530700188
111.71750,0.6056606662
111.71800,5.488771189
111.71850,7.930326451
111.71900,5.183576782
111.71950,4.267993559
111.72000,8.540715266
111.72050,7.319937636
111.72100,-9.465754788
111.72150,-32.66052977
111.72200,-40.29038997
111.72250,-27.47222484
111.72300,-8.550171565
111.72350,2.74202152
111.72400,7.319937636
111.72450,8.540715266
111.72500,6.404354412
111.72550,1.826438297
111.72600,0.9108550739
111.72650,5.793965597
111.72700,10.67707612
111.72750,10.67707612
111.72800,8.845909674
111.72850,8.845909674
111.72900,9.45629849
111.72950,7.625132043
111.73000,3.962799151
111.73050,2.74202152
111.73100,4.267993559
111.73150,5.793965597
111.73200,5.793965597
111.73250,4.878382374
111.73300,3.962799151
111.73350,3.352410335
111.73400,2.74202152
111.73450,2.131632705
111.73500,2.131632705
111.73550,2.436827112
111.73600,2.436827112
111.73650,2.131632705
111.73700,1.826438297
111.73750,0.9108550739
111.73800,-0.004728149245
111.73850,-0.6151169646
111.73900,-0.6151169646
111.73950,0.9108550739
111.74000,2.74202152
111.74050,2.436827112
111.74100,-0.9203113723
111.74150,-5.19303308
111.74200,-7.329393934
111.74250,-6.413810711
111.74300,-4.887838672
111.74350,-4.887838672
111.74400,-6.108616303
111.74450,-7.024199526
111.74500,-6.413810711
111.74550,-5.498227488
111.74600,-4.582644265
111.74650,-4.277449857
111.74700,-3.972255449
111.74750,-4.277449857
111.74800,-4.887838672
111.74850,-5.19303308
111.74900,-4.582644265
111.74950,-4.277449857
111.75000,-3.667061042
111.75050,-1.835894595
111.75100,0.9108550739
111.75150,3.047215928
111.75200,2.131632705
111.75250,-0.004728149245
111.75300,-1.22550578
111.75350,-0.6151169646
111.75400,-1.22550578
111.75450,-3.667061042
111.75500,-4.887838672
111.75550,-3.667061042
111.75600,-1.530700188
111.75650,-0.6151169646
111.75700,-0.3099225569
111.75750,0.9108550739
111.75800,2.436827112
111.75850,3.047215928
111.75900,4.267993559
111.75950,6.099160005
111.76000,7.014743228
111.76050,5.488771189
111.76100,2.436827112
111.76150,0.3004662585
111.76200,-0.9203113723
111.76250,-2.141089003
111.76300,-3.056672226
111.76350,-3.056672226
111.76400,-2.751477819
111.76450,-3.056672226
111.76500,-2.751477819
111.76550,-1.835894595
111.76600,-0.9203113723
111.76650,-0.9203113723
111.76700,-2.141089003
111.76750,-2.751477819
111.76800,-3.056672226
111.76850,-3.056672226
111.76900,-2.446283411
111.76950,-1.22550578
111.77000,-0.9203113723
111.77050,-2.141089003
111.77100,-3.361866634
111.77150,-3.056672226
111.77200,-2.751477819
111.77250,-3.056672226
111.77300,-2.141089003
111.77350,0.3004662585
111.77400,3.352410335
111.77450,4.267993559
111.77500,3.352410335
111.77550,3.352410335
111.77600,3.657604743
111.77650,2.74202152
111.77700,0.9108550739
111.77750,0.3004662585
111.77800,0.9108550739
111.77850,1.216049482
111.77900,0.3004662585
111.77950,0.3004662585
111.78000,1.216049482
111.78050,0.9108550739
111.78100,-0.6151169646
111.78150,-2.751477819
111.78200,-2.751477819
111.78250,-2.141089003
111.78300,-2.446283411
111.78350,-2.446283411
111.78400,-2.141089003
111.78450,-1.530700188
111.78500,-1.835894595
111.78550,-1.835894595
111.78600,-0.004728149245
111.78650,2.131632705
111.78700,2.436827112
111.78750,1.216049482
111.78800,1.826438297
111.78850,4.573187966
111.78900,5.793965597
111.78950,4.573187966
111.79000,2.74202152
111.79050,2.436827112
111.79100,2.436827112
111.79150,1.826438297
111.79200,1.521243889
111.79250,3.047215928
111.79300,4.878382374
111.79350,5.793965597
111.79400,4.878382374
111.79450,3.047215928
111.79500,0.6056606662
111.79550,-0.9203113723
111.79600,-1.530700188
111.79650,-2.141089003
111.79700,-3.056672226
111.79750,-3.361866634
111.79800,-0.9203113723
111.79850,2.131632705
111.79900,2.131632705
111.79950,-1.530700188
111.80000,-4.887838672
111.80050,-4.582644265
111.80100,-3.667061042
111.80150,-3.972255449
111.80200,-3.972255449
111.80250,-2.141089003
111.80300,-0.004728149245
111.80350,-0.004728149245
111.80400,-0.6151169646
111.80450,-0.3099225569
111.80500,-0.6151169646
111.80550,-2.446283411
111.80600,-3.056672226
111.80650,-0.6151169646
111.80700,1.826438297
111.80750,1.521243889
111.80800,-0.9203113723
111.80850,-1.22550578
111.80900,0.3004662585
111.80950,0.9108550739
111.81000,0.6056606662
111.81050,0.6056606662
111.81100,1.216049482
111.81150,0.3004662585
111.81200,-0.9203113723
111.81250,-1.22550578
111.81300,0.3004662585
111.81350,0.9108550739
111.81400,-0.6151169646
111.81450,-3.056672226
111.81500,-4.277449857
111.81550,-3.667061042
111.81600,-2.141089003
111.81650,-0.3099225569
111.81700,0.6056606662
111.81750,-0.004728149245
111.81800,-2.446283411
111.81850,-3.972255449
111.81900,-3.667061042
111.81950,-3.056672226
111.82000,-3.056672226
111.82050,-2.446283411
111.82100,-0.9203113723
111.82150,0.9108550739
111.82200,3.047215928
111.82250,5.183576782
111.82300,7.319937636
111.82350,8.540715266
111.82400,9.151104082
111.82450,10.67707612
111.82500,13.11863138
111.82550,14.33940901
111.82600,13.11863138
111.82650,10.67707612
111.82700,7.930326451
111.82750,3.657604743
111.82800,-1.530700188
111.82850,-3.972255449
111.82900,-0.6151169646
111.82950,4.267993559
111.83000,3.352410335
111.83050,-4.887838672
111.83100,-12.82289327
111.83150,-12.82289327
111.83200,-7.024199526
111.83250,-3.361866634
111.83300,-3.361866634
111.83350,-4.277449857
111.83400,-5.803421896
111.83450,-9.770949196
111.83500,-14.95925413
111.83550,-15.87483735
111.83600,-10.38133801
111.83650,-3.361866634
111.83700,-0.6151169646
111.83750,-0.3099225569
111.83800,0.3004662585
111.83850,1.826438297
111.83900,2.436827112
111.83950,2.436827112
111.84000,3.047215928
111.84050,4.573187966
111.84100,6.099160005
111.84150,7.014743228
111.84200,7.930326451
111.84250,8.235520859
111.84300,7.930326451
111.84350,5.488771189
111.84400,2.131632705
111.84450,-1.530700188
111.84500,-4.582644265
111.84550,-5.19303308
111.84600,-3.361866634
111.84650,-0.3099225569
111.84700,2.436827112
111.84750,4.573187966
111.84800,4.573187966
111.84850,3.352410335
111.84900,3.352410335
111.84950,5.488771189
111.85000,7.014743228
111.85050,7.319937636
111.85100,9.151104082
111.85150,14.03421461
111.85200,14.94979783
111.85250,6.404354412
111.85300,-7.634588342
111.85350,-14.95925413
111.85400,-10.38133801
111.85450,-0.9203113723
111.85500,2.131632705
111.85550,-0.6151169646
111.85600,-4.277449857
111.85650,-3.972255449
111.85700,-1.22550578
111.85750,0.9108550739
111.85800,1.826438297
111.85850,1.826438297
111.85900,1.216049482
111.85950,0.9108550739
111.86000,1.826438297
111.86050,2.436827112
111.86100,1.521243889
111.86150,-1.22550578
111.86200,-4.582644265
111.86250,-5.498227488
111.86300,-5.498227488
111.86350,-6.413810711
111.86400,-7.024199526
111.86450,-5.19303308
111.86500,-0.004728149245
111.86550,3.962799151
111.86600,4.573187966
111.86650,4.267993559
111.86700,6.404354412
111.86750,10.0666873
111.86800,10.98227053
111.86850,8.845909674
111.86900,7.319937636
111.86950,7.625132043
111.87000,7.625132043
111.87050,6.70954882
111.87100,5.488771189
111.87150,5.488771189
111.87200,5.488771189
111.87250,4.573187966
111.87300,2.436827112
111.87350,-0.004728149245
111.87400,-3.056672226
111.87450,-4.277449857
111.87500,-2.751477819
111.87550,-0.004728149245
111.87600,0.9108550739
111.87650,-0.004728149245
111.87700,-2.446283411
111.87750,-3.667061042
111.87800,-3.667061042
111.87850,-2.751477819
111.87900,-1.530700188
111.87950,-0.9203113723
111.88000,-0.6151169646
111.88050,-0.3099225569
111.88100,0.6056606662
111.88150,2.131632705
111.88200,3.047215928
111.88250,2.436827112
111.88300,0.9108550739
111.88350,-0.3099225569
111.88400,-0.9203113723
111.88450,-0.004728149245
111.88500,1.521243889
111.88550,2.74202152
111.88600,2.436827112
111.88650,2.74202152
111.88700,4.573187966
111.88750,6.099160005
111.88800,5.793965597
111.88850,4.267993559
111.88900,3.352410335
111.88950,3.047215928
111.89000,2.74202152
111.89050,1.216049482
111.89100,-0.3099225569
111.89150,-1.530700188
111.89200,-2.141089003
111.89250,-2.751477819
111.89300,-4.277449857
111.89350,-5.498227488
111.89400,-6.719005119
111.89450,-7.634588342
111.89500,-7.634588342
111.89550,-7.329393934
111.89600,-7.634588342
111.89650,-8.550171565
111.89700,-9.465754788
111.89750,-8.550171565
111.89800,-7.024199526
111.89850,-7.329393934
111.89900,-9.465754788
111.89950,-10.0761436
111.90000,-7.024199526
111.90050,-2.446283411
111.90100,-0.3099225569
111.90150,-2.141089003
111.90200,-5.19303308
111.90250,-6.413810711
111.90300,-5.498227488
111.90350,-3.972255449
111.90400,-3.972255449
111.90450,-4.277449857
111.90500,-3.667061042
111.90550,-1.835894595
111.90600,-0.6151169646
111.90650,-1.530700188
111.90700,-3.667061042
111.90750,-4.887838672
111.90800,-4.887838672
111.90850,-3.361866634
111.90900,-1.22550578
111.90950,0.6056606662
111.91000,2.131632705
111.91050,2.131632705
111.91100,-0.004728149245
111.91150,-3.056672226
111.91200,-4.887838672
111.91250,-5.803421896
111.91300,-5.498227488
111.91350,-4.887838672
111.91400,-3.056672226
111.91450,-0.9203113723
111.91500,1.216049482
111.91550,3.962799151
111.91600,6.099160005
111.91650,6.70954882
111.91700,4.573187966
111.91750,2.131632705
111.91800,-0.004728149245
111.91850,-4.277449857
111.91900,-10.68653242
111.91950,-14.95925413
111.92000,-13.7384765
111.92050,-9.770949196
111.92100,-7.024199526
111.92150,-5.19303308
111.92200,-1.22550578
111.92250,4.573187966
111.92300,8.235520859
111.92350,7.930326451
111.92400,7.014743228
111.92450,7.930326451
111.92500,9.151104082
111.92550,8.845909674
111.92600,8.540715266
111.92650,7.930326451
111.92700,2.74202152
111.92750,-6.719005119
111.92800,-14.65405972
111.92850,-14.65405972
111.92900,-8.855365973
111.92950,-3.972255449
111.93000,-3.361866634
111.93050,-4.582644265
111.93100,-4.887838672
111.93150,-3.972255449
111.93200,-2.446283411
111.93250,-0.9203113723
111.93300,0.3004662585
111.93350,1.521243889
111.93400,3.047215928
111.93450,4.573187966
111.93500,4.267993559
111.93550,2.131632705
111.93600,-0.004728149245
111.93650,-1.22550578
111.93700,-1.835894595
111.93750,-3.667061042
111.93800,-5.498227488
111.93850,-5.19303308
111.93900,-2.751477819
111.93950,-0.6151169646
111.94000,-0.3099225569
111.94050,-1.22550578
111.94100,-1.530700188
111.94150,-0.9203113723
111.94200,0.3004662585
111.94250,1.216049482
111.94300,0.9108550739
111.94350,0.3004662585
111.94400,0.3004662585
111.94450,-0.004728149245
111.94500,-1.835894595
111.94550,-3.056672226
111.94600,-2.446283411
111.94650,-0.3099225569
111.94700,1.216049482
111.94750,3.047215928
111.94800,6.404354412
111.94850,9.151104082
111.94900,7.319937636
111.94950,0.9108550739
111.95000,-3.056672226
111.95050,-0.9203113723
111.95100,3.962799151
111.95150,5.488771189
111.95200,2.74202152
111.95250,1.216049482
111.95300,3.352410335
111.95350,5.488771189
111.95400,5.183576782
111.95450,5.488771189
111.95500,9.151104082
111.95550,12.81343697
111.95600,11.89785375
111.95650,8.845909674
111.95700,9.45629849
111.95750,12.20304816
111.95800,6.404354412
111.95850,-11.60211564
111.95900,-29.6085857
111.95950,-31.74494655
111.96000,-18.92678143
111.96050,-4.887838672
111.96100,0.6056606662
111.96150,1.216049482
111.96200,3.657604743
111.96250,7.014743228
111.96300,7.625132043
111.96350,8.235520859
111.96400,11.89785375
111.96450,15.86538105
111.96500,14.94979783
111.96550,9.45629849
111.96600,3.352410335
111.96650,-2.141089003
111.96700,-8.244977157
111.96750,-11.90731005
111.96800,-9.465754788
111.96850,-5.498227488
111.96900,-7.634588342
111.96950,-14.95925413
111.97000,-16.18003176
111.97050,-6.108616303
111.97100,5.183576782
111.97150,8.235520859
111.97200,3.962799151
111.97250,1.826438297
111.97300,3.962799151
111.97350,5.793965597
111.97400,5.793965597
111.97450,6.70954882
111.97500,8.540715266
111.97550,7.625132043
111.97600,3.962799151
111.97650,1.826438297
111.97700,3.962799151
111.97750,7.625132043
111.97800,9.45629849
111.97850,9.151104082
111.97900,7.625132043
111.97950,3.962799151
111.98000,-0.6151169646
111.98050,-3.972255449
111.98100,-3.361866634
111.98150,-0.6151169646
111.98200,1.521243889
111.98250,3.047215928
111.98300,4.573187966
111.98350,6.404354412
111.98400,8.235520859
111.98450,8.845909674
111.98500,5.793965597
111.98550,0.3004662585
111.98600,-3.056672226
111.98650,-1.835894595
111.98700,2.131632705
111.98750,3.657604743
111.98800,1.521243889
111.98850,-0.3099225569
111.98900,1.216049482
111.98950,6.404354412
111.99000,10.98227053
111.99050,12.50824257
111.99100,11.89785375
111.99150,10.37188171
111.99200,8.235520859
111.99250,5.793965597
111.99300,3.657604743
111.99350,2.436827112
111.99400,1.521243889
111.99450,1.216049482
111.99500,0.9108550739
111.99550,0.6056606662
111.99600,0.6056606662
111.99650,0.6056606662
111.99700,-0.004728149245
111.99750,-0.6151169646
111.99800,-0.004728149245
111.99850,2.436827112
111.99900,4.878382374
111.99950,5.488771189
112.00000,3.657604743
112.00050,1.521243889
112.00100,1.216049482
112.00150,2.74202152
112.00200,4.267993559
112.00250,4.267993559
112.00300,2.74202152
112.00350,0.9108550739
112.00400,-0.004728149245
112.00450,-0.004728149245
112.00500,-0.004728149245
112.00550,-0.3099225569
112.00600,-1.835894595
112.00650,-2.751477819
112.00700,-2.446283411
112.00750,-1.22550578
112.00800,-0.6151169646
112.00850,-0.004728149245
112.00900,0.9108550739
112.00950,2.131632705
112.01000,1.521243889
112.01050,-0.004728149245
112.01100,-1.22550578
112.01150,-1.22550578
112.01200,-2.446283411
112.01250,-5.498227488
112.01300,-8.244977157
112.01350,-8.244977157
112.01400,-6.719005119
112.01450,-5.803421896
112.01500,-5.498227488
112.01550,-4.582644265
112.01600,-4.277449857
112.01650,-4.277449857
112.01700,-2.751477819
112.01750,1.521243889
112.01800,5.793965597
112.01850,6.70954882
112.01900,5.183576782
112.01950,4.267993559
112.02000,3.962799151
112.02050,2.436827112
112.02100,0.9108550739
112.02150,2.436827112
112.02200,5.183576782
112.02250,4.878382374
112.02300,1.216049482
112.02350,-0.3099225569
112.02400,2.131632705
112.02450,4.878382374
112.02500,2.436827112
112.02550,-3.667061042
112.02600,-8.855365973
112.02650,-10.38133801
112.02700,-10.68653242
112.02750,-11.29692123
112.02800,-10.99172683
112.02850,-9.465754788
112.02900,-7.939782749
112.02950,-7.634588342
112.03000,-8.244977157
112.03050,-8.550171565
112.03100,-7.634588342
112.03150,-4.887838672
112.03200,-1.530700188
112.03250,1.521243889
112.03300,3.352410335
112.03350,3.962799151
112.03400,4.267993559
112.03450,3.352410335
112.03500,0.9108550739
112.03550,-2.446283411
112.03600,-5.19303308
112.03650,-6.108616303
112.03700,-7.024199526
112.03750,-8.855365973
112.03800,-10.99172683
112.03850,-10.68653242
112.03900,-7.329393934
112.03950,-3.667061042
112.04000,-2.141089003
112.04050,-1.835894595
112.04100,-1.22550578
112.04150,-0.3099225569
112.04200,-0.004728149245
112.04250,-0.004728149245
112.04300,1.521243889
112.04350,2.74202152
112.04400,-0.004728149245
112.04450,-8.550171565
112.04500,-16.48522617
112.04550,-17.40080939
112.04600,-10.99172683
112.04650,-3.667061042
112.04700,-1.22550578
112.04750,-4.887838672
112.04800,-11.29692123
112.04850,-14.95925413
112.04900,-13.7384765
112.04950,-8.550171565
112.05000,-3.972255449
112.05050,-2.446283411
112.05100,-2.751477819
112.05150,-3.361866634
112.05200,-3.972255449
112.05250,-4.277449857
112.05300,-3.361866634
112.05350,-1.835894595
112.05400,-2.446283411
112.05450,-5.803421896
112.05500,-9.465754788
112.05550,-11.90731005
112.05600,-13.43328209
112.05650,-14.95925413
112.05700,-14.95925413
112.05750,-12.21250446
112.05800,-7.939782749
112.05850,-3.972255449
112.05900,0.9108550739
112.05950,8.540715266
112.06000,15.86538105
112.06050,19.83290835
112.06100,19.83290835
112.06150,18.30693631
112.06200,16.17057546
112.06250,13.11863138
112.06300,8.845909674
112.06350,6.099160005
112.06400,5.793965597
112.06450,7.319937636
112.06500,8.845909674
112.06550,10.0666873
112.06600,9.761492897
112.06650,7.319937636
112.06700,3.657604743
112.06750,0.9108550739
112.06800,0.9108550739
112.06850,2.74202152
112.06900,2.131632705
112.06950,-2.446283411
112.07000,-8.550171565
112.07050,-10.99172683
112.07100,-9.16056038
112.07150,-7.024199526
112.07200,-5.803421896
112.07250,-3.972255449
112.07300,-0.004728149245
112.07350,3.352410335
112.07400,4.573187966
112.07450,6.70954882
112.07500,10.37188171
112.07550,11.59265934
112.07600,7.014743228
112.07650,0.9108550739
112.07700,-0.004728149245
112.07750,1.826438297
112.07800,-1.22550578
112.07850,-10.0761436
112.07900,-14.34886531
112.07950,-7.634588342
112.08000,2.436827112
112.08050,6.099160005
112.08100,2.74202152
112.08150,1.521243889
112.08200,6.70954882
112.08250,12.20304816
112.08300,8.540715266
112.08350,-3.972255449
112.08400,-16.48522617
112.08450,-19.23197583
112.08500,-12.21250446
112.08550,-3.056672226
112.08600,2.131632705
112.08650,3.962799151
112.08700,4.573187966
112.08750,5.183576782
112.08800,5.183576782
112.08850,4.573187966
112.08900,4.573187966
112.08950,5.793965597
112.09000,6.70954882
112.09050,6.099160005
112.09100,3.962799151
112.09150,2.74202152
112.09200,2.74202152
112.09250,3.962799151
112.09300,5.183576782
112.09350,7.625132043
112.09400,10.0666873
112.09450,10.98227053
112.09500,8.540715266
112.09550,3.352410335
112.09600,-0.9203113723
112.09650,-0.3099225569
112.09700,4.267993559
112.09750,8.235520859
112.09800,8.235520859
112.09850,6.70954882
112.09900,8.235520859
112.09950,11.89785375
112.10000,10.98227053
112.10050,2.131632705
112.10100,-10.0761436
112.10150,-17.09561498
112.10200,-15.26444853
112.10250,-7.634588342
112.10300,-0.004728149245
112.10350,4.267993559
112.10400,6.099160005
112.10450,6.70954882
112.10500,6.404354412
112.10550,6.099160005
112.10600,5.488771189
112.10650,4.878382374
112.10700,3.352410335
112.10750,1.826438297
112.10800,1.216049482
112.10850,0.9108550739
112.10900,1.216049482
112.10950,1.521243889
112.11000,2.74202152
112.11050,3.962799151
112.11100,4.573187966
112.11150,4.267993559
112.11200,3.962799151
112.11250,3.962799151
112.11300,4.267993559
112.11350,3.657604743
112.11400,1.826438297
112.11450,0.6056606662
112.11500,0.3004662585
112.11550,0.6056606662
112.11600,1.521243889
112.11650,2.436827112
112.11700,2.131632705
112.11750,-0.004728149245
112.11800,-3.056672226
112.11850,-5.803421896
112.11900,-6.108616303
112.11950,-5.803421896
112.12000,-5.498227488
112.12050,-5.498227488
112.12100,-4.582644265
112.12150,-2.446283411
112.12200,-0.004728149245
112.12250,3.657604743
112.12300,7.319937636
112.12350,10.0666873
112.12400,9.761492897
112.12450,7.625132043
112.12500,5.183576782
112.12550,2.74202152
112.12600,0.6056606662
112.12650,-0.004728149245
112.12700,0.3004662585
112.12750,1.521243889
112.12800,2.436827112
112.12850,2.436827112
112.12900,2.131632705
112.12950,0.9108550739
112.13000,-0.6151169646
112.13050,-2.141089003
112.13100,-2.446283411
112.13150,-2.446283411
112.13200,-3.056672226
112.13250,-4.277449857
112.13300,-5.498227488
112.13350,-5.498227488
112.13400,-4.887838672
112.13450,-4.887838672
112.13500,-4.582644265
112.13550,-3.361866634
112.13600,-2.141089003
112.13650,-0.9203113723
112.13700,-0.004728149245
112.13750,-0.3099225569
112.13800,-1.530700188
112.13850,-2.141089003
112.13900,-1.22550578
112.13950,0.9108550739
112.14000,2.74202152
112.14050,3.047215928
112.14100,1.826438297
112.14150,0.6056606662
112.14200,0.6056606662
112.14250,0.6056606662
112.14300,-0.3099225569
112.14350,-2.751477819
112.14400,-4.582644265
112.14450,-5.19303308
112.14500,-5.498227488
112.14550,-7.024199526
112.14600,-8.550171565
112.14650,-7.634588342
112.14700,-4.887838672
112.14750,-3.972255449
112.14800,-4.582644265
112.14850,-3.667061042
112.14900,-0.004728149245
112.14950,4.267993559
112.15000,6.404354412
112.15050,7.014743228
112.15100,7.930326451
112.15150,7.930326451
112.15200,4.878382374
112.15250,1.521243889
112.15300,1.216049482
112.15350,3.657604743
112.15400,2.436827112
112.15450,-4.582644265
112.15500,-13.43328209
112.15550,-16.48522617
112.15600,-12.51769887
112.15650,-7.024199526
112.15700,-3.972255449
112.15750,-2.751477819
112.15800,-1.835894595
112.15850,-1.22550578
112.15900,-2.446283411
112.15950,-3.972255449
112.16000,-4.277449857
112.16050,-2.751477819
112.16100,-2.141089003
112.16150,-4.277449857
112.16200,-7.329393934
112.16250,-8.550171565
112.16300,-7.024199526
112.16350,-5.19303308
112.16400,-5.498227488
112.16450,-5.803421896
112.16500,-4.887838672
112.16550,-3.056672226
112.16600,-1.835894595
112.16650,-1.530700188
112.16700,-0.004728149245
112.16750,2.131632705
112.16800,3.047215928
112.16850,1.826438297
112.16900,0.6056606662
112.16950,0.3004662585
112.17000,-0.3099225569
112.17050,-1.835894595
112.17100,-2.446283411
112.17150,-1.22550578
112.17200,-0.004728149245
112.17250,0.6056606662
112.17300,1.826438297
112.17350,3.962799151
112.17400,4.267993559
112.17450,0.9108550739
112.17500,-2.446283411
112.17550,-2.141089003
112.17600,0.6056606662
112.17650,2.436827112
112.17700,2.436827112
112.17750,1.826438297
112.17800,0.6056606662
112.17850,-2.751477819
112.17900,-7.939782749
112.17950,-11.29692123
112.18000,-10.38133801
112.18050,-7.634588342
112.18100,-4.887838672
112.18150,-3.056672226
112.18200,-2.141089003
112.18250,-2.141089003
112.18300,-2.446283411
112.18350,-0.9203113723
112.18400,0.6056606662
112.18450,1.521243889
112.18500,-0.004728149245
112.18550,-1.530700188
112.18600,-3.056672226
112.18650,-2.446283411
112.18700,-0.9203113723
112.18750,0.3004662585
112.18800,1.826438297
112.18850,3.657604743
112.18900,5.183576782
112.18950,3.657604743
112.19000,-0.6151169646
112.19050,-4.887838672
112.19100,-3.361866634
112.19150,2.131632705
112.19200,4.573187966
112.19250,-0.9203113723
112.19300,-11.29692123
112.19350,-17.40080939
112.19400,-14.95925413
112.19450,-4.887838672
112.19500,6.404354412
112.19550,12.50824257
112.19600,10.98227053
112.19650,6.099160005
112.19700,3.047215928
112.19750,2.74202152
112.19800,3.047215928
112.19850,2.131632705
112.19900,0.9108550739
112.19950,-0.004728149245
112.20000,-0.9203113723
112.20050,0.3004662585
112.20100,4.267993559
112.20150,6.404354412
112.20200,4.267993559
112.20250,2.74202152
112.20300,6.404354412
112.20350,11.89785375
112.20400,12.50824257
112.20450,9.45629849
112.20500,9.761492897
112.20550,15.25499224
112.20600,18.00174191
112.20650,14.33940901
112.20700,10.37188171
112.20750,10.0666873
112.20800,8.540715266
112.20850,0.6056606662
112.20900,-7.939782749
112.20950,-9.16056038
112.21000,-4.582644265
112.21050,-1.530700188
112.21100,-1.530700188
112.21150,-0.6151169646
112.21200,3.047215928
112.21250,3.962799151
112.21300,-1.22550578
112.21350,-8.550171565
112.21400,-10.99172683
112.21450,-7.634588342
112.21500,-3.972255449
112.21550,-5.19303308
112.21600,-10.99172683
112.21650,-18.31639261
112.21700,-22.89430873
112.21750,-22.28391991
112.21800,-16.79042057
112.21850,-9.465754788
112.21900,-4.887838672
112.21950,-3.361866634
112.22000,-1.530700188
112.22050,2.74202152
112.22100,8.235520859
112.22150,10.0666873
112.22200,7.014743228
112.22250,3.047215928
112.22300,1.521243889
112.22350,2.436827112
112.22400,3.047215928
112.22450,2.436827112
112.22500,1.826438297
112.22550,2.74202152
112.22600,4.573187966
112.22650,5.488771189
112.22700,5.488771189
112.22750,4.267993559
112.22800,2.74202152
112.22850,2.436827112
112.22900,3.352410335
112.22950,5.488771189
112.23000,6.70954882
112.23050,6.404354412
112.23100,4.878382374
112.23150,3.657604743
112.23200,3.657604743
112.23250,4.267993559
112.23300,5.183576782
112.23350,5.488771189
112.23400,5.488771189
112.23450,4.878382374
112.23500,3.352410335
112.23550,1.826438297
112.23600,-0.004728149245
112.23650,-1.835894595
112.23700,-4.582644265
112.23750,-6.413810711
112.23800,-6.108616303
112.23850,-3.972255449
112.23900,-2.141089003
112.23950,-1.22550578
112.24000,-0.004728149245
112.24050,0.9108550739
112.24100,2.131632705
112.24150,3.047215928
112.24200,3.352410335
112.24250,3.047215928
112.24300,1.826438297
112.24350,0.6056606662
112.24400,0.6056606662
112.24450,1.826438297
112.24500,3.352410335
112.24550,3.962799151
112.24600,4.878382374
112.24650,6.099160005
112.24700,7.014743228
112.24750,7.625132043
112.24800,8.235520859
112.24850,8.845909674
112.24900,7.930326451
112.24950,5.488771189
112.25000,3.657604743
112.25050,2.436827112
112.25100,0.9108550739
112.25150,-0.3099225569
112.25200,-0.3099225569
112.25250,0.9108550739
112.25300,2.131632705
112.25350,3.352410335
112.25400,5.488771189
112.25450,8.235520859
112.25500,9.151104082
112.25550,8.845909674
112.25600,10.67707612
112.25650,12.81343697
112.25700,11.59265934
112.25750,7.319937636
112.25800,6.70954882
112.25850,10.0666873
112.25900,8.845909674
112.25950,-0.9203113723
112.26000,-11.60211564
112.26050,-13.7384765
112.26100,-12.82289327
112.26150,-19.23197583
112.26200,-31.43975214
112.26250,-36.01766826
112.26300,-27.47222484
112.26350,-14.0436709
112.26400,-6.108616303
112.26450,-3.667061042
112.26500,-0.9203113723
112.26550,1.826438297
112.26600,3.047215928
112.26650,3.352410335
112.26700,5.183576782
112.26750,7.319937636
112.26800,6.70954882
112.26850,5.488771189
112.26900,8.540715266
112.26950,14.33940901
112.27000,15.56018664
112.27050,8.235520859
112.27100,-2.751477819
112.27150,-10.0761436
112.27200,-10.68653242
112.27250,-7.329393934
112.27300,-3.972255449
112.27350,-2.751477819
112.27400,-2.751477819
112.27450,-3.361866634
112.27500,-3.361866634
112.27550,-2.751477819
112.27600,-2.446283411
112.27650,-2.751477819
112.27700,-2.751477819
112.27750,-1.530700188
112.27800,-0.004728149245
112.27850,0.3004662585
112.27900,-0.004728149245
112.27950,-0.6151169646
112.28000,-1.530700188
112.28050,-3.361866634
112.28100,-4.887838672
112.28150,-4.277449857
112.28200,-1.22550578
112.28250,1.521243889
112.28300,4.573187966
112.28350,7.014743228
112.28400,7.625132043
112.28450,4.573187966
112.28500,0.9108550739
112.28550,0.3004662585
112.28600,2.436827112
112.28650,3.047215928
112.28700,0.6056606662
112.28750,-1.22550578
112.28800,-0.3099225569
112.28850,0.9108550739
112.28900,0.6056606662
112.28950,-0.004728149245
112.29000,0.9108550739
112.29050,1.521243889
112.29100,-0.3099225569
112.29150,-4.582644265
112.29200,-7.329393934
112.29250,-7.024199526
112.29300,-5.498227488
112.29350,-4.582644265
112.29400,-3.056672226
112.29450,-1.530700188
112.29500,-1.835894595
112.29550,-4.582644265
112.29600,-6.719005119
112.29650,-6.108616303
112.29700,-4.277449857
112.29750,-2.751477819
112.29800,-1.530700188
112.29850,0.3004662585
112.29900,2.131632705
112.29950,1.521243889
112.30000,-0.9203113723
112.30050,-2.751477819
112.30100,-1.835894595
112.30150,0.3004662585
112.30200,2.131632705
112.30250,1.826438297
112.30300,0.6056606662
112.30350,0.3004662585
112.30400,2.131632705
112.30450,4.878382374
112.30500,5.488771189
112.30550,3.047215928
112.30600,1.521243889
112.30650,3.657604743
112.30700,6.404354412
112.30750,5.793965597
112.30800,0.9108550739
112.30850,-3.361866634
112.30900,-4.887838672
112.30950,-2.141089003
112.31000,3.352410335
112.31050,9.761492897
112.31100,10.67707612
112.31150,2.436827112
112.31200,-8.550171565
112.31250,-13.12808768
112.31300,-7.634588342
112.31350,-0.004728149245
112.31400,2.436827112
112.31450,2.131632705
112.31500,2.74202152
112.31550,3.352410335
112.31600,0.9108550739
112.31650,-0.9203113723
112.31700,0.3004662585
112.31750,3.657604743
112.31800,2.74202152
112.31850,-1.835894595
112.31900,-4.582644265
112.31950,-1.530700188
112.32000,2.74202152
112.32050,4.267993559
112.32100,2.131632705
112.32150,-1.530700188
112.32200,-5.498227488
112.32250,-8.244977157
112.32300,-7.329393934
112.32350,-2.446283411
112.32400,2.131632705
112.32450,2.74202152
112.32500,-0.004728149245
112.32550,-2.141089003
112.32600,-2.141089003
112.32650,-0.004728149245
112.32700,1.521243889
112.32750,2.74202152
112.32800,3.047215928
112.32850,3.352410335
112.32900,3.657604743
112.32950,3.962799151
112.33000,3.047215928
112.33050,1.826438297
112.33100,2.131632705
112.33150,5.183576782
112.33200,8.235520859
112.33250,9.151104082
112.33300,7.014743228
112.33350,3.047215928
112.33400,-3.667061042
112.33450,-12.82289327
112.33500,-18.92678143
112.33550,-16.79042057
112.33600,-9.16056038
112.33650,-3.056672226
112.33700,-3.056672226
112.33750,-6.108616303
112.33800,-7.024199526
112.33850,-4.277449857
112.33900,-0.004728149245
112.33950,2.74202152
112.34000,4.573187966
112.34050,5.183576782
112.34100,4.267993559
112.34150,1.216049482
112.34200,-3.972255449
112.34250,-10.0761436
112.34300,-13.12808768
112.34350,-11.90731005
112.34400,-7.329393934
112.34450,-4.277449857
112.34500,-3.972255449
112.34550,-3.972255449
112.34600,-2.141089003
112.34650,0.6056606662
112.34700,2.436827112
112.34750,2.131632705
112.34800,1.826438297
112.34850,2.74202152
112.34900,2.74202152
112.34950,1.216049482
112.35000,-0.004728149245
112.35050,1.826438297
112.35100,4.573187966
112.35150,2.131632705
112.35200,-5.803421896
112.35250,-13.12808768
112.35300,-13.7384765
112.35350,-9.16056038
112.35400,-6.108616303
112.35450,-4.887838672
112.35500,-2.751477819
112.35550,0.3004662585
112.35600,1.521243889
112.35650,-0.004728149245
112.35700,-1.530700188
112.35750,-1.22550578
112.35800,-1.530700188
112.35850,-3.667061042
112.35900,-5.19303308
112.35950,-4.277449857
112.36000,-3.056672226
112.36050,-3.972255449
112.36100,-6.413810711
112.36150,-7.024199526
112.36200,-3.361866634
112.36250,1.826438297
112.36300,6.099160005
112.36350,7.930326451
112.36400,9.45629849
112.36450,12.20304816
112.36500,13.7290202
112.36550,12.81343697
112.36600,12.20304816
112.36650,17.08615868
112.36700,23.49524124
112.36750,18.61213072
112.36800,-0.9203113723
112.36850,-22.89430873
112.36900,-28.99819688
112.36950,-17.7060038
112.37000,-3.972255449
112.37050,1.216049482
112.37100,1.216049482
112.37150,2.436827112
112.37200,5.488771189
112.37250,6.70954882
112.37300,5.183576782
112.37350,3.657604743
112.37400,2.74202152
112.37450,1.216049482
112.37500,-0.9203113723
112.37550,-1.835894595
112.37600,-0.004728149245
112.37650,2.131632705
112.37700,3.047215928
112.37750,2.74202152
112.37800,1.826438297
112.37850,1.216049482
112.37900,0.9108550739
112.37950,0.9108550739
112.38000,0.9108550739
112.38050,0.3004662585
112.38100,-0.004728149245
112.38150,-0.3099225569
112.38200,-0.6151169646
112.38250,-1.835894595
112.38300,-3.361866634
112.38350,-4.277449857
112.38400,-3.667061042
112.38450,-3.056672226
112.38500,-2.446283411
112.38550,-1.530700188
112.38600,0.3004662585
112.38650,2.436827112
112.38700,4.267993559
112.38750,6.099160005
112.38800,8.235520859
112.38850,10.0666873
112.38900,10.37188171
112.38950,9.151104082
112.39000,8.235520859
112.39050,7.930326451
112.39100,7.014743228
112.39150,4.878382374
112.39200,3.657604743
112.39250,3.657604743
112.39300,3.962799151
112.39350,3.657604743
112.39400,2.74202152
112.39450,2.131632705
112.39500,1.826438297
112.39550,0.6056606662
112.39600,-0.3099225569
112.39650,-0.6151169646
112.39700,-0.3099225569
112.39750,-0.004728149245
112.39800,-0.9203113723
112.39850,-1.835894595
112.39900,-1.835894595
112.39950,-1.22550578
112.40000,-1.530700188
112.40050,-3.361866634
112.40100,-5.498227488
112.40150,-6.108616303
112.40200,-4.887838672
112.40250,-3.056672226
112.40300,-1.530700188
112.40350,-0.004728149245
112.40400,-0.004728149245
112.40450,-0.9203113723
112.40500,-3.056672226
112.40550,-4.277449857
112.40600,-2.141089003
112.40650,1.216049482
112.40700,3.657604743
112.40750,3.657604743
112.40800,2.436827112
112.40850,0.9108550739
112.40900,-0.6151169646
112.40950,-2.751477819
112.41000,-4.277449857
112.41050,-4.277449857
112.41100,-3.056672226
112.41150,-2.446283411
112.41200,-2.446283411
112.41250,-2.141089003
112.41300,-0.6151169646
112.41350,0.6056606662
112.41400,2.436827112
112.41450,4.573187966
112.41500,6.404354412
112.41550,7.014743228
112.41600,6.404354412
112.41650,7.014743228
112.41700,8.845909674
112.41750,7.625132043
112.41800,0.9108550739
112.41850,-7.634588342
112.41900,-12.21250446
112.41950,-8.550171565
112.42000,-1.22550578
112.42050,2.74202152
112.42100,1.216049482
112.42150,-2.751477819
112.42200,-3.972255449
112.42250,-0.3099225569
112.42300,4.878382374
112.42350,6.70954882
112.42400,2.74202152
112.42450,-4.277449857
112.42500,-11.29692123
112.42550,-16.48522617
112.42600,-21.06314228
112.42650,-23.50469754
112.42700,-21.9787255
112.42750,-16.48522617
112.42800,-10.38133801
112.42850,-5.19303308
112.42900,-0.9203113723
112.42950,2.436827112
112.43000,5.183576782
112.43050,7.625132043
112.43100,13.11863138
112.43150,22.88485243
112.43200,30.51471262
112.43250,28.68354617
112.43300,14.33940901
112.43350,-4.277449857
112.43400,-17.40080939
112.43450,-18.92678143
112.43500,-10.99172683
112.43550,-0.004728149245
112.43600,6.099160005
112.43650,6.099160005
112.43700,2.74202152
112.43750,0.9108550739
112.43800,2.131632705
112.43850,3.047215928
112.43900,1.521243889
112.43950,-0.3099225569
112.44000,-0.3099225569
112.44050,1.216049482
112.44100,1.826438297
112.44150,1.216049482
112.44200,1.521243889
112.44250,3.047215928
112.44300,3.657604743
112.44350,1.826438297
112.44400,-1.22550578
112.44450,-2.446283411
112.44500,-1.530700188
112.44550,0.3004662585
112.44600,1.521243889
112.44650,0.6056606662
112.44700,-1.835894595
112.44750,-5.19303308
112.44800,-6.413810711
112.44850,-4.582644265
112.44900,-0.6151169646
112.44950,3.047215928
112.45000,5.183576782
112.45050,6.099160005
112.45100,7.014743228
112.45150,7.930326451
112.45200,7.319937636
112.45250,4.878382374
112.45300,2.131632705
112.45350,0.9108550739
112.45400,0.9108550739
112.45450,0.3004662585
112.45500,-0.9203113723
112.45550,-2.141089003
112.45600,-2.446283411
112.45650,-1.530700188
112.45700,-0.6151169646
112.45750,-0.3099225569
112.45800,-0.6151169646
112.45850,-0.004728149245
112.45900,1.826438297
112.45950,3.962799151
112.46000,5.488771189
112.46050,6.099160005
112.46100,6.70954882
112.46150,5.793965597
112.46200,2.436827112
112.46250,-1.22550578
112.46300,-3.056672226
112.46350,-1.22550578
112.46400,0.9108550739
112.46450,1.521243889
112.46500,1.216049482
112.46550,1.521243889
112.46600,2.436827112
112.46650,2.131632705
112.46700,0.9108550739
112.46750,-0.004728149245
112.46800,-0.004728149245
112.46850,-0.6151169646
112.46900,-1.530700188
112.46950,-1.835894595
112.47000,-1.22550578
112.47050,-1.22550578
112.47100,-2.446283411
112.47150,-3.361866634
112.47200,-2.751477819
112.47250,-1.530700188
112.47300,-1.22550578
112.47350,-2.141089003
112.47400,-3.361866634
112.47450,-3.972255449
112.47500,-4.277449857
112.47550,-4.887838672
112.47600,-5.19303308
112.47650,-3.972255449
112.47700,-1.22550578
112.47750,0.6056606662
112.47800,1.521243889
112.47850,2.131632705
112.47900,3.352410335
112.47950,5.488771189
112.48000,7.014743228
112.48050,6.404354412
112.48100,4.267993559
112.48150,2.436827112
112.48200,2.436827112
112.48250,4.573187966
112.48300,6.404354412
112.48350,3.962799151
112.48400,-3.972255449
112.48450,-13.7384765
112.48500,-18.0111982
112.48550,-14.95925413
112.48600,-8.855365973
112.48650,-4.887838672
112.48700,-2.751477819
112.48750,-0.004728149245
112.48800,2.131632705
112.48850,2.131632705
112.48900,-0.004728149245
112.48950,-0.9203113723
112.49000,-1.22550578
112.49050,-3.056672226
112.49100,-4.887838672
112.49150,-4.277449857
112.49200,-2.141089003
112.49250,-4.277449857
112.49300,-10.99172683
112.49350,-14.95925413
112.49400,-12.82289327
112.49450,-8.244977157
112.49500,-7.329393934
112.49550,-7.939782749
112.49600,-6.108616303
112.49650,-3.056672226
112.49700,-2.141089003
112.49750,-3.361866634
112.49800,-2.446283411
112.49850,1.521243889
112.49900,4.878382374
112.49950,5.183576782
112.50000,3.962799151
112.50050,3.657604743
112.50100,6.099160005
112.50150,10.0666873
112.50200,13.11863138
112.50250,13.7290202
112.50300,11.89785375
112.50350,9.45629849
112.50400,7.930326451
112.50450,8.540715266
112.50500,12.81343697
112.50550,18.30693631
112.50600,18.00174191
112.50650,7.014743228
112.50700,-9.465754788
112.50750,-19.84236465
112.50800,-18.31639261
112.50850,-10.38133801
112.50900,-4.582644265
112.50950,-1.530700188
112.51000,1.216049482
112.51050,4.573187966
112.51100,5.793965597
112.51150,5.183576782
112.51200,4.878382374
112.51250,5.488771189
112.51300,5.488771189
112.51350,3.352410335
112.51400,2.131632705
112.51450,4.573187966
112.51500,8.845909674
112.51550,8.845909674
112.51600,0.9108550739
112.51650,-10.0761436
112.51700,-13.7384765
112.51750,-7.634588342
112.51800,-0.004728149245
112.51850,-0.3099225569
112.51900,-5.803421896
112.51950,-7.024199526
112.52000,-1.22550578
112.52050,3.962799151
112.52100,4.878382374
112.52150,3.352410335
112.52200,1.521243889
112.52250,-1.835894595
112.52300,-7.329393934
112.52350,-10.0761436
112.52400,-7.024199526
112.52450,-2.141089003
112.52500,-0.004728149245
112.52550,0.3004662585
112.52600,2.131632705
112.52650,3.962799151
112.52700,3.657604743
112.52750,1.521243889
112.52800,0.6056606662
112.52850,1.216049482
112.52900,1.216049482
112.52950,1.521243889
112.53000,3.962799151
112.53050,6.099160005
112.53100,4.267993559
112.53150,-0.004728149245
112.53200,-0.6151169646
112.53250,3.657604743
112.53300,7.930326451
112.53350,6.404354412
112.53400,1.521243889
112.53450,-1.530700188
112.53500,-1.835894595
112.53550,-1.835894595
112.53600,-2.446283411
112.53650,-2.446283411
112.53700,-1.835894595
112.53750,-1.22550578
112.53800,-1.530700188
112.53850,-1.22550578
112.53900,0.3004662585
112.53950,1.826438297
112.54000,0.9108550739
112.54050,-0.9203113723
112.54100,-2.141089003
112.54150,-0.6151169646
112.54200,0.6056606662
112.54250,0.6056606662
112.54300,-0.6151169646
112.54350,-3.056672226
112.54400,-5.803421896
112.54450,-8.244977157
112.54500,-8.244977157
112.54550,-4.277449857
112.54600,1.521243889
112.54650,4.267993559
112.54700,1.826438297
112.54750,-1.530700188
112.54800,-2.751477819
112.54850,-3.056672226
112.54900,-4.887838672
112.54950,-7.634588342
112.55000,-6.413810711
112.55050,-0.6151169646
112.55100,3.962799151
112.55150,3.962799151
112.55200,1.521243889
112.55250,0.9108550739
112.55300,2.436827112
112.55350,2.74202152
112.55400,-0.004728149245
112.55450,-2.751477819
112.55500,-2.141089003
112.55550,0.3004662585
112.55600,2.131632705
112.55650,1.216049482
112.55700,-0.3099225569
112.55750,-0.9203113723
112.55800,-0.3099225569
112.55850,-0.004728149245
112.55900,-0.004728149245
112.55950,-0.3099225569
112.56000,-0.3099225569
112.56050,-0.6151169646
112.56100,-1.835894595
112.56150,-3.361866634
112.56200,-4.277449857
112.56250,-3.667061042
112.56300,-2.751477819
112.56350,-3.056672226
112.56400,-3.667061042
112.56450,-3.361866634
112.56500,-1.835894595
112.56550,-0.6151169646
112.56600,-0.3099225569
112.56650,-0.004728149245
112.56700,-0.004728149245
112.56750,-2.141089003
112.56800,-4.887838672
112.56850,-6.413810711
112.56900,-4.277449857
112.56950,-1.22550578
112.57000,-0.004728149245
112.57050,-0.6151169646
112.57100,-0.6151169646
112.57150,0.6056606662
112.57200,1.826438297
112.57250,0.6056606662
112.57300,-2.446283411
112.57350,-5.803421896
112.57400,-6.719005119
112.57450,-4.582644265
112.57500,-2.141089003
112.57550,-1.530700188
112.57600,-2.446283411
112.57650,-1.835894595
112.57700,0.6056606662
112.57750,2.74202152
112.57800,0.9108550739
112.57850,-2.446283411
112.57900,-4.277449857
112.57950,-3.056672226
112.58000,-0.9203113723
112.58050,0.6056606662
112.58100,3.962799151
112.58150,9.45629849
112.58200,13.42382579
112.58250,12.81343697
112.58300,7.625132043
112.58350,2.131632705
112.58400,-0.004728149245
112.58450,1.521243889
112.58500,5.488771189
112.58550,9.45629849
112.58600,10.0666873
112.58650,4.878382374
112.58700,-5.498227488
112.58750,-14.95925413
112.58800,-16.18003176
112.58850,-9.16056038
112.58900,-0.004728149245
112.58950,3.962799151
112.59000,3.352410335
112.59050,0.9108550739
112.59100,-1.530700188
112.59150,-3.056672226
112.59200,-3.056672226
112.59250,-0.3099225569
112.59300,2.74202152
112.59350,4.573187966
112.59400,5.488771189
112.59450,7.625132043
112.59500,9.45629849
112.59550,8.540715266
112.59600,7.625132043
112.59650,9.45629849
112.59700,12.50824257
112.59750,10.0666873
112.59800,1.216049482
112.59850,-7.329393934
112.59900,-10.99172683
112.59950,-10.38133801
112.60000,-9.16056038
112.60050,-5.803421896
112.60100,-1.22550578
