"type","name","time_units","begin_time","frequency","count","units"
"signal","Ultium EMG-FLEX.CAPR.U RT","s",131.98000,2000,22000,"uV"

"time","value"
131.98000,-13.69256769
131.98050,-11.55620684
131.98100,-3.621152238
131.98150,3.398319139
131.98200,3.703513547
131.98250,-1.484791384
131.98300,-5.452318684
131.98350,-3.621152238
131.98400,-0.5692081607
131.98450,-0.5692081607
131.98500,-2.705569015
131.98550,-1.484791384
131.98600,4.008707955
131.98650,10.41779052
131.98700,13.16454019
131.98750,12.24895696
131.98800,9.502207293
131.98850,7.36584644
131.98900,6.145068809
131.98950,5.839874401
131.99000,5.534679993
131.99050,3.703513547
131.99100,0.04118065471
131.99150,-5.147124276
131.99200,-7.28348513
131.99250,-3.621152238
131.99300,1.872347101
131.99350,4.61909677
131.99400,4.313902363
131.99450,4.008707955
131.99500,5.229485586
131.99550,6.145068809
131.99600,6.450263216
131.99650,9.197012886
131.99700,14.38531782
131.99750,15.60609545
131.99800,7.671040847
131.99850,-4.536735461
131.99900,-12.16659565
131.99950,-11.55620684
132.00000,-6.673096315
132.00050,-3.010763422
132.00100,-2.095180199
132.00150,-2.400374607
132.00200,-2.400374607
132.00250,-2.095180199
132.00300,-1.484791384
132.00350,-0.8744025684
132.00400,-0.8744025684
132.00450,-1.179596976
132.00500,0.04118065471
132.00550,1.567152693
132.00600,2.787930324
132.00650,2.787930324
132.00700,1.567152693
132.00750,0.3463750624
132.00800,-0.8744025684
132.00850,-2.400374607
132.00900,-3.621152238
132.00950,-2.400374607
132.01000,0.04118065471
132.01050,2.177541509
132.01100,3.703513547
132.01150,5.534679993
132.01200,7.36584644
132.01250,7.060652032
132.01300,4.313902363
132.01350,1.567152693
132.01400,1.567152693
132.01450,3.703513547
132.01500,5.534679993
132.01550,7.060652032
132.01600,7.976235255
132.01650,6.450263216
132.01700,0.9567638778
132.01750,-4.231541053
132.01800,-4.841929869
132.01850,0.3463750624
132.01900,6.755457624
132.01950,9.197012886
132.02000,7.671040847
132.02050,4.61909677
132.02100,0.9567638778
132.02150,-2.705569015
132.02200,-5.147124276
132.02250,-4.841929869
132.02300,-3.010763422
132.02350,-1.789985791
132.02400,-2.095180199
132.02450,-1.484791384
132.02500,1.872347101
132.02550,5.839874401
132.02600,5.534679993
132.02650,0.04118065471
132.02700,-6.062707499
132.02750,-7.893873946
132.02800,-5.757513092
132.02850,-4.231541053
132.02900,-4.536735461
132.02950,-3.621152238
132.03000,0.3463750624
132.03050,4.61909677
132.03100,5.839874401
132.03150,4.008707955
132.03200,1.872347101
132.03250,0.6515694701
132.03300,0.04118065471
132.03350,-0.5692081607
132.03400,0.3463750624
132.03450,1.872347101
132.03500,1.261958286
132.03550,-1.789985791
132.03600,-5.147124276
132.03650,-6.367901907
132.03700,-6.978290722
132.03750,-10.64062361
132.03800,-14.60815091
132.03850,-14.91334532
132.03900,-11.25101243
132.03950,-9.114651576
132.04000,-11.55620684
132.04050,-13.08217888
132.04100,-7.893873946
132.04150,0.04118065471
132.04200,3.703513547
132.04250,0.9567638778
132.04300,-1.179596976
132.04350,1.567152693
132.04400,7.36584644
132.04450,10.41779052
132.04500,8.58662407
132.04550,4.008707955
132.04600,0.04118065471
132.04650,-0.5692081607
132.04700,1.872347101
132.04750,5.839874401
132.04800,8.891818478
132.04850,10.11259611
132.04900,11.02817933
132.04950,11.33337374
132.05000,8.281429663
132.05050,2.177541509
132.05100,-3.621152238
132.05150,-4.536735461
132.05200,0.04118065471
132.05250,5.229485586
132.05300,5.229485586
132.05350,-0.264013753
132.05400,-6.673096315
132.05450,-10.0302348
132.05500,-9.725040392
132.05550,-8.504262761
132.05600,-6.367901907
132.05650,-3.621152238
132.05700,-1.484791384
132.05750,0.04118065471
132.05800,2.177541509
132.05850,4.924291178
132.05900,5.839874401
132.05950,3.703513547
132.06000,1.872347101
132.06050,1.261958286
132.06100,0.6515694701
132.06150,-2.400374607
132.06200,-6.673096315
132.06250,-8.504262761
132.06300,-9.114651576
132.06350,-10.64062361
132.06400,-11.55620684
132.06450,-8.199068353
132.06500,-0.5692081607
132.06550,7.36584644
132.06600,11.63856815
132.06650,9.807401701
132.06700,2.482735916
132.06750,-4.536735461
132.06800,-6.062707499
132.06850,-1.789985791
132.06900,1.872347101
132.06950,0.6515694701
132.07000,-1.179596976
132.07050,2.482735916
132.07100,12.24895696
132.07150,18.96323393
132.07200,16.52167867
132.07250,6.145068809
132.07300,-6.062707499
132.07350,-14.91334532
132.07400,-15.82892855
132.07450,-11.25101243
132.07500,-8.809457169
132.07550,-10.64062361
132.07600,-12.77698447
132.07650,-9.419845984
132.07700,-4.231541053
132.07750,-3.31595783
132.07800,-4.231541053
132.07850,-0.264013753
132.07900,7.060652032
132.07950,10.72298492
132.08000,6.755457624
132.08050,0.9567638778
132.08100,-1.179596976
132.08150,-2.400374607
132.08200,-4.841929869
132.08250,-6.673096315
132.08300,-5.452318684
132.08350,-3.31595783
132.08400,-2.705569015
132.08450,-3.621152238
132.08500,-4.536735461
132.08550,-6.978290722
132.08600,-10.64062361
132.08650,-10.64062361
132.08700,-3.010763422
132.08750,7.36584644
132.08800,12.85934578
132.08850,10.72298492
132.08900,6.450263216
132.08950,5.534679993
132.09000,6.755457624
132.09050,6.145068809
132.09100,3.703513547
132.09150,2.482735916
132.09200,4.008707955
132.09250,7.671040847
132.09300,9.807401701
132.09350,8.58662407
132.09400,5.229485586
132.09450,3.093124732
132.09500,3.703513547
132.09550,5.229485586
132.09600,4.61909677
132.09650,2.787930324
132.09700,2.482735916
132.09750,3.398319139
132.09800,1.567152693
132.09850,-3.621152238
132.09900,-6.978290722
132.09950,-5.452318684
132.10000,-2.400374607
132.10050,-2.705569015
132.10100,-5.452318684
132.10150,-5.147124276
132.10200,-1.789985791
132.10250,0.6515694701
132.10300,0.04118065471
132.10350,0.04118065471
132.10400,3.093124732
132.10450,7.976235255
132.10500,10.41779052
132.10550,8.891818478
132.10600,5.839874401
132.10650,4.313902363
132.10700,4.313902363
132.10750,4.008707955
132.10800,2.787930324
132.10850,2.482735916
132.10900,4.008707955
132.10950,6.145068809
132.11000,7.671040847
132.11050,9.807401701
132.11100,11.94376256
132.11150,10.41779052
132.11200,0.9567638778
132.11250,-11.55620684
132.11300,-18.57567822
132.11350,-15.82892855
132.11400,-9.114651576
132.11450,-7.893873946
132.11500,-13.08217888
132.11550,-18.57567822
132.11600,-17.04970618
132.11650,-8.504262761
132.11700,0.04118065471
132.11750,0.3463750624
132.11800,-6.367901907
132.11850,-13.08217888
132.11900,-12.77698447
132.11950,-8.504262761
132.12000,-6.367901907
132.12050,-7.893873946
132.12100,-8.199068353
132.12150,-4.536735461
132.12200,0.04118065471
132.12250,3.703513547
132.12300,5.229485586
132.12350,4.61909677
132.12400,2.177541509
132.12450,0.04118065471
132.12500,3.703513547
132.12550,11.33337374
132.12600,15.30090104
132.12650,11.63856815
132.12700,6.450263216
132.12750,7.060652032
132.12800,11.94376256
132.12850,13.774929
132.12900,9.502207293
132.12950,3.398319139
132.13000,0.04118065471
132.13050,-1.179596976
132.13100,-1.789985791
132.13150,-1.484791384
132.13200,-0.264013753
132.13250,-1.484791384
132.13300,-5.147124276
132.13350,-6.978290722
132.13400,-3.010763422
132.13450,3.703513547
132.13500,6.145068809
132.13550,2.482735916
132.13600,-0.8744025684
132.13650,-0.8744025684
132.13700,-0.264013753
132.13750,-3.010763422
132.13800,-7.893873946
132.13850,-9.419845984
132.13900,-5.452318684
132.13950,0.6515694701
132.14000,4.61909677
132.14050,5.229485586
132.14100,3.398319139
132.14150,1.261958286
132.14200,0.3463750624
132.14250,0.9567638778
132.14300,1.567152693
132.14350,1.261958286
132.14400,0.3463750624
132.14450,0.04118065471
132.14500,-0.264013753
132.14550,-2.400374607
132.14600,-3.926346645
132.14650,-1.789985791
132.14700,2.787930324
132.14750,5.534679993
132.14800,4.61909677
132.14850,4.008707955
132.14900,5.839874401
132.14950,7.36584644
132.15000,6.450263216
132.15050,6.145068809
132.15100,9.502207293
132.15150,11.94376256
132.15200,7.060652032
132.15250,-1.789985791
132.15300,-5.452318684
132.15350,-2.400374607
132.15400,-0.264013753
132.15450,-3.621152238
132.15500,-7.588679538
132.15550,-6.367901907
132.15600,-1.484791384
132.15650,1.567152693
132.15700,3.093124732
132.15750,4.008707955
132.15800,2.787930324
132.15850,-0.8744025684
132.15900,-5.147124276
132.15950,-6.062707499
132.16000,-5.452318684
132.16050,-5.452318684
132.16100,-5.452318684
132.16150,-4.841929869
132.16200,-7.28348513
132.16250,-12.16659565
132.16300,-13.08217888
132.16350,-6.673096315
132.16400,1.261958286
132.16450,4.61909677
132.16500,4.313902363
132.16550,5.534679993
132.16600,7.060652032
132.16650,4.61909677
132.16700,0.04118065471
132.16750,-1.789985791
132.16800,1.261958286
132.16850,5.534679993
132.16900,7.976235255
132.16950,8.58662407
132.17000,6.450263216
132.17050,0.6515694701
132.17100,-4.841929869
132.17150,-6.062707499
132.17200,-3.621152238
132.17250,-0.8744025684
132.17300,2.787930324
132.17350,8.891818478
132.17400,13.46973459
132.17450,11.33337374
132.17500,4.008707955
132.17550,-1.484791384
132.17600,-3.926346645
132.17650,-5.452318684
132.17700,-5.757513092
132.17750,-3.621152238
132.17800,-1.484791384
132.17850,-3.010763422
132.17900,-4.231541053
132.17950,0.04118065471
132.18000,4.008707955
132.18050,0.04118065471
132.18100,-9.725040392
132.18150,-13.69256769
132.18200,-8.199068353
132.18250,-1.484791384
132.18300,0.04118065471
132.18350,0.6515694701
132.18400,4.313902363
132.18450,7.060652032
132.18500,4.924291178
132.18550,1.872347101
132.18600,1.567152693
132.18650,0.6515694701
132.18700,-2.400374607
132.18750,-3.926346645
132.18800,-0.5692081607
132.18850,2.787930324
132.18900,1.567152693
132.18950,-1.789985791
132.19000,-2.400374607
132.19050,-0.8744025684
132.19100,-0.5692081607
132.19150,-1.179596976
132.19200,-1.484791384
132.19250,-2.400374607
132.19300,-3.621152238
132.19350,-3.621152238
132.19400,-0.8744025684
132.19450,0.3463750624
132.19500,-0.5692081607
132.19550,0.04118065471
132.19600,4.61909677
132.19650,7.36584644
132.19700,3.093124732
132.19750,-3.010763422
132.19800,-3.010763422
132.19850,3.398319139
132.19900,8.281429663
132.19950,7.36584644
132.20000,4.61909677
132.20050,3.703513547
132.20100,1.567152693
132.20150,-3.621152238
132.20200,-9.419845984
132.20250,-11.55620684
132.20300,-11.55620684
132.20350,-10.33542921
132.20400,-6.673096315
132.20450,-1.179596976
132.20500,0.6515694701
132.20550,-3.621152238
132.20600,-10.0302348
132.20650,-10.64062361
132.20700,-5.147124276
132.20750,-0.264013753
132.20800,1.261958286
132.20850,2.177541509
132.20900,3.703513547
132.20950,3.703513547
132.21000,1.872347101
132.21050,1.567152693
132.21100,4.313902363
132.21150,6.450263216
132.21200,4.924291178
132.21250,1.872347101
132.21300,0.6515694701
132.21350,0.04118065471
132.21400,-1.484791384
132.21450,-3.926346645
132.21500,-5.147124276
132.21550,-5.757513092
132.21600,-6.367901907
132.21650,-3.621152238
132.21700,3.703513547
132.21750,11.02817933
132.21800,10.11259611
132.21850,1.261958286
132.21900,-5.757513092
132.21950,-5.757513092
132.22000,-1.484791384
132.22050,1.567152693
132.22100,3.398319139
132.22150,4.313902363
132.22200,4.008707955
132.22250,1.872347101
132.22300,0.6515694701
132.22350,2.177541509
132.22400,3.093124732
132.22450,0.04118065471
132.22500,-3.621152238
132.22550,-3.621152238
132.22600,0.04118065471
132.22650,1.567152693
132.22700,0.04118065471
132.22750,-2.400374607
132.22800,-1.789985791
132.22850,1.567152693
132.22900,4.61909677
132.22950,3.703513547
132.23000,-0.5692081607
132.23050,-3.926346645
132.23100,-3.010763422
132.23150,-0.8744025684
132.23200,-1.789985791
132.23250,-4.231541053
132.23300,-2.095180199
132.23350,4.924291178
132.23400,11.02817933
132.23450,10.11259611
132.23500,5.534679993
132.23550,3.093124732
132.23600,2.787930324
132.23650,2.482735916
132.23700,2.482735916
132.23750,4.924291178
132.23800,8.281429663
132.23850,7.976235255
132.23900,3.703513547
132.23950,0.04118065471
132.24000,-1.484791384
132.24050,-2.705569015
132.24100,-4.536735461
132.24150,-5.147124276
132.24200,-4.536735461
132.24250,-4.231541053
132.24300,-4.536735461
132.24350,-4.536735461
132.24400,-5.757513092
132.24450,-8.199068353
132.24500,-9.114651576
132.24550,-4.841929869
132.24600,2.787930324
132.24650,8.891818478
132.24700,10.41779052
132.24750,10.72298492
132.24800,12.55415137
132.24850,13.46973459
132.24900,12.24895696
132.24950,10.41779052
132.25000,10.11259611
132.25050,9.502207293
132.25100,5.839874401
132.25150,0.04118065471
132.25200,-3.31595783
132.25250,-3.010763422
132.25300,-1.179596976
132.25350,0.04118065471
132.25400,0.04118065471
132.25450,0.04118065471
132.25500,-0.264013753
132.25550,-2.095180199
132.25600,-5.452318684
132.25650,-8.504262761
132.25700,-8.199068353
132.25750,-4.231541053
132.25800,-0.5692081607
132.25850,-1.179596976
132.25900,-6.367901907
132.25950,-11.55620684
132.26000,-13.69256769
132.26050,-13.69256769
132.26100,-13.08217888
132.26150,-10.33542921
132.26200,-4.536735461
132.26250,-0.264013753
132.26300,-0.8744025684
132.26350,-2.095180199
132.26400,2.177541509
132.26450,10.11259611
132.26500,12.24895696
132.26550,6.145068809
132.26600,-0.5692081607
132.26650,-2.095180199
132.26700,-2.705569015
132.26750,-6.367901907
132.26800,-10.33542921
132.26850,-9.725040392
132.26900,-6.062707499
132.26950,-3.31595783
132.27000,-1.179596976
132.27050,2.177541509
132.27100,4.924291178
132.27150,4.61909677
132.27200,5.839874401
132.27250,11.63856815
132.27300,16.82687308
132.27350,13.16454019
132.27400,3.398319139
132.27450,-1.789985791
132.27500,-0.264013753
132.27550,3.093124732
132.27600,4.61909677
132.27650,6.145068809
132.27700,8.58662407
132.27750,8.281429663
132.27800,4.924291178
132.27850,2.177541509
132.27900,3.093124732
132.27950,6.145068809
132.28000,7.671040847
132.28050,6.755457624
132.28100,4.313902363
132.28150,1.261958286
132.28200,0.04118065471
132.28250,2.482735916
132.28300,7.671040847
132.28350,12.85934578
132.28400,16.82687308
132.28450,19.26842834
132.28500,19.26842834
132.28550,16.82687308
132.28600,13.46973459
132.28650,9.197012886
132.28700,1.567152693
132.28750,-8.504262761
132.28800,-16.13412295
132.28850,-17.66009499
132.28900,-19.18606703
132.28950,-25.59514959
132.29000,-31.69903775
132.29050,-29.25748248
132.29100,-18.88087262
132.29150,-11.25101243
132.29200,-11.25101243
132.29250,-12.77698447
132.29300,-9.419845984
132.29350,-3.010763422
132.29400,0.3463750624
132.29450,-0.8744025684
132.29500,-3.926346645
132.29550,-3.621152238
132.29600,0.3463750624
132.29650,4.313902363
132.29700,4.61909677
132.29750,2.787930324
132.29800,2.787930324
132.29850,4.313902363
132.29900,1.261958286
132.29950,-6.367901907
132.30000,-11.55620684
132.30050,-8.199068353
132.30100,-0.264013753
132.30150,4.008707955
132.30200,3.703513547
132.30250,2.482735916
132.30300,3.093124732
132.30350,4.313902363
132.30400,5.534679993
132.30450,7.36584644
132.30500,8.58662407
132.30550,7.36584644
132.30600,4.924291178
132.30650,3.093124732
132.30700,2.177541509
132.30750,1.567152693
132.30800,1.872347101
132.30850,4.008707955
132.30900,6.145068809
132.30950,6.755457624
132.31000,4.924291178
132.31050,1.567152693
132.31100,-3.010763422
132.31150,-8.504262761
132.31200,-12.47179006
132.31250,-13.69256769
132.31300,-11.86140125
132.31350,-7.588679538
132.31400,-1.179596976
132.31450,4.313902363
132.31500,5.229485586
132.31550,1.567152693
132.31600,-1.179596976
132.31650,-0.8744025684
132.31700,-0.5692081607
132.31750,-3.31595783
132.31800,-7.28348513
132.31850,-9.419845984
132.31900,-9.419845984
132.31950,-9.725040392
132.32000,-8.809457169
132.32050,-5.452318684
132.32100,-1.789985791
132.32150,-1.484791384
132.32200,-3.31595783
132.32250,-3.926346645
132.32300,-2.400374607
132.32350,0.04118065471
132.32400,2.787930324
132.32450,7.060652032
132.32500,11.02817933
132.32550,12.24895696
132.32600,10.72298492
132.32650,9.502207293
132.32700,8.281429663
132.32750,5.839874401
132.32800,4.008707955
132.32850,4.924291178
132.32900,8.281429663
132.32950,8.281429663
132.33000,1.261958286
132.33050,-9.419845984
132.33100,-17.66009499
132.33150,-17.9652894
132.33200,-10.0302348
132.33250,0.3463750624
132.33300,7.976235255
132.33350,10.41779052
132.33400,11.33337374
132.33450,12.24895696
132.33500,9.807401701
132.33550,0.3463750624
132.33600,-12.47179006
132.33650,-20.10165025
132.33700,-18.88087262
132.33750,-14.30295651
132.33800,-12.16659565
132.33850,-11.25101243
132.33900,-9.419845984
132.33950,-6.978290722
132.34000,-4.841929869
132.34050,-0.8744025684
132.34100,5.229485586
132.34150,9.807401701
132.34200,8.58662407
132.34250,5.839874401
132.34300,7.36584644
132.34350,11.02817933
132.34400,9.502207293
132.34450,0.9567638778
132.34500,-5.452318684
132.34550,-4.231541053
132.34600,1.872347101
132.34650,5.534679993
132.34700,4.924291178
132.34750,3.093124732
132.34800,2.177541509
132.34850,2.482735916
132.34900,4.313902363
132.34950,8.281429663
132.35000,13.16454019
132.35050,14.38531782
132.35100,9.807401701
132.35150,1.567152693
132.35200,-3.926346645
132.35250,-4.231541053
132.35300,0.04118065471
132.35350,4.924291178
132.35400,5.534679993
132.35450,2.177541509
132.35500,-0.8744025684
132.35550,-1.484791384
132.35600,-0.8744025684
132.35650,0.04118065471
132.35700,2.482735916
132.35750,6.755457624
132.35800,9.807401701
132.35850,7.060652032
132.35900,0.04118065471
132.35950,-5.757513092
132.36000,-7.893873946
132.36050,-7.28348513
132.36100,-6.062707499
132.36150,-5.452318684
132.36200,-5.757513092
132.36250,-6.673096315
132.36300,-6.673096315
132.36350,-5.147124276
132.36400,-2.705569015
132.36450,-3.010763422
132.36500,-5.452318684
132.36550,-6.673096315
132.36600,-5.452318684
132.36650,-3.621152238
132.36700,-2.705569015
132.36750,-1.179596976
132.36800,2.482735916
132.36850,6.450263216
132.36900,7.671040847
132.36950,5.229485586
132.37000,2.177541509
132.37050,1.567152693
132.37100,4.313902363
132.37150,7.36584644
132.37200,7.36584644
132.37250,4.313902363
132.37300,1.567152693
132.37350,0.9567638778
132.37400,0.3463750624
132.37450,-3.010763422
132.37500,-8.199068353
132.37550,-10.33542921
132.37600,-7.28348513
132.37650,-2.400374607
132.37700,0.3463750624
132.37750,0.9567638778
132.37800,0.3463750624
132.37850,-0.8744025684
132.37900,-3.010763422
132.37950,-4.536735461
132.38000,-3.926346645
132.38050,-2.095180199
132.38100,0.04118065471
132.38150,1.261958286
132.38200,1.872347101
132.38250,0.9567638778
132.38300,0.04118065471
132.38350,-0.8744025684
132.38400,-1.179596976
132.38450,-1.484791384
132.38500,-2.705569015
132.38550,-3.621152238
132.38600,-1.789985791
132.38650,1.567152693
132.38700,4.924291178
132.38750,5.534679993
132.38800,4.008707955
132.38850,2.787930324
132.38900,2.177541509
132.38950,2.482735916
132.39000,4.61909677
132.39050,8.281429663
132.39100,9.197012886
132.39150,4.924291178
132.39200,-0.264013753
132.39250,-1.179596976
132.39300,1.567152693
132.39350,2.177541509
132.39400,-0.8744025684
132.39450,-2.705569015
132.39500,-0.8744025684
132.39550,0.04118065471
132.39600,-3.010763422
132.39650,-5.147124276
132.39700,-2.400374607
132.39750,1.261958286
132.39800,2.482735916
132.39850,1.872347101
132.39900,2.787930324
132.39950,1.567152693
132.40000,-5.147124276
132.40050,-12.47179006
132.40100,-12.47179006
132.40150,-5.757513092
132.40200,-0.264013753
132.40250,0.6515694701
132.40300,0.04118065471
132.40350,-0.8744025684
132.40400,-4.841929869
132.40450,-9.114651576
132.40500,-8.199068353
132.40550,-2.095180199
132.40600,2.482735916
132.40650,3.398319139
132.40700,2.177541509
132.40750,1.261958286
132.40800,-0.264013753
132.40850,-0.8744025684
132.40900,2.482735916
132.40950,8.58662407
132.41000,9.807401701
132.41050,4.008707955
132.41100,-1.484791384
132.41150,-1.789985791
132.41200,0.04118065471
132.41250,-1.179596976
132.41300,-5.147124276
132.41350,-6.978290722
132.41400,-5.452318684
132.41450,-1.789985791
132.41500,2.177541509
132.41550,5.839874401
132.41600,6.755457624
132.41650,4.008707955
132.41700,0.04118065471
132.41750,-1.179596976
132.41800,-0.8744025684
132.41850,-1.179596976
132.41900,-2.400374607
132.41950,-3.621152238
132.42000,-4.231541053
132.42050,-5.147124276
132.42100,-5.757513092
132.42150,-4.231541053
132.42200,-0.5692081607
132.42250,3.093124732
132.42300,4.924291178
132.42350,4.313902363
132.42400,3.093124732
132.42450,3.093124732
132.42500,4.008707955
132.42550,4.924291178
132.42600,4.924291178
132.42650,4.008707955
132.42700,3.093124732
132.42750,3.398319139
132.42800,5.534679993
132.42850,8.58662407
132.42900,10.72298492
132.42950,10.72298492
132.43000,9.197012886
132.43050,7.36584644
132.43100,5.229485586
132.43150,1.872347101
132.43200,-2.705569015
132.43250,-6.673096315
132.43300,-8.199068353
132.43350,-7.588679538
132.43400,-6.062707499
132.43450,-5.452318684
132.43500,-5.757513092
132.43550,-4.841929869
132.43600,-0.8744025684
132.43650,5.229485586
132.43700,9.807401701
132.43750,10.11259611
132.43800,6.755457624
132.43850,2.482735916
132.43900,-2.400374607
132.43950,-8.809457169
132.44000,-13.08217888
132.44050,-11.55620684
132.44100,-6.673096315
132.44150,-3.926346645
132.44200,-3.010763422
132.44250,-0.5692081607
132.44300,4.008707955
132.44350,5.839874401
132.44400,3.093124732
132.44450,0.6515694701
132.44500,2.177541509
132.44550,5.229485586
132.44600,4.313902363
132.44650,1.261958286
132.44700,0.3463750624
132.44750,1.872347101
132.44800,1.872347101
132.44850,-1.789985791
132.44900,-6.978290722
132.44950,-8.809457169
132.45000,-8.199068353
132.45050,-6.367901907
132.45100,-5.147124276
132.45150,-3.926346645
132.45200,-2.095180199
132.45250,0.04118065471
132.45300,1.872347101
132.45350,2.177541509
132.45400,1.872347101
132.45450,2.787930324
132.45500,4.61909677
132.45550,5.229485586
132.45600,4.008707955
132.45650,2.482735916
132.45700,1.872347101
132.45750,0.04118065471
132.45800,-3.926346645
132.45850,-6.062707499
132.45900,-3.010763422
132.45950,2.787930324
132.46000,6.755457624
132.46050,7.060652032
132.46100,7.36584644
132.46150,8.58662407
132.46200,6.755457624
132.46250,1.567152693
132.46300,-3.010763422
132.46350,-3.621152238
132.46400,-1.179596976
132.46450,0.9567638778
132.46500,3.398319139
132.46550,6.450263216
132.46600,9.502207293
132.46650,9.197012886
132.46700,6.450263216
132.46750,4.313902363
132.46800,4.61909677
132.46850,4.924291178
132.46900,4.61909677
132.46950,3.093124732
132.47000,0.04118065471
132.47050,-4.841929869
132.47100,-11.25101243
132.47150,-14.91334532
132.47200,-12.47179006
132.47250,-5.757513092
132.47300,1.261958286
132.47350,4.61909677
132.47400,2.787930324
132.47450,-1.179596976
132.47500,-3.926346645
132.47550,-3.010763422
132.47600,-0.5692081607
132.47650,0.04118065471
132.47700,-1.484791384
132.47750,-2.705569015
132.47800,-1.484791384
132.47850,0.3463750624
132.47900,0.6515694701
132.47950,-1.484791384
132.48000,-4.231541053
132.48050,-4.536735461
132.48100,0.04118065471
132.48150,6.450263216
132.48200,10.41779052
132.48250,8.58662407
132.48300,3.398319139
132.48350,-1.789985791
132.48400,-6.062707499
132.48450,-8.504262761
132.48500,-7.28348513
132.48550,-0.8744025684
132.48600,6.450263216
132.48650,7.976235255
132.48700,3.093124732
132.48750,-0.264013753
132.48800,1.567152693
132.48850,5.229485586
132.48900,5.534679993
132.48950,4.313902363
132.49000,6.145068809
132.49050,7.976235255
132.49100,2.177541509
132.49150,-10.94581802
132.49200,-24.37437196
132.49250,-28.95228808
132.49300,-23.15359433
132.49350,-11.55620684
132.49400,-1.484791384
132.49450,2.177541509
132.49500,0.04118065471
132.49550,-1.789985791
132.49600,0.3463750624
132.49650,4.313902363
132.49700,5.534679993
132.49750,3.703513547
132.49800,3.703513547
132.49850,5.229485586
132.49900,4.008707955
132.49950,-0.5692081607
132.50000,-4.841929869
132.50050,-4.536735461
132.50100,-2.400374607
132.50150,-1.789985791
132.50200,-2.400374607
132.50250,-1.789985791
132.50300,-0.5692081607
132.50350,0.04118065471
132.50400,2.482735916
132.50450,6.145068809
132.50500,6.755457624
132.50550,2.787930324
132.50600,-1.179596976
132.50650,-1.179596976
132.50700,0.3463750624
132.50750,0.3463750624
132.50800,-0.264013753
132.50850,2.177541509
132.50900,7.36584644
132.50950,10.41779052
132.51000,9.197012886
132.51050,6.145068809
132.51100,3.398319139
132.51150,0.6515694701
132.51200,0.04118065471
132.51250,2.482735916
132.51300,4.924291178
132.51350,2.787930324
132.51400,-0.8744025684
132.51450,0.04118065471
132.51500,4.61909677
132.51550,4.61909677
132.51600,-2.705569015
132.51650,-8.504262761
132.51700,-5.147124276
132.51750,2.787930324
132.51800,6.145068809
132.51850,2.177541509
132.51900,-3.31595783
132.51950,-6.367901907
132.52000,-6.062707499
132.52050,-4.536735461
132.52100,-2.095180199
132.52150,0.04118065471
132.52200,0.04118065471
132.52250,-1.484791384
132.52300,-3.926346645
132.52350,-5.452318684
132.52400,-5.452318684
132.52450,-4.231541053
132.52500,-1.789985791
132.52550,0.9567638778
132.52600,2.177541509
132.52650,0.04118065471
132.52700,-3.926346645
132.52750,-5.452318684
132.52800,-1.789985791
132.52850,1.261958286
132.52900,0.04118065471
132.52950,-2.400374607
132.53000,0.04118065471
132.53050,6.755457624
132.53100,10.72298492
132.53150,10.11259611
132.53200,11.63856815
132.53250,16.21648426
132.53300,15.91128986
132.53350,5.534679993
132.53400,-5.147124276
132.53450,-7.28348513
132.53500,-3.621152238
132.53550,-5.147124276
132.53600,-11.55620684
132.53650,-12.77698447
132.53700,-6.062707499
132.53750,-0.264013753
132.53800,-1.179596976
132.53850,-3.31595783
132.53900,0.04118065471
132.53950,7.671040847
132.54000,11.02817933
132.54050,7.976235255
132.54100,1.872347101
132.54150,-3.010763422
132.54200,-5.147124276
132.54250,-3.621152238
132.54300,-0.264013753
132.54350,0.9567638778
132.54400,-3.010763422
132.54450,-10.0302348
132.54500,-14.91334532
132.54550,-14.91334532
132.54600,-11.86140125
132.54650,-8.199068353
132.54700,-5.452318684
132.54750,-3.926346645
132.54800,-4.231541053
132.54850,-4.841929869
132.54900,-3.010763422
132.54950,0.3463750624
132.55000,3.398319139
132.55050,3.703513547
132.55100,3.093124732
132.55150,3.093124732
132.55200,4.008707955
132.55250,4.008707955
132.55300,3.703513547
132.55350,4.313902363
132.55400,4.61909677
132.55450,2.482735916
132.55500,0.04118065471
132.55550,0.04118065471
132.55600,4.008707955
132.55650,7.36584644
132.55700,7.060652032
132.55750,5.229485586
132.55800,4.924291178
132.55850,5.229485586
132.55900,2.177541509
132.55950,-2.400374607
132.56000,-3.621152238
132.56050,-0.264013753
132.56100,2.177541509
132.56150,0.6515694701
132.56200,-2.095180199
132.56250,-3.31595783
132.56300,-3.31595783
132.56350,-4.536735461
132.56400,-5.757513092
132.56450,-3.621152238
132.56500,0.6515694701
132.56550,3.703513547
132.56600,5.534679993
132.56650,7.976235255
132.56700,8.891818478
132.56750,2.787930324
132.56800,-7.893873946
132.56850,-13.08217888
132.56900,-7.893873946
132.56950,0.3463750624
132.57000,2.787930324
132.57050,0.04118065471
132.57100,-1.789985791
132.57150,-1.179596976
132.57200,-1.484791384
132.57250,-1.179596976
132.57300,3.703513547
132.57350,10.11259611
132.57400,9.502207293
132.57450,0.9567638778
132.57500,-7.588679538
132.57550,-9.114651576
132.57600,-5.147124276
132.57650,-1.789985791
132.57700,-1.179596976
132.57750,-2.400374607
132.57800,-5.757513092
132.57850,-10.0302348
132.57900,-10.94581802
132.57950,-5.757513092
132.58000,-0.5692081607
132.58050,-2.400374607
132.58100,-10.33542921
132.58150,-14.60815091
132.58200,-10.33542921
132.58250,-3.31595783
132.58300,0.04118065471
132.58350,-0.8744025684
132.58400,-1.179596976
132.58450,1.261958286
132.58500,3.398319139
132.58550,3.398319139
132.58600,3.093124732
132.58650,3.703513547
132.58700,5.229485586
132.58750,5.839874401
132.58800,5.534679993
132.58850,6.145068809
132.58900,7.36584644
132.58950,7.060652032
132.59000,5.839874401
132.59050,5.229485586
132.59100,7.060652032
132.59150,9.502207293
132.59200,9.807401701
132.59250,7.36584644
132.59300,5.534679993
132.59350,6.450263216
132.59400,7.976235255
132.59450,7.060652032
132.59500,4.313902363
132.59550,2.482735916
132.59600,1.567152693
132.59650,-1.789985791
132.59700,-7.28348513
132.59750,-10.0302348
132.59800,-7.893873946
132.59850,-5.147124276
132.59900,-5.147124276
132.59950,-6.978290722
132.60000,-9.114651576
132.60050,-11.86140125
132.60100,-15.82892855
132.60150,-17.66009499
132.60200,-15.21853973
132.60250,-11.25101243
132.60300,-9.114651576
132.60350,-7.28348513
132.60400,-1.789985791
132.60450,6.755457624
132.60500,14.69051222
132.60550,18.65803952
132.60600,18.96323393
132.60650,15.91128986
132.60700,8.891818478
132.60750,-0.264013753
132.60800,-8.809457169
132.60850,-13.69256769
132.60900,-13.38737328
132.60950,-10.0302348
132.61000,-5.452318684
132.61050,-0.264013753
132.61100,5.839874401
132.61150,14.38531782
132.61200,21.09959479
132.61250,21.7099836
132.61300,16.52167867
132.61350,11.33337374
132.61400,8.891818478
132.61450,6.450263216
132.61500,1.261958286
132.61550,-3.31595783
132.61600,-3.31595783
132.61650,0.9567638778
132.61700,4.924291178
132.61750,4.61909677
132.61800,2.177541509
132.61850,0.3463750624
132.61900,0.04118065471
132.61950,-1.179596976
132.62000,-3.31595783
132.62050,-5.452318684
132.62100,-6.673096315
132.62150,-5.147124276
132.62200,-2.095180199
132.62250,-0.264013753
132.62300,-0.8744025684
132.62350,-2.400374607
132.62400,-0.8744025684
132.62450,2.177541509
132.62500,3.093124732
132.62550,-0.264013753
132.62600,-3.010763422
132.62650,-0.8744025684
132.62700,3.703513547
132.62750,5.229485586
132.62800,2.787930324
132.62850,1.567152693
132.62900,3.093124732
132.62950,3.398319139
132.63000,0.9567638778
132.63050,0.04118065471
132.63100,4.61909677
132.63150,11.02817933
132.63200,12.55415137
132.63250,9.197012886
132.63300,6.450263216
132.63350,5.534679993
132.63400,3.398319139
132.63450,-1.484791384
132.63500,-6.367901907
132.63550,-6.673096315
132.63600,-3.926346645
132.63650,-2.400374607
132.63700,-2.400374607
132.63750,-1.484791384
132.63800,0.3463750624
132.63850,1.872347101
132.63900,0.6515694701
132.63950,-1.484791384
132.64000,-3.010763422
132.64050,-3.010763422
132.64100,-1.789985791
132.64150,0.6515694701
132.64200,3.093124732
132.64250,3.703513547
132.64300,2.482735916
132.64350,1.567152693
132.64400,1.261958286
132.64450,0.3463750624
132.64500,-0.8744025684
132.64550,-1.484791384
132.64600,-1.484791384
132.64650,-3.010763422
132.64700,-5.147124276
132.64750,-6.367901907
132.64800,-6.062707499
132.64850,-7.28348513
132.64900,-9.114651576
132.64950,-6.978290722
132.65000,-1.179596976
132.65050,4.313902363
132.65100,7.060652032
132.65150,8.281429663
132.65200,7.976235255
132.65250,3.398319139
132.65300,-2.095180199
132.65350,-3.31595783
132.65400,0.6515694701
132.65450,1.567152693
132.65500,-3.621152238
132.65550,-7.28348513
132.65600,-3.010763422
132.65650,3.398319139
132.65700,4.313902363
132.65750,4.313902363
132.65800,8.891818478
132.65850,13.16454019
132.65900,6.755457624
132.65950,-7.28348513
132.66000,-15.82892855
132.66050,-13.69256769
132.66100,-9.114651576
132.66150,-8.199068353
132.66200,-8.199068353
132.66250,-6.062707499
132.66300,-3.926346645
132.66350,-4.536735461
132.66400,-4.231541053
132.66450,-1.179596976
132.66500,2.177541509
132.66550,3.398319139
132.66600,2.787930324
132.66650,2.482735916
132.66700,1.567152693
132.66750,-0.264013753
132.66800,-1.789985791
132.66850,-2.705569015
132.66900,-2.400374607
132.66950,-1.179596976
132.67000,1.567152693
132.67050,4.313902363
132.67100,4.61909677
132.67150,2.177541509
132.67200,0.3463750624
132.67250,0.9567638778
132.67300,3.398319139
132.67350,4.924291178
132.67400,3.398319139
132.67450,-0.264013753
132.67500,-3.621152238
132.67550,-3.926346645
132.67600,-1.484791384
132.67650,0.3463750624
132.67700,0.04118065471
132.67750,-1.484791384
132.67800,-2.400374607
132.67850,-2.095180199
132.67900,-1.179596976
132.67950,0.04118065471
132.68000,1.567152693
132.68050,1.872347101
132.68100,0.3463750624
132.68150,-1.789985791
132.68200,-3.926346645
132.68250,-6.062707499
132.68300,-7.28348513
132.68350,-6.673096315
132.68400,-3.31595783
132.68450,0.9567638778
132.68500,4.313902363
132.68550,6.145068809
132.68600,6.755457624
132.68650,7.060652032
132.68700,7.36584644
132.68750,8.891818478
132.68800,12.55415137
132.68850,15.60609545
132.68900,14.69051222
132.68950,8.891818478
132.69000,0.04118065471
132.69050,-6.978290722
132.69100,-10.64062361
132.69150,-11.86140125
132.69200,-11.86140125
132.69250,-11.86140125
132.69300,-10.33542921
132.69350,-7.588679538
132.69400,-5.147124276
132.69450,-4.536735461
132.69500,-4.231541053
132.69550,-2.705569015
132.69600,0.04118065471
132.69650,1.567152693
132.69700,-0.5692081607
132.69750,-8.199068353
132.69800,-16.74451177
132.69850,-17.9652894
132.69900,-9.114651576
132.69950,3.093124732
132.70000,9.502207293
132.70050,8.281429663
132.70100,6.755457624
132.70150,8.281429663
132.70200,7.36584644
132.70250,1.261958286
132.70300,-3.621152238
132.70350,-2.095180199
132.70400,3.398319139
132.70450,6.145068809
132.70500,5.229485586
132.70550,3.703513547
132.70600,2.177541509
132.70650,-1.484791384
132.70700,-6.978290722
132.70750,-10.0302348
132.70800,-8.504262761
132.70850,-5.452318684
132.70900,-3.010763422
132.70950,-1.179596976
132.71000,0.3463750624
132.71050,2.482735916
132.71100,4.008707955
132.71150,4.008707955
132.71200,0.3463750624
132.71250,-4.231541053
132.71300,-6.062707499
132.71350,-4.841929869
132.71400,-4.841929869
132.71450,-6.978290722
132.71500,-6.367901907
132.71550,-0.8744025684
132.71600,2.787930324
132.71650,0.6515694701
132.71700,-3.010763422
132.71750,-1.789985791
132.71800,2.482735916
132.71850,4.313902363
132.71900,2.177541509
132.71950,0.9567638778
132.72000,4.61909677
132.72050,10.41779052
132.72100,14.38531782
132.72150,13.774929
132.72200,9.807401701
132.72250,5.534679993
132.72300,4.313902363
132.72350,5.229485586
132.72400,6.450263216
132.72450,6.450263216
132.72500,7.36584644
132.72550,7.36584644
132.72600,2.787930324
132.72650,-3.010763422
132.72700,-4.231541053
132.72750,-0.264013753
132.72800,0.3463750624
132.72850,-4.536735461
132.72900,-8.199068353
132.72950,-4.231541053
132.73000,1.261958286
132.73050,2.482735916
132.73100,2.787930324
132.73150,7.671040847
132.73200,11.33337374
132.73250,4.008707955
132.73300,-11.25101243
132.73350,-20.71203907
132.73400,-16.74451177
132.73450,-5.757513092
132.73500,1.261958286
132.73550,1.872347101
132.73600,0.04118065471
132.73650,-0.5692081607
132.73700,-0.264013753
132.73750,0.04118065471
132.73800,0.04118065471
132.73850,-0.264013753
132.73900,0.9567638778
132.73950,3.703513547
132.74000,5.229485586
132.74050,4.313902363
132.74100,2.177541509
132.74150,1.567152693
132.74200,3.093124732
132.74250,5.229485586
132.74300,6.755457624
132.74350,6.755457624
132.74400,5.229485586
132.74450,2.482735916
132.74500,-0.264013753
132.74550,-2.705569015
132.74600,-3.926346645
132.74650,-3.31595783
132.74700,-0.5692081607
132.74750,1.567152693
132.74800,2.787930324
132.74850,4.008707955
132.74900,5.229485586
132.74950,5.229485586
132.75000,2.787930324
132.75050,0.3463750624
132.75100,-0.264013753
132.75150,-0.5692081607
132.75200,-0.8744025684
132.75250,0.3463750624
132.75300,2.787930324
132.75350,2.787930324
132.75400,-0.8744025684
132.75450,-2.705569015
132.75500,1.567152693
132.75550,7.671040847
132.75600,7.976235255
132.75650,4.313902363
132.75700,3.093124732
132.75750,4.61909677
132.75800,3.703513547
132.75850,0.04118065471
132.75900,-2.095180199
132.75950,0.9567638778
132.76000,5.534679993
132.76050,6.755457624
132.76100,2.787930324
132.76150,-3.010763422
132.76200,-8.809457169
132.76250,-11.86140125
132.76300,-12.16659565
132.76350,-11.25101243
132.76400,-9.114651576
132.76450,-4.841929869
132.76500,0.6515694701
132.76550,4.008707955
132.76600,2.787930324
132.76650,-0.5692081607
132.76700,-3.621152238
132.76750,-4.536735461
132.76800,-3.926346645
132.76850,-1.484791384
132.76900,1.872347101
132.76950,4.313902363
132.77000,4.008707955
132.77050,2.482735916
132.77100,1.261958286
132.77150,0.9567638778
132.77200,0.6515694701
132.77250,0.6515694701
132.77300,0.3463750624
132.77350,-0.8744025684
132.77400,-2.095180199
132.77450,-0.264013753
132.77500,2.482735916
132.77550,4.008707955
132.77600,4.313902363
132.77650,6.450263216
132.77700,9.807401701
132.77750,8.891818478
132.77800,4.61909677
132.77850,3.093124732
132.77900,6.450263216
132.77950,9.197012886
132.78000,5.534679993
132.78050,-1.484791384
132.78100,-8.199068353
132.78150,-13.69256769
132.78200,-19.49126144
132.78250,-21.9328167
132.78300,-17.66009499
132.78350,-8.809457169
132.78400,-1.789985791
132.78450,0.6515694701
132.78500,0.3463750624
132.78550,-0.8744025684
132.78600,-3.010763422
132.78650,-5.147124276
132.78700,-6.673096315
132.78750,-7.28348513
132.78800,-6.978290722
132.78850,-5.147124276
132.78900,-2.705569015
132.78950,-1.179596976
132.79000,-0.264013753
132.79050,0.9567638778
132.79100,1.872347101
132.79150,-0.264013753
132.79200,-3.31595783
132.79250,-2.095180199
132.79300,1.567152693
132.79350,1.872347101
132.79400,-2.095180199
132.79450,-3.31595783
132.79500,2.177541509
132.79550,5.839874401
132.79600,0.6515694701
132.79650,-6.978290722
132.79700,-4.841929869
132.79750,4.924291178
132.79800,11.02817933
132.79850,7.060652032
132.79900,0.04118065471
132.79950,-2.400374607
132.80000,-3.31595783
132.80050,-5.452318684
132.80100,-6.673096315
132.80150,-3.31595783
132.80200,1.872347101
132.80250,4.313902363
132.80300,3.398319139
132.80350,2.787930324
132.80400,4.313902363
132.80450,6.755457624
132.80500,8.281429663
132.80550,7.976235255
132.80600,5.534679993
132.80650,1.872347101
132.80700,-1.789985791
132.80750,-3.926346645
132.80800,-3.621152238
132.80850,-2.095180199
132.80900,-0.8744025684
132.80950,0.04118065471
132.81000,0.04118065471
132.81050,-0.8744025684
132.81100,-2.095180199
132.81150,-3.621152238
132.81200,-4.841929869
132.81250,-5.147124276
132.81300,-4.231541053
132.81350,-2.400374607
132.81400,-1.179596976
132.81450,-1.484791384
132.81500,-1.484791384
132.81550,0.3463750624
132.81600,3.703513547
132.81650,4.008707955
132.81700,-0.264013753
132.81750,-5.757513092
132.81800,-4.231541053
132.81850,3.093124732
132.81900,7.976235255
132.81950,5.839874401
132.82000,1.567152693
132.82050,1.872347101
132.82100,5.229485586
132.82150,5.534679993
132.82200,1.872347101
132.82250,-1.484791384
132.82300,-2.400374607
132.82350,-2.400374607
132.82400,-3.31595783
132.82450,-4.231541053
132.82500,-3.621152238
132.82550,-0.8744025684
132.82600,2.787930324
132.82650,7.36584644
132.82700,9.502207293
132.82750,6.755457624
132.82800,1.872347101
132.82850,-1.179596976
132.82900,-2.095180199
132.82950,-3.31595783
132.83000,-5.757513092
132.83050,-5.757513092
132.83100,-1.179596976
132.83150,4.61909677
132.83200,7.671040847
132.83250,5.534679993
132.83300,0.6515694701
132.83350,-3.010763422
132.83400,-2.705569015
132.83450,1.567152693
132.83500,7.671040847
132.83550,11.63856815
132.83600,11.63856815
132.83650,8.891818478
132.83700,4.924291178
132.83750,0.9567638778
132.83800,-1.789985791
132.83850,-3.010763422
132.83900,-3.926346645
132.83950,-6.673096315
132.84000,-9.419845984
132.84050,-8.199068353
132.84100,-1.484791384
132.84150,4.008707955
132.84200,3.398319139
132.84250,-2.705569015
132.84300,-7.28348513
132.84350,-5.452318684
132.84400,0.9567638778
132.84450,6.145068809
132.84500,7.060652032
132.84550,4.924291178
132.84600,4.008707955
132.84650,5.534679993
132.84700,8.281429663
132.84750,10.11259611
132.84800,10.11259611
132.84850,7.060652032
132.84900,0.6515694701
132.84950,-6.367901907
132.85000,-11.86140125
132.85050,-14.30295651
132.85100,-14.91334532
132.85150,-14.91334532
132.85200,-13.38737328
132.85250,-11.25101243
132.85300,-9.114651576
132.85350,-6.978290722
132.85400,-1.484791384
132.85450,5.534679993
132.85500,8.891818478
132.85550,5.534679993
132.85600,0.04118065471
132.85650,-1.789985791
132.85700,-2.400374607
132.85750,-7.588679538
132.85800,-16.43931736
132.85850,-19.49126144
132.85900,-11.86140125
132.85950,0.04118065471
132.86000,7.36584644
132.86050,9.807401701
132.86100,9.807401701
132.86150,7.976235255
132.86200,3.398319139
132.86250,-0.264013753
132.86300,-1.179596976
132.86350,-1.179596976
132.86400,-4.231541053
132.86450,-9.114651576
132.86500,-11.25101243
132.86550,-8.199068353
132.86600,-1.789985791
132.86650,6.145068809
132.86700,12.85934578
132.86750,14.69051222
132.86800,10.41779052
132.86850,4.924291178
132.86900,3.398319139
132.86950,5.534679993
132.87000,5.839874401
132.87050,3.093124732
132.87100,1.261958286
132.87150,2.482735916
132.87200,3.398319139
132.87250,2.482735916
132.87300,1.261958286
132.87350,-0.264013753
132.87400,-3.926346645
132.87450,-7.893873946
132.87500,-7.28348513
132.87550,-2.705569015
132.87600,0.04118065471
132.87650,-2.705569015
132.87700,-7.588679538
132.87750,-9.725040392
132.87800,-8.504262761
132.87850,-5.452318684
132.87900,-1.484791384
132.87950,1.567152693
132.88000,2.482735916
132.88050,0.9567638778
132.88100,1.261958286
132.88150,3.703513547
132.88200,4.61909677
132.88250,1.261958286
132.88300,-0.8744025684
132.88350,0.6515694701
132.88400,4.008707955
132.88450,4.008707955
132.88500,2.177541509
132.88550,2.177541509
132.88600,4.313902363
132.88650,4.313902363
132.88700,1.567152693
132.88750,0.3463750624
132.88800,1.261958286
132.88850,2.482735916
132.88900,3.398319139
132.88950,6.145068809
132.89000,9.197012886
132.89050,9.502207293
132.89100,6.145068809
132.89150,3.093124732
132.89200,4.008707955
132.89250,6.755457624
132.89300,6.145068809
132.89350,0.04118065471
132.89400,-7.588679538
132.89450,-12.16659565
132.89500,-10.64062361
132.89550,-5.757513092
132.89600,-1.179596976
132.89650,1.261958286
132.89700,3.093124732
132.89750,5.839874401
132.89800,8.891818478
132.89850,10.11259611
132.89900,7.060652032
132.89950,-0.5692081607
132.90000,-8.199068353
132.90050,-8.504262761
132.90100,-0.264013753
132.90150,7.976235255
132.90200,7.671040847
132.90250,-0.5692081607
132.90300,-7.588679538
132.90350,-6.062707499
132.90400,0.3463750624
132.90450,4.61909677
132.90500,4.008707955
132.90550,0.3463750624
132.90600,-1.789985791
132.90650,-0.8744025684
132.90700,2.482735916
132.90750,6.450263216
132.90800,6.450263216
132.90850,3.398319139
132.90900,0.6515694701
132.90950,0.3463750624
132.91000,0.9567638778
132.91050,0.3463750624
132.91100,-0.8744025684
132.91150,-1.484791384
132.91200,-1.179596976
132.91250,-1.179596976
132.91300,-2.095180199
132.91350,-1.789985791
132.91400,0.04118065471
132.91450,2.482735916
132.91500,3.703513547
132.91550,3.093124732
132.91600,2.177541509
132.91650,1.567152693
132.91700,0.6515694701
132.91750,-0.264013753
132.91800,0.04118065471
132.91850,2.482735916
132.91900,4.313902363
132.91950,1.567152693
132.92000,-3.621152238
132.92050,-6.062707499
132.92100,-1.484791384
132.92150,5.229485586
132.92200,7.671040847
132.92250,4.313902363
132.92300,0.6515694701
132.92350,0.6515694701
132.92400,1.872347101
132.92450,-0.264013753
132.92500,-6.062707499
132.92550,-10.64062361
132.92600,-11.55620684
132.92650,-10.0302348
132.92700,-6.367901907
132.92750,-1.179596976
132.92800,3.398319139
132.92850,4.008707955
132.92900,0.3463750624
132.92950,-1.179596976
132.93000,3.703513547
132.93050,10.72298492
132.93100,11.33337374
132.93150,4.61909677
132.93200,-1.484791384
132.93250,-1.484791384
132.93300,0.9567638778
132.93350,2.787930324
132.93400,3.093124732
132.93450,4.924291178
132.93500,6.450263216
132.93550,4.313902363
132.93600,-1.179596976
132.93650,-7.28348513
132.93700,-9.725040392
132.93750,-8.809457169
132.93800,-5.147124276
132.93850,-1.179596976
132.93900,0.04118065471
132.93950,-1.789985791
132.94000,-4.231541053
132.94050,-4.536735461
132.94100,-3.621152238
132.94150,-3.926346645
132.94200,-5.757513092
132.94250,-5.757513092
132.94300,-3.010763422
132.94350,-1.179596976
132.94400,-1.179596976
132.94450,-2.095180199
132.94500,-0.8744025684
132.94550,0.3463750624
132.94600,0.04118065471
132.94650,-2.095180199
132.94700,-3.010763422
132.94750,-1.179596976
132.94800,0.04118065471
132.94850,-0.5692081607
132.94900,-1.789985791
132.94950,-0.8744025684
132.95000,0.6515694701
132.95050,1.261958286
132.95100,0.04118065471
132.95150,-0.8744025684
132.95200,-1.484791384
132.95250,-2.095180199
132.95300,-3.010763422
132.95350,-3.010763422
132.95400,-1.179596976
132.95450,1.567152693
132.95500,3.703513547
132.95550,4.008707955
132.95600,2.482735916
132.95650,0.6515694701
132.95700,0.9567638778
132.95750,3.398319139
132.95800,6.450263216
132.95850,8.281429663
132.95900,8.891818478
132.95950,7.976235255
132.96000,5.229485586
132.96050,1.567152693
132.96100,-0.264013753
132.96150,0.04118065471
132.96200,0.04118065471
132.96250,-2.400374607
132.96300,-3.31595783
132.96350,-0.5692081607
132.96400,1.261958286
132.96450,-2.400374607
132.96500,-9.725040392
132.96550,-12.47179006
132.96600,-9.419845984
132.96650,-6.062707499
132.96700,-6.978290722
132.96750,-7.588679538
132.96800,-4.231541053
132.96850,1.261958286
132.96900,5.534679993
132.96950,5.839874401
132.97000,3.398319139
132.97050,-0.5692081607
132.97100,-3.31595783
132.97150,-2.705569015
132.97200,-1.484791384
132.97250,-2.400374607
132.97300,-3.31595783
132.97350,0.9567638778
132.97400,8.891818478
132.97450,11.63856815
132.97500,4.924291178
132.97550,-3.010763422
132.97600,-4.841929869
132.97650,-2.095180199
132.97700,-2.400374607
132.97750,-5.452318684
132.97800,-7.588679538
132.97850,-7.893873946
132.97900,-8.199068353
132.97950,-8.809457169
132.98000,-6.673096315
132.98050,-1.484791384
132.98100,2.787930324
132.98150,5.839874401
132.98200,9.807401701
132.98250,14.99570663
132.98300,18.96323393
132.98350,19.26842834
132.98400,17.13206749
132.98450,13.16454019
132.98500,8.891818478
132.98550,6.145068809
132.98600,7.976235255
132.98650,12.85934578
132.98700,14.69051222
132.98750,9.807401701
132.98800,0.9567638778
132.98850,-8.199068353
132.98900,-17.9652894
132.98950,-28.95228808
132.99000,-36.27695386
132.99050,-35.36137064
132.99100,-27.42631604
132.99150,-20.10165025
132.99200,-17.04970618
132.99250,-15.82892855
132.99300,-12.47179006
132.99350,-8.199068353
132.99400,-4.841929869
132.99450,-3.010763422
132.99500,-1.789985791
132.99550,-0.5692081607
132.99600,0.3463750624
132.99650,1.567152693
132.99700,2.177541509
132.99750,1.567152693
132.99800,0.04118065471
132.99850,-1.179596976
132.99900,0.04118065471
132.99950,1.872347101
133.00000,3.093124732
133.00050,4.313902363
133.00100,6.450263216
133.00150,8.58662407
133.00200,9.197012886
133.00250,7.060652032
133.00300,4.008707955
133.00350,1.567152693
133.00400,1.261958286
133.00450,3.093124732
133.00500,5.534679993
133.00550,6.755457624
133.00600,6.145068809
133.00650,4.61909677
133.00700,3.703513547
133.00750,3.703513547
133.00800,4.313902363
133.00850,5.534679993
133.00900,6.145068809
133.00950,6.755457624
133.01000,6.755457624
133.01050,6.450263216
133.01100,5.839874401
133.01150,5.534679993
133.01200,5.839874401
133.01250,5.839874401
133.01300,5.229485586
133.01350,3.093124732
133.01400,0.9567638778
133.01450,0.9567638778
133.01500,2.787930324
133.01550,4.61909677
133.01600,4.61909677
133.01650,3.093124732
133.01700,2.177541509
133.01750,1.567152693
133.01800,0.3463750624
133.01850,-1.179596976
133.01900,-2.095180199
133.01950,-2.095180199
133.02000,-2.400374607
133.02050,-3.010763422
133.02100,-3.010763422
133.02150,-1.789985791
133.02200,-0.5692081607
133.02250,-0.8744025684
133.02300,-2.095180199
133.02350,-2.705569015
133.02400,-3.010763422
133.02450,-3.621152238
133.02500,-3.926346645
133.02550,-2.400374607
133.02600,0.04118065471
133.02650,0.3463750624
133.02700,-0.8744025684
133.02750,-0.264013753
133.02800,4.61909677
133.02850,11.33337374
133.02900,14.69051222
133.02950,12.24895696
133.03000,5.534679993
133.03050,-0.5692081607
133.03100,-3.621152238
133.03150,-1.789985791
133.03200,2.482735916
133.03250,5.229485586
133.03300,4.61909677
133.03350,2.177541509
133.03400,0.3463750624
133.03450,0.04118065471
133.03500,-0.5692081607
133.03550,-1.179596976
133.03600,-1.179596976
133.03650,0.04118065471
133.03700,0.6515694701
133.03750,0.9567638778
133.03800,1.872347101
133.03850,2.787930324
133.03900,1.261958286
133.03950,-2.400374607
133.04000,-3.621152238
133.04050,0.9567638778
133.04100,5.839874401
133.04150,1.872347101
133.04200,-9.419845984
133.04250,-15.82892855
133.04300,-11.86140125
133.04350,-5.757513092
133.04400,-7.588679538
133.04450,-12.16659565
133.04500,-8.199068353
133.04550,4.008707955
133.04600,12.55415137
133.04650,8.281429663
133.04700,-1.789985791
133.04750,-7.28348513
133.04800,-5.452318684
133.04850,-1.789985791
133.04900,-0.8744025684
133.04950,-1.484791384
133.05000,-1.179596976
133.05050,-0.8744025684
133.05100,-0.8744025684
133.05150,-2.095180199
133.05200,-2.400374607
133.05250,-1.484791384
133.05300,0.3463750624
133.05350,1.872347101
133.05400,2.787930324
133.05450,3.093124732
133.05500,4.008707955
133.05550,5.534679993
133.05600,7.36584644
133.05650,8.58662407
133.05700,7.671040847
133.05750,2.787930324
133.05800,-3.926346645
133.05850,-9.725040392
133.05900,-11.55620684
133.05950,-10.0302348
133.06000,-6.367901907
133.06050,-3.010763422
133.06100,-0.8744025684
133.06150,0.04118065471
133.06200,-0.5692081607
133.06250,-1.789985791
133.06300,-2.705569015
133.06350,-3.010763422
133.06400,-0.8744025684
133.06450,1.872347101
133.06500,3.093124732
133.06550,1.872347101
133.06600,0.9567638778
133.06650,3.703513547
133.06700,6.145068809
133.06750,4.313902363
133.06800,-0.264013753
133.06850,-1.789985791
133.06900,0.3463750624
133.06950,2.787930324
133.07000,1.872347101
133.07050,0.04118065471
133.07100,-0.8744025684
133.07150,-0.5692081607
133.07200,0.3463750624
133.07250,1.872347101
133.07300,2.482735916
133.07350,0.04118065471
133.07400,-4.841929869
133.07450,-6.673096315
133.07500,-3.31595783
133.07550,1.261958286
133.07600,4.008707955
133.07650,5.534679993
133.07700,7.36584644
133.07750,8.891818478
133.07800,7.671040847
133.07850,4.313902363
133.07900,0.6515694701
133.07950,-2.705569015
133.08000,-4.841929869
133.08050,-5.452318684
133.08100,-4.231541053
133.08150,-3.621152238
133.08200,-4.231541053
133.08250,-5.757513092
133.08300,-5.452318684
133.08350,-3.926346645
133.08400,-2.400374607
133.08450,-3.010763422
133.08500,-5.452318684
133.08550,-7.893873946
133.08600,-7.588679538
133.08650,-4.231541053
133.08700,0.04118065471
133.08750,3.398319139
133.08800,5.839874401
133.08850,6.145068809
133.08900,4.008707955
133.08950,1.567152693
133.09000,1.261958286
133.09050,3.093124732
133.09100,3.398319139
133.09150,1.567152693
133.09200,0.3463750624
133.09250,2.482735916
133.09300,4.313902363
133.09350,3.398319139
133.09400,0.9567638778
133.09450,1.872347101
133.09500,4.61909677
133.09550,5.229485586
133.09600,3.093124732
133.09650,1.567152693
133.09700,2.177541509
133.09750,2.177541509
133.09800,0.9567638778
133.09850,0.04118065471
133.09900,0.04118065471
133.09950,-1.484791384
133.10000,-4.231541053
133.10050,-5.452318684
133.10100,-5.147124276
133.10150,-5.452318684
133.10200,-8.504262761
133.10250,-10.94581802
133.10300,-9.725040392
133.10350,-6.062707499
133.10400,-1.179596976
133.10450,2.482735916
133.10500,5.229485586
133.10550,4.61909677
133.10600,2.482735916
133.10650,0.9567638778
133.10700,1.872347101
133.10750,2.482735916
133.10800,1.872347101
133.10850,0.6515694701
133.10900,0.9567638778
133.10950,1.567152693
133.11000,1.567152693
133.11050,1.261958286
133.11100,3.093124732
133.11150,4.924291178
133.11200,5.229485586
133.11250,3.703513547
133.11300,2.177541509
133.11350,0.6515694701
133.11400,-0.8744025684
133.11450,-1.789985791
133.11500,-1.789985791
133.11550,-1.179596976
133.11600,-1.179596976
133.11650,-0.5692081607
133.11700,0.3463750624
133.11750,0.3463750624
133.11800,-1.179596976
133.11850,-2.095180199
133.11900,-0.264013753
133.11950,1.567152693
133.12000,1.872347101
133.12050,0.6515694701
133.12100,0.6515694701
133.12150,0.04118065471
133.12200,-3.31595783
133.12250,-7.893873946
133.12300,-7.893873946
133.12350,-2.705569015
133.12400,2.482735916
133.12450,4.313902363
133.12500,2.787930324
133.12550,0.9567638778
133.12600,-0.264013753
133.12650,-0.8744025684
133.12700,-0.5692081607
133.12750,0.04118065471
133.12800,0.04118065471
133.12850,-0.264013753
133.12900,0.04118065471
133.12950,0.6515694701
133.13000,0.6515694701
133.13050,0.3463750624
133.13100,1.567152693
133.13150,4.313902363
133.13200,6.145068809
133.13250,5.534679993
133.13300,2.787930324
133.13350,0.04118065471
133.13400,-1.484791384
133.13450,-2.095180199
133.13500,-1.789985791
133.13550,-1.789985791
133.13600,0.04118065471
133.13650,4.008707955
133.13700,6.755457624
133.13750,3.703513547
133.13800,-2.400374607
133.13850,-6.673096315
133.13900,-5.757513092
133.13950,-3.926346645
133.14000,-4.231541053
133.14050,-5.147124276
133.14100,-3.621152238
133.14150,-2.095180199
133.14200,-2.705569015
133.14250,-3.010763422
133.14300,1.567152693
133.14350,8.281429663
133.14400,9.807401701
133.14450,4.924291178
133.14500,0.6515694701
133.14550,0.9567638778
133.14600,3.703513547
133.14650,5.229485586
133.14700,6.755457624
133.14750,8.281429663
133.14800,7.976235255
133.14850,5.229485586
133.14900,3.398319139
133.14950,3.398319139
133.15000,0.6515694701
133.15050,-8.809457169
133.15100,-21.01723348
133.15150,-25.900344
133.15200,-19.79645585
133.15250,-8.809457169
133.15300,-2.095180199
133.15350,-1.484791384
133.15400,-2.400374607
133.15450,-0.264013753
133.15500,4.313902363
133.15550,7.671040847
133.15600,6.450263216
133.15650,2.482735916
133.15700,-0.5692081607
133.15750,-1.789985791
133.15800,-1.179596976
133.15850,1.567152693
133.15900,6.755457624
133.15950,11.33337374
133.16000,11.33337374
133.16050,8.58662407
133.16100,8.281429663
133.16150,12.24895696
133.16200,15.60609545
133.16250,13.774929
133.16300,5.229485586
133.16350,-6.062707499
133.16400,-17.9652894
133.16450,-26.20553841
133.16500,-26.51073282
133.16550,-19.79645585
133.16600,-12.16659565
133.16650,-9.419845984
133.16700,-10.64062361
133.16750,-12.47179006
133.16800,-12.77698447
133.16850,-11.55620684
133.16900,-8.199068353
133.16950,-1.789985791
133.17000,4.008707955
133.17050,7.36584644
133.17100,8.281429663
133.17150,9.502207293
133.17200,11.63856815
133.17250,13.46973459
133.17300,13.16454019
133.17350,9.197012886
133.17400,2.177541509
133.17450,-4.231541053
133.17500,-6.367901907
133.17550,-2.705569015
133.17600,2.787930324
133.17650,7.671040847
133.17700,11.94376256
133.17750,14.08012341
133.17800,8.58662407
133.17850,-3.926346645
133.17900,-13.38737328
133.17950,-11.25101243
133.18000,-1.789985791
133.18050,2.177541509
133.18100,-1.789985791
133.18150,-7.588679538
133.18200,-8.504262761
133.18250,-6.673096315
133.18300,-5.757513092
133.18350,-4.841929869
133.18400,-0.264013753
133.18450,6.755457624
133.18500,10.72298492
133.18550,8.58662407
133.18600,2.787930324
133.18650,-0.5692081607
133.18700,0.04118065471
133.18750,3.093124732
133.18800,3.398319139
133.18850,0.6515694701
133.18900,-0.5692081607
133.18950,2.177541509
133.19000,6.145068809
133.19050,6.145068809
133.19100,0.3463750624
133.19150,-5.757513092
133.19200,-6.978290722
133.19250,-1.484791384
133.19300,6.145068809
133.19350,8.891818478
133.19400,3.703513547
133.19450,-3.621152238
133.19500,-4.536735461
133.19550,3.398319139
133.19600,12.24895696
133.19650,14.08012341
133.19700,8.891818478
133.19750,3.093124732
133.19800,-0.5692081607
133.19850,-3.31595783
133.19900,-4.841929869
133.19950,-3.621152238
133.20000,-0.8744025684
133.20050,0.3463750624
133.20100,0.04118065471
133.20150,0.04118065471
133.20200,0.3463750624
133.20250,0.04118065471
133.20300,-0.5692081607
133.20350,0.04118065471
133.20400,3.093124732
133.20450,4.924291178
133.20500,3.703513547
133.20550,0.9567638778
133.20600,-0.8744025684
133.20650,-1.484791384
133.20700,-0.5692081607
133.20750,2.177541509
133.20800,5.839874401
133.20850,8.281429663
133.20900,8.281429663
133.20950,5.839874401
133.21000,2.177541509
133.21050,-1.484791384
133.21100,-4.536735461
133.21150,-5.757513092
133.21200,-6.367901907
133.21250,-6.978290722
133.21300,-6.978290722
133.21350,-2.705569015
133.21400,5.534679993
133.21450,12.85934578
133.21500,12.85934578
133.21550,6.450263216
133.21600,0.04118065471
133.21650,-2.705569015
133.21700,-2.400374607
133.21750,-2.400374607
133.21800,-2.095180199
133.21850,-0.5692081607
133.21900,0.6515694701
133.21950,0.6515694701
133.22000,-0.264013753
133.22050,0.04118065471
133.22100,2.177541509
133.22150,2.482735916
133.22200,0.6515694701
133.22250,-0.8744025684
133.22300,-0.8744025684
133.22350,-0.5692081607
133.22400,-0.5692081607
133.22450,-0.5692081607
133.22500,-1.179596976
133.22550,-3.010763422
133.22600,-5.757513092
133.22650,-5.757513092
133.22700,-2.400374607
133.22750,0.04118065471
133.22800,-1.789985791
133.22850,-4.536735461
133.22900,-4.536735461
133.22950,-3.31595783
133.23000,-3.010763422
133.23050,-3.31595783
133.23100,-1.484791384
133.23150,0.3463750624
133.23200,0.3463750624
133.23250,-0.8744025684
133.23300,-0.5692081607
133.23350,1.567152693
133.23400,2.482735916
133.23450,0.04118065471
133.23500,-1.789985791
133.23550,-1.484791384
133.23600,0.04118065471
133.23650,0.3463750624
133.23700,0.04118065471
133.23750,0.04118065471
133.23800,0.04118065471
133.23850,0.04118065471
133.23900,-0.8744025684
133.23950,-2.400374607
133.24000,-3.621152238
133.24050,-3.31595783
133.24100,-3.010763422
133.24150,-3.621152238
133.24200,-3.926346645
133.24250,-0.8744025684
133.24300,4.008707955
133.24350,6.145068809
133.24400,1.567152693
133.24450,-5.452318684
133.24500,-8.809457169
133.24550,-6.367901907
133.24600,-2.095180199
133.24650,0.3463750624
133.24700,1.261958286
133.24750,0.04118065471
133.24800,-2.095180199
133.24850,-2.705569015
133.24900,-0.5692081607
133.24950,0.9567638778
133.25000,0.3463750624
133.25050,0.04118065471
133.25100,2.482735916
133.25150,5.839874401
133.25200,5.839874401
133.25250,3.093124732
133.25300,0.6515694701
133.25350,0.04118065471
133.25400,0.04118065471
133.25450,-0.264013753
133.25500,-1.484791384
133.25550,-3.010763422
133.25600,-3.621152238
133.25650,-2.095180199
133.25700,0.9567638778
133.25750,3.703513547
133.25800,4.008707955
133.25850,3.093124732
133.25900,3.703513547
133.25950,5.839874401
133.26000,8.58662407
133.26050,10.72298492
133.26100,9.807401701
133.26150,5.839874401
133.26200,0.9567638778
133.26250,-1.484791384
133.26300,-2.095180199
133.26350,-2.400374607
133.26400,-1.179596976
133.26450,3.703513547
133.26500,9.197012886
133.26550,7.060652032
133.26600,-3.010763422
133.26650,-13.69256769
133.26700,-18.88087262
133.26750,-20.71203907
133.26800,-22.23801111
133.26850,-21.01723348
133.26900,-13.38737328
133.26950,-3.621152238
133.27000,0.9567638778
133.27050,0.04118065471
133.27100,-1.484791384
133.27150,0.04118065471
133.27200,2.482735916
133.27250,1.261958286
133.27300,-3.010763422
133.27350,-6.673096315
133.27400,-6.673096315
133.27450,-3.621152238
133.27500,0.04118065471
133.27550,3.703513547
133.27600,6.755457624
133.27650,8.58662407
133.27700,7.671040847
133.27750,6.755457624
133.27800,8.58662407
133.27850,11.94376256
133.27900,11.33337374
133.27950,5.534679993
133.28000,0.04118065471
133.28050,-0.8744025684
133.28100,-0.5692081607
133.28150,-3.926346645
133.28200,-10.33542921
133.28250,-13.08217888
133.28300,-11.25101243
133.28350,-8.809457169
133.28400,-8.504262761
133.28450,-9.114651576
133.28500,-8.504262761
133.28550,-7.28348513
133.28600,-4.536735461
133.28650,0.9567638778
133.28700,6.450263216
133.28750,6.450263216
133.28800,1.567152693
133.28850,-0.8744025684
133.28900,1.261958286
133.28950,5.229485586
133.29000,6.145068809
133.29050,5.534679993
133.29100,7.060652032
133.29150,8.891818478
133.29200,7.671040847
133.29250,3.398319139
133.29300,-0.5692081607
133.29350,-3.010763422
133.29400,-3.31595783
133.29450,0.04118065471
133.29500,6.450263216
133.29550,11.94376256
133.29600,11.02817933
133.29650,4.61909677
133.29700,-0.8744025684
133.29750,-2.400374607
133.29800,-1.789985791
133.29850,-2.095180199
133.29900,-2.400374607
133.29950,-1.789985791
133.30000,0.04118065471
133.30050,2.177541509
133.30100,3.093124732
133.30150,2.177541509
133.30200,0.6515694701
133.30250,0.04118065471
133.30300,0.9567638778
133.30350,2.482735916
133.30400,1.872347101
133.30450,0.04118065471
133.30500,-0.5692081607
133.30550,0.6515694701
133.30600,3.703513547
133.30650,6.145068809
133.30700,6.755457624
133.30750,4.313902363
133.30800,0.04118065471
133.30850,-3.621152238
133.30900,-4.231541053
133.30950,-2.400374607
133.31000,-0.264013753
133.31050,1.261958286
133.31100,2.482735916
133.31150,2.177541509
133.31200,-0.264013753
133.31250,-3.621152238
133.31300,-4.841929869
133.31350,-3.621152238
133.31400,-1.789985791
133.31450,0.04118065471
133.31500,0.6515694701
133.31550,0.9567638778
133.31600,0.04118065471
133.31650,-0.8744025684
133.31700,-1.789985791
133.31750,-2.400374607
133.31800,-1.789985791
133.31850,0.04118065471
133.31900,3.093124732
133.31950,5.534679993
133.32000,6.145068809
133.32050,5.534679993
133.32100,4.924291178
133.32150,3.703513547
133.32200,2.482735916
133.32250,2.177541509
133.32300,2.177541509
133.32350,1.261958286
133.32400,-0.264013753
133.32450,-1.179596976
133.32500,-0.264013753
133.32550,0.6515694701
133.32600,0.6515694701
133.32650,0.04118065471
133.32700,-0.5692081607
133.32750,-0.264013753
133.32800,0.9567638778
133.32850,1.872347101
133.32900,1.872347101
133.32950,0.6515694701
133.33000,-0.264013753
133.33050,0.04118065471
133.33100,1.261958286
133.33150,0.6515694701
133.33200,-1.484791384
133.33250,-2.095180199
133.33300,0.04118065471
133.33350,1.872347101
133.33400,1.261958286
133.33450,-0.264013753
133.33500,0.04118065471
133.33550,3.093124732
133.33600,5.534679993
133.33650,4.61909677
133.33700,0.6515694701
133.33750,-4.231541053
133.33800,-7.588679538
133.33850,-7.28348513
133.33900,-3.31595783
133.33950,0.04118065471
133.34000,0.04118065471
133.34050,-1.789985791
133.34100,-2.400374607
133.34150,-0.8744025684
133.34200,0.3463750624
133.34250,0.9567638778
133.34300,0.6515694701
133.34350,-0.264013753
133.34400,-2.705569015
133.34450,-4.841929869
133.34500,-4.536735461
133.34550,-2.095180199
133.34600,-0.5692081607
133.34650,-0.8744025684
133.34700,-0.5692081607
133.34750,0.6515694701
133.34800,1.872347101
133.34850,1.872347101
133.34900,3.398319139
133.34950,6.450263216
133.35000,7.36584644
133.35050,5.229485586
133.35100,3.703513547
133.35150,5.534679993
133.35200,7.976235255
133.35250,5.534679993
133.35300,0.04118065471
133.35350,-3.621152238
133.35400,-5.147124276
133.35450,-6.062707499
133.35500,-6.978290722
133.35550,-4.841929869
133.35600,0.04118065471
133.35650,3.398319139
133.35700,2.482735916
133.35750,-0.8744025684
133.35800,-2.400374607
133.35850,-1.484791384
133.35900,-0.264013753
133.35950,-0.264013753
133.36000,-1.179596976
133.36050,-1.484791384
133.36100,-1.789985791
133.36150,-3.010763422
133.36200,-5.452318684
133.36250,-8.199068353
133.36300,-9.725040392
133.36350,-7.893873946
133.36400,-3.31595783
133.36450,1.261958286
133.36500,3.398319139
133.36550,2.177541509
133.36600,0.04118065471
133.36650,-1.484791384
133.36700,-1.789985791
133.36750,-1.789985791
133.36800,-1.484791384
133.36850,0.04118065471
133.36900,2.177541509
133.36950,4.008707955
133.37000,3.703513547
133.37050,2.787930324
133.37100,2.177541509
133.37150,2.482735916
133.37200,2.787930324
133.37250,2.482735916
133.37300,2.482735916
133.37350,2.787930324
133.37400,2.787930324
133.37450,2.177541509
133.37500,0.9567638778
133.37550,0.04118065471
133.37600,-0.8744025684
133.37650,-0.8744025684
133.37700,0.04118065471
133.37750,0.9567638778
133.37800,1.872347101
133.37850,2.482735916
133.37900,2.787930324
133.37950,3.398319139
133.38000,3.093124732
133.38050,2.177541509
133.38100,3.093124732
133.38150,4.61909677
133.38200,4.008707955
133.38250,0.9567638778
133.38300,0.04118065471
133.38350,3.093124732
133.38400,7.060652032
133.38450,6.755457624
133.38500,1.567152693
133.38550,-4.231541053
133.38600,-8.199068353
133.38650,-11.25101243
133.38700,-13.38737328
133.38750,-11.86140125
133.38800,-7.893873946
133.38850,-4.841929869
133.38900,-4.841929869
133.38950,-5.757513092
133.39000,-5.147124276
133.39050,-3.621152238
133.39100,-2.095180199
133.39150,-0.264013753
133.39200,1.567152693
133.39250,2.177541509
133.39300,0.6515694701
133.39350,0.04118065471
133.39400,0.3463750624
133.39450,1.261958286
133.39500,0.6515694701
133.39550,-0.264013753
133.39600,0.04118065471
133.39650,0.9567638778
133.39700,2.482735916
133.39750,3.398319139
133.39800,2.482735916
133.39850,0.04118065471
133.39900,-3.010763422
133.39950,-2.705569015
133.40000,0.9567638778
133.40050,3.093124732
133.40100,0.3463750624
133.40150,-3.926346645
133.40200,-3.621152238
133.40250,2.177541509
133.40300,7.671040847
133.40350,8.281429663
133.40400,6.450263216
133.40450,6.145068809
133.40500,7.060652032
133.40550,5.839874401
133.40600,2.482735916
133.40650,0.9567638778
133.40700,2.787930324
133.40750,3.398319139
133.40800,0.04118065471
133.40850,-4.536735461
133.40900,-5.452318684
133.40950,-2.400374607
133.41000,1.567152693
133.41050,4.313902363
133.41100,6.755457624
133.41150,8.891818478
133.41200,7.976235255
133.41250,4.008707955
133.41300,0.6515694701
133.41350,0.04118065471
133.41400,0.6515694701
133.41450,-0.5692081607
133.41500,-4.231541053
133.41550,-6.978290722
133.41600,-6.978290722
133.41650,-3.926346645
133.41700,-0.264013753
133.41750,2.482735916
133.41800,2.787930324
133.41850,0.6515694701
133.41900,-2.095180199
133.41950,-4.231541053
133.42000,-6.062707499
133.42050,-6.673096315
133.42100,-5.147124276
133.42150,-2.400374607
133.42200,-0.5692081607
133.42250,-1.789985791
133.42300,-3.31595783
133.42350,-2.095180199
133.42400,0.3463750624
133.42450,0.9567638778
133.42500,0.6515694701
133.42550,2.787930324
133.42600,6.755457624
133.42650,7.36584644
133.42700,1.261958286
133.42750,-6.367901907
133.42800,-10.0302348
133.42850,-8.809457169
133.42900,-6.062707499
133.42950,-5.147124276
133.43000,-5.757513092
133.43050,-6.673096315
133.43100,-6.978290722
133.43150,-5.452318684
133.43200,-2.705569015
133.43250,-1.789985791
133.43300,-2.705569015
133.43350,-1.789985791
133.43400,2.482735916
133.43450,6.450263216
133.43500,5.229485586
133.43550,0.9567638778
133.43600,-0.5692081607
133.43650,0.04118065471
133.43700,1.261958286
133.43750,2.482735916
133.43800,4.924291178
133.43850,6.450263216
133.43900,4.313902363
133.43950,2.482735916
133.44000,5.229485586
133.44050,7.36584644
133.44100,0.04118065471
133.44150,-13.9977621
133.44200,-21.62762229
133.44250,-16.74451177
133.44300,-8.199068353
133.44350,-5.757513092
133.44400,-7.28348513
133.44450,-4.536735461
133.44500,1.261958286
133.44550,3.703513547
133.44600,1.872347101
133.44650,0.6515694701
133.44700,3.398319139
133.44750,6.755457624
133.44800,6.755457624
133.44850,4.313902363
133.44900,3.093124732
133.44950,3.703513547
133.45000,5.229485586
133.45050,4.924291178
133.45100,2.482735916
133.45150,0.3463750624
133.45200,0.04118065471
133.45250,1.567152693
133.45300,3.398319139
133.45350,3.398319139
133.45400,1.872347101
133.45450,0.3463750624
133.45500,1.261958286
133.45550,5.229485586
133.45600,9.197012886
133.45650,9.502207293
133.45700,7.060652032
133.45750,5.839874401
133.45800,6.755457624
133.45850,5.839874401
133.45900,0.04118065471
133.45950,-6.978290722
133.46000,-11.55620684
133.46050,-12.47179006
133.46100,-11.55620684
133.46150,-9.114651576
133.46200,-4.841929869
133.46250,-1.789985791
133.46300,-1.179596976
133.46350,-2.095180199
133.46400,-2.705569015
133.46450,-4.231541053
133.46500,-7.588679538
133.46550,-9.419845984
133.46600,-7.893873946
133.46650,-4.536735461
133.46700,-3.31595783
133.46750,-3.621152238
133.46800,-2.400374607
133.46850,0.04118065471
133.46900,0.9567638778
133.46950,0.3463750624
133.47000,0.3463750624
133.47050,0.9567638778
133.47100,0.3463750624
133.47150,0.04118065471
133.47200,2.482735916
133.47250,5.839874401
133.47300,7.36584644
133.47350,6.450263216
133.47400,6.755457624
133.47450,8.281429663
133.47500,8.281429663
133.47550,7.060652032
133.47600,6.450263216
133.47650,6.450263216
133.47700,5.534679993
133.47750,4.61909677
133.47800,7.671040847
133.47850,12.55415137
133.47900,11.33337374
133.47950,1.872347101
133.48000,-8.504262761
133.48050,-11.55620684
133.48100,-7.588679538
133.48150,-2.705569015
133.48200,-0.264013753
133.48250,-0.264013753
133.48300,-2.095180199
133.48350,-6.062707499
133.48400,-9.725040392
133.48450,-9.419845984
133.48500,-3.621152238
133.48550,3.093124732
133.48600,7.976235255
133.48650,10.11259611
133.48700,9.197012886
133.48750,6.755457624
133.48800,3.398319139
133.48850,2.177541509
133.48900,3.703513547
133.48950,6.450263216
133.49000,6.450263216
133.49050,2.787930324
133.49100,-0.8744025684
133.49150,-1.484791384
133.49200,0.04118065471
133.49250,0.04118065471
133.49300,-1.789985791
133.49350,-3.621152238
133.49400,-3.926346645
133.49450,-2.705569015
133.49500,-1.789985791
133.49550,-1.484791384
133.49600,-0.5692081607
133.49650,0.6515694701
133.49700,1.872347101
133.49750,2.787930324
133.49800,3.398319139
133.49850,3.093124732
133.49900,0.9567638778
133.49950,-2.095180199
133.50000,-6.062707499
133.50050,-9.114651576
133.50100,-9.419845984
133.50150,-6.367901907
133.50200,-1.179596976
133.50250,3.398319139
133.50300,4.313902363
133.50350,0.04118065471
133.50400,-4.536735461
133.50450,-3.926346645
133.50500,3.093124732
133.50550,9.197012886
133.50600,6.450263216
133.50650,-1.484791384
133.50700,-5.452318684
133.50750,-1.789985791
133.50800,2.787930324
133.50850,2.787930324
133.50900,-0.264013753
133.50950,-2.400374607
133.51000,-1.484791384
133.51050,0.6515694701
133.51100,4.008707955
133.51150,6.450263216
133.51200,4.924291178
133.51250,0.04118065471
133.51300,-3.926346645
133.51350,-3.31595783
133.51400,-0.8744025684
133.51450,-0.5692081607
133.51500,-0.8744025684
133.51550,0.9567638778
133.51600,4.313902363
133.51650,4.008707955
133.51700,0.3463750624
133.51750,-1.789985791
133.51800,-0.264013753
133.51850,2.482735916
133.51900,3.398319139
133.51950,1.872347101
133.52000,0.04118065471
133.52050,-0.5692081607
133.52100,-0.8744025684
133.52150,-1.484791384
133.52200,-1.789985791
133.52250,-2.095180199
133.52300,-2.095180199
133.52350,-1.484791384
133.52400,-0.5692081607
133.52450,-0.264013753
133.52500,-2.095180199
133.52550,-4.841929869
133.52600,-6.367901907
133.52650,-5.147124276
133.52700,-2.095180199
133.52750,0.04118065471
133.52800,0.9567638778
133.52850,1.261958286
133.52900,1.872347101
133.52950,0.6515694701
133.53000,-3.010763422
133.53050,-6.978290722
133.53100,-7.28348513
133.53150,-2.095180199
133.53200,4.924291178
133.53250,9.502207293
133.53300,8.58662407
133.53350,3.398319139
133.53400,-2.400374607
133.53450,-5.147124276
133.53500,-2.400374607
133.53550,2.177541509
133.53600,4.924291178
133.53650,3.703513547
133.53700,0.04118065471
133.53750,-3.621152238
133.53800,-6.367901907
133.53850,-6.367901907
133.53900,-3.926346645
133.53950,-1.179596976
133.54000,-1.179596976
133.54050,-3.621152238
133.54100,-4.231541053
133.54150,-1.484791384
133.54200,3.093124732
133.54250,6.755457624
133.54300,6.450263216
133.54350,1.567152693
133.54400,-4.231541053
133.54450,-6.673096315
133.54500,-4.536735461
133.54550,-1.484791384
133.54600,-0.264013753
133.54650,0.04118065471
133.54700,1.567152693
133.54750,1.872347101
133.54800,-2.705569015
133.54850,-9.725040392
133.54900,-12.77698447
133.54950,-10.0302348
133.55000,-4.841929869
133.55050,-1.179596976
133.55100,0.6515694701
133.55150,2.787930324
133.55200,4.61909677
133.55250,5.534679993
133.55300,6.145068809
133.55350,6.755457624
133.55400,6.450263216
133.55450,5.534679993
133.55500,4.61909677
133.55550,4.313902363
133.55600,3.398319139
133.55650,1.261958286
133.55700,-0.5692081607
133.55750,-2.095180199
133.55800,-3.621152238
133.55850,-4.841929869
133.55900,-5.757513092
133.55950,-6.367901907
133.56000,-6.062707499
133.56050,-3.621152238
133.56100,0.3463750624
133.56150,3.398319139
133.56200,2.787930324
133.56250,0.3463750624
133.56300,-0.5692081607
133.56350,0.04118065471
133.56400,0.6515694701
133.56450,1.261958286
133.56500,1.872347101
133.56550,3.093124732
133.56600,3.093124732
133.56650,2.787930324
133.56700,2.787930324
133.56750,3.093124732
133.56800,3.398319139
133.56850,3.398319139
133.56900,3.703513547
133.56950,4.61909677
133.57000,5.839874401
133.57050,7.36584644
133.57100,7.671040847
133.57150,5.534679993
133.57200,2.177541509
133.57250,1.261958286
133.57300,2.482735916
133.57350,2.482735916
133.57400,-1.179596976
133.57450,-5.452318684
133.57500,-6.673096315
133.57550,-5.147124276
133.57600,-3.621152238
133.57650,-2.705569015
133.57700,-1.789985791
133.57750,-2.400374607
133.57800,-5.147124276
133.57850,-6.062707499
133.57900,-2.705569015
133.57950,2.787930324
133.58000,7.060652032
133.58050,9.502207293
133.58100,12.55415137
133.58150,14.69051222
133.58200,12.55415137
133.58250,8.891818478
133.58300,9.197012886
133.58350,13.774929
133.58400,13.16454019
133.58450,2.787930324
133.58500,-10.0302348
133.58550,-14.30295651
133.58600,-9.114651576
133.58650,-3.926346645
133.58700,-7.28348513
133.58750,-17.04970618
133.58800,-24.98476078
133.58850,-25.59514959
133.58900,-19.18606703
133.58950,-11.86140125
133.59000,-7.893873946
133.59050,-7.28348513
133.59100,-7.893873946
133.59150,-6.062707499
133.59200,-2.400374607
133.59250,0.6515694701
133.59300,2.177541509
133.59350,3.093124732
133.59400,4.61909677
133.59450,5.839874401
133.59500,6.145068809
133.59550,5.534679993
133.59600,5.229485586
133.59650,4.924291178
133.59700,4.313902363
133.59750,3.093124732
133.59800,2.177541509
133.59850,2.482735916
133.59900,2.787930324
133.59950,3.398319139
133.60000,4.313902363
133.60050,5.229485586
133.60100,4.61909677
133.60150,3.703513547
133.60200,5.229485586
133.60250,9.197012886
133.60300,10.72298492
133.60350,5.839874401
133.60400,-2.705569015
133.60450,-8.199068353
133.60500,-7.588679538
133.60550,-5.147124276
133.60600,-5.452318684
133.60650,-7.893873946
133.60700,-8.504262761
133.60750,-6.367901907
133.60800,-2.705569015
133.60850,-0.8744025684
133.60900,-0.8744025684
133.60950,-0.8744025684
133.61000,0.9567638778
133.61050,4.924291178
133.61100,7.976235255
133.61150,8.281429663
133.61200,7.36584644
133.61250,6.755457624
133.61300,7.060652032
133.61350,7.060652032
133.61400,6.145068809
133.61450,4.313902363
133.61500,1.872347101
133.61550,-0.264013753
133.61600,-1.789985791
133.61650,-1.484791384
133.61700,-0.264013753
133.61750,0.04118065471
133.61800,0.3463750624
133.61850,0.3463750624
133.61900,0.6515694701
133.61950,0.6515694701
133.62000,0.04118065471
133.62050,0.04118065471
133.62100,1.567152693
133.62150,4.008707955
133.62200,6.450263216
133.62250,7.060652032
133.62300,5.534679993
133.62350,2.482735916
133.62400,0.3463750624
133.62450,0.04118065471
133.62500,0.9567638778
133.62550,2.787930324
133.62600,4.924291178
133.62650,6.145068809
133.62700,5.534679993
133.62750,4.313902363
133.62800,3.093124732
133.62850,0.6515694701
133.62900,-3.621152238
133.62950,-8.199068353
133.63000,-8.809457169
133.63050,-6.062707499
133.63100,-2.705569015
133.63150,-0.5692081607
133.63200,1.872347101
133.63250,4.61909677
133.63300,4.313902363
133.63350,0.9567638778
133.63400,-2.095180199
133.63450,-2.705569015
133.63500,-3.010763422
133.63550,-4.841929869
133.63600,-6.062707499
133.63650,-3.926346645
133.63700,0.6515694701
133.63750,4.313902363
133.63800,5.229485586
133.63850,4.313902363
133.63900,3.703513547
133.63950,4.61909677
133.64000,5.534679993
133.64050,2.787930324
133.64100,-3.621152238
133.64150,-10.0302348
133.64200,-11.55620684
133.64250,-9.114651576
133.64300,-9.419845984
133.64350,-13.38737328
133.64400,-15.82892855
133.64450,-13.69256769
133.64500,-10.94581802
133.64550,-10.33542921
133.64600,-9.114651576
133.64650,-5.147124276
133.64700,-3.31595783
133.64750,-7.588679538
133.64800,-11.25101243
133.64850,-6.062707499
133.64900,5.229485586
133.64950,11.94376256
133.65000,10.72298492
133.65050,7.060652032
133.65100,5.229485586
133.65150,2.787930324
133.65200,-0.264013753
133.65250,0.9567638778
133.65300,8.58662407
133.65350,16.21648426
133.65400,18.35284512
133.65450,15.60609545
133.65500,11.94376256
133.65550,7.060652032
133.65600,1.872347101
133.65650,-0.8744025684
133.65700,-1.484791384
133.65750,-1.789985791
133.65800,-1.484791384
133.65850,1.872347101
133.65900,7.060652032
133.65950,6.755457624
133.66000,-1.484791384
133.66050,-11.55620684
133.66100,-14.60815091
133.66150,-10.64062361
133.66200,-5.147124276
133.66250,-1.179596976
133.66300,0.3463750624
133.66350,0.04118065471
133.66400,-2.705569015
133.66450,-4.536735461
133.66500,-3.926346645
133.66550,-3.010763422
133.66600,-3.926346645
133.66650,-3.621152238
133.66700,-0.8744025684
133.66750,1.567152693
133.66800,0.04118065471
133.66850,-3.621152238
133.66900,-4.536735461
133.66950,-1.484791384
133.67000,0.9567638778
133.67050,0.3463750624
133.67100,-1.179596976
133.67150,-2.095180199
133.67200,-3.010763422
133.67250,-5.757513092
133.67300,-7.588679538
133.67350,-5.452318684
133.67400,-0.264013753
133.67450,3.398319139
133.67500,4.61909677
133.67550,4.924291178
133.67600,6.145068809
133.67650,6.755457624
133.67700,4.924291178
133.67750,3.093124732
133.67800,3.703513547
133.67850,5.839874401
133.67900,5.839874401
133.67950,3.398319139
133.68000,2.482735916
133.68050,2.787930324
133.68100,2.787930324
133.68150,1.872347101
133.68200,2.177541509
133.68250,3.398319139
133.68300,3.093124732
133.68350,0.3463750624
133.68400,-0.8744025684
133.68450,-0.264013753
133.68500,0.04118065471
133.68550,-2.400374607
133.68600,-7.893873946
133.68650,-13.69256769
133.68700,-16.74451177
133.68750,-15.52373414
133.68800,-11.86140125
133.68850,-8.199068353
133.68900,-5.147124276
133.68950,-1.484791384
133.69000,2.177541509
133.69050,1.261958286
133.69100,-4.231541053
133.69150,-8.199068353
133.69200,-3.31595783
133.69250,6.145068809
133.69300,11.63856815
133.69350,10.72298492
133.69400,7.976235255
133.69450,7.976235255
133.69500,9.197012886
133.69550,10.11259611
133.69600,10.11259611
133.69650,8.281429663
133.69700,4.924291178
133.69750,1.872347101
133.69800,-0.264013753
133.69850,-5.147124276
133.69900,-12.77698447
133.69950,-17.04970618
133.70000,-12.77698447
133.70050,-6.367901907
133.70100,-7.28348513
133.70150,-13.9977621
133.70200,-16.74451177
133.70250,-12.77698447
133.70300,-8.199068353
133.70350,-8.504262761
133.70400,-9.114651576
133.70450,-5.757513092
133.70500,-0.8744025684
133.70550,0.9567638778
133.70600,1.872347101
133.70650,4.61909677
133.70700,9.197012886
133.70750,11.63856815
133.70800,11.02817933
133.70850,6.145068809
133.70900,-1.484791384
133.70950,-8.504262761
133.71000,-9.419845984
133.71050,-3.621152238
133.71100,2.177541509
133.71150,4.61909677
133.71200,4.61909677
133.71250,5.839874401
133.71300,7.36584644
133.71350,7.976235255
133.71400,7.671040847
133.71450,7.36584644
133.71500,6.145068809
133.71550,4.313902363
133.71600,3.093124732
133.71650,2.177541509
133.71700,-1.789985791
133.71750,-9.725040392
133.71800,-14.30295651
133.71850,-9.419845984
133.71900,1.261958286
133.71950,8.58662407
133.72000,9.197012886
133.72050,7.671040847
133.72100,7.671040847
133.72150,7.976235255
133.72200,6.450263216
133.72250,5.229485586
133.72300,5.839874401
133.72350,5.534679993
133.72400,4.313902363
133.72450,4.924291178
133.72500,9.197012886
133.72550,12.24895696
133.72600,9.502207293
133.72650,4.313902363
133.72700,2.482735916
133.72750,4.924291178
133.72800,6.145068809
133.72850,4.61909677
133.72900,3.398319139
133.72950,3.398319139
133.73000,1.567152693
133.73050,-2.095180199
133.73100,-4.536735461
133.73150,-2.400374607
133.73200,1.872347101
133.73250,5.534679993
133.73300,6.755457624
133.73350,5.839874401
133.73400,3.093124732
133.73450,0.3463750624
133.73500,0.6515694701
133.73550,3.703513547
133.73600,6.450263216
133.73650,6.145068809
133.73700,4.008707955
133.73750,0.9567638778
133.73800,-4.231541053
133.73850,-12.77698447
133.73900,-20.40684466
133.73950,-22.54320552
133.74000,-20.10165025
133.74050,-16.74451177
133.74100,-13.69256769
133.74150,-10.0302348
133.74200,-6.062707499
133.74250,-3.621152238
133.74300,-3.621152238
133.74350,-4.231541053
133.74400,-4.231541053
133.74450,-3.010763422
133.74500,0.04118065471
133.74550,4.008707955
133.74600,6.755457624
133.74650,5.839874401
133.74700,3.398319139
133.74750,2.482735916
133.74800,2.482735916
133.74850,0.9567638778
133.74900,-0.8744025684
133.74950,-0.5692081607
133.75000,2.482735916
133.75050,5.229485586
133.75100,4.313902363
133.75150,1.261958286
133.75200,-2.400374607
133.75250,-4.841929869
133.75300,-3.31595783
133.75350,2.787930324
133.75400,12.55415137
133.75450,21.09959479
133.75500,25.06712209
133.75550,24.15153886
133.75600,18.96323393
133.75650,11.33337374
133.75700,4.61909677
133.75750,0.6515694701
133.75800,-1.484791384
133.75850,-3.926346645
133.75900,-5.147124276
133.75950,-3.926346645
133.76000,-3.621152238
133.76050,-8.809457169
133.76100,-19.18606703
133.76150,-27.12112163
133.76200,-25.28995518
133.76250,-15.52373414
133.76300,-4.536735461
133.76350,1.567152693
133.76400,2.177541509
133.76450,0.9567638778
133.76500,0.6515694701
133.76550,2.787930324
133.76600,5.229485586
133.76650,5.534679993
133.76700,4.313902363
133.76750,2.177541509
133.76800,0.04118065471
133.76850,-1.484791384
133.76900,-2.095180199
133.76950,-1.179596976
133.77000,0.6515694701
133.77050,2.787930324
133.77100,4.313902363
133.77150,4.61909677
133.77200,3.703513547
133.77250,1.567152693
133.77300,0.6515694701
133.77350,1.872347101
133.77400,2.787930324
133.77450,0.6515694701
133.77500,-1.789985791
133.77550,-1.789985791
133.77600,1.261958286
133.77650,3.398319139
133.77700,3.093124732
133.77750,3.093124732
133.77800,5.229485586
133.77850,7.060652032
133.77900,5.229485586
133.77950,1.567152693
133.78000,0.04118065471
133.78050,-0.264013753
133.78100,-1.484791384
133.78150,-2.400374607
133.78200,-1.179596976
133.78250,1.261958286
133.78300,1.261958286
133.78350,-3.31595783
133.78400,-8.504262761
133.78450,-9.419845984
133.78500,-6.367901907
133.78550,-3.926346645
133.78600,-2.705569015
133.78650,-1.789985791
133.78700,-0.8744025684
133.78750,-1.789985791
133.78800,-5.452318684
133.78850,-7.28348513
133.78900,-2.705569015
133.78950,6.145068809
133.79000,11.94376256
133.79050,9.197012886
133.79100,-1.179596976
133.79150,-11.55620684
133.79200,-15.21853973
133.79250,-11.86140125
133.79300,-6.062707499
133.79350,-2.400374607
133.79400,-0.8744025684
133.79450,0.04118065471
133.79500,0.04118065471
133.79550,-0.5692081607
133.79600,-2.095180199
133.79650,-1.789985791
133.79700,0.04118065471
133.79750,0.04118065471
133.79800,-2.095180199
133.79850,-3.926346645
133.79900,-1.789985791
133.79950,0.9567638778
133.80000,1.567152693
133.80050,0.9567638778
133.80100,0.9567638778
133.80150,1.567152693
133.80200,0.3463750624
133.80250,-1.484791384
133.80300,-2.400374607
133.80350,-1.179596976
133.80400,-0.264013753
133.80450,0.6515694701
133.80500,3.093124732
133.80550,5.229485586
133.80600,4.008707955
133.80650,-0.264013753
133.80700,-5.147124276
133.80750,-7.28348513
133.80800,-7.28348513
133.80850,-5.147124276
133.80900,-1.789985791
133.80950,0.04118065471
133.81000,0.04118065471
133.81050,-0.264013753
133.81100,0.6515694701
133.81150,2.177541509
133.81200,2.177541509
133.81250,3.093124732
133.81300,7.976235255
133.81350,14.08012341
133.81400,14.99570663
133.81450,10.11259611
133.81500,4.008707955
133.81550,0.04118065471
133.81600,-4.231541053
133.81650,-8.504262761
133.81700,-10.33542921
133.81750,-7.893873946
133.81800,-3.31595783
133.81850,0.9567638778
133.81900,4.924291178
133.81950,6.755457624
133.82000,5.839874401
133.82050,4.924291178
133.82100,6.450263216
133.82150,9.197012886
133.82200,8.58662407
133.82250,4.61909677
133.82300,0.9567638778
133.82350,0.3463750624
133.82400,0.04118065471
133.82450,-3.010763422
133.82500,-5.147124276
133.82550,-3.926346645
133.82600,-1.484791384
133.82650,-1.179596976
133.82700,-1.789985791
133.82750,-0.8744025684
133.82800,1.872347101
133.82850,4.924291178
133.82900,7.060652032
133.82950,9.197012886
133.83000,11.02817933
133.83050,11.02817933
133.83100,8.58662407
133.83150,5.229485586
133.83200,0.6515694701
133.83250,-5.757513092
133.83300,-15.82892855
133.83350,-25.59514959
133.83400,-27.42631604
133.83450,-18.27048381
133.83500,-3.31595783
133.83550,6.450263216
133.83600,6.145068809
133.83650,-0.264013753
133.83700,-4.536735461
133.83750,-5.147124276
133.83800,-6.978290722
133.83850,-10.0302348
133.83900,-9.725040392
133.83950,-3.621152238
133.84000,1.872347101
133.84050,2.177541509
133.84100,1.872347101
133.84150,8.281429663
133.84200,17.13206749
133.84250,16.21648426
133.84300,3.398319139
133.84350,-10.0302348
133.84400,-14.60815091
133.84450,-12.16659565
133.84500,-9.725040392
133.84550,-7.588679538
133.84600,-0.264013753
133.84650,10.11259611
133.84700,14.38531782
133.84750,8.58662407
133.84800,-0.264013753
133.84850,-4.536735461
133.84900,-4.536735461
133.84950,-3.926346645
133.85000,-3.621152238
133.85050,-1.179596976
133.85100,3.093124732
133.85150,5.534679993
133.85200,2.787930324
133.85250,-3.010763422
133.85300,-9.419845984
133.85350,-13.69256769
133.85400,-12.16659565
133.85450,-4.231541053
133.85500,4.008707955
133.85550,7.976235255
133.85600,7.671040847
133.85650,9.502207293
133.85700,12.55415137
133.85750,10.11259611
133.85800,-0.5692081607
133.85850,-10.94581802
133.85900,-11.55620684
133.85950,-5.452318684
133.86000,-1.789985791
133.86050,-3.621152238
133.86100,-5.757513092
133.86150,-3.621152238
133.86200,0.3463750624
133.86250,3.093124732
133.86300,3.703513547
133.86350,2.787930324
133.86400,1.567152693
133.86450,2.177541509
133.86500,5.229485586
133.86550,7.671040847
133.86600,6.450263216
133.86650,3.398319139
133.86700,2.787930324
133.86750,4.61909677
133.86800,4.924291178
133.86850,2.177541509
133.86900,-0.264013753
133.86950,-0.8744025684
133.87000,-0.8744025684
133.87050,-1.789985791
133.87100,-2.095180199
133.87150,-0.264013753
133.87200,2.482735916
133.87250,4.924291178
133.87300,5.839874401
133.87350,6.450263216
133.87400,7.060652032
133.87450,7.671040847
133.87500,8.281429663
133.87550,9.502207293
133.87600,10.72298492
133.87650,10.41779052
133.87700,7.671040847
133.87750,3.703513547
133.87800,1.261958286
133.87850,0.6515694701
133.87900,0.3463750624
133.87950,0.04118065471
133.88000,0.6515694701
133.88050,4.61909677
133.88100,8.891818478
133.88150,8.891818478
133.88200,2.482735916
133.88250,-5.757513092
133.88300,-9.419845984
133.88350,-6.978290722
133.88400,-2.400374607
133.88450,-1.179596976
133.88500,-2.705569015
133.88550,-1.179596976
133.88600,4.61909677
133.88650,10.11259611
133.88700,8.58662407
133.88750,0.04118065471
133.88800,-9.419845984
133.88850,-12.16659565
133.88900,-9.419845984
133.88950,-5.147124276
133.89000,-1.789985791
133.89050,0.6515694701
133.89100,3.398319139
133.89150,4.61909677
133.89200,3.703513547
133.89250,1.261958286
133.89300,-0.8744025684
133.89350,-2.095180199
133.89400,-3.010763422
133.89450,-3.926346645
133.89500,-4.231541053
133.89550,-4.231541053
133.89600,-3.926346645
133.89650,-3.010763422
133.89700,-1.484791384
133.89750,0.04118065471
133.89800,-0.8744025684
133.89850,-5.147124276
133.89900,-9.114651576
133.89950,-8.199068353
133.90000,-3.926346645
133.90050,-0.8744025684
133.90100,-0.5692081607
133.90150,-0.8744025684
133.90200,0.04118065471
133.90250,0.3463750624
133.90300,-0.264013753
133.90350,-1.484791384
133.90400,-1.789985791
133.90450,-2.705569015
133.90500,-4.231541053
133.90550,-3.621152238
133.90600,0.3463750624
133.90650,5.229485586
133.90700,6.755457624
133.90750,4.61909677
133.90800,2.177541509
133.90850,0.6515694701
133.90900,0.04118065471
133.90950,0.04118065471
133.91000,2.482735916
133.91050,4.008707955
133.91100,2.177541509
133.91150,-0.8744025684
133.91200,-0.8744025684
133.91250,3.398319139
133.91300,7.976235255
133.91350,7.36584644
133.91400,0.9567638778
133.91450,-5.452318684
133.91500,-7.28348513
133.91550,-4.231541053
133.91600,0.04118065471
133.91650,3.093124732
133.91700,4.924291178
133.91750,5.534679993
133.91800,3.093124732
133.91850,-2.095180199
133.91900,-5.147124276
133.91950,-0.5692081607
133.92000,7.671040847
133.92050,10.41779052
133.92100,4.924291178
133.92150,-2.705569015
133.92200,-7.893873946
133.92250,-10.64062361
133.92300,-11.55620684
133.92350,-7.893873946
133.92400,-0.264013753
133.92450,5.229485586
133.92500,4.61909677
133.92550,1.567152693
133.92600,0.3463750624
133.92650,-0.5692081607
133.92700,-4.536735461
133.92750,-8.199068353
133.92800,-7.28348513
133.92850,-3.31595783
133.92900,-1.179596976
133.92950,-1.179596976
133.93000,-1.484791384
133.93050,-1.179596976
133.93100,-1.789985791
133.93150,-2.400374607
133.93200,-1.179596976
133.93250,0.04118065471
133.93300,1.261958286
133.93350,2.482735916
133.93400,5.534679993
133.93450,7.36584644
133.93500,5.839874401
133.93550,2.177541509
133.93600,-0.264013753
133.93650,-0.5692081607
133.93700,0.04118065471
133.93750,1.872347101
133.93800,3.093124732
133.93850,0.3463750624
133.93900,-4.841929869
133.93950,-7.893873946
133.94000,-6.673096315
133.94050,-4.841929869
133.94100,-4.841929869
133.94150,-4.536735461
133.94200,-0.8744025684
133.94250,2.787930324
133.94300,1.567152693
133.94350,-3.621152238
133.94400,-8.809457169
133.94450,-10.33542921
133.94500,-8.809457169
133.94550,-5.452318684
133.94600,0.04118065471
133.94650,3.703513547
133.94700,2.787930324
133.94750,-1.789985791
133.94800,-6.367901907
133.94850,-5.757513092
133.94900,-1.179596976
133.94950,4.313902363
133.95000,7.976235255
133.95050,8.891818478
133.95100,7.671040847
133.95150,4.61909677
133.95200,0.9567638778
133.95250,-0.5692081607
133.95300,0.04118065471
133.95350,1.872347101
133.95400,2.177541509
133.95450,0.3463750624
133.95500,-1.484791384
133.95550,-0.8744025684
133.95600,1.567152693
133.95650,4.313902363
133.95700,6.450263216
133.95750,7.671040847
133.95800,7.36584644
133.95850,5.534679993
133.95900,3.703513547
133.95950,2.787930324
133.96000,2.482735916
133.96050,1.567152693
133.96100,1.261958286
133.96150,0.6515694701
133.96200,-2.095180199
133.96250,-7.893873946
133.96300,-11.55620684
133.96350,-8.809457169
133.96400,-3.621152238
133.96450,-3.31595783
133.96500,-8.809457169
133.96550,-14.30295651
133.96600,-14.91334532
133.96650,-10.94581802
133.96700,-5.757513092
133.96750,-1.789985791
133.96800,0.04118065471
133.96850,0.3463750624
133.96900,0.3463750624
133.96950,2.177541509
133.97000,5.839874401
133.97050,10.11259611
133.97100,12.24895696
133.97150,10.72298492
133.97200,4.924291178
133.97250,-1.179596976
133.97300,-3.621152238
133.97350,-0.5692081607
133.97400,4.313902363
133.97450,6.450263216
133.97500,6.145068809
133.97550,5.534679993
133.97600,3.703513547
133.97650,-0.5692081607
133.97700,-5.452318684
133.97750,-6.062707499
133.97800,-1.789985791
133.97850,1.872347101
133.97900,2.177541509
133.97950,0.04118065471
133.98000,-1.179596976
133.98050,-1.789985791
133.98100,-2.095180199
133.98150,0.04118065471
133.98200,6.755457624
133.98250,14.08012341
133.98300,14.38531782
133.98350,6.755457624
133.98400,-1.179596976
133.98450,-3.621152238
133.98500,-1.179596976
133.98550,0.3463750624
133.98600,0.04118065471
133.98650,0.04118065471
133.98700,0.6515694701
133.98750,0.3463750624
133.98800,-0.264013753
133.98850,-0.8744025684
133.98900,-0.5692081607
133.98950,0.04118065471
133.99000,1.872347101
133.99050,5.229485586
133.99100,7.976235255
133.99150,8.891818478
133.99200,8.891818478
133.99250,8.891818478
133.99300,8.281429663
133.99350,7.36584644
133.99400,8.58662407
133.99450,11.94376256
133.99500,11.63856815
133.99550,4.313902363
133.99600,-4.536735461
133.99650,-7.28348513
133.99700,-3.621152238
133.99750,0.04118065471
133.99800,0.04118065471
133.99850,-0.8744025684
133.99900,-2.095180199
133.99950,-5.452318684
134.00000,-10.64062361
134.00050,-13.69256769
134.00100,-11.55620684
134.00150,-6.367901907
134.00200,-1.179596976
134.00250,2.482735916
134.00300,4.313902363
134.00350,1.261958286
134.00400,-5.757513092
134.00450,-11.86140125
134.00500,-12.47179006
134.00550,-8.199068353
134.00600,-4.231541053
134.00650,-3.31595783
134.00700,-4.841929869
134.00750,-8.199068353
134.00800,-11.55620684
134.00850,-12.47179006
134.00900,-9.725040392
134.00950,-5.147124276
134.01000,-0.5692081607
134.01050,2.482735916
134.01100,3.398319139
134.01150,2.177541509
134.01200,1.261958286
134.01250,3.093124732
134.01300,7.060652032
134.01350,9.197012886
134.01400,7.671040847
134.01450,4.61909677
134.01500,4.008707955
134.01550,4.008707955
134.01600,2.177541509
134.01650,-1.179596976
134.01700,-2.705569015
134.01750,-1.789985791
134.01800,-0.5692081607
134.01850,-0.264013753
134.01900,0.9567638778
134.01950,4.313902363
134.02000,5.839874401
134.02050,4.008707955
134.02100,2.177541509
134.02150,4.008707955
134.02200,7.36584644
134.02250,7.060652032
134.02300,2.482735916
134.02350,-1.484791384
134.02400,-2.400374607
134.02450,-1.179596976
134.02500,1.567152693
134.02550,6.145068809
134.02600,10.11259611
134.02650,10.11259611
134.02700,5.839874401
134.02750,1.872347101
134.02800,0.04118065471
134.02850,-1.484791384
134.02900,-4.841929869
134.02950,-8.199068353
134.03000,-10.33542921
134.03050,-11.55620684
134.03100,-10.33542921
134.03150,-4.231541053
134.03200,2.787930324
134.03250,4.008707955
134.03300,-1.789985791
134.03350,-5.757513092
134.03400,-1.789985791
134.03450,3.703513547
134.03500,4.313902363
134.03550,1.872347101
134.03600,3.398319139
134.03650,6.145068809
134.03700,4.313902363
134.03750,-0.5692081607
134.03800,-1.484791384
134.03850,1.567152693
134.03900,1.567152693
134.03950,-2.705569015
134.04000,-5.147124276
134.04050,-2.400374607
134.04100,0.04118065471
134.04150,-2.095180199
134.04200,-5.452318684
134.04250,-4.841929869
134.04300,-2.095180199
134.04350,-0.264013753
134.04400,-0.264013753
134.04450,-0.264013753
134.04500,0.3463750624
134.04550,2.177541509
134.04600,3.398319139
134.04650,2.787930324
134.04700,0.9567638778
134.04750,0.04118065471
134.04800,2.482735916
134.04850,6.450263216
134.04900,7.976235255
134.04950,5.229485586
134.05000,0.6515694701
134.05050,-3.926346645
134.05100,-6.978290722
134.05150,-6.978290722
134.05200,-3.621152238
134.05250,-1.179596976
134.05300,-2.705569015
134.05350,-4.841929869
134.05400,-3.31595783
134.05450,0.3463750624
134.05500,3.093124732
134.05550,3.398319139
134.05600,3.398319139
134.05650,2.482735916
134.05700,0.04118065471
134.05750,-2.400374607
134.05800,-1.484791384
134.05850,2.787930324
134.05900,6.450263216
134.05950,6.755457624
134.06000,4.924291178
134.06050,2.177541509
134.06100,-1.179596976
134.06150,-2.400374607
134.06200,0.04118065471
134.06250,2.787930324
134.06300,2.177541509
134.06350,-0.264013753
134.06400,-0.5692081607
134.06450,1.872347101
134.06500,2.787930324
134.06550,1.567152693
134.06600,1.261958286
134.06650,2.787930324
134.06700,3.398319139
134.06750,1.567152693
134.06800,0.04118065471
134.06850,-1.179596976
134.06900,-3.621152238
134.06950,-5.757513092
134.07000,-6.367901907
134.07050,-7.588679538
134.07100,-13.38737328
134.07150,-22.84839992
134.07200,-28.64709367
134.07250,-25.59514959
134.07300,-17.35490058
134.07350,-9.114651576
134.07400,-2.705569015
134.07450,1.567152693
134.07500,4.008707955
134.07550,4.924291178
134.07600,4.924291178
134.07650,4.61909677
134.07700,4.008707955
134.07750,5.534679993
134.07800,9.197012886
134.07850,11.33337374
134.07900,9.197012886
134.07950,6.450263216
134.08000,7.671040847
134.08050,11.02817933
134.08100,10.11259611
134.08150,4.61909677
134.08200,0.3463750624
134.08250,0.9567638778
134.08300,2.482735916
134.08350,0.3463750624
134.08400,-3.010763422
134.08450,-5.452318684
134.08500,-6.367901907
134.08550,-7.588679538
134.08600,-6.978290722
134.08650,-2.400374607
134.08700,3.398319139
134.08750,7.060652032
134.08800,6.450263216
134.08850,3.398319139
134.08900,0.3463750624
134.08950,-1.789985791
134.09000,-2.095180199
134.09050,0.04118065471
134.09100,3.093124732
134.09150,4.313902363
134.09200,3.703513547
134.09250,3.398319139
134.09300,4.008707955
134.09350,4.61909677
134.09400,4.008707955
134.09450,2.482735916
134.09500,1.261958286
134.09550,0.9567638778
134.09600,2.177541509
134.09650,5.839874401
134.09700,8.891818478
134.09750,8.891818478
134.09800,5.534679993
134.09850,2.177541509
134.09900,1.261958286
134.09950,1.567152693
134.10000,0.3463750624
134.10050,-2.400374607
134.10100,-3.621152238
134.10150,-2.400374607
134.10200,-0.264013753
134.10250,0.04118065471
134.10300,-1.484791384
134.10350,-2.400374607
134.10400,0.04118065471
134.10450,4.924291178
134.10500,9.807401701
134.10550,10.72298492
134.10600,7.671040847
134.10650,2.482735916
134.10700,-2.705569015
134.10750,-5.757513092
134.10800,-6.367901907
134.10850,-5.452318684
134.10900,-4.536735461
134.10950,-4.536735461
134.11000,-4.841929869
134.11050,-5.147124276
134.11100,-6.673096315
134.11150,-9.419845984
134.11200,-13.9977621
134.11250,-17.9652894
134.11300,-18.57567822
134.11350,-13.08217888
134.11400,-3.31595783
134.11450,3.703513547
134.11500,3.093124732
134.11550,-2.095180199
134.11600,-4.231541053
134.11650,-1.179596976
134.11700,0.3463750624
134.11750,-3.31595783
134.11800,-8.504262761
134.11850,-9.114651576
134.11900,-6.367901907
134.11950,-5.452318684
134.12000,-7.28348513
134.12050,-8.504262761
134.12100,-7.588679538
134.12150,-5.452318684
134.12200,-2.095180199
134.12250,3.093124732
134.12300,7.671040847
134.12350,8.281429663
134.12400,5.229485586
134.12450,2.787930324
134.12500,2.177541509
134.12550,2.787930324
134.12600,3.703513547
134.12650,5.229485586
134.12700,6.145068809
134.12750,4.61909677
134.12800,2.177541509
134.12850,1.567152693
134.12900,3.093124732
134.12950,4.008707955
134.13000,2.482735916
134.13050,1.261958286
134.13100,1.567152693
134.13150,1.872347101
134.13200,2.177541509
134.13250,3.703513547
134.13300,5.839874401
134.13350,7.060652032
134.13400,6.755457624
134.13450,6.755457624
134.13500,8.281429663
134.13550,9.197012886
134.13600,7.671040847
134.13650,5.229485586
134.13700,4.924291178
134.13750,6.145068809
134.13800,7.060652032
134.13850,6.450263216
134.13900,5.229485586
134.13950,4.924291178
134.14000,3.398319139
134.14050,0.04118065471
134.14100,-3.926346645
134.14150,-7.28348513
134.14200,-8.504262761
134.14250,-7.893873946
134.14300,-6.978290722
134.14350,-7.588679538
134.14400,-8.504262761
134.14450,-7.893873946
134.14500,-5.147124276
134.14550,-1.179596976
134.14600,1.261958286
134.14650,0.9567638778
134.14700,-1.179596976
134.14750,-3.621152238
134.14800,-3.010763422
134.14850,0.3463750624
134.14900,5.534679993
134.14950,8.281429663
134.15000,8.58662407
134.15050,7.671040847
134.15100,7.976235255
134.15150,10.72298492
134.15200,14.08012341
134.15250,15.60609545
134.15300,12.55415137
134.15350,5.534679993
134.15400,-1.179596976
134.15450,-5.147124276
134.15500,-5.147124276
134.15550,-3.926346645
134.15600,-3.010763422
134.15650,-3.31595783
134.15700,-5.757513092
134.15750,-9.725040392
134.15800,-10.94581802
134.15850,-7.588679538
134.15900,-1.789985791
134.15950,0.3463750624
134.16000,-0.5692081607
134.16050,-0.264013753
134.16100,2.482735916
134.16150,3.398319139
134.16200,-0.8744025684
134.16250,-6.673096315
134.16300,-6.367901907
134.16350,-0.8744025684
134.16400,3.093124732
134.16450,2.482735916
134.16500,0.04118065471
134.16550,-1.789985791
134.16600,-2.095180199
134.16650,-0.8744025684
134.16700,0.9567638778
134.16750,2.177541509
134.16800,1.872347101
134.16850,-0.264013753
134.16900,-2.705569015
134.16950,-5.147124276
134.17000,-6.978290722
134.17050,-7.28348513
134.17100,-5.452318684
134.17150,-3.010763422
134.17200,-1.789985791
134.17250,-0.5692081607
134.17300,1.872347101
134.17350,5.534679993
134.17400,7.060652032
134.17450,5.534679993
134.17500,3.093124732
134.17550,1.567152693
134.17600,0.04118065471
134.17650,-1.789985791
134.17700,-3.31595783
134.17750,-2.400374607
134.17800,0.3463750624
134.17850,2.787930324
134.17900,2.482735916
134.17950,0.3463750624
134.18000,-1.789985791
134.18050,-2.705569015
134.18100,-2.095180199
134.18150,-1.484791384
134.18200,-1.179596976
134.18250,0.04118065471
134.18300,2.482735916
134.18350,4.924291178
134.18400,5.229485586
134.18450,3.398319139
134.18500,1.567152693
134.18550,0.04118065471
134.18600,-1.789985791
134.18650,-3.31595783
134.18700,-3.926346645
134.18750,-4.536735461
134.18800,-6.367901907
134.18850,-7.28348513
134.18900,-5.757513092
134.18950,-2.400374607
134.19000,-0.264013753
134.19050,0.04118065471
134.19100,0.3463750624
134.19150,2.177541509
134.19200,4.008707955
134.19250,5.229485586
134.19300,7.36584644
134.19350,11.63856815
134.19400,15.60609545
134.19450,16.82687308
134.19500,14.69051222
134.19550,11.02817933
134.19600,7.671040847
134.19650,4.924291178
134.19700,3.398319139
134.19750,2.177541509
134.19800,-0.264013753
134.19850,-4.841929869
134.19900,-6.978290722
134.19950,-4.231541053
134.20000,0.04118065471
134.20050,-1.179596976
134.20100,-9.725040392
134.20150,-18.27048381
134.20200,-18.27048381
134.20250,-10.0302348
134.20300,-3.010763422
134.20350,-2.705569015
134.20400,-6.062707499
134.20450,-7.588679538
134.20500,-6.978290722
134.20550,-7.28348513
134.20600,-7.588679538
134.20650,-3.621152238
134.20700,1.872347101
134.20750,2.177541509
134.20800,-3.010763422
134.20850,-6.062707499
134.20900,-3.010763422
134.20950,-0.264013753
134.21000,-3.621152238
134.21050,-7.28348513
134.21100,-3.010763422
134.21150,7.060652032
134.21200,12.24895696
134.21250,7.671040847
134.21300,0.9567638778
134.21350,-0.5692081607
134.21400,0.3463750624
134.21450,-0.264013753
134.21500,-2.705569015
134.21550,-3.926346645
134.21600,-1.484791384
134.21650,4.313902363
134.21700,10.11259611
134.21750,11.02817933
134.21800,5.839874401
134.21850,-0.5692081607
134.21900,-2.705569015
134.21950,-1.789985791
134.22000,-3.010763422
134.22050,-7.28348513
134.22100,-8.809457169
134.22150,-4.841929869
134.22200,-0.264013753
134.22250,0.9567638778
134.22300,0.9567638778
134.22350,2.787930324
134.22400,4.313902363
134.22450,3.398319139
134.22500,1.261958286
134.22550,3.093124732
134.22600,8.891818478
134.22650,13.46973459
134.22700,13.774929
134.22750,10.72298492
134.22800,7.671040847
134.22850,6.145068809
134.22900,6.450263216
134.22950,7.060652032
134.23000,6.755457624
134.23050,4.61909677
134.23100,1.261958286
134.23150,-0.264013753
134.23200,1.261958286
134.23250,5.534679993
134.23300,7.060652032
134.23350,1.567152693
134.23400,-9.419845984
134.23450,-20.40684466
134.23500,-25.59514959
134.23550,-24.37437196
134.23600,-19.49126144
134.23650,-13.38737328
134.23700,-8.504262761
134.23750,-9.725040392
134.23800,-17.04970618
134.23850,-23.45878874
134.23900,-21.01723348
134.23950,-10.64062361
134.24000,-1.179596976
134.24050,0.9567638778
134.24100,0.6515694701
134.24150,2.177541509
134.24200,4.008707955
134.24250,3.398319139
134.24300,1.567152693
134.24350,2.177541509
134.24400,4.61909677
134.24450,4.924291178
134.24500,3.398319139
134.24550,3.398319139
134.24600,4.313902363
134.24650,2.482735916
134.24700,-1.484791384
134.24750,-4.231541053
134.24800,-5.147124276
134.24850,-7.893873946
134.24900,-12.47179006
134.24950,-13.38737328
134.25000,-6.978290722
134.25050,2.482735916
134.25100,9.197012886
134.25150,11.33337374
134.25200,10.11259611
134.25250,7.36584644
134.25300,3.703513547
134.25350,2.177541509
134.25400,4.924291178
134.25450,9.502207293
134.25500,11.63856815
134.25550,9.807401701
134.25600,6.450263216
134.25650,5.229485586
134.25700,5.534679993
134.25750,5.839874401
134.25800,4.924291178
134.25850,3.703513547
134.25900,3.398319139
134.25950,4.313902363
134.26000,5.534679993
134.26050,6.145068809
134.26100,5.229485586
134.26150,3.398319139
134.26200,0.9567638778
134.26250,-0.5692081607
134.26300,-0.8744025684
134.26350,1.261958286
134.26400,5.229485586
134.26450,7.36584644
134.26500,5.839874401
134.26550,2.787930324
134.26600,1.567152693
134.26650,1.872347101
134.26700,2.177541509
134.26750,2.787930324
134.26800,5.229485586
134.26850,8.58662407
134.26900,7.976235255
134.26950,3.398319139
134.27000,0.04118065471
134.27050,0.9567638778
134.27100,4.313902363
134.27150,4.924291178
134.27200,3.703513547
134.27250,3.398319139
134.27300,3.398319139
134.27350,0.04118065471
134.27400,-6.673096315
134.27450,-11.86140125
134.27500,-10.64062361
134.27550,-5.147124276
134.27600,0.04118065471
134.27650,3.398319139
134.27700,4.924291178
134.27750,4.924291178
134.27800,3.398319139
134.27850,0.04118065471
134.27900,-4.841929869
134.27950,-12.47179006
134.28000,-19.79645585
134.28050,-21.9328167
134.28100,-16.43931736
134.28150,-6.062707499
134.28200,3.093124732
134.28250,8.891818478
134.28300,11.33337374
134.28350,11.33337374
134.28400,8.281429663
134.28450,2.482735916
134.28500,-2.095180199
134.28550,-2.705569015
134.28600,0.6515694701
134.28650,4.924291178
134.28700,6.450263216
134.28750,4.61909677
134.28800,2.177541509
134.28850,0.04118065471
134.28900,-0.8744025684
134.28950,-0.8744025684
134.29000,0.04118065471
134.29050,0.3463750624
134.29100,-0.5692081607
134.29150,-3.926346645
134.29200,-7.588679538
134.29250,-8.809457169
134.29300,-7.28348513
134.29350,-4.841929869
134.29400,-3.010763422
134.29450,-1.484791384
134.29500,0.04118065471
134.29550,0.6515694701
134.29600,0.04118065471
134.29650,-1.484791384
134.29700,-1.789985791
134.29750,-0.264013753
134.29800,0.9567638778
134.29850,0.9567638778
134.29900,0.04118065471
134.29950,0.04118065471
134.30000,0.6515694701
134.30050,3.398319139
134.30100,7.976235255
134.30150,12.55415137
134.30200,12.24895696
134.30250,4.313902363
134.30300,-6.673096315
134.30350,-13.38737328
134.30400,-12.47179006
134.30450,-7.588679538
134.30500,-3.926346645
134.30550,-1.484791384
134.30600,0.3463750624
134.30650,1.567152693
134.30700,1.261958286
134.30750,0.6515694701
134.30800,1.261958286
134.30850,0.6515694701
134.30900,-2.400374607
134.30950,-6.062707499
134.31000,-6.673096315
134.31050,-3.621152238
134.31100,-0.8744025684
134.31150,-1.179596976
134.31200,-1.789985791
134.31250,-0.8744025684
134.31300,1.567152693
134.31350,4.61909677
134.31400,6.450263216
134.31450,6.145068809
134.31500,4.008707955
134.31550,0.9567638778
134.31600,-0.264013753
134.31650,-0.264013753
134.31700,-1.789985791
134.31750,-6.978290722
134.31800,-14.60815091
134.31850,-20.40684466
134.31900,-19.49126144
134.31950,-10.94581802
134.32000,0.3463750624
134.32050,9.197012886
134.32100,11.63856815
134.32150,9.502207293
134.32200,6.145068809
134.32250,4.008707955
134.32300,4.61909677
134.32350,8.58662407
134.32400,13.16454019
134.32450,12.85934578
134.32500,7.060652032
134.32550,0.04118065471
134.32600,-2.095180199
134.32650,0.04118065471
134.32700,2.482735916
134.32750,4.313902363
134.32800,4.924291178
134.32850,3.398319139
134.32900,-0.8744025684
134.32950,-6.062707499
134.33000,-8.504262761
134.33050,-8.199068353
134.33100,-7.28348513
134.33150,-6.367901907
134.33200,-3.31595783
134.33250,1.567152693
134.33300,4.61909677
134.33350,3.398319139
134.33400,0.3463750624
134.33450,-1.789985791
134.33500,-2.705569015
134.33550,-0.8744025684
134.33600,1.567152693
134.33650,2.177541509
134.33700,-0.8744025684
134.33750,-5.147124276
134.33800,-5.452318684
134.33850,-2.095180199
134.33900,0.3463750624
134.33950,-0.8744025684
134.34000,-3.621152238
134.34050,-4.231541053
134.34100,-2.705569015
134.34150,-0.8744025684
134.34200,0.3463750624
134.34250,0.6515694701
134.34300,-0.264013753
134.34350,-2.095180199
134.34400,-1.789985791
134.34450,0.04118065471
134.34500,1.261958286
134.34550,0.6515694701
134.34600,0.04118065471
134.34650,0.6515694701
134.34700,2.787930324
134.34750,4.008707955
134.34800,4.313902363
134.34850,6.450263216
134.34900,10.41779052
134.34950,12.85934578
134.35000,10.41779052
134.35050,5.534679993
134.35100,2.482735916
134.35150,1.872347101
134.35200,0.3463750624
134.35250,-2.705569015
134.35300,-4.841929869
134.35350,-4.231541053
134.35400,-2.705569015
134.35450,-3.31595783
134.35500,-3.926346645
134.35550,-1.484791384
134.35600,3.398319139
134.35650,6.145068809
134.35700,3.093124732
134.35750,-4.231541053
134.35800,-11.86140125
134.35850,-15.21853973
134.35900,-12.77698447
134.35950,-6.978290722
134.36000,-1.484791384
134.36050,0.6515694701
134.36100,-0.264013753
134.36150,-3.926346645
134.36200,-6.367901907
134.36250,-5.147124276
134.36300,-0.8744025684
134.36350,2.482735916
134.36400,3.093124732
134.36450,2.482735916
134.36500,3.398319139
134.36550,4.61909677
134.36600,3.093124732
134.36650,-0.5692081607
134.36700,-1.179596976
134.36750,2.482735916
134.36800,6.755457624
134.36850,6.755457624
134.36900,4.008707955
134.36950,2.482735916
134.37000,2.177541509
134.37050,1.261958286
134.37100,0.04118065471
134.37150,1.567152693
134.37200,5.839874401
134.37250,8.281429663
134.37300,6.145068809
134.37350,1.567152693
134.37400,-1.179596976
134.37450,-1.179596976
134.37500,-0.264013753
134.37550,0.04118065471
134.37600,-0.264013753
134.37650,-0.5692081607
134.37700,-0.8744025684
134.37750,-0.8744025684
134.37800,-0.8744025684
134.37850,-1.179596976
134.37900,-2.095180199
134.37950,-1.789985791
134.38000,0.6515694701
134.38050,4.924291178
134.38100,8.58662407
134.38150,10.41779052
134.38200,10.72298492
134.38250,9.502207293
134.38300,7.36584644
134.38350,5.534679993
134.38400,5.839874401
134.38450,5.839874401
134.38500,2.177541509
134.38550,-5.452318684
134.38600,-12.47179006
134.38650,-14.91334532
134.38700,-14.30295651
134.38750,-13.9977621
134.38800,-13.69256769
134.38850,-10.64062361
134.38900,-5.147124276
134.38950,-1.179596976
134.39000,-0.5692081607
134.39050,-2.095180199
134.39100,-2.705569015
134.39150,-1.789985791
134.39200,0.04118065471
134.39250,0.6515694701
134.39300,0.04118065471
134.39350,-1.484791384
134.39400,-1.484791384
134.39450,-0.5692081607
134.39500,-0.264013753
134.39550,-0.264013753
134.39600,0.04118065471
134.39650,-0.8744025684
134.39700,-3.31595783
134.39750,-6.367901907
134.39800,-4.536735461
134.39850,3.703513547
134.39900,14.99570663
134.39950,20.48920597
134.40000,15.30090104
134.40050,3.398319139
134.40100,-6.367901907
134.40150,-7.588679538
134.40200,-1.484791384
134.40250,4.924291178
134.40300,7.36584644
134.40350,6.755457624
134.40400,6.450263216
134.40450,7.060652032
134.40500,7.36584644
134.40550,7.36584644
134.40600,7.671040847
134.40650,7.060652032
134.40700,6.145068809
134.40750,5.229485586
134.40800,3.703513547
134.40850,0.04118065471
134.40900,-4.841929869
134.40950,-6.367901907
134.41000,-4.536735461
134.41050,-4.841929869
134.41100,-8.504262761
134.41150,-9.419845984
134.41200,-3.010763422
134.41250,3.703513547
134.41300,3.093124732
134.41350,-2.400374607
134.41400,-6.978290722
134.41450,-8.809457169
134.41500,-11.55620684
134.41550,-13.38737328
134.41600,-9.725040392
134.41650,-2.095180199
134.41700,2.177541509
134.41750,1.872347101
134.41800,2.177541509
134.41850,6.145068809
134.41900,8.281429663
134.41950,4.61909677
134.42000,-1.789985791
134.42050,-5.452318684
134.42100,-4.536735461
134.42150,-3.31595783
134.42200,-3.926346645
134.42250,-5.452318684
134.42300,-7.28348513
134.42350,-9.114651576
134.42400,-11.25101243
134.42450,-10.64062361
134.42500,-6.062707499
134.42550,-0.5692081607
134.42600,1.872347101
134.42650,1.261958286
134.42700,2.177541509
134.42750,6.145068809
134.42800,8.891818478
134.42850,4.61909677
134.42900,-2.705569015
134.42950,-5.452318684
134.43000,-0.264013753
134.43050,7.060652032
134.43100,9.807401701
134.43150,5.229485586
134.43200,-1.789985791
134.43250,-6.367901907
134.43300,-4.841929869
134.43350,0.6515694701
134.43400,5.534679993
134.43450,5.839874401
134.43500,3.398319139
134.43550,2.787930324
134.43600,4.61909677
134.43650,5.229485586
134.43700,2.482735916
134.43750,-0.264013753
134.43800,-0.264013753
134.43850,2.482735916
134.43900,5.839874401
134.43950,8.58662407
134.44000,11.02817933
134.44050,13.46973459
134.44100,14.38531782
134.44150,11.94376256
134.44200,7.060652032
134.44250,4.313902363
134.44300,4.61909677
134.44350,5.534679993
134.44400,3.703513547
134.44450,0.04118065471
134.44500,-0.5692081607
134.44550,0.04118065471
134.44600,-3.31595783
134.44650,-11.25101243
134.44700,-17.35490058
134.44750,-15.82892855
134.44800,-10.64062361
134.44850,-10.94581802
134.44900,-17.35490058
134.44950,-21.62762229
134.45000,-17.35490058
134.45050,-7.588679538
134.45100,-0.264013753
134.45150,1.872347101
134.45200,0.9567638778
134.45250,-0.8744025684
134.45300,-2.400374607
134.45350,-0.264013753
134.45400,6.145068809
134.45450,12.24895696
134.45500,11.33337374
134.45550,4.008707955
134.45600,-2.400374607
134.45650,-5.147124276
134.45700,-5.452318684
134.45750,-4.841929869
134.45800,-2.095180199
134.45850,2.482735916
134.45900,5.534679993
134.45950,4.924291178
134.46000,2.482735916
134.46050,0.9567638778
134.46100,0.04118065471
134.46150,-1.179596976
134.46200,-2.400374607
134.46250,-3.926346645
134.46300,-7.588679538
134.46350,-12.77698447
134.46400,-16.43931736
134.46450,-15.82892855
134.46500,-12.47179006
134.46550,-6.367901907
134.46600,3.703513547
134.46650,15.91128986
134.46700,21.7099836
134.46750,17.7424563
134.46800,9.502207293
134.46850,4.61909677
134.46900,3.093124732
134.46950,0.6515694701
134.47000,-1.789985791
134.47050,-1.484791384
134.47100,0.9567638778
134.47150,1.872347101
134.47200,0.04118065471
134.47250,-1.179596976
134.47300,-0.8744025684
134.47350,0.04118065471
134.47400,0.9567638778
134.47450,4.008707955
134.47500,7.671040847
134.47550,8.58662407
134.47600,7.060652032
134.47650,5.534679993
134.47700,4.924291178
134.47750,4.008707955
134.47800,2.177541509
134.47850,1.872347101
134.47900,3.398319139
134.47950,4.008707955
134.48000,2.177541509
134.48050,0.04118065471
134.48100,0.04118065471
134.48150,0.04118065471
134.48200,-1.179596976
134.48250,-2.095180199
134.48300,-1.179596976
134.48350,0.3463750624
134.48400,0.9567638778
134.48450,0.3463750624
134.48500,0.04118065471
134.48550,0.04118065471
134.48600,-0.8744025684
134.48650,-1.484791384
134.48700,-0.8744025684
134.48750,-0.264013753
134.48800,-1.484791384
134.48850,-3.010763422
134.48900,-2.095180199
134.48950,0.3463750624
134.49000,1.567152693
134.49050,0.04118065471
134.49100,-0.5692081607
134.49150,1.261958286
134.49200,3.398319139
134.49250,3.398319139
134.49300,1.567152693
134.49350,0.6515694701
134.49400,1.872347101
134.49450,4.008707955
134.49500,4.61909677
134.49550,3.093124732
134.49600,0.9567638778
134.49650,0.3463750624
134.49700,1.567152693
134.49750,3.093124732
134.49800,2.787930324
134.49850,0.9567638778
134.49900,0.04118065471
134.49950,1.261958286
134.50000,2.177541509
134.50050,1.872347101
134.50100,1.261958286
134.50150,0.9567638778
134.50200,-0.264013753
134.50250,-2.400374607
134.50300,-3.621152238
134.50350,-2.705569015
134.50400,-2.400374607
134.50450,-2.705569015
134.50500,-1.484791384
134.50550,0.3463750624
134.50600,0.04118065471
134.50650,-3.621152238
134.50700,-6.673096315
134.50750,-4.536735461
134.50800,-0.8744025684
134.50850,-1.179596976
134.50900,-4.841929869
134.50950,-7.588679538
134.51000,-6.367901907
134.51050,-3.926346645
134.51100,-2.705569015
134.51150,-1.484791384
134.51200,0.04118065471
134.51250,-0.8744025684
134.51300,-5.757513092
134.51350,-12.16659565
134.51400,-14.91334532
134.51450,-12.47179006
134.51500,-7.588679538
134.51550,-3.31595783
134.51600,-0.8744025684
134.51650,0.3463750624
134.51700,1.872347101
134.51750,4.61909677
134.51800,7.060652032
134.51850,6.145068809
134.51900,1.261958286
134.51950,-3.31595783
134.52000,-4.536735461
134.52050,-3.926346645
134.52100,-5.452318684
134.52150,-7.588679538
134.52200,-5.147124276
134.52250,1.261958286
134.52300,6.145068809
134.52350,5.839874401
134.52400,4.008707955
134.52450,5.534679993
134.52500,8.58662407
134.52550,8.891818478
134.52600,6.755457624
134.52650,5.229485586
134.52700,4.924291178
134.52750,3.093124732
134.52800,0.04118065471
134.52850,0.04118065471
134.52900,2.482735916
134.52950,4.61909677
134.53000,3.703513547
134.53050,2.177541509
134.53100,2.177541509
134.53150,1.567152693
134.53200,-2.095180199
134.53250,-7.588679538
134.53300,-11.25101243
134.53350,-11.25101243
134.53400,-9.725040392
134.53450,-7.588679538
134.53500,-3.010763422
134.53550,4.61909677
134.53600,12.85934578
134.53650,16.21648426
134.53700,11.94376256
134.53750,4.008707955
134.53800,-1.179596976
134.53850,-3.010763422
134.53900,-4.231541053
134.53950,-5.147124276
134.54000,-3.010763422
134.54050,1.872347101
134.54100,4.924291178
134.54150,1.567152693
134.54200,-4.841929869
134.54250,-7.893873946
134.54300,-5.452318684
134.54350,-0.8744025684
134.54400,2.177541509
134.54450,3.093124732
134.54500,1.872347101
134.54550,0.3463750624
134.54600,0.9567638778
134.54650,3.398319139
134.54700,3.703513547
134.54750,-2.095180199
134.54800,-10.33542921
134.54850,-12.77698447
134.54900,-7.588679538
134.54950,-0.8744025684
134.55000,2.482735916
134.55050,5.534679993
134.55100,9.197012886
134.55150,10.41779052
134.55200,7.060652032
134.55250,2.787930324
134.55300,2.177541509
134.55350,4.313902363
134.55400,4.008707955
134.55450,-0.264013753
134.55500,-3.621152238
134.55550,-2.705569015
134.55600,0.6515694701
134.55650,2.787930324
134.55700,1.567152693
134.55750,0.6515694701
134.55800,1.261958286
134.55850,2.177541509
134.55900,1.261958286
134.55950,0.04118065471
134.56000,0.04118065471
134.56050,2.482735916
134.56100,4.61909677
134.56150,3.703513547
134.56200,0.04118065471
134.56250,-5.757513092
134.56300,-12.47179006
134.56350,-15.82892855
134.56400,-13.9977621
134.56450,-9.725040392
134.56500,-7.893873946
134.56550,-8.199068353
134.56600,-4.231541053
134.56650,4.313902363
134.56700,12.24895696
134.56750,12.85934578
134.56800,7.671040847
134.56850,3.398319139
134.56900,2.482735916
134.56950,1.567152693
134.57000,-0.5692081607
134.57050,-3.010763422
134.57100,-4.231541053
134.57150,-4.841929869
134.57200,-4.231541053
134.57250,-2.400374607
134.57300,0.04118065471
134.57350,1.567152693
134.57400,2.482735916
134.57450,3.093124732
134.57500,3.093124732
134.57550,3.093124732
134.57600,2.787930324
134.57650,3.398319139
134.57700,4.313902363
134.57750,5.229485586
134.57800,5.534679993
134.57850,4.924291178
134.57900,3.398319139
134.57950,2.482735916
134.58000,2.787930324
134.58050,3.093124732
134.58100,1.567152693
134.58150,-1.179596976
134.58200,-2.705569015
134.58250,-2.095180199
134.58300,0.04118065471
134.58350,1.567152693
134.58400,2.177541509
134.58450,1.261958286
134.58500,-0.264013753
134.58550,-0.8744025684
134.58600,0.04118065471
134.58650,1.567152693
134.58700,2.787930324
134.58750,4.61909677
134.58800,6.145068809
134.58850,6.145068809
134.58900,5.534679993
134.58950,6.755457624
134.59000,6.755457624
134.59050,0.04118065471
134.59100,-12.16659565
134.59150,-19.18606703
134.59200,-13.9977621
134.59250,-1.484791384
134.59300,7.671040847
134.59350,11.33337374
134.59400,12.55415137
134.59450,12.85934578
134.59500,11.94376256
134.59550,10.11259611
134.59600,8.281429663
134.59650,5.229485586
134.59700,0.3463750624
134.59750,-3.31595783
134.59800,-5.757513092
134.59850,-10.64062361
134.59900,-19.49126144
134.59950,-26.20553841
134.60000,-24.98476078
134.60050,-17.66009499
134.60100,-11.55620684
134.60150,-8.199068353
134.60200,-6.062707499
134.60250,-3.010763422
134.60300,0.04118065471
134.60350,3.703513547
134.60400,6.755457624
134.60450,6.145068809
134.60500,0.04118065471
134.60550,-7.28348513
134.60600,-10.94581802
134.60650,-11.25101243
134.60700,-10.0302348
134.60750,-6.978290722
134.60800,-2.095180199
134.60850,1.872347101
134.60900,2.787930324
134.60950,2.177541509
134.61000,2.787930324
134.61050,4.008707955
134.61100,5.229485586
134.61150,6.145068809
134.61200,7.671040847
134.61250,7.060652032
134.61300,3.398319139
134.61350,0.04118065471
134.61400,0.6515694701
134.61450,4.008707955
134.61500,5.229485586
134.61550,3.093124732
134.61600,0.9567638778
134.61650,0.3463750624
134.61700,0.3463750624
134.61750,-0.5692081607
134.61800,-1.179596976
134.61850,0.04118065471
134.61900,2.482735916
134.61950,5.229485586
134.62000,7.060652032
134.62050,6.755457624
134.62100,5.229485586
134.62150,3.398319139
134.62200,2.177541509
134.62250,1.872347101
134.62300,0.6515694701
134.62350,-1.789985791
134.62400,-4.536735461
134.62450,-4.536735461
134.62500,-0.5692081607
134.62550,4.924291178
134.62600,7.976235255
134.62650,7.060652032
134.62700,4.008707955
134.62750,0.3463750624
134.62800,-2.705569015
134.62850,-6.367901907
134.62900,-8.809457169
134.62950,-10.0302348
134.63000,-10.0302348
134.63050,-8.199068353
134.63100,-3.621152238
134.63150,1.261958286
