"type","name","time_units","begin_time","frequency","count","units"
"signal","Ultium EMG-BRACHIORAD. RT","s",494.96000,2000,22000,"uV"

"time","value"
494.96000,11.26702713
494.96050,10.0462495
494.96100,8.215083052
494.96150,5.773527791
494.96200,4.857944568
494.96250,4.247555752
494.96300,3.026778121
494.96350,4.55275016
494.96400,7.909888645
494.96450,5.163138975
494.96500,-9.180998187
494.96550,-25.96669061
494.96600,-32.37577317
494.96650,-28.40824587
494.96700,-24.74591298
494.96750,-25.35630179
494.96800,-26.57707943
494.96850,-28.40824587
494.96900,-31.76538436
494.96950,-26.27188502
494.97000,1.806000491
494.97050,44.83841198
494.97100,71.39032545
494.97150,61.6241044
494.97200,29.57869159
494.97250,1.195611675
494.97300,-14.36930312
494.97350,-24.44071857
494.97400,-30.23941232
494.97450,-28.10305146
494.97500,-20.47319127
494.97550,-14.36930312
494.97600,-10.40177582
494.97650,-1.856332402
494.97700,10.0462495
494.97750,18.59169291
494.97800,18.59169291
494.97850,14.62416561
494.97900,10.35144391
494.97950,4.55275016
494.98000,-3.38230444
494.98050,-10.40177582
494.98100,-11.01216463
494.98150,-6.12905411
494.98200,-0.9407491788
494.98250,-0.02516595566
494.98300,-3.077110033
494.98350,-6.12905411
494.98400,-4.908276479
494.98450,-1.245943586
494.98500,-0.02516595566
494.98550,-2.466721217
494.98600,-6.12905411
494.98650,-7.044637333
494.98700,-7.34983174
494.98750,-10.09658141
494.98800,-14.36930312
494.98850,-16.81085838
494.98900,-16.50566397
494.98950,-15.28488634
494.99000,-14.67449753
494.99050,-13.14852549
494.99100,-10.70697023
494.99150,-9.791387002
494.99200,-11.01216463
494.99250,-12.23294226
494.99300,-10.70697023
494.99350,-5.823859702
494.99400,-0.02516595566
494.99450,5.163138975
494.99500,6.994305421
494.99550,7.299499829
494.99600,10.35144391
494.99650,18.59169291
494.99700,27.74752515
494.99750,33.24102448
494.99800,35.68257975
494.99850,39.03971823
494.99900,44.53321757
494.99950,47.27996724
495.00000,43.61763435
495.00050,35.68257975
495.00100,28.05271955
495.00150,21.64363699
495.00200,15.84494324
495.00250,11.57222154
495.00300,10.65663831
495.00350,11.26702713
495.00400,10.0462495
495.00450,7.909888645
495.00500,7.299499829
495.00550,10.0462495
495.00600,13.09819358
495.00650,11.87741594
495.00700,3.026778121
495.00750,-10.09658141
495.00800,-20.16799686
495.00850,-22.30435772
495.00900,-21.08358009
495.00950,-23.52513535
495.01000,-31.46018995
495.01050,-39.39524455
495.01100,-43.05757744
495.01150,-42.14199422
495.01200,-36.95368929
495.01250,-25.05110739
495.01300,-9.486192594
495.01350,1.806000491
495.01400,6.078722198
495.01450,10.0462495
495.01500,18.28649851
495.01550,24.39038666
495.01600,18.59169291
495.01650,6.078722198
495.01700,1.806000491
495.01750,9.741055091
495.01800,18.59169291
495.01850,18.59169291
495.01900,13.70858239
495.01950,12.18261035
495.02000,14.31897121
495.02050,16.76052647
495.02100,17.67610969
495.02150,17.67610969
495.02200,13.70858239
495.02250,3.331972529
495.02300,-8.875803779
495.02350,-15.89527516
495.02400,-15.28488634
495.02450,-11.31735904
495.02500,-8.875803779
495.02550,-7.34983174
495.02600,-5.213470887
495.02650,-2.771915625
495.02700,-2.771915625
495.02750,-6.12905411
495.02800,-9.180998187
495.02850,-8.875803779
495.02900,-6.12905411
495.02950,-6.434248517
495.03000,-11.01216463
495.03050,-16.81085838
495.03100,-21.08358009
495.03150,-25.6614962
495.03200,-29.3238291
495.03250,-28.71344028
495.03300,-22.91474653
495.03350,-17.42124719
495.03400,-17.7264416
495.03450,-20.47319127
495.03500,-20.77838568
495.03550,-17.42124719
495.03600,-11.62255345
495.03650,0.280028452
495.03700,20.11766495
495.03750,39.03971823
495.03800,45.7539952
495.03850,37.8189406
495.03900,24.69558107
495.03950,14.62416561
495.04000,8.825471868
495.04050,6.383916606
495.04100,7.604694237
495.04150,11.26702713
495.04200,14.92936002
495.04250,17.67610969
495.04300,20.72805377
495.04350,24.39038666
495.04400,24.69558107
495.04450,20.11766495
495.04500,12.79299917
495.04550,6.383916606
495.04600,3.942361344
495.04650,5.468333383
495.04700,9.130666275
495.04750,10.65663831
495.04800,7.604694237
495.04850,1.195611675
495.04900,-4.297887663
495.04950,-7.34983174
495.05000,-7.655026148
495.05050,-6.739442925
495.05100,-5.213470887
495.05150,-4.908276479
495.05200,-5.823859702
495.05250,-7.044637333
495.05300,-7.34983174
495.05350,-7.34983174
495.05400,-8.265414964
495.05450,-10.09658141
495.05500,-11.01216463
495.05550,-11.01216463
495.05600,-11.01216463
495.05650,-11.62255345
495.05700,-11.62255345
495.05750,-11.31735904
495.05800,-9.486192594
495.05850,-6.434248517
495.05900,-2.466721217
495.05950,-0.3303603634
495.06000,-1.245943586
495.06050,-3.38230444
495.06100,-5.213470887
495.06150,-7.655026148
495.06200,-11.62255345
495.06250,-13.45371989
495.06300,-10.09658141
495.06350,-3.38230444
495.06400,1.500806083
495.06450,2.721583714
495.06500,3.026778121
495.06550,4.55275016
495.06600,7.299499829
495.06650,10.96183272
495.06700,15.23455443
495.06750,20.11766495
495.06800,24.69558107
495.06850,28.05271955
495.06900,30.18908041
495.06950,29.883886
495.07000,26.83194192
495.07050,22.25402581
495.07100,15.53974884
495.07150,5.468333383
495.07200,-5.518665294
495.07250,-14.36930312
495.07300,-20.77838568
495.07350,-30.54460673
495.07400,-43.97316066
495.07450,-52.82379849
495.07500,-50.99263204
495.07550,-43.05757744
495.07600,-36.95368929
495.07650,-33.5965508
495.07700,-29.6290235
495.07750,-24.74591298
495.07800,-16.81085838
495.07850,5.773527791
495.07900,51.55268895
495.07950,102.2149606
495.08000,125.4097356
495.08050,108.6240432
495.08100,72.91629748
495.08150,44.83841198
495.08200,30.49427481
495.08250,19.50727614
495.08300,8.52027746
495.08350,1.500806083
495.08400,-3.38230444
495.08450,-14.97969193
495.08500,-33.2913564
495.08550,-43.05757744
495.08600,-32.37577317
495.08650,-7.655026148
495.08700,9.741055091
495.08750,8.52027746
495.08800,-5.213470887
495.08850,-18.03163601
495.08900,-24.44071857
495.08950,-28.71344028
495.09000,-33.90174521
495.09050,-40.31082777
495.09100,-48.24588237
495.09150,-58.62249223
495.09200,-65.3367692
495.09250,-57.0965202
495.09300,-34.20693962
495.09350,-13.14852549
495.09400,-7.960220556
495.09450,-13.7589143
495.09500,-15.28488634
495.09550,-9.180998187
495.09600,-4.908276479
495.09650,-6.739442925
495.09700,-7.044637333
495.09750,-1.551137994
495.09800,4.55275016
495.09850,7.604694237
495.09900,10.0462495
495.09950,16.45533206
495.10000,23.47480344
495.10050,24.69558107
495.10100,21.33844258
495.10150,18.89688732
495.10200,19.50727614
495.10250,21.03324818
495.10300,23.77999785
495.10350,28.05271955
495.10400,32.32544126
495.10450,32.32544126
495.10500,27.74752515
495.10550,21.03324818
495.10600,12.18261035
495.10650,0.5852228597
495.10700,-10.40177582
495.10750,-17.11605279
495.10800,-18.94721923
495.10850,-19.25241364
495.10900,-19.86280246
495.10950,-21.38877449
495.11000,-23.83032976
495.11050,-28.40824587
495.11100,-32.37577317
495.11150,-31.46018995
495.11200,-25.96669061
495.11250,-20.77838568
495.11300,-19.25241364
495.11350,-17.7264416
495.11400,-13.45371989
495.11450,-7.044637333
495.11500,-2.466721217
495.11550,-0.02516595566
495.11600,3.331972529
495.11650,6.994305421
495.11700,7.909888645
495.11750,6.383916606
495.11800,5.468333383
495.11850,6.994305421
495.11900,7.909888645
495.11950,6.383916606
495.12000,5.163138975
495.12050,7.299499829
495.12100,10.35144391
495.12150,9.130666275
495.12200,5.163138975
495.12250,4.247555752
495.12300,8.52027746
495.12350,11.87741594
495.12400,10.0462495
495.12450,6.689111014
495.12500,9.435860683
495.12550,18.28649851
495.12600,25.00077548
495.12650,23.47480344
495.12700,17.67610969
495.12750,13.09819358
495.12800,12.18261035
495.12850,11.26702713
495.12900,9.741055091
495.12950,7.909888645
495.13000,6.383916606
495.13050,3.331972529
495.13100,-1.856332402
495.13150,-7.960220556
495.13200,-11.31735904
495.13250,-10.40177582
495.13300,-6.12905411
495.13350,-0.3303603634
495.13400,5.773527791
495.13450,10.96183272
495.13500,14.31897121
495.13550,15.53974884
495.13600,15.53974884
495.13650,14.92936002
495.13700,10.96183272
495.13750,3.331972529
495.13800,-5.823859702
495.13850,-11.31735904
495.13900,-8.265414964
495.13950,1.500806083
495.14000,10.35144391
495.14050,13.09819358
495.14100,11.57222154
495.14150,10.35144391
495.14200,7.604694237
495.14250,-3.077110033
495.14300,-18.94721923
495.14350,-29.3238291
495.14400,-31.15499554
495.14450,-35.73291166
495.14500,-51.60302086
495.14550,-69.91468532
495.14600,-79.68090637
495.14650,-80.29129518
495.14700,-74.18740703
495.14750,-50.68743763
495.14800,-4.297887663
495.14850,43.61763435
495.14900,59.48774355
495.14950,38.12413501
495.15000,9.741055091
495.15050,-0.02516595566
495.15100,3.942361344
495.15150,4.55275016
495.15200,-0.02516595566
495.15250,-0.6355547711
495.15300,3.637166937
495.15350,6.994305421
495.15400,7.909888645
495.15450,10.0462495
495.15500,14.31897121
495.15550,18.28649851
495.15600,22.55922021
495.15650,27.74752515
495.15700,31.10466363
495.15750,28.96830278
495.15800,22.25402581
495.15850,15.84494324
495.15900,12.79299917
495.15950,13.70858239
495.16000,17.67610969
495.16050,19.50727614
495.16100,15.23455443
495.16150,7.909888645
495.16200,6.689111014
495.16250,14.31897121
495.16300,22.55922021
495.16350,22.55922021
495.16400,14.62416561
495.16450,6.994305421
495.16500,3.637166937
495.16550,2.111194898
495.16600,1.195611675
495.16650,1.500806083
495.16700,3.331972529
495.16750,3.942361344
495.16800,2.111194898
495.16850,-0.9407491788
495.16900,-2.771915625
495.16950,-2.771915625
495.17000,-2.16152681
495.17050,-2.771915625
495.17100,-4.908276479
495.17150,-7.34983174
495.17200,-9.791387002
495.17250,-11.62255345
495.17300,-13.45371989
495.17350,-13.7589143
495.17400,-13.14852549
495.17450,-13.14852549
495.17500,-14.97969193
495.17550,-16.20046956
495.17600,-14.97969193
495.17650,-11.62255345
495.17700,-7.044637333
495.17750,-1.856332402
495.17800,3.026778121
495.17850,6.689111014
495.17900,7.604694237
495.17950,7.299499829
495.18000,8.52027746
495.18050,11.87741594
495.18100,14.92936002
495.18150,14.92936002
495.18200,12.48780476
495.18250,9.130666275
495.18300,6.383916606
495.18350,4.247555752
495.18400,3.942361344
495.18450,4.55275016
495.18500,4.55275016
495.18550,2.721583714
495.18600,-0.02516595566
495.18650,-2.16152681
495.18700,-3.38230444
495.18750,-5.518665294
495.18800,-9.180998187
495.18850,-11.31735904
495.18900,-8.875803779
495.18950,-1.551137994
495.19000,7.299499829
495.19050,14.31897121
495.19100,14.92936002
495.19150,8.215083052
495.19200,-2.771915625
495.19250,-11.01216463
495.19300,-12.23294226
495.19350,-10.40177582
495.19400,-11.92774786
495.19450,-17.7264416
495.19500,-21.99916331
495.19550,-19.55760805
495.19600,-11.31735904
495.19650,-1.856332402
495.19700,4.55275016
495.19750,8.215083052
495.19800,9.130666275
495.19850,8.52027746
495.19900,4.55275016
495.19950,-3.38230444
495.20000,-13.45371989
495.20050,-18.94721923
495.20100,-15.59008075
495.20150,-5.823859702
495.20200,3.637166937
495.20250,8.825471868
495.20300,8.52027746
495.20350,2.416389306
495.20400,-7.655026148
495.20450,-16.81085838
495.20500,-18.94721923
495.20550,-14.67449753
495.20600,-7.34983174
495.20650,0.280028452
495.20700,6.994305421
495.20750,12.79299917
495.20800,22.55922021
495.20850,42.70205112
495.20900,70.47474222
495.20950,88.48121228
495.21000,82.37732412
495.21050,56.13060506
495.21100,26.22155311
495.21150,2.416389306
495.21200,-15.59008075
495.21250,-27.79785706
495.21300,-31.15499554
495.21350,-27.79785706
495.21400,-26.88227383
495.21450,-32.68096758
495.21500,-39.70043896
495.21550,-42.14199422
495.21600,-38.78485573
495.21650,-31.15499554
495.21700,-19.86280246
495.21750,-8.570609371
495.21800,-4.297887663
495.21850,-8.875803779
495.21900,-16.50566397
495.21950,-23.52513535
495.22000,-30.84980113
495.22050,-36.95368929
495.22100,-35.73291166
495.22150,-26.27188502
495.22200,-15.89527516
495.22250,-11.31735904
495.22300,-11.01216463
495.22350,-10.09658141
495.22400,-8.570609371
495.22450,-8.875803779
495.22500,-10.09658141
495.22550,-8.570609371
495.22600,-3.687498848
495.22650,1.500806083
495.22700,3.942361344
495.22750,2.416389306
495.22800,-1.856332402
495.22850,-7.960220556
495.22900,-12.84333108
495.22950,-14.97969193
495.23000,-14.36930312
495.23050,-12.53813667
495.23100,-11.62255345
495.23150,-11.92774786
495.23200,-12.23294226
495.23250,-10.40177582
495.23300,-6.12905411
495.23350,-0.9407491788
495.23400,1.195611675
495.23450,0.8904172674
495.23500,0.280028452
495.23550,1.806000491
495.23600,4.857944568
495.23650,8.215083052
495.23700,10.96183272
495.23750,14.31897121
495.23800,17.06572088
495.23850,17.67610969
495.23900,18.28649851
495.23950,22.86441462
495.24000,30.18908041
495.24050,36.29296856
495.24100,37.51374619
495.24150,36.59816297
495.24200,37.51374619
495.24250,37.8189406
495.24300,34.15660771
495.24350,25.61116429
495.24400,15.84494324
495.24450,7.299499829
495.24500,1.195611675
495.24550,-0.3303603634
495.24600,2.111194898
495.24650,6.689111014
495.24700,8.52027746
495.24750,8.52027746
495.24800,9.741055091
495.24850,11.26702713
495.24900,10.35144391
495.24950,7.299499829
495.25000,7.909888645
495.25050,13.40338798
495.25100,17.06572088
495.25150,13.40338798
495.25200,5.468333383
495.25250,-1.856332402
495.25300,-8.265414964
495.25350,-14.97969193
495.25400,-18.94721923
495.25450,-18.03163601
495.25500,-15.89527516
495.25550,-19.25241364
495.25600,-24.74591298
495.25650,-23.52513535
495.25700,-13.14852549
495.25750,-0.3303603634
495.25800,6.383916606
495.25850,8.825471868
495.25900,11.87741594
495.25950,15.84494324
495.26000,18.28649851
495.26050,14.31897121
495.26100,3.637166937
495.26150,-10.09658141
495.26200,-22.60955213
495.26250,-29.6290235
495.26300,-30.54460673
495.26350,-25.96669061
495.26400,-16.81085838
495.26450,-4.297887663
495.26500,5.468333383
495.26550,8.52027746
495.26600,5.468333383
495.26650,2.111194898
495.26700,1.500806083
495.26750,2.416389306
495.26800,2.416389306
495.26850,1.806000491
495.26900,1.500806083
495.26950,0.5852228597
495.27000,-1.856332402
495.27050,-5.823859702
495.27100,-8.875803779
495.27150,-9.791387002
495.27200,-9.180998187
495.27250,-6.739442925
495.27300,-2.16152681
495.27350,3.942361344
495.27400,11.26702713
495.27450,17.06572088
495.27500,19.20208173
495.27550,17.67610969
495.27600,14.92936002
495.27650,13.70858239
495.27700,13.09819358
495.27750,10.96183272
495.27800,6.078722198
495.27850,1.195611675
495.27900,-1.245943586
495.27950,-3.077110033
495.28000,-7.960220556
495.28050,-14.97969193
495.28100,-19.25241364
495.28150,-17.7264416
495.28200,-14.06410871
495.28250,-12.23294226
495.28300,-11.01216463
495.28350,-7.655026148
495.28400,-4.603082071
495.28450,-7.655026148
495.28500,-15.28488634
495.28550,-19.25241364
495.28600,-15.28488634
495.28650,-6.739442925
495.28700,3.026778121
495.28750,15.53974884
495.28800,29.57869159
495.28850,37.20855178
495.28900,32.93583008
495.28950,20.72805377
495.29000,11.87741594
495.29050,9.130666275
495.29100,6.689111014
495.29150,1.500806083
495.29200,-0.9407491788
495.29250,3.637166937
495.29300,13.70858239
495.29350,22.25402581
495.29400,25.61116429
495.29450,25.00077548
495.29500,21.9488314
495.29550,16.45533206
495.29600,8.52027746
495.29650,-0.3303603634
495.29700,-9.486192594
495.29750,-15.28488634
495.29800,-14.67449753
495.29850,-8.875803779
495.29900,-1.551137994
495.29950,2.416389306
495.30000,2.416389306
495.30050,0.5852228597
495.30100,-0.3303603634
495.30150,-1.245943586
495.30200,-1.551137994
495.30250,-2.16152681
495.30300,-3.687498848
495.30350,-6.12905411
495.30400,-7.960220556
495.30450,-7.655026148
495.30500,-6.434248517
495.30550,-7.655026148
495.30600,-12.84333108
495.30650,-17.7264416
495.30700,-19.25241364
495.30750,-18.03163601
495.30800,-17.11605279
495.30850,-15.89527516
495.30900,-13.45371989
495.30950,-9.486192594
495.31000,-7.655026148
495.31050,-7.655026148
495.31100,-7.655026148
495.31150,-5.213470887
495.31200,-2.466721217
495.31250,-1.245943586
495.31300,-1.245943586
495.31350,-1.245943586
495.31400,-0.3303603634
495.31450,-0.02516595566
495.31500,-0.02516595566
495.31550,-0.9407491788
495.31600,-1.551137994
495.31650,-0.9407491788
495.31700,0.280028452
495.31750,0.280028452
495.31800,-0.9407491788
495.31850,-1.551137994
495.31900,0.280028452
495.31950,3.637166937
495.32000,5.468333383
495.32050,5.163138975
495.32100,4.857944568
495.32150,4.857944568
495.32200,3.942361344
495.32250,2.721583714
495.32300,2.111194898
495.32350,1.500806083
495.32400,-0.3303603634
495.32450,-3.38230444
495.32500,-4.297887663
495.32550,-1.245943586
495.32600,3.637166937
495.32650,10.65663831
495.32700,20.11766495
495.32750,27.44233074
495.32800,27.13713633
495.32850,17.67610969
495.32900,5.468333383
495.32950,-3.992693256
495.33000,-9.486192594
495.33050,-11.31735904
495.33100,-10.40177582
495.33150,-10.70697023
495.33200,-17.42124719
495.33250,-29.01863469
495.33300,-38.47966133
495.33350,-44.27835507
495.33400,-51.90821526
495.33450,-62.89521394
495.33500,-69.91468532
495.33550,-68.08351887
495.33600,-60.75885309
495.33650,-47.33029915
495.33700,-18.03163601
495.33750,29.883886
495.33800,78.40979682
495.33850,102.8253494
495.33900,98.24743332
495.33950,81.4617409
495.34000,67.11760374
495.34050,55.82541065
495.34100,43.92282875
495.34150,31.10466363
495.34200,17.67610969
495.34250,0.5852228597
495.34300,-19.86280246
495.34350,-38.17446692
495.34400,-47.02510474
495.34450,-44.88874389
495.34500,-36.64849488
495.34550,-26.88227383
495.34600,-19.55760805
495.34650,-15.28488634
495.34700,-11.01216463
495.34750,-3.992693256
495.34800,3.331972529
495.34850,7.299499829
495.34900,6.383916606
495.34950,3.026778121
495.35000,-0.02516595566
495.35050,-3.992693256
495.35100,-8.570609371
495.35150,-11.01216463
495.35200,-10.70697023
495.35250,-9.791387002
495.35300,-8.875803779
495.35350,-5.213470887
495.35400,1.500806083
495.35450,6.994305421
495.35500,3.637166937
495.35550,-8.265414964
495.35600,-20.47319127
495.35650,-24.13552416
495.35700,-17.11605279
495.35750,-5.518665294
495.35800,4.55275016
495.35850,10.96183272
495.35900,14.92936002
495.35950,17.9813041
495.36000,18.28649851
495.36050,14.31897121
495.36100,9.130666275
495.36150,7.909888645
495.36200,13.09819358
495.36250,19.50727614
495.36300,20.72805377
495.36350,17.9813041
495.36400,17.06572088
495.36450,19.81247054
495.36500,21.64363699
495.36550,17.9813041
495.36600,11.26702713
495.36650,6.994305421
495.36700,5.773527791
495.36750,3.942361344
495.36800,0.5852228597
495.36850,-2.16152681
495.36900,-3.38230444
495.36950,-4.603082071
495.37000,-6.739442925
495.37050,-7.960220556
495.37100,-7.655026148
495.37150,-7.044637333
495.37200,-5.213470887
495.37250,0.5852228597
495.37300,10.35144391
495.37350,18.59169291
495.37400,20.72805377
495.37450,19.20208173
495.37500,19.81247054
495.37550,22.86441462
495.37600,21.9488314
495.37650,12.79299917
495.37700,-1.856332402
495.37750,-14.97969193
495.37800,-19.86280246
495.37850,-14.67449753
495.37900,-2.466721217
495.37950,8.215083052
495.38000,8.825471868
495.38050,-0.9407491788
495.38100,-12.23294226
495.38150,-14.06410871
495.38200,-8.265414964
495.38250,-3.687498848
495.38300,-5.823859702
495.38350,-8.875803779
495.38400,-7.044637333
495.38450,-3.687498848
495.38500,-4.603082071
495.38550,-9.180998187
495.38600,-11.01216463
495.38650,-10.09658141
495.38700,-11.01216463
495.38750,-17.7264416
495.38800,-25.05110739
495.38850,-28.10305146
495.38900,-27.49266265
495.38950,-27.18746824
495.39000,-27.49266265
495.39050,-26.27188502
495.39100,-21.6939689
495.39150,-14.67449753
495.39200,-6.434248517
495.39250,1.500806083
495.39300,7.909888645
495.39350,12.48780476
495.39400,17.67610969
495.39450,24.39038666
495.39500,27.44233074
495.39550,22.25402581
495.39600,11.87741594
495.39650,4.55275016
495.39700,5.773527791
495.39750,11.57222154
495.39800,16.15013765
495.39850,17.9813041
495.39900,16.45533206
495.39950,13.09819358
495.40000,9.741055091
495.40050,9.130666275
495.40100,11.87741594
495.40150,14.0137768
495.40200,12.79299917
495.40250,9.130666275
495.40300,6.078722198
495.40350,3.942361344
495.40400,1.195611675
495.40450,-2.16152681
495.40500,-5.823859702
495.40550,-9.180998187
495.40600,-10.70697023
495.40650,-7.34983174
495.40700,0.8904172674
495.40750,9.435860683
495.40800,12.48780476
495.40850,10.0462495
495.40900,9.130666275
495.40950,14.92936002
495.41000,24.08519225
495.41050,29.27349718
495.41100,27.44233074
495.41150,21.64363699
495.41200,14.92936002
495.41250,7.299499829
495.41300,-1.551137994
495.41350,-10.70697023
495.41400,-16.50566397
495.41450,-17.7264416
495.41500,-14.97969193
495.41550,-10.70697023
495.41600,-7.655026148
495.41650,-6.434248517
495.41700,-6.12905411
495.41750,-5.823859702
495.41800,-4.908276479
495.41850,-4.908276479
495.41900,-5.213470887
495.41950,-3.687498848
495.42000,0.280028452
495.42050,3.942361344
495.42100,3.331972529
495.42150,0.5852228597
495.42200,0.5852228597
495.42250,4.247555752
495.42300,7.604694237
495.42350,7.299499829
495.42400,3.637166937
495.42450,-0.3303603634
495.42500,-3.687498848
495.42550,-4.908276479
495.42600,-3.992693256
495.42650,-3.38230444
495.42700,-4.297887663
495.42750,-4.603082071
495.42800,-3.992693256
495.42850,-6.12905411
495.42900,-12.23294226
495.42950,-14.97969193
495.43000,-8.570609371
495.43050,-1.245943586
495.43100,-4.297887663
495.43150,-15.59008075
495.43200,-21.6939689
495.43250,-19.86280246
495.43300,-22.30435772
495.43350,-35.73291166
495.43400,-47.94068796
495.43450,-44.88874389
495.43500,-30.54460673
495.43550,-19.25241364
495.43600,-18.33683042
495.43650,-23.83032976
495.43700,-28.10305146
495.43750,-22.91474653
495.43800,-0.6355547711
495.43850,35.98777415
495.43900,71.69551985
495.43950,91.22796195
495.44000,92.44873958
495.44050,82.07212972
495.44100,67.42279815
495.44150,52.16307776
495.44200,39.65010705
495.44250,28.66310837
495.44300,16.15013765
495.44350,1.806000491
495.44400,-7.044637333
495.44450,-6.434248517
495.44500,-0.02516595566
495.44550,4.247555752
495.44600,4.857944568
495.44650,2.721583714
495.44700,-2.771915625
495.44750,-12.23294226
495.44800,-22.60955213
495.44850,-29.3238291
495.44900,-31.15499554
495.44950,-31.15499554
495.45000,-30.23941232
495.45050,-28.10305146
495.45100,-24.44071857
495.45150,-18.94721923
495.45200,-12.23294226
495.45250,-7.044637333
495.45300,-7.34983174
495.45350,-14.36930312
495.45400,-23.52513535
495.45450,-29.01863469
495.45500,-26.27188502
495.45550,-15.89527516
495.45600,-3.687498848
495.45650,0.8904172674
495.45700,-6.434248517
495.45750,-21.08358009
495.45800,-32.37577317
495.45850,-33.5965508
495.45900,-26.88227383
495.45950,-17.11605279
495.46000,-8.875803779
495.46050,-4.297887663
495.46100,-5.213470887
495.46150,-9.791387002
495.46200,-13.7589143
495.46250,-12.84333108
495.46300,-7.34983174
495.46350,-1.245943586
495.46400,1.195611675
495.46450,-0.3303603634
495.46500,-4.603082071
495.46550,-7.34983174
495.46600,-6.12905411
495.46650,0.5852228597
495.46700,13.70858239
495.46750,30.18908041
495.46800,41.48127349
495.46850,40.26049586
495.46900,26.83194192
495.46950,10.96183272
495.47000,0.280028452
495.47050,-5.823859702
495.47100,-11.01216463
495.47150,-15.28488634
495.47200,-16.50566397
495.47250,-16.81085838
495.47300,-18.03163601
495.47350,-19.25241364
495.47400,-15.89527516
495.47450,-6.739442925
495.47500,3.942361344
495.47550,11.57222154
495.47600,14.92936002
495.47650,15.23455443
495.47700,15.23455443
495.47750,15.23455443
495.47800,14.62416561
495.47850,13.40338798
495.47900,12.79299917
495.47950,14.62416561
495.48000,17.9813041
495.48050,20.72805377
495.48100,21.64363699
495.48150,20.42285936
495.48200,16.76052647
495.48250,11.26702713
495.48300,6.689111014
495.48350,6.078722198
495.48400,8.215083052
495.48450,9.741055091
495.48500,9.435860683
495.48550,10.0462495
495.48600,10.96183272
495.48650,8.215083052
495.48700,-0.02516595566
495.48750,-8.570609371
495.48800,-12.53813667
495.48850,-11.92774786
495.48900,-11.62255345
495.48950,-12.84333108
495.49000,-13.14852549
495.49050,-10.40177582
495.49100,-5.823859702
495.49150,-2.466721217
495.49200,-1.245943586
495.49250,-2.771915625
495.49300,-4.908276479
495.49350,-5.823859702
495.49400,-4.908276479
495.49450,-4.603082071
495.49500,-6.739442925
495.49550,-10.40177582
495.49600,-11.01216463
495.49650,-7.655026148
495.49700,-3.992693256
495.49750,-4.297887663
495.49800,-7.960220556
495.49850,-10.70697023
495.49900,-8.875803779
495.49950,-3.38230444
495.50000,2.416389306
495.50050,7.604694237
495.50100,12.79299917
495.50150,18.59169291
495.50200,22.55922021
495.50250,21.9488314
495.50300,18.59169291
495.50350,17.67610969
495.50400,22.25402581
495.50450,28.96830278
495.50500,32.32544126
495.50550,32.02024685
495.50600,30.79946922
495.50650,29.27349718
495.50700,24.69558107
495.50750,14.92936002
495.50800,3.026778121
495.50850,-7.655026148
495.50900,-16.20046956
495.50950,-21.99916331
495.51000,-24.44071857
495.51050,-24.44071857
495.51100,-22.60955213
495.51150,-20.47319127
495.51200,-17.11605279
495.51250,-13.14852549
495.51300,-10.09658141
495.51350,-9.180998187
495.51400,-10.70697023
495.51450,-15.59008075
495.51500,-23.83032976
495.51550,-32.07057876
495.51600,-34.20693962
495.51650,-27.49266265
495.51700,-15.59008075
495.51750,-3.077110033
495.51800,9.435860683
495.51850,23.16960903
495.51900,36.29296856
495.51950,43.92282875
495.52000,42.70205112
495.52050,35.07219093
495.52100,25.9163587
495.52150,19.50727614
495.52200,16.15013765
495.52250,14.0137768
495.52300,11.87741594
495.52350,9.741055091
495.52400,7.909888645
495.52450,5.468333383
495.52500,3.026778121
495.52550,1.500806083
495.52600,0.5852228597
495.52650,0.280028452
495.52700,0.280028452
495.52750,1.195611675
495.52800,1.500806083
495.52850,-1.245943586
495.52900,-6.434248517
495.52950,-9.180998187
495.53000,-9.791387002
495.53050,-11.01216463
495.53100,-14.67449753
495.53150,-16.81085838
495.53200,-14.67449753
495.53250,-9.486192594
495.53300,-6.434248517
495.53350,-6.739442925
495.53400,-10.40177582
495.53450,-15.59008075
495.53500,-18.33683042
495.53550,-15.59008075
495.53600,-9.791387002
495.53650,-7.34983174
495.53700,-11.01216463
495.53750,-15.59008075
495.53800,-17.42124719
495.53850,-18.64202483
495.53900,-20.47319127
495.53950,-20.47319127
495.54000,-18.33683042
495.54050,-18.33683042
495.54100,-16.81085838
495.54150,0.5852228597
495.54200,39.03971823
495.54250,76.88382479
495.54300,85.12407379
495.54350,62.23449322
495.54400,32.93583008
495.54450,17.37091528
495.54500,12.48780476
495.54550,7.299499829
495.54600,-0.02516595566
495.54650,-3.38230444
495.54700,-3.687498848
495.54750,-4.297887663
495.54800,-4.603082071
495.54850,-2.771915625
495.54900,-1.551137994
495.54950,-5.518665294
495.55000,-15.28488634
495.55050,-25.35630179
495.55100,-30.84980113
495.55150,-30.23941232
495.55200,-25.35630179
495.55250,-21.08358009
495.55300,-18.64202483
495.55350,-14.67449753
495.55400,-6.12905411
495.55450,4.55275016
495.55500,13.70858239
495.55550,21.03324818
495.55600,29.883886
495.55650,38.42932941
495.55700,42.70205112
495.55750,43.31243994
495.55800,44.83841198
495.55850,45.7539952
495.55900,38.12413501
495.55950,20.42285936
495.56000,2.111194898
495.56050,-7.960220556
495.56100,-11.31735904
495.56150,-12.53813667
495.56200,-7.960220556
495.56250,6.383916606
495.56300,25.61116429
495.56350,35.98777415
495.56400,32.02024685
495.56450,21.64363699
495.56500,14.92936002
495.56550,13.70858239
495.56600,13.70858239
495.56650,13.09819358
495.56700,10.35144391
495.56750,3.026778121
495.56800,-8.875803779
495.56850,-23.52513535
495.56900,-36.64849488
495.56950,-47.33029915
495.57000,-56.48613138
495.57050,-63.81079717
495.57100,-70.52507413
495.57150,-80.29129518
495.57200,-92.49907149
495.57250,-98.90815405
495.57300,-92.49907149
495.57350,-77.54454551
495.57400,-63.20040835
495.57450,-50.99263204
495.57500,-36.03810606
495.57550,-19.25241364
495.57600,-7.960220556
495.57650,-6.12905411
495.57700,-7.34983174
495.57750,-5.823859702
495.57800,-2.771915625
495.57850,-0.9407491788
495.57900,2.111194898
495.57950,10.65663831
495.58000,21.64363699
495.58050,29.27349718
495.58100,31.71505245
495.58150,30.79946922
495.58200,27.13713633
495.58250,22.86441462
495.58300,21.64363699
495.58350,25.61116429
495.58400,30.49427481
495.58450,31.40985804
495.58500,27.44233074
495.58550,22.25402581
495.58600,17.67610969
495.58650,13.70858239
495.58700,10.65663831
495.58750,8.825471868
495.58800,7.299499829
495.58850,4.857944568
495.58900,4.55275016
495.58950,9.435860683
495.59000,15.23455443
495.59050,12.48780476
495.59100,1.195611675
495.59150,-6.12905411
495.59200,-1.245943586
495.59250,6.994305421
495.59300,4.247555752
495.59350,-10.09658141
495.59400,-22.91474653
495.59450,-25.96669061
495.59500,-24.13552416
495.59550,-22.60955213
495.59600,-19.25241364
495.59650,-14.36930312
495.59700,-12.53813667
495.59750,-10.40177582
495.59800,5.773527791
495.59850,38.12413501
495.59900,64.67604848
495.59950,64.06565966
495.60000,42.70205112
495.60050,25.61116429
495.60100,22.86441462
495.60150,23.77999785
495.60200,20.42285936
495.60250,17.67610969
495.60300,20.11766495
495.60350,22.25402581
495.60400,19.20208173
495.60450,14.31897121
495.60500,13.09819358
495.60550,12.79299917
495.60600,9.130666275
495.60650,3.942361344
495.60700,1.500806083
495.60750,0.8904172674
495.60800,-1.245943586
495.60850,-5.823859702
495.60900,-9.791387002
495.60950,-13.45371989
495.61000,-18.33683042
495.61050,-22.91474653
495.61100,-23.52513535
495.61150,-18.33683042
495.61200,-10.70697023
495.61250,-4.603082071
495.61300,-2.16152681
495.61350,-1.856332402
495.61400,-0.9407491788
495.61450,-0.02516595566
495.61500,-0.9407491788
495.61550,-3.687498848
495.61600,-5.823859702
495.61650,-6.12905411
495.61700,-5.518665294
495.61750,-6.434248517
495.61800,-7.655026148
495.61850,-6.12905411
495.61900,-2.771915625
495.61950,-0.9407491788
495.62000,-2.466721217
495.62050,-3.687498848
495.62100,-0.3303603634
495.62150,6.078722198
495.62200,11.26702713
495.62250,11.26702713
495.62300,7.909888645
495.62350,3.026778121
495.62400,-0.9407491788
495.62450,-2.771915625
495.62500,-3.077110033
495.62550,-3.687498848
495.62600,-6.739442925
495.62650,-9.180998187
495.62700,-7.34983174
495.62750,-2.466721217
495.62800,1.500806083
495.62850,4.247555752
495.62900,7.299499829
495.62950,10.0462495
495.63000,9.130666275
495.63050,3.331972529
495.63100,-3.687498848
495.63150,-8.265414964
495.63200,-9.180998187
495.63250,-7.655026148
495.63300,-4.908276479
495.63350,-3.38230444
495.63400,-5.213470887
495.63450,-7.044637333
495.63500,-5.213470887
495.63550,-0.9407491788
495.63600,-0.02516595566
495.63650,-2.771915625
495.63700,-6.12905411
495.63750,-7.960220556
495.63800,-9.791387002
495.63850,-11.31735904
495.63900,-10.70697023
495.63950,-8.265414964
495.64000,-7.655026148
495.64050,-7.960220556
495.64100,-3.992693256
495.64150,4.55275016
495.64200,9.741055091
495.64250,5.773527791
495.64300,-1.856332402
495.64350,-5.213470887
495.64400,-2.771915625
495.64450,-1.245943586
495.64500,-2.771915625
495.64550,-4.603082071
495.64600,-5.823859702
495.64650,-7.044637333
495.64700,-8.570609371
495.64750,-9.180998187
495.64800,-9.180998187
495.64850,-10.70697023
495.64900,-13.45371989
495.64950,-14.97969193
495.65000,-13.7589143
495.65050,-9.486192594
495.65100,-3.38230444
495.65150,3.942361344
495.65200,11.26702713
495.65250,19.50727614
495.65300,28.66310837
495.65350,34.76699652
495.65400,32.02024685
495.65450,19.50727614
495.65500,6.078722198
495.65550,0.8904172674
495.65600,3.026778121
495.65650,7.299499829
495.65700,12.48780476
495.65750,22.25402581
495.65800,32.93583008
495.65850,35.98777415
495.65900,28.05271955
495.65950,17.06572088
495.66000,11.57222154
495.66050,10.0462495
495.66100,6.994305421
495.66150,2.111194898
495.66200,-0.02516595566
495.66250,-0.02516595566
495.66300,-1.245943586
495.66350,-5.518665294
495.66400,-8.875803779
495.66450,-8.265414964
495.66500,-6.434248517
495.66550,-6.739442925
495.66600,-11.31735904
495.66650,-18.03163601
495.66700,-21.38877449
495.66750,-15.89527516
495.66800,-2.771915625
495.66850,7.299499829
495.66900,7.299499829
495.66950,-0.3303603634
495.67000,-7.655026148
495.67050,-12.23294226
495.67100,-15.89527516
495.67150,-18.33683042
495.67200,-16.20046956
495.67250,-10.70697023
495.67300,-6.739442925
495.67350,-5.213470887
495.67400,-2.466721217
495.67450,1.806000491
495.67500,4.247555752
495.67550,3.637166937
495.67600,3.331972529
495.67650,4.247555752
495.67700,3.637166937
495.67750,0.8904172674
495.67800,-0.02516595566
495.67850,2.416389306
495.67900,5.163138975
495.67950,6.078722198
495.68000,5.468333383
495.68050,5.468333383
495.68100,6.383916606
495.68150,6.689111014
495.68200,6.689111014
495.68250,4.857944568
495.68300,0.280028452
495.68350,-3.992693256
495.68400,-5.823859702
495.68450,-5.213470887
495.68500,-5.518665294
495.68550,-5.213470887
495.68600,-0.6355547711
495.68650,6.078722198
495.68700,7.604694237
495.68750,0.5852228597
495.68800,-7.655026148
495.68850,-10.70697023
495.68900,-9.791387002
495.68950,-10.40177582
495.69000,-12.53813667
495.69050,-13.14852549
495.69100,-13.45371989
495.69150,-16.50566397
495.69200,-21.08358009
495.69250,-21.08358009
495.69300,-14.97969193
495.69350,-9.180998187
495.69400,-10.09658141
495.69450,-16.20046956
495.69500,-21.99916331
495.69550,-26.88227383
495.69600,-32.68096758
495.69650,-37.86927251
495.69700,-37.86927251
495.69750,-32.68096758
495.69800,-27.49266265
495.69850,-22.60955213
495.69900,-12.23294226
495.69950,5.163138975
495.70000,20.42285936
495.70050,22.86441462
495.70100,15.84494324
495.70150,12.48780476
495.70200,19.81247054
495.70250,30.49427481
495.70300,34.76699652
495.70350,31.10466363
495.70400,24.08519225
495.70450,17.67610969
495.70500,12.79299917
495.70550,8.215083052
495.70600,4.55275016
495.70650,2.416389306
495.70700,1.195611675
495.70750,-0.3303603634
495.70800,-4.297887663
495.70850,-9.180998187
495.70900,-9.791387002
495.70950,-3.077110033
495.71000,7.604694237
495.71050,13.70858239
495.71100,11.87741594
495.71150,7.299499829
495.71200,6.383916606
495.71250,8.215083052
495.71300,6.689111014
495.71350,-2.16152681
495.71400,-15.28488634
495.71450,-26.27188502
495.71500,-29.01863469
495.71550,-22.91474653
495.71600,-12.53813667
495.71650,-4.603082071
495.71700,-0.3303603634
495.71750,2.721583714
495.71800,6.383916606
495.71850,9.741055091
495.71900,14.31897121
495.71950,21.33844258
495.72000,25.9163587
495.72050,21.03324818
495.72100,8.825471868
495.72150,-0.02516595566
495.72200,-3.077110033
495.72250,-7.34983174
495.72300,-17.42124719
495.72350,-25.6614962
495.72400,-26.57707943
495.72450,-23.83032976
495.72500,-18.94721923
495.72550,-2.771915625
495.72600,28.66310837
495.72650,58.57216032
495.72700,63.15007644
495.72750,42.70205112
495.72800,19.20208173
495.72850,7.604694237
495.72900,2.721583714
495.72950,-3.687498848
495.73000,-8.875803779
495.73050,-7.34983174
495.73100,-2.466721217
495.73150,0.5852228597
495.73200,3.331972529
495.73250,7.909888645
495.73300,10.65663831
495.73350,6.383916606
495.73400,-1.245943586
495.73450,-5.823859702
495.73500,-5.823859702
495.73550,-5.823859702
495.73600,-7.960220556
495.73650,-5.823859702
495.73700,6.994305421
495.73750,27.74752515
495.73800,46.05918961
495.73850,52.77346658
495.73900,47.89035605
495.73950,36.90335738
495.74000,25.30596988
495.74050,15.53974884
495.74100,9.435860683
495.74150,7.909888645
495.74200,8.52027746
495.74250,7.909888645
495.74300,5.773527791
495.74350,3.942361344
495.74400,3.942361344
495.74450,3.942361344
495.74500,1.195611675
495.74550,-3.077110033
495.74600,-6.434248517
495.74650,-7.34983174
495.74700,-7.044637333
495.74750,-7.655026148
495.74800,-9.486192594
495.74850,-10.70697023
495.74900,-9.486192594
495.74950,-7.960220556
495.75000,-8.875803779
495.75050,-12.53813667
495.75100,-17.7264416
495.75150,-22.60955213
495.75200,-26.57707943
495.75250,-26.88227383
495.75300,-21.99916331
495.75350,-14.67449753
495.75400,-11.01216463
495.75450,-12.53813667
495.75500,-13.45371989
495.75550,-10.09658141
495.75600,-3.992693256
495.75650,0.8904172674
495.75700,5.163138975
495.75750,10.65663831
495.75800,15.84494324
495.75850,16.76052647
495.75900,14.92936002
495.75950,13.70858239
495.76000,13.70858239
495.76050,11.26702713
495.76100,5.773527791
495.76150,-0.02516595566
495.76200,-2.16152681
495.76250,-2.466721217
495.76300,-1.551137994
495.76350,-0.6355547711
495.76400,-0.3303603634
495.76450,-2.16152681
495.76500,-5.518665294
495.76550,-7.655026148
495.76600,-7.34983174
495.76650,-6.434248517
495.76700,-6.739442925
495.76750,-8.570609371
495.76800,-11.01216463
495.76850,-13.7589143
495.76900,-16.81085838
495.76950,-19.55760805
495.77000,-20.77838568
495.77050,-19.86280246
495.77100,-16.50566397
495.77150,-12.84333108
495.77200,-11.01216463
495.77250,-11.31735904
495.77300,-9.791387002
495.77350,-4.603082071
495.77400,-0.02516595566
495.77450,0.280028452
495.77500,-2.771915625
495.77550,-5.518665294
495.77600,-5.213470887
495.77650,-3.992693256
495.77700,-2.466721217
495.77750,1.806000491
495.77800,11.87741594
495.77850,23.47480344
495.77900,31.71505245
495.77950,33.8514133
495.78000,32.02024685
495.78050,27.13713633
495.78100,19.81247054
495.78150,9.130666275
495.78200,-4.297887663
495.78250,-17.7264416
495.78300,-25.05110739
495.78350,-23.83032976
495.78400,-18.64202483
495.78450,-15.59008075
495.78500,-15.89527516
495.78550,-16.20046956
495.78600,-14.06410871
495.78650,-10.40177582
495.78700,-6.739442925
495.78750,-3.38230444
495.78800,-0.9407491788
495.78850,-0.9407491788
495.78900,-1.551137994
495.78950,-0.6355547711
495.79000,-0.3303603634
495.79050,-3.687498848
495.79100,-8.570609371
495.79150,-8.570609371
495.79200,-2.771915625
495.79250,2.416389306
495.79300,3.637166937
495.79350,5.468333383
495.79400,12.18261035
495.79450,20.72805377
495.79500,24.69558107
495.79550,24.69558107
495.79600,24.69558107
495.79650,22.55922021
495.79700,14.31897121
495.79750,2.416389306
495.79800,-4.297887663
495.79850,-3.077110033
495.79900,3.026778121
495.79950,10.0462495
495.80000,15.84494324
495.80050,20.11766495
495.80100,21.03324818
495.80150,20.11766495
495.80200,21.33844258
495.80250,24.69558107
495.80300,26.52674751
495.80350,24.39038666
495.80400,21.03324818
495.80450,17.67610969
495.80500,11.26702713
495.80550,-0.02516595566
495.80600,-10.70697023
495.80650,-14.97969193
495.80700,-12.53813667
495.80750,-8.265414964
495.80800,-6.434248517
495.80850,-7.960220556
495.80900,-10.40177582
495.80950,-12.84333108
495.81000,-15.28488634
495.81050,-17.7264416
495.81100,-20.16799686
495.81150,-18.94721923
495.81200,-13.45371989
495.81250,-7.960220556
495.81300,-8.265414964
495.81350,-14.36930312
495.81400,-20.77838568
495.81450,-24.74591298
495.81500,-29.01863469
495.81550,-34.20693962
495.81600,-34.51213403
495.81650,-26.27188502
495.81700,-17.42124719
495.81750,-17.11605279
495.81800,-23.21994094
495.81850,-25.96669061
495.81900,-23.52513535
495.81950,-21.99916331
495.82000,-25.05110739
495.82050,-27.18746824
495.82100,-23.52513535
495.82150,-15.89527516
495.82200,-6.739442925
495.82250,3.637166937
495.82300,13.40338798
495.82350,14.62416561
495.82400,6.078722198
495.82450,-3.38230444
495.82500,-6.12905411
495.82550,-4.603082071
495.82600,-5.823859702
495.82650,-8.265414964
495.82700,-5.823859702
495.82750,4.247555752
495.82800,21.64363699
495.82850,47.58516165
495.82900,78.40979682
495.82950,99.77340536
495.83000,93.97471162
495.83050,61.31890999
495.83100,20.11766495
495.83150,-10.09658141
495.83200,-25.35630179
495.83250,-30.84980113
495.83300,-32.37577317
495.83350,-31.46018995
495.83400,-28.10305146
495.83450,-23.83032976
495.83500,-19.55760805
495.83550,-16.20046956
495.83600,-13.45371989
495.83650,-8.265414964
495.83700,-0.9407491788
495.83750,4.247555752
495.83800,4.247555752
495.83850,1.500806083
495.83900,1.500806083
495.83950,4.55275016
495.84000,6.994305421
495.84050,6.689111014
495.84100,5.468333383
495.84150,4.247555752
495.84200,2.111194898
495.84250,-0.6355547711
495.84300,-1.856332402
495.84350,-0.9407491788
495.84400,0.280028452
495.84450,2.111194898
495.84500,6.078722198
495.84550,10.35144391
495.84600,10.96183272
495.84650,8.52027746
495.84700,7.299499829
495.84750,8.825471868
495.84800,7.604694237
495.84850,0.280028452
495.84900,-7.655026148
495.84950,-10.70697023
495.85000,-9.791387002
495.85050,-10.70697023
495.85100,-14.36930312
495.85150,-16.20046956
495.85200,-13.45371989
495.85250,-7.960220556
495.85300,-2.771915625
495.85350,1.806000491
495.85400,8.825471868
495.85450,17.9813041
495.85500,26.83194192
495.85550,31.10466363
495.85600,28.96830278
495.85650,24.39038666
495.85700,21.9488314
495.85750,23.16960903
495.85800,25.30596988
495.85850,25.9163587
495.85900,23.77999785
495.85950,20.42285936
495.86000,15.84494324
495.86050,9.435860683
495.86100,2.111194898
495.86150,-5.213470887
495.86200,-11.62255345
495.86250,-14.67449753
495.86300,-12.84333108
495.86350,-7.960220556
495.86400,-1.245943586
495.86450,7.299499829
495.86500,17.37091528
495.86550,25.30596988
495.86600,25.9163587
495.86650,18.89688732
495.86700,9.435860683
495.86750,2.111194898
495.86800,-1.245943586
495.86850,-3.38230444
495.86900,-5.213470887
495.86950,-7.655026148
495.87000,-10.40177582
495.87050,-12.23294226
495.87100,-13.14852549
495.87150,-13.7589143
495.87200,-14.67449753
495.87250,-15.59008075
495.87300,-15.59008075
495.87350,-15.59008075
495.87400,-15.59008075
495.87450,-14.97969193
495.87500,-13.45371989
495.87550,-12.23294226
495.87600,-11.92774786
495.87650,-11.62255345
495.87700,-11.62255345
495.87750,-12.84333108
495.87800,-14.36930312
495.87850,-13.45371989
495.87900,-10.40177582
495.87950,-9.180998187
495.88000,-10.09658141
495.88050,-7.655026148
495.88100,1.806000491
495.88150,13.70858239
495.88200,18.28649851
495.88250,14.31897121
495.88300,7.604694237
495.88350,2.111194898
495.88400,-2.16152681
495.88450,-6.434248517
495.88500,-8.265414964
495.88550,-6.434248517
495.88600,-3.38230444
495.88650,-1.551137994
495.88700,-0.02516595566
495.88750,3.942361344
495.88800,7.909888645
495.88850,8.215083052
495.88900,3.942361344
495.88950,-0.6355547711
495.89000,-3.38230444
495.89050,-4.603082071
495.89100,-7.044637333
495.89150,-9.486192594
495.89200,-8.570609371
495.89250,-4.908276479
495.89300,-1.245943586
495.89350,1.195611675
495.89400,5.163138975
495.89450,9.435860683
495.89500,11.26702713
495.89550,10.0462495
495.89600,8.825471868
495.89650,8.52027746
495.89700,5.773527791
495.89750,-0.02516595566
495.89800,-6.434248517
495.89850,-12.53813667
495.89900,-18.94721923
495.89950,-24.13552416
495.90000,-23.52513535
495.90050,-16.20046956
495.90100,-7.655026148
495.90150,-0.02516595566
495.90200,8.825471868
495.90250,19.50727614
495.90300,24.69558107
495.90350,19.50727614
495.90400,11.26702713
495.90450,7.909888645
495.90500,7.909888645
495.90550,6.383916606
495.90600,6.078722198
495.90650,11.26702713
495.90700,17.9813041
495.90750,18.89688732
495.90800,12.79299917
495.90850,5.773527791
495.90900,0.5852228597
495.90950,-4.297887663
495.91000,-8.265414964
495.91050,-7.960220556
495.91100,-3.992693256
495.91150,-1.856332402
495.91200,-3.38230444
495.91250,-5.213470887
495.91300,-6.12905411
495.91350,-6.434248517
495.91400,-7.655026148
495.91450,-9.180998187
495.91500,-10.09658141
495.91550,-11.01216463
495.91600,-10.40177582
495.91650,-7.34983174
495.91700,-2.466721217
495.91750,0.280028452
495.91800,-0.3303603634
495.91850,-4.908276479
495.91900,-11.31735904
495.91950,-15.89527516
495.92000,-14.06410871
495.92050,-4.603082071
495.92100,7.604694237
495.92150,17.37091528
495.92200,22.25402581
495.92250,22.86441462
495.92300,18.89688732
495.92350,12.48780476
495.92400,8.215083052
495.92450,7.604694237
495.92500,7.909888645
495.92550,5.773527791
495.92600,2.721583714
495.92650,2.111194898
495.92700,3.026778121
495.92750,2.111194898
495.92800,-1.245943586
495.92850,-5.213470887
495.92900,-8.875803779
495.92950,-13.14852549
495.93000,-17.42124719
495.93050,-20.77838568
495.93100,-22.60955213
495.93150,-22.60955213
495.93200,-19.86280246
495.93250,-14.36930312
495.93300,-8.570609371
495.93350,-4.603082071
495.93400,-1.551137994
495.93450,1.806000491
495.93500,2.721583714
495.93550,-0.9407491788
495.93600,-6.434248517
495.93650,-6.739442925
495.93700,-0.9407491788
495.93750,4.857944568
495.93800,7.299499829
495.93850,9.130666275
495.93900,14.0137768
495.93950,21.33844258
495.94000,29.57869159
495.94050,37.51374619
495.94100,41.17607908
495.94150,37.51374619
495.94200,28.05271955
495.94250,20.42285936
495.94300,17.06572088
495.94350,13.40338798
495.94400,7.909888645
495.94450,3.942361344
495.94500,3.026778121
495.94550,-3.077110033
495.94600,-21.6939689
495.94650,-45.4991327
495.94700,-61.3692419
495.94750,-63.50560276
495.94800,-55.87574257
495.94850,-46.10952152
495.94900,-40.92121659
495.94950,-41.83679981
495.95000,-37.86927251
495.95050,-11.01216463
495.95100,35.68257975
495.95150,72.30590867
495.95200,72.30590867
495.95250,45.14360638
495.95300,21.33844258
495.95350,14.31897121
495.95400,11.57222154
495.95450,2.111194898
495.95500,-7.34983174
495.95550,-9.486192594
495.95600,-8.265414964
495.95650,-10.40177582
495.95700,-13.45371989
495.95750,-12.23294226
495.95800,-8.570609371
495.95850,-6.12905411
495.95900,-4.297887663
495.95950,-1.245943586
495.96000,0.8904172674
495.96050,0.8904172674
495.96100,0.5852228597
495.96150,1.500806083
495.96200,1.806000491
495.96250,0.5852228597
495.96300,0.8904172674
495.96350,2.721583714
495.96400,3.637166937
495.96450,3.331972529
495.96500,6.078722198
495.96550,11.87741594
495.96600,14.31897121
495.96650,9.741055091
495.96700,3.026778121
495.96750,1.806000491
495.96800,4.55275016
495.96850,4.55275016
495.96900,-1.245943586
495.96950,-10.70697023
495.97000,-18.33683042
495.97050,-21.6939689
495.97100,-22.30435772
495.97150,-23.83032976
495.97200,-27.49266265
495.97250,-29.93421791
495.97300,-25.35630179
495.97350,-16.81085838
495.97400,-11.92774786
495.97450,-14.97969193
495.97500,-21.38877449
495.97550,-23.52513535
495.97600,-19.25241364
495.97650,-10.70697023
495.97700,-0.02516595566
495.97750,9.741055091
495.97800,15.84494324
495.97850,15.53974884
495.97900,10.65663831
495.97950,6.689111014
495.98000,9.741055091
495.98050,20.72805377
495.98100,32.32544126
495.98150,33.24102448
495.98200,21.33844258
495.98250,6.078722198
495.98300,0.280028452
495.98350,4.55275016
495.98400,10.35144391
495.98450,11.57222154
495.98500,12.48780476
495.98550,16.76052647
495.98600,20.11766495
495.98650,17.67610969
495.98700,10.35144391
495.98750,3.331972529
495.98800,-0.9407491788
495.98850,-3.687498848
495.98900,-6.12905411
495.98950,-8.265414964
495.99000,-9.486192594
495.99050,-8.875803779
495.99100,-4.908276479
495.99150,0.280028452
495.99200,1.195611675
495.99250,-4.297887663
495.99300,-11.92774786
495.99350,-14.97969193
495.99400,-12.53813667
495.99450,-8.570609371
495.99500,-4.908276479
495.99550,-1.551137994
495.99600,1.195611675
495.99650,2.111194898
495.99700,2.416389306
495.99750,5.773527791
495.99800,11.26702713
495.99850,13.09819358
495.99900,10.65663831
495.99950,9.130666275
496.00000,14.62416561
496.00050,25.9163587
496.00100,35.68257975
496.00150,38.73452382
496.00200,35.98777415
496.00250,32.63063567
496.00300,30.79946922
496.00350,28.35791396
496.00400,20.72805377
496.00450,6.383916606
496.00500,-10.70697023
496.00550,-23.21994094
496.00600,-27.18746824
496.00650,-25.96669061
496.00700,-24.74591298
496.00750,-24.44071857
496.00800,-22.60955213
496.00850,-18.64202483
496.00900,-16.81085838
496.00950,-18.33683042
496.01000,-21.38877449
496.01050,-22.91474653
496.01100,-22.60955213
496.01150,-21.08358009
496.01200,-17.42124719
496.01250,-11.62255345
496.01300,-7.655026148
496.01350,-8.875803779
496.01400,-12.53813667
496.01450,-13.45371989
496.01500,-10.09658141
496.01550,-5.213470887
496.01600,-1.856332402
496.01650,0.280028452
496.01700,2.721583714
496.01750,4.55275016
496.01800,6.078722198
496.01850,8.52027746
496.01900,11.87741594
496.01950,15.53974884
496.02000,19.20208173
496.02050,23.47480344
496.02100,26.52674751
496.02150,27.44233074
496.02200,26.52674751
496.02250,24.69558107
496.02300,22.55922021
496.02350,20.11766495
496.02400,20.11766495
496.02450,22.55922021
496.02500,23.77999785
496.02550,20.11766495
496.02600,11.87741594
496.02650,3.026778121
496.02700,-4.297887663
496.02750,-12.23294226
496.02800,-19.25241364
496.02850,-21.99916331
496.02900,-19.25241364
496.02950,-15.59008075
496.03000,-14.06410871
496.03050,-14.36930312
496.03100,-15.28488634
496.03150,-17.11605279
496.03200,-19.25241364
496.03250,-19.55760805
496.03300,-17.7264416
496.03350,-16.20046956
496.03400,-14.97969193
496.03450,-11.62255345
496.03500,-4.603082071
496.03550,0.8904172674
496.03600,0.280028452
496.03650,-4.297887663
496.03700,-6.739442925
496.03750,-4.603082071
496.03800,-3.077110033
496.03850,-4.908276479
496.03900,-7.044637333
496.03950,-6.434248517
496.04000,-5.823859702
496.04050,-7.044637333
496.04100,-7.655026148
496.04150,-3.38230444
496.04200,3.026778121
496.04250,6.689111014
496.04300,7.299499829
496.04350,9.741055091
496.04400,16.45533206
496.04450,23.77999785
496.04500,30.49427481
496.04550,38.73452382
496.04600,48.19555046
496.04650,52.77346658
496.04700,48.19555046
496.04750,37.51374619
496.04800,27.44233074
496.04850,18.89688732
496.04900,9.130666275
496.04950,-2.771915625
496.05000,-15.59008075
496.05050,-26.88227383
496.05100,-34.51213403
496.05150,-36.95368929
496.05200,-34.81732843
496.05250,-31.46018995
496.05300,-31.15499554
496.05350,-33.2913564
496.05400,-36.34330047
496.05450,-38.78485573
496.05500,-39.70043896
496.05550,-37.2588837
496.05600,-31.46018995
496.05650,-24.44071857
496.05700,-19.55760805
496.05750,-16.50566397
496.05800,-12.23294226
496.05850,-3.687498848
496.05900,8.825471868
496.05950,21.33844258
496.06000,29.27349718
496.06050,33.8514133
496.06100,38.73452382
496.06150,45.44880079
496.06200,49.7215225
496.06250,48.19555046
496.06300,43.31243994
496.06350,38.73452382
496.06400,31.71505245
496.06450,18.89688732
496.06500,3.331972529
496.06550,-8.570609371
496.06600,-16.50566397
496.06650,-24.74591298
496.06700,-31.76538436
496.06750,-34.20693962
496.06800,-34.81732843
496.06850,-37.86927251
496.06900,-36.03810606
496.06950,-14.67449753
496.07000,22.25402581
496.07050,49.11113368
496.07100,47.89035605
496.07150,28.35791396
496.07200,12.48780476
496.07250,5.163138975
496.07300,-1.551137994
496.07350,-11.01216463
496.07400,-14.67449753
496.07450,-10.70697023
496.07500,-4.603082071
496.07550,-0.9407491788
496.07600,1.500806083
496.07650,2.721583714
496.07700,1.195611675
496.07750,-0.6355547711
496.07800,1.195611675
496.07850,8.52027746
496.07900,15.23455443
496.07950,16.76052647
496.08000,13.09819358
496.08050,6.383916606
496.08100,-0.6355547711
496.08150,-4.603082071
496.08200,-2.771915625
496.08250,0.5852228597
496.08300,0.8904172674
496.08350,-0.3303603634
496.08400,-0.02516595566
496.08450,1.195611675
496.08500,-0.02516595566
496.08550,-3.38230444
496.08600,-4.603082071
496.08650,-3.077110033
496.08700,-2.771915625
496.08750,-5.213470887
496.08800,-7.34983174
496.08850,-8.570609371
496.08900,-12.53813667
496.08950,-18.64202483
496.09000,-21.99916331
496.09050,-20.47319127
496.09100,-18.64202483
496.09150,-20.47319127
496.09200,-24.44071857
496.09250,-26.27188502
496.09300,-25.05110739
496.09350,-21.38877449
496.09400,-14.67449753
496.09450,-4.908276479
496.09500,5.163138975
496.09550,13.40338798
496.09600,18.59169291
496.09650,20.42285936
496.09700,18.59169291
496.09750,14.31897121
496.09800,9.130666275
496.09850,2.721583714
496.09900,-5.823859702
496.09950,-14.06410871
496.10000,-15.59008075
496.10050,-10.40177582
496.10100,-5.518665294
496.10150,-5.518665294
496.10200,-6.739442925
496.10250,-3.992693256
496.10300,-0.02516595566
496.10350,-0.6355547711
496.10400,-2.771915625
496.10450,0.5852228597
496.10500,11.26702713
496.10550,20.72805377
496.10600,22.55922021
496.10650,20.11766495
496.10700,19.50727614
496.10750,21.33844258
496.10800,22.55922021
496.10850,21.64363699
496.10900,19.20208173
496.10950,14.92936002
496.11000,7.909888645
496.11050,-1.245943586
496.11100,-11.62255345
496.11150,-21.6939689
496.11200,-29.3238291
496.11250,-32.98616199
496.11300,-33.2913564
496.11350,-31.46018995
496.11400,-28.40824587
496.11450,-23.52513535
496.11500,-18.64202483
496.11550,-17.11605279
496.11600,-17.7264416
496.11650,-11.92774786
496.11700,2.721583714
496.11750,18.89688732
496.11800,24.69558107
496.11850,18.89688732
496.11900,11.87741594
496.11950,9.741055091
496.12000,10.65663831
496.12050,9.435860683
496.12100,6.994305421
496.12150,6.078722198
496.12200,6.689111014
496.12250,7.299499829
496.12300,7.909888645
496.12350,10.35144391
496.12400,13.09819358
496.12450,14.92936002
496.12500,15.23455443
496.12550,14.62416561
496.12600,13.09819358
496.12650,10.96183272
496.12700,9.741055091
496.12750,9.130666275
496.12800,7.299499829
496.12850,3.331972529
496.12900,-1.245943586
496.12950,-4.908276479
496.13000,-7.34983174
496.13050,-10.40177582
496.13100,-12.53813667
496.13150,-12.84333108
496.13200,-10.09658141
496.13250,-7.960220556
496.13300,-9.791387002
496.13350,-15.59008075
496.13400,-21.6939689
496.13450,-24.74591298
496.13500,-22.91474653
496.13550,-18.03163601
496.13600,-10.70697023
496.13650,-0.9407491788
496.13700,9.130666275
496.13750,15.23455443
496.13800,15.84494324
496.13850,16.15013765
496.13900,21.9488314
496.13950,31.40985804
496.14000,35.98777415
496.14050,32.02024685
496.14100,24.08519225
496.14150,17.9813041
496.14200,13.40338798
496.14250,6.383916606
496.14300,-1.245943586
496.14350,-4.603082071
496.14400,-4.908276479
496.14450,-6.434248517
496.14500,-10.09658141
496.14550,-11.62255345
496.14600,-7.34983174
496.14650,-1.856332402
496.14700,-0.02516595566
496.14750,-0.02516595566
496.14800,0.5852228597
496.14850,2.416389306
496.14900,3.331972529
496.14950,5.773527791
496.15000,11.26702713
496.15050,17.67610969
496.15100,20.72805377
496.15150,19.50727614
496.15200,16.45533206
496.15250,11.87741594
496.15300,4.857944568
496.15350,-3.38230444
496.15400,-10.70697023
496.15450,-18.03163601
496.15500,-26.57707943
496.15550,-33.90174521
496.15600,-35.73291166
496.15650,-32.98616199
496.15700,-30.84980113
496.15750,-32.37577317
496.15800,-35.73291166
496.15850,-40.31082777
496.15900,-43.66796626
496.15950,-40.31082777
496.16000,-27.79785706
496.16050,-11.92774786
496.16100,-2.466721217
496.16150,-2.16152681
496.16200,-5.213470887
496.16250,-6.739442925
496.16300,-5.213470887
496.16350,-0.02516595566
496.16400,5.468333383
496.16450,4.55275016
496.16500,-2.466721217
496.16550,-0.9407491788
496.16600,21.33844258
496.16650,50.94230013
496.16700,58.26696592
496.16750,34.76699652
496.16800,2.111194898
496.16850,-14.67449753
496.16900,-13.14852549
496.16950,-3.077110033
496.17000,6.994305421
496.17050,13.70858239
496.17100,13.40338798
496.17150,7.604694237
496.17200,2.111194898
496.17250,0.280028452
496.17300,-0.3303603634
496.17350,-0.02516595566
496.17400,7.909888645
496.17450,21.33844258
496.17500,28.35791396
496.17550,21.33844258
496.17600,8.825471868
496.17650,2.721583714
496.17700,4.857944568
496.17750,8.52027746
496.17800,10.35144391
496.17850,11.57222154
496.17900,11.57222154
496.17950,8.52027746
496.18000,4.247555752
496.18050,2.416389306
496.18100,3.331972529
496.18150,4.55275016
496.18200,4.247555752
496.18250,3.331972529
496.18300,3.026778121
496.18350,5.163138975
496.18400,10.96183272
496.18450,17.37091528
496.18500,19.20208173
496.18550,14.62416561
496.18600,6.994305421
496.18650,-0.02516595566
496.18700,-5.518665294
496.18750,-11.01216463
496.18800,-14.67449753
496.18850,-14.67449753
496.18900,-12.53813667
496.18950,-11.31735904
496.19000,-12.23294226
496.19050,-13.14852549
496.19100,-13.14852549
496.19150,-13.14852549
496.19200,-14.67449753
496.19250,-17.11605279
496.19300,-18.33683042
496.19350,-16.81085838
496.19400,-13.7589143
496.19450,-11.62255345
496.19500,-13.14852549
496.19550,-16.50566397
496.19600,-17.7264416
496.19650,-14.36930312
496.19700,-8.570609371
496.19750,-2.771915625
496.19800,1.500806083
496.19850,6.994305421
496.19900,14.0137768
496.19950,21.03324818
496.20000,26.52674751
496.20050,30.18908041
496.20100,33.8514133
496.20150,35.98777415
496.20200,33.8514133
496.20250,25.9163587
496.20300,14.62416561
496.20350,4.857944568
496.20400,-0.9407491788
496.20450,-4.908276479
496.20500,-7.34983174
496.20550,-7.34983174
496.20600,-5.518665294
496.20650,-4.908276479
496.20700,-6.739442925
496.20750,-9.791387002
496.20800,-11.62255345
496.20850,-12.84333108
496.20900,-14.97969193
496.20950,-16.81085838
496.21000,-15.89527516
496.21050,-11.31735904
496.21100,-6.12905411
496.21150,-2.16152681
496.21200,-0.3303603634
496.21250,-2.771915625
496.21300,-9.180998187
496.21350,-14.36930312
496.21400,-13.14852549
496.21450,-5.823859702
496.21500,0.280028452
496.21550,1.806000491
496.21600,-0.02516595566
496.21650,-1.856332402
496.21700,-3.687498848
496.21750,-5.213470887
496.21800,-4.908276479
496.21850,-1.856332402
496.21900,1.195611675
496.21950,3.637166937
496.22000,6.383916606
496.22050,11.26702713
496.22100,14.62416561
496.22150,14.62416561
496.22200,13.09819358
496.22250,13.70858239
496.22300,14.92936002
496.22350,12.79299917
496.22400,5.468333383
496.22450,-3.687498848
496.22500,-12.53813667
496.22550,-17.7264416
496.22600,-17.42124719
496.22650,-13.45371989
496.22700,-9.791387002
496.22750,-9.486192594
496.22800,-10.40177582
496.22850,-10.09658141
496.22900,-10.40177582
496.22950,-11.31735904
496.23000,-9.486192594
496.23050,-2.16152681
496.23100,5.163138975
496.23150,6.689111014
496.23200,6.383916606
496.23250,10.0462495
496.23300,14.31897121
496.23350,8.825471868
496.23400,-6.12905411
496.23450,-18.33683042
496.23500,-18.94721923
496.23550,-12.84333108
496.23600,-7.044637333
496.23650,-0.6355547711
496.23700,7.299499829
496.23750,11.26702713
496.23800,6.383916606
496.23850,-1.245943586
496.23900,-4.603082071
496.23950,-5.518665294
496.24000,-10.09658141
496.24050,-15.89527516
496.24100,-13.7589143
496.24150,-0.9407491788
496.24200,14.62416561
496.24250,24.69558107
496.24300,25.9163587
496.24350,20.72805377
496.24400,16.76052647
496.24450,21.33844258
496.24500,31.10466363
496.24550,35.07219093
496.24600,27.74752515
496.24650,18.28649851
496.24700,17.37091528
496.24750,19.50727614
496.24800,13.40338798
496.24850,-1.551137994
496.24900,-16.20046956
496.24950,-23.83032976
496.25000,-27.49266265
496.25050,-28.40824587
496.25100,-21.38877449
496.25150,-6.434248517
496.25200,5.773527791
496.25250,8.52027746
496.25300,5.163138975
496.25350,3.331972529
496.25400,5.163138975
496.25450,6.689111014
496.25500,5.163138975
496.25550,2.721583714
496.25600,0.8904172674
496.25650,-1.551137994
496.25700,-8.265414964
496.25750,-20.77838568
496.25800,-34.51213403
496.25850,-41.83679981
496.25900,-41.5316054
496.25950,-39.09005014
496.26000,-40.31082777
496.26050,-40.00563336
496.26100,-30.54460673
496.26150,-12.53813667
496.26200,5.163138975
496.26250,17.37091528
496.26300,24.08519225
496.26350,26.52674751
496.26400,25.61116429
496.26450,23.77999785
496.26500,25.30596988
496.26550,28.96830278
496.26600,28.96830278
496.26650,23.16960903
496.26700,15.84494324
496.26750,12.18261035
496.26800,9.741055091
496.26850,3.637166937
496.26900,-6.434248517
496.26950,-14.97969193
496.27000,-15.89527516
496.27050,-11.01216463
496.27100,-5.518665294
496.27150,-2.466721217
496.27200,-1.551137994
496.27250,-0.6355547711
496.27300,0.5852228597
496.27350,2.416389306
496.27400,2.111194898
496.27450,0.5852228597
496.27500,-0.9407491788
496.27550,-1.245943586
496.27600,-0.02516595566
496.27650,2.416389306
496.27700,3.942361344
496.27750,3.637166937
496.27800,1.195611675
496.27850,-2.466721217
496.27900,-5.823859702
496.27950,-6.739442925
496.28000,-3.38230444
496.28050,3.026778121
496.28100,9.435860683
496.28150,11.87741594
496.28200,11.87741594
496.28250,12.79299917
496.28300,15.84494324
496.28350,19.50727614
496.28400,23.16960903
496.28450,27.74752515
496.28500,31.10466363
496.28550,30.79946922
496.28600,26.83194192
496.28650,21.64363699
496.28700,14.92936002
496.28750,4.55275016
496.28800,-9.486192594
496.28850,-24.44071857
496.28900,-37.2588837
496.28950,-46.71991033
496.29000,-51.90821526
496.29050,-50.38224323
496.29100,-42.75238303
496.29150,-32.98616199
496.29200,-25.35630179
496.29250,-20.16799686
496.29300,-16.81085838
496.29350,-14.67449753
496.29400,-11.62255345
496.29450,-7.655026148
496.29500,-3.992693256
496.29550,-4.603082071
496.29600,-7.960220556
496.29650,-8.570609371
496.29700,-4.908276479
496.29750,-0.9407491788
496.29800,0.5852228597
496.29850,2.721583714
496.29900,10.35144391
496.29950,21.64363699
496.30000,28.35791396
496.30050,24.69558107
496.30100,15.84494324
496.30150,11.57222154
496.30200,14.31897121
496.30250,16.15013765
496.30300,10.35144391
496.30350,0.5852228597
496.30400,-6.434248517
496.30450,-11.92774786
496.30500,-21.08358009
496.30550,-26.57707943
496.30600,-13.14852549
496.30650,20.42285936
496.30700,50.33191132
496.30750,52.77346658
496.30800,32.02024685
496.30850,10.96183272
496.30900,3.637166937
496.30950,3.026778121
496.31000,-0.02516595566
496.31050,-3.992693256
496.31100,-4.297887663
496.31150,-2.466721217
496.31200,-3.687498848
496.31250,-6.739442925
496.31300,-5.213470887
496.31350,2.111194898
496.31400,9.435860683
496.31450,10.65663831
496.31500,5.468333383
496.31550,-0.6355547711
496.31600,-4.603082071
496.31650,-5.823859702
496.31700,-4.297887663
496.31750,-0.9407491788
496.31800,3.026778121
496.31850,6.689111014
496.31900,8.825471868
496.31950,10.65663831
496.32000,12.18261035
496.32050,13.09819358
496.32100,12.79299917
496.32150,10.96183272
496.32200,7.299499829
496.32250,1.500806083
496.32300,-4.603082071
496.32350,-8.570609371
496.32400,-9.180998187
496.32450,-9.180998187
496.32500,-11.31735904
496.32550,-14.36930312
496.32600,-15.89527516
496.32650,-15.59008075
496.32700,-16.50566397
496.32750,-18.33683042
496.32800,-16.20046956
496.32850,-8.265414964
496.32900,2.416389306
496.32950,9.741055091
496.33000,11.26702713
496.33050,9.435860683
496.33100,7.909888645
496.33150,6.383916606
496.33200,2.416389306
496.33250,-4.908276479
496.33300,-13.14852549
496.33350,-17.11605279
496.33400,-15.59008075
496.33450,-12.23294226
496.33500,-11.31735904
496.33550,-12.84333108
496.33600,-15.59008075
496.33650,-19.55760805
496.33700,-23.52513535
496.33750,-24.74591298
496.33800,-20.77838568
496.33850,-11.31735904
496.33900,-0.3303603634
496.33950,6.994305421
496.34000,8.215083052
496.34050,5.163138975
496.34100,5.468333383
496.34150,13.70858239
496.34200,25.9163587
496.34250,32.93583008
496.34300,30.18908041
496.34350,22.55922021
496.34400,15.53974884
496.34450,9.741055091
496.34500,4.55275016
496.34550,2.416389306
496.34600,5.163138975
496.34650,9.741055091
496.34700,12.18261035
496.34750,11.87741594
496.34800,12.18261035
496.34850,14.0137768
496.34900,16.45533206
496.34950,17.67610969
496.35000,16.76052647
496.35050,11.57222154
496.35100,2.111194898
496.35150,-7.044637333
496.35200,-11.62255345
496.35250,-12.23294226
496.35300,-13.45371989
496.35350,-18.64202483
496.35400,-26.27188502
496.35450,-32.37577317
496.35500,-34.81732843
496.35550,-32.68096758
496.35600,-27.18746824
496.35650,-19.86280246
496.35700,-12.23294226
496.35750,-5.213470887
496.35800,-0.02516595566
496.35850,0.5852228597
496.35900,-2.771915625
496.35950,-7.34983174
496.36000,-9.180998187
496.36050,-7.960220556
496.36100,-3.687498848
496.36150,3.026778121
496.36200,12.48780476
496.36250,19.50727614
496.36300,19.81247054
496.36350,15.53974884
496.36400,12.48780476
496.36450,12.18261035
496.36500,11.87741594
496.36550,9.741055091
496.36600,6.994305421
496.36650,3.331972529
496.36700,-0.9407491788
496.36750,-5.518665294
496.36800,-6.434248517
496.36850,-3.992693256
496.36900,-1.551137994
496.36950,-0.02516595566
496.37000,-0.3303603634
496.37050,-2.771915625
496.37100,-9.486192594
496.37150,-17.11605279
496.37200,-19.86280246
496.37250,-16.81085838
496.37300,-15.59008075
496.37350,-19.55760805
496.37400,-24.44071857
496.37450,-26.57707943
496.37500,-28.40824587
496.37550,-30.54460673
496.37600,-23.83032976
496.37650,-2.466721217
496.37700,22.86441462
496.37750,35.07219093
496.37800,30.18908041
496.37850,22.55922021
496.37900,22.25402581
496.37950,24.08519225
496.38000,20.11766495
496.38050,13.40338798
496.38100,10.35144391
496.38150,12.18261035
496.38200,12.48780476
496.38250,9.741055091
496.38300,7.604694237
496.38350,8.215083052
496.38400,9.130666275
496.38450,7.299499829
496.38500,2.111194898
496.38550,-2.771915625
496.38600,-5.518665294
496.38650,-4.603082071
496.38700,-1.245943586
496.38750,2.416389306
496.38800,5.468333383
496.38850,7.299499829
496.38900,7.909888645
496.38950,7.604694237
496.39000,7.299499829
496.39050,6.078722198
496.39100,2.416389306
496.39150,-3.077110033
496.39200,-6.434248517
496.39250,-3.687498848
496.39300,1.500806083
496.39350,4.55275016
496.39400,5.163138975
496.39450,5.163138975
496.39500,4.55275016
496.39550,1.195611675
496.39600,-1.245943586
496.39650,2.721583714
496.39700,10.96183272
496.39750,14.0137768
496.39800,7.604694237
496.39850,0.5852228597
496.39900,2.721583714
496.39950,13.09819358
496.40000,20.72805377
496.40050,17.9813041
496.40100,7.299499829
496.40150,-3.077110033
496.40200,-7.044637333
496.40250,-3.687498848
496.40300,1.195611675
496.40350,3.026778121
496.40400,0.8904172674
496.40450,-1.245943586
496.40500,-2.466721217
496.40550,-3.687498848
496.40600,-4.908276479
496.40650,-3.38230444
496.40700,0.5852228597
496.40750,3.331972529
496.40800,1.500806083
496.40850,-0.9407491788
496.40900,-0.6355547711
496.40950,-0.02516595566
496.41000,-1.551137994
496.41050,-5.823859702
496.41100,-8.570609371
496.41150,-6.739442925
496.41200,-1.856332402
496.41250,4.247555752
496.41300,10.65663831
496.41350,14.0137768
496.41400,12.18261035
496.41450,7.299499829
496.41500,2.721583714
496.41550,-0.3303603634
496.41600,-3.992693256
496.41650,-10.40177582
496.41700,-18.03163601
496.41750,-24.74591298
496.41800,-28.10305146
496.41850,-27.49266265
496.41900,-23.52513535
496.41950,-18.03163601
496.42000,-12.84333108
496.42050,-7.655026148
496.42100,-3.077110033
496.42150,-0.02516595566
496.42200,0.5852228597
496.42250,1.806000491
496.42300,5.163138975
496.42350,8.825471868
496.42400,9.130666275
496.42450,5.773527791
496.42500,1.195611675
496.42550,-3.687498848
496.42600,-9.791387002
496.42650,-15.28488634
496.42700,-15.89527516
496.42750,-10.70697023
496.42800,-3.38230444
496.42850,0.5852228597
496.42900,1.195611675
496.42950,-1.551137994
496.43000,-7.044637333
496.43050,-12.23294226
496.43100,-12.53813667
496.43150,-9.180998187
496.43200,-8.265414964
496.43250,-13.7589143
496.43300,-20.47319127
496.43350,-21.08358009
496.43400,-17.42124719
496.43450,-15.28488634
496.43500,-15.89527516
496.43550,-14.06410871
496.43600,-7.655026148
496.43650,-0.6355547711
496.43700,2.416389306
496.43750,2.416389306
496.43800,1.195611675
496.43850,-0.02516595566
496.43900,-1.551137994
496.43950,-1.551137994
496.44000,-0.6355547711
496.44050,-0.02516595566
496.44100,-0.9407491788
496.44150,-0.9407491788
496.44200,-0.02516595566
496.44250,0.280028452
496.44300,-0.9407491788
496.44350,-1.551137994
496.44400,0.5852228597
496.44450,4.247555752
496.44500,6.078722198
496.44550,5.468333383
496.44600,3.637166937
496.44650,0.8904172674
496.44700,-2.466721217
496.44750,-2.16152681
496.44800,6.078722198
496.44850,20.11766495
496.44900,30.79946922
496.44950,31.71505245
496.45000,26.52674751
496.45050,22.55922021
496.45100,21.33844258
496.45150,20.42285936
496.45200,17.9813041
496.45250,15.84494324
496.45300,14.92936002
496.45350,13.40338798
496.45400,11.87741594
496.45450,12.48780476
496.45500,14.62416561
496.45550,14.92936002
496.45600,12.18261035
496.45650,9.130666275
496.45700,8.215083052
496.45750,5.468333383
496.45800,-2.16152681
496.45850,-11.31735904
496.45900,-15.59008075
496.45950,-15.89527516
496.46000,-16.81085838
496.46050,-17.11605279
496.46100,-11.62255345
496.46150,-0.02516595566
496.46200,10.35144391
496.46250,14.0137768
496.46300,11.57222154
496.46350,6.689111014
496.46400,2.721583714
496.46450,2.416389306
496.46500,4.55275016
496.46550,2.416389306
496.46600,-6.739442925
496.46650,-15.89527516
496.46700,-15.28488634
496.46750,-8.265414964
496.46800,-6.739442925
496.46850,-12.84333108
496.46900,-17.11605279
496.46950,-15.28488634
496.47000,-13.14852549
496.47050,-9.791387002
496.47100,5.468333383
496.47150,32.63063567
496.47200,49.7215225
496.47250,38.73452382
496.47300,9.741055091
496.47350,-11.01216463
496.47400,-15.89527516
496.47450,-17.11605279
496.47500,-22.91474653
496.47550,-26.27188502
496.47600,-21.08358009
496.47650,-11.62255345
496.47700,-5.518665294
496.47750,-2.466721217
496.47800,0.8904172674
496.47850,7.299499829
496.47900,14.0137768
496.47950,17.9813041
496.48000,17.9813041
496.48050,14.92936002
496.48100,11.87741594
496.48150,10.65663831
496.48200,8.52027746
496.48250,4.55275016
496.48300,1.806000491
496.48350,3.331972529
496.48400,8.215083052
496.48450,13.70858239
496.48500,19.20208173
496.48550,25.9163587
496.48600,31.10466363
496.48650,31.40985804
496.48700,26.22155311
496.48750,17.9813041
496.48800,8.52027746
496.48850,-1.245943586
496.48900,-9.486192594
496.48950,-13.7589143
496.49000,-15.59008075
496.49050,-17.42124719
496.49100,-18.33683042
496.49150,-17.11605279
496.49200,-16.20046956
496.49250,-18.33683042
496.49300,-20.77838568
496.49350,-20.47319127
496.49400,-18.33683042
496.49450,-18.94721923
496.49500,-21.99916331
496.49550,-23.21994094
496.49600,-19.86280246
496.49650,-14.36930312
496.49700,-8.570609371
496.49750,-3.077110033
496.49800,1.500806083
496.49850,3.942361344
496.49900,3.942361344
496.49950,2.721583714
496.50000,-0.02516595566
496.50050,-3.38230444
496.50100,-7.34983174
496.50150,-9.486192594
496.50200,-11.62255345
496.50250,-14.06410871
496.50300,-13.14852549
496.50350,-6.434248517
496.50400,0.8904172674
496.50450,1.195611675
496.50500,-5.823859702
496.50550,-11.31735904
496.50600,-9.180998187
496.50650,-3.687498848
496.50700,-0.6355547711
496.50750,-0.6355547711
496.50800,-1.245943586
496.50850,-1.551137994
496.50900,-2.16152681
496.50950,-3.077110033
496.51000,-3.38230444
496.51050,-3.992693256
496.51100,-5.213470887
496.51150,-6.12905411
496.51200,-5.823859702
496.51250,-5.823859702
496.51300,-7.34983174
496.51350,-8.875803779
496.51400,-8.875803779
496.51450,-7.960220556
496.51500,-7.34983174
496.51550,-7.34983174
496.51600,-8.570609371
496.51650,-12.23294226
496.51700,-18.64202483
496.51750,-24.13552416
496.51800,-24.13552416
496.51850,-19.86280246
496.51900,-15.28488634
496.51950,-12.23294226
496.52000,-9.486192594
496.52050,-4.297887663
496.52100,5.163138975
496.52150,22.86441462
496.52200,46.97477283
496.52250,69.25396459
496.52300,79.93576886
496.52350,75.05265834
496.52400,59.18254914
496.52450,40.26049586
496.52500,22.25402581
496.52550,9.130666275
496.52600,3.026778121
496.52650,4.247555752
496.52700,7.909888645
496.52750,9.435860683
496.52800,6.689111014
496.52850,2.111194898
496.52900,-1.245943586
496.52950,-3.38230444
496.53000,-5.823859702
496.53050,-9.791387002
496.53100,-14.67449753
496.53150,-18.64202483
496.53200,-21.08358009
496.53250,-21.99916331
496.53300,-21.99916331
496.53350,-19.55760805
496.53400,-13.45371989
496.53450,-5.518665294
496.53500,0.5852228597
496.53550,2.416389306
496.53600,2.721583714
496.53650,3.942361344
496.53700,6.994305421
496.53750,8.52027746
496.53800,6.383916606
496.53850,2.111194898
496.53900,-0.02516595566
496.53950,0.280028452
496.54000,0.8904172674
496.54050,-0.6355547711
496.54100,-2.466721217
496.54150,-2.771915625
496.54200,-2.16152681
496.54250,-2.466721217
496.54300,-3.077110033
496.54350,-2.16152681
496.54400,2.111194898
496.54450,7.909888645
496.54500,11.57222154
496.54550,10.65663831
496.54600,5.468333383
496.54650,1.806000491
496.54700,5.773527791
496.54750,15.53974884
496.54800,21.64363699
496.54850,19.50727614
496.54900,14.92936002
496.54950,16.15013765
496.55000,19.20208173
496.55050,14.62416561
496.55100,2.416389306
496.55150,-7.34983174
496.55200,-11.92774786
496.55250,-16.81085838
496.55300,-26.27188502
496.55350,-32.68096758
496.55400,-30.54460673
496.55450,-25.05110739
496.55500,-24.44071857
496.55550,-27.79785706
496.55600,-27.79785706
496.55650,-25.35630179
496.55700,-25.05110739
496.55750,-25.35630179
496.55800,-21.99916331
496.55850,-15.59008075
496.55900,-12.53813667
496.55950,-14.36930312
496.56000,-15.28488634
496.56050,-10.70697023
496.56100,-2.466721217
496.56150,4.857944568
496.56200,9.741055091
496.56250,12.48780476
496.56300,14.92936002
496.56350,17.9813041
496.56400,20.72805377
496.56450,21.64363699
496.56500,21.03324818
496.56550,22.25402581
496.56600,25.61116429
496.56650,26.52674751
496.56700,19.81247054
496.56750,9.435860683
496.56800,3.942361344
496.56850,5.163138975
496.56900,6.689111014
496.56950,3.942361344
496.57000,-0.02516595566
496.57050,-0.9407491788
496.57100,-0.3303603634
496.57150,-1.856332402
496.57200,-6.12905411
496.57250,-9.791387002
496.57300,-11.01216463
496.57350,-10.40177582
496.57400,-10.70697023
496.57450,-11.62255345
496.57500,-11.92774786
496.57550,-9.180998187
496.57600,-3.687498848
496.57650,1.500806083
496.57700,3.331972529
496.57750,1.806000491
496.57800,-0.6355547711
496.57850,-2.466721217
496.57900,-3.077110033
496.57950,-1.856332402
496.58000,0.5852228597
496.58050,4.55275016
496.58100,6.994305421
496.58150,7.299499829
496.58200,7.909888645
496.58250,11.87741594
496.58300,19.81247054
496.58350,29.883886
496.58400,38.42932941
496.58450,42.70205112
496.58500,40.56569027
496.58550,34.46180211
496.58600,28.05271955
496.58650,22.86441462
496.58700,17.06572088
496.58750,8.52027746
496.58800,-0.02516595566
496.58850,-5.213470887
496.58900,-6.434248517
496.58950,-7.044637333
496.59000,-9.791387002
496.59050,-13.7589143
496.59100,-17.7264416
496.59150,-21.6939689
496.59200,-25.6614962
496.59250,-29.3238291
496.59300,-31.15499554
496.59350,-29.6290235
496.59400,-25.05110739
496.59450,-19.55760805
496.59500,-15.89527516
496.59550,-14.67449753
496.59600,-12.23294226
496.59650,-6.12905411
496.59700,4.247555752
496.59750,18.28649851
496.59800,34.15660771
496.59850,47.89035605
496.59900,53.6890498
496.59950,49.41632809
496.60000,39.95530145
496.60050,30.79946922
496.60100,23.47480344
496.60150,15.23455443
496.60200,5.163138975
496.60250,-2.771915625
496.60300,-6.434248517
496.60350,-5.213470887
496.60400,-1.551137994
496.60450,1.500806083
496.60500,2.721583714
496.60550,0.8904172674
496.60600,-0.9407491788
496.60650,-1.856332402
496.60700,-2.16152681
496.60750,-3.687498848
496.60800,-6.434248517
496.60850,-8.570609371
496.60900,-10.09658141
496.60950,-12.23294226
496.61000,-16.50566397
496.61050,-21.6939689
496.61100,-26.57707943
496.61150,-29.6290235
496.61200,-29.93421791
496.61250,-26.57707943
496.61300,-22.60955213
496.61350,-20.77838568
496.61400,-21.38877449
496.61450,-20.77838568
496.61500,-16.20046956
496.61550,-10.09658141
496.61600,-4.297887663
496.61650,2.416389306
496.61700,11.57222154
496.61750,18.59169291
496.61800,17.9813041
496.61850,10.35144391
496.61900,2.416389306
496.61950,-0.02516595566
496.62000,0.5852228597
496.62050,1.195611675
496.62100,1.500806083
496.62150,2.416389306
496.62200,4.247555752
496.62250,3.637166937
496.62300,0.5852228597
496.62350,-1.551137994
496.62400,-0.6355547711
496.62450,1.500806083
496.62500,2.111194898
496.62550,-0.3303603634
496.62600,-3.992693256
496.62650,-5.823859702
496.62700,-5.823859702
496.62750,-4.603082071
496.62800,-3.077110033
496.62850,-2.16152681
496.62900,-3.077110033
496.62950,-4.603082071
496.63000,-5.213470887
496.63050,-5.518665294
496.63100,-7.655026148
496.63150,-11.31735904
496.63200,-14.06410871
496.63250,-14.06410871
496.63300,-12.84333108
496.63350,-12.84333108
496.63400,-11.92774786
496.63450,-8.570609371
496.63500,-3.687498848
496.63550,-0.3303603634
496.63600,0.280028452
496.63650,-0.02516595566
496.63700,-2.466721217
496.63750,-5.213470887
496.63800,-6.739442925
496.63850,-5.213470887
496.63900,-0.9407491788
496.63950,5.773527791
496.64000,16.45533206
496.64050,28.96830278
496.64100,38.42932941
496.64150,40.26049586
496.64200,35.37738534
496.64250,26.83194192
496.64300,17.67610969
496.64350,8.52027746
496.64400,0.280028452
496.64450,-5.823859702
496.64500,-9.486192594
496.64550,-10.40177582
496.64600,-6.12905411
496.64650,1.500806083
496.64700,8.215083052
496.64750,9.741055091
496.64800,6.994305421
496.64850,2.721583714
496.64900,-1.245943586
496.64950,-4.908276479
496.65000,-6.434248517
496.65050,-6.12905411
496.65100,-7.34983174
496.65150,-9.791387002
496.65200,-10.09658141
496.65250,-7.044637333
496.65300,-5.213470887
496.65350,-7.34983174
496.65400,-7.960220556
496.65450,-2.466721217
496.65500,5.163138975
496.65550,7.909888645
496.65600,3.331972529
496.65650,-2.771915625
496.65700,-5.823859702
496.65750,-3.38230444
496.65800,2.416389306
496.65850,7.299499829
496.65900,4.55275016
496.65950,-7.044637333
496.66000,-21.6939689
496.66050,-33.2913564
496.66100,-41.5316054
496.66150,-47.02510474
496.66200,-44.88874389
496.66250,-33.2913564
496.66300,-18.64202483
496.66350,-9.180998187
496.66400,-3.38230444
496.66450,5.468333383
496.66500,17.06572088
496.66550,21.64363699
496.66600,15.84494324
496.66650,5.468333383
496.66700,-1.551137994
496.66750,-5.823859702
496.66800,-7.655026148
496.66850,-6.434248517
496.66900,-2.771915625
496.66950,-2.466721217
496.67000,-7.34983174
496.67050,-13.7589143
496.67100,-15.28488634
496.67150,-11.62255345
496.67200,-4.297887663
496.67250,5.468333383
496.67300,16.45533206
496.67350,25.9163587
496.67400,31.10466363
496.67450,32.93583008
496.67500,33.54621889
496.67550,34.15660771
496.67600,35.37738534
496.67650,37.51374619
496.67700,39.95530145
496.67750,38.42932941
496.67800,29.57869159
496.67850,16.76052647
496.67900,4.55275016
496.67950,-3.992693256
496.68000,-11.92774786
496.68050,-19.86280246
496.68100,-26.57707943
496.68150,-30.54460673
496.68200,-31.76538436
496.68250,-30.84980113
496.68300,-26.27188502
496.68350,-17.11605279
496.68400,-5.823859702
496.68450,1.500806083
496.68500,3.942361344
496.68550,3.026778121
496.68600,2.416389306
496.68650,3.331972529
496.68700,3.637166937
496.68750,3.026778121
496.68800,2.416389306
496.68850,2.721583714
496.68900,2.721583714
496.68950,0.280028452
496.69000,-3.077110033
496.69050,-5.213470887
496.69100,-5.213470887
496.69150,-4.908276479
496.69200,-6.12905411
496.69250,-7.655026148
496.69300,-7.655026148
496.69350,-5.823859702
496.69400,-3.992693256
496.69450,-3.38230444
496.69500,-4.297887663
496.69550,-5.213470887
496.69600,-3.38230444
496.69650,1.195611675
496.69700,7.299499829
496.69750,10.0462495
496.69800,8.215083052
496.69850,5.468333383
496.69900,6.383916606
496.69950,10.0462495
496.70000,12.79299917
496.70050,12.18261035
496.70100,10.0462495
496.70150,9.435860683
496.70200,11.26702713
496.70250,14.0137768
496.70300,16.76052647
496.70350,18.59169291
496.70400,19.20208173
496.70450,18.28649851
496.70500,15.53974884
496.70550,10.35144391
496.70600,3.331972529
496.70650,-3.687498848
496.70700,-9.180998187
496.70750,-11.01216463
496.70800,-9.791387002
496.70850,-5.823859702
496.70900,-0.9407491788
496.70950,3.026778121
496.71000,3.942361344
496.71050,0.8904172674
496.71100,-2.771915625
496.71150,-4.603082071
496.71200,-3.992693256
496.71250,-3.077110033
496.71300,-3.687498848
496.71350,-5.823859702
496.71400,-7.960220556
496.71450,-8.265414964
496.71500,-6.434248517
496.71550,-3.687498848
496.71600,-2.16152681
496.71650,-1.551137994
496.71700,-0.02516595566
496.71750,1.500806083
496.71800,1.806000491
496.71850,-0.02516595566
496.71900,-2.16152681
496.71950,-4.603082071
496.72000,-7.655026148
496.72050,-11.62255345
496.72100,-14.67449753
496.72150,-15.59008075
496.72200,-15.89527516
496.72250,-15.89527516
496.72300,-14.36930312
496.72350,-10.40177582
496.72400,-6.434248517
496.72450,-3.687498848
496.72500,-1.551137994
496.72550,0.8904172674
496.72600,5.773527791
496.72650,13.40338798
496.72700,22.86441462
496.72750,28.96830278
496.72800,26.22155311
496.72850,17.67610969
496.72900,13.09819358
496.72950,15.84494324
496.73000,20.11766495
496.73050,19.20208173
496.73100,16.45533206
496.73150,17.06572088
496.73200,18.89688732
496.73250,17.06572088
496.73300,10.96183272
496.73350,5.163138975
496.73400,0.8904172674
496.73450,-3.687498848
496.73500,-10.40177582
496.73550,-15.89527516
496.73600,-16.50566397
496.73650,-11.01216463
496.73700,-1.856332402
496.73750,4.247555752
496.73800,2.721583714
496.73850,-4.908276479
496.73900,-11.62255345
496.73950,-11.62255345
496.74000,-7.34983174
496.74050,-3.38230444
496.74100,-0.3303603634
496.74150,3.026778121
496.74200,7.909888645
496.74250,14.92936002
496.74300,23.47480344
496.74350,28.96830278
496.74400,25.9163587
496.74450,17.06572088
496.74500,9.435860683
496.74550,6.689111014
496.74600,4.247555752
496.74650,-0.02516595566
496.74700,-3.077110033
496.74750,-0.6355547711
496.74800,3.331972529
496.74850,6.383916606
496.74900,8.52027746
496.74950,10.65663831
496.75000,8.52027746
496.75050,-0.3303603634
496.75100,-11.31735904
496.75150,-17.11605279
496.75200,-17.7264416
496.75250,-17.7264416
496.75300,-19.25241364
496.75350,-19.25241364
496.75400,-17.11605279
496.75450,-14.97969193
496.75500,-14.67449753
496.75550,-16.20046956
496.75600,-17.7264416
496.75650,-18.03163601
496.75700,-15.28488634
496.75750,-10.70697023
496.75800,-7.044637333
496.75850,-5.823859702
496.75900,-4.297887663
496.75950,-0.02516595566
496.76000,7.299499829
496.76050,14.62416561
496.76100,21.64363699
496.76150,29.57869159
496.76200,35.98777415
496.76250,37.20855178
496.76300,31.71505245
496.76350,22.25402581
496.76400,11.87741594
496.76450,1.195611675
496.76500,-9.486192594
496.76550,-21.38877449
496.76600,-30.84980113
496.76650,-35.12252284
496.76700,-32.98616199
496.76750,-26.57707943
496.76800,-20.16799686
496.76850,-16.50566397
496.76900,-14.97969193
496.76950,-15.28488634
496.77000,-17.11605279
496.77050,-18.94721923
496.77100,-18.33683042
496.77150,-15.89527516
496.77200,-13.45371989
496.77250,-12.53813667
496.77300,-10.70697023
496.77350,-6.12905411
496.77400,-0.02516595566
496.77450,5.468333383
496.77500,8.825471868
496.77550,11.57222154
496.77600,14.62416561
496.77650,18.59169291
496.77700,21.33844258
496.77750,20.42285936
496.77800,16.45533206
496.77850,10.65663831
496.77900,4.247555752
496.77950,-3.687498848
496.78000,-13.45371989
496.78050,-22.60955213
496.78100,-30.84980113
496.78150,-38.78485573
496.78200,-45.4991327
496.78250,-47.94068796
496.78300,-45.1939383
496.78350,-41.226411
496.78400,-38.17446692
496.78450,-33.90174521
496.78500,-25.6614962
496.78550,-14.67449753
496.78600,-5.213470887
496.78650,3.331972529
496.78700,13.09819358
496.78750,20.11766495
496.78800,20.11766495
496.78850,15.53974884
496.78900,11.87741594
496.78950,8.52027746
496.79000,1.806000491
496.79050,-7.044637333
496.79100,-12.23294226
496.79150,-12.23294226
496.79200,-11.01216463
496.79250,-10.40177582
496.79300,-8.265414964
496.79350,-3.38230444
496.79400,0.5852228597
496.79450,3.331972529
496.79500,9.435860683
496.79550,21.9488314
496.79600,33.54621889
496.79650,33.8514133
496.79700,21.9488314
496.79750,6.994305421
496.79800,-0.9407491788
496.79850,-0.6355547711
496.79900,2.111194898
496.79950,2.416389306
496.80000,1.500806083
496.80050,2.721583714
496.80100,6.689111014
496.80150,8.825471868
496.80200,5.773527791
496.80250,1.806000491
496.80300,3.331972529
496.80350,10.96183272
496.80400,17.67610969
496.80450,18.89688732
496.80500,16.45533206
496.80550,15.53974884
496.80600,16.76052647
496.80650,15.23455443
496.80700,9.130666275
496.80750,3.942361344
496.80800,6.689111014
496.80850,17.37091528
496.80900,26.83194192
496.80950,27.13713633
496.81000,18.59169291
496.81050,9.130666275
496.81100,3.942361344
496.81150,0.8904172674
496.81200,-1.856332402
496.81250,-3.992693256
496.81300,-2.771915625
496.81350,-0.3303603634
496.81400,-0.02516595566
496.81450,-2.16152681
496.81500,-5.213470887
496.81550,-4.908276479
496.81600,-0.3303603634
496.81650,5.163138975
496.81700,9.435860683
496.81750,10.96183272
496.81800,11.26702713
496.81850,11.26702713
496.81900,11.26702713
496.81950,10.0462495
496.82000,8.52027746
496.82050,7.604694237
496.82100,6.383916606
496.82150,3.942361344
496.82200,1.500806083
496.82250,0.8904172674
496.82300,2.416389306
496.82350,5.163138975
496.82400,6.689111014
496.82450,6.994305421
496.82500,6.383916606
496.82550,5.468333383
496.82600,3.942361344
496.82650,1.500806083
496.82700,-1.245943586
496.82750,-3.077110033
496.82800,-3.38230444
496.82850,-3.38230444
496.82900,-4.297887663
496.82950,-6.12905411
496.83000,-7.655026148
496.83050,-7.960220556
496.83100,-8.570609371
496.83150,-10.40177582
496.83200,-11.62255345
496.83250,-10.70697023
496.83300,-7.34983174
496.83350,-3.38230444
496.83400,-0.6355547711
496.83450,-0.3303603634
496.83500,-2.466721217
496.83550,-7.044637333
496.83600,-11.01216463
496.83650,-10.40177582
496.83700,-4.603082071
496.83750,1.195611675
496.83800,1.500806083
496.83850,-3.077110033
496.83900,-6.12905411
496.83950,-2.466721217
496.84000,5.468333383
496.84050,9.741055091
496.84100,6.689111014
496.84150,0.280028452
496.84200,-2.771915625
496.84250,-1.551137994
496.84300,1.500806083
496.84350,3.637166937
496.84400,5.468333383
496.84450,8.215083052
496.84500,11.26702713
496.84550,12.18261035
496.84600,9.741055091
496.84650,4.247555752
496.84700,-1.551137994
496.84750,-7.044637333
496.84800,-12.53813667
496.84850,-18.03163601
496.84900,-21.38877449
496.84950,-20.77838568
496.85000,-17.7264416
496.85050,-15.28488634
496.85100,-15.28488634
496.85150,-17.7264416
496.85200,-21.99916331
496.85250,-23.83032976
496.85300,-18.33683042
496.85350,-3.077110033
496.85400,13.70858239
496.85450,21.03324818
496.85500,14.62416561
496.85550,2.416389306
496.85600,-7.044637333
496.85650,-11.62255345
496.85700,-12.23294226
496.85750,-9.791387002
496.85800,-3.687498848
496.85850,3.026778121
496.85900,8.52027746
496.85950,13.70858239
496.86000,20.42285936
496.86050,27.44233074
496.86100,31.71505245
496.86150,35.07219093
496.86200,40.87088468
496.86250,48.80593928
496.86300,52.16307776
496.86350,46.36438401
496.86400,31.71505245
496.86450,13.70858239
496.86500,-0.6355547711
496.86550,-7.655026148
496.86600,-6.739442925
496.86650,-0.6355547711
496.86700,6.078722198
496.86750,11.26702713
496.86800,13.09819358
496.86850,11.26702713
496.86900,6.994305421
496.86950,3.637166937
496.87000,2.416389306
496.87050,1.195611675
496.87100,-2.16152681
496.87150,-5.823859702
496.87200,-6.434248517
496.87250,-3.687498848
496.87300,-2.16152681
496.87350,-2.466721217
496.87400,-3.687498848
496.87450,-5.823859702
496.87500,-11.31735904
496.87550,-19.55760805
496.87600,-25.35630179
496.87650,-25.35630179
496.87700,-22.30435772
496.87750,-21.99916331
496.87800,-25.35630179
496.87850,-28.10305146
496.87900,-28.10305146
496.87950,-26.27188502
496.88000,-23.83032976
496.88050,-21.6939689
496.88100,-21.6939689
496.88150,-25.05110739
496.88200,-28.40824587
496.88250,-26.27188502
496.88300,-17.42124719
496.88350,-8.265414964
496.88400,-3.687498848
496.88450,-4.297887663
496.88500,-7.044637333
496.88550,-9.791387002
496.88600,-10.40177582
496.88650,-6.12905411
496.88700,2.721583714
496.88750,10.35144391
496.88800,11.26702713
496.88850,6.994305421
496.88900,2.416389306
496.88950,1.195611675
496.89000,1.806000491
496.89050,2.111194898
496.89100,1.806000491
496.89150,1.195611675
496.89200,0.8904172674
496.89250,2.111194898
496.89300,5.468333383
496.89350,10.35144391
496.89400,15.84494324
496.89450,21.03324818
496.89500,23.77999785
496.89550,23.77999785
496.89600,22.55922021
496.89650,22.55922021
496.89700,21.9488314
496.89750,17.37091528
496.89800,9.435860683
496.89850,4.247555752
496.89900,3.942361344
496.89950,3.637166937
496.90000,-0.3303603634
496.90050,-7.044637333
496.90100,-11.92774786
496.90150,-15.59008075
496.90200,-20.16799686
496.90250,-24.13552416
496.90300,-25.35630179
496.90350,-22.30435772
496.90400,-16.20046956
496.90450,-7.044637333
496.90500,1.806000491
496.90550,6.383916606
496.90600,4.247555752
496.90650,0.5852228597
496.90700,-0.02516595566
496.90750,-0.02516595566
496.90800,-3.992693256
496.90850,-8.875803779
496.90900,-8.875803779
496.90950,-4.297887663
496.91000,-0.9407491788
496.91050,-1.245943586
496.91100,-2.466721217
496.91150,-3.077110033
496.91200,-5.823859702
496.91250,-11.92774786
496.91300,-17.11605279
496.91350,-18.33683042
496.91400,-16.50566397
496.91450,-11.62255345
496.91500,-4.603082071
496.91550,1.806000491
496.91600,4.247555752
496.91650,1.806000491
496.91700,0.280028452
496.91750,1.500806083
496.91800,1.195611675
496.91850,-5.213470887
496.91900,-14.36930312
496.91950,-18.64202483
496.92000,-14.97969193
496.92050,-6.434248517
496.92100,2.721583714
496.92150,11.26702713
496.92200,17.9813041
496.92250,21.33844258
496.92300,21.9488314
496.92350,22.55922021
496.92400,23.77999785
496.92450,23.16960903
496.92500,19.50727614
496.92550,15.23455443
496.92600,13.70858239
496.92650,12.48780476
496.92700,8.825471868
496.92750,3.637166937
496.92800,1.806000491
496.92850,3.637166937
496.92900,3.026778121
496.92950,-3.992693256
496.93000,-15.59008075
496.93050,-24.44071857
496.93100,-28.10305146
496.93150,-29.93421791
496.93200,-32.07057876
496.93250,-32.07057876
496.93300,-27.49266265
496.93350,-19.55760805
496.93400,-12.84333108
496.93450,-10.09658141
496.93500,-9.791387002
496.93550,-8.570609371
496.93600,-3.077110033
496.93650,5.163138975
496.93700,11.87741594
496.93750,14.31897121
496.93800,15.53974884
496.93850,20.72805377
496.93900,28.05271955
496.93950,30.49427481
496.94000,26.22155311
496.94050,22.86441462
496.94100,25.9163587
496.94150,31.10466363
496.94200,31.10466363
496.94250,25.9163587
496.94300,21.9488314
496.94350,20.72805377
496.94400,17.67610969
496.94450,9.435860683
496.94500,-0.02516595566
496.94550,-7.044637333
496.94600,-10.09658141
496.94650,-8.570609371
496.94700,-2.16152681
496.94750,5.773527791
496.94800,9.435860683
496.94850,6.689111014
496.94900,3.637166937
496.94950,4.857944568
496.95000,6.994305421
496.95050,5.468333383
496.95100,1.195611675
496.95150,-0.6355547711
496.95200,-0.3303603634
496.95250,-1.551137994
496.95300,-4.908276479
496.95350,-7.655026148
496.95400,-9.180998187
496.95450,-11.62255345
496.95500,-14.06410871
496.95550,-12.84333108
496.95600,-8.265414964
496.95650,-3.992693256
496.95700,-3.38230444
496.95750,-3.992693256
496.95800,-1.856332402
496.95850,2.416389306
496.95900,6.383916606
496.95950,8.52027746
496.96000,9.130666275
496.96050,8.825471868
496.96100,9.130666275
496.96150,10.0462495
496.96200,9.435860683
496.96250,6.383916606
496.96300,3.026778121
496.96350,1.806000491
496.96400,2.416389306
496.96450,1.806000491
496.96500,-0.02516595566
496.96550,0.280028452
496.96600,2.721583714
496.96650,3.942361344
496.96700,2.111194898
496.96750,1.195611675
496.96800,2.721583714
496.96850,3.026778121
496.96900,-1.245943586
496.96950,-7.044637333
496.97000,-8.875803779
496.97050,-7.044637333
496.97100,-7.34983174
496.97150,-11.92774786
496.97200,-16.20046956
496.97250,-16.81085838
496.97300,-17.42124719
496.97350,-21.08358009
496.97400,-25.35630179
496.97450,-25.35630179
496.97500,-20.47319127
496.97550,-15.28488634
496.97600,-12.84333108
496.97650,-11.62255345
496.97700,-9.486192594
496.97750,-6.12905411
496.97800,-2.16152681
496.97850,1.806000491
496.97900,5.773527791
496.97950,7.604694237
496.98000,6.994305421
496.98050,6.689111014
496.98100,7.604694237
496.98150,7.604694237
496.98200,3.331972529
496.98250,-3.38230444
496.98300,-7.960220556
496.98350,-7.655026148
496.98400,-4.297887663
496.98450,-1.856332402
496.98500,-0.9407491788
496.98550,-0.6355547711
496.98600,-1.245943586
496.98650,-3.38230444
496.98700,-5.213470887
496.98750,-3.38230444
496.98800,3.026778121
496.98850,13.40338798
496.98900,22.86441462
496.98950,28.05271955
496.99000,25.9163587
496.99050,16.15013765
496.99100,2.416389306
496.99150,-9.180998187
496.99200,-14.06410871
496.99250,-11.62255345
496.99300,-4.603082071
496.99350,2.111194898
496.99400,6.383916606
496.99450,8.215083052
496.99500,8.215083052
496.99550,6.383916606
496.99600,3.026778121
496.99650,-0.9407491788
496.99700,-3.077110033
496.99750,-1.245943586
496.99800,2.111194898
496.99850,4.55275016
496.99900,4.55275016
496.99950,4.55275016
497.00000,6.078722198
497.00050,8.52027746
497.00100,9.741055091
497.00150,8.52027746
497.00200,7.299499829
497.00250,8.825471868
497.00300,12.18261035
497.00350,14.31897121
497.00400,13.40338798
497.00450,11.57222154
497.00500,10.35144391
497.00550,10.35144391
497.00600,10.0462495
497.00650,6.994305421
497.00700,1.500806083
497.00750,-3.687498848
497.00800,-6.434248517
497.00850,-6.434248517
497.00900,-6.12905411
497.00950,-7.34983174
497.01000,-7.960220556
497.01050,-6.434248517
497.01100,-3.992693256
497.01150,-4.603082071
497.01200,-9.791387002
497.01250,-14.06410871
497.01300,-11.92774786
497.01350,-5.518665294
497.01400,-2.16152681
497.01450,-4.297887663
497.01500,-8.265414964
497.01550,-11.01216463
497.01600,-13.14852549
497.01650,-15.89527516
497.01700,-16.50566397
497.01750,-14.67449753
497.01800,-12.84333108
497.01850,-14.67449753
497.01900,-16.20046956
497.01950,-9.180998187
497.02000,7.299499829
497.02050,26.22155311
497.02100,37.51374619
497.02150,38.42932941
497.02200,34.15660771
497.02250,29.883886
497.02300,23.47480344
497.02350,12.18261035
497.02400,-1.856332402
497.02450,-12.53813667
497.02500,-16.81085838
497.02550,-17.11605279
497.02600,-15.59008075
497.02650,-11.62255345
497.02700,-5.823859702
497.02750,-1.856332402
497.02800,-1.551137994
497.02850,-0.02516595566
497.02900,8.215083052
497.02950,17.67610969
497.03000,19.20208173
497.03050,11.26702713
497.03100,3.026778121
497.03150,0.5852228597
497.03200,0.280028452
497.03250,-3.687498848
497.03300,-11.62255345
497.03350,-18.94721923
497.03400,-25.35630179
497.03450,-32.68096758
497.03500,-40.31082777
497.03550,-44.27835507
497.03600,-44.58354948
497.03650,-43.97316066
497.03700,-44.58354948
497.03750,-43.97316066
497.03800,-38.17446692
497.03850,-25.96669061
497.03900,-12.23294226
497.03950,-2.16152681
497.04000,2.416389306
497.04050,6.383916606
497.04100,12.48780476
497.04150,19.20208173
497.04200,22.86441462
497.04250,23.77999785
497.04300,24.69558107
497.04350,27.44233074
497.04400,31.40985804
497.04450,35.68257975
497.04500,38.73452382
497.04550,39.65010705
497.04600,38.12413501
497.04650,34.46180211
497.04700,28.96830278
497.04750,20.42285936
497.04800,10.35144391
497.04850,1.500806083
497.04900,-4.603082071
497.04950,-11.01216463
497.05000,-19.55760805
497.05050,-29.6290235
497.05100,-36.95368929
497.05150,-41.5316054
497.05200,-44.27835507
497.05250,-42.75238303
497.05300,-33.2913564
497.05350,-16.81085838
497.05400,-0.9407491788
497.05450,6.994305421
497.05500,7.909888645
497.05550,6.078722198
497.05600,5.163138975
497.05650,4.857944568
497.05700,3.026778121
497.05750,-0.6355547711
497.05800,-6.12905411
497.05850,-13.45371989
497.05900,-21.38877449
497.05950,-26.27188502
497.06000,-23.21994094
497.06050,-11.31735904
497.06100,3.026778121
497.06150,13.40338798
497.06200,17.9813041
497.06250,19.81247054
497.06300,21.64363699
497.06350,25.61116429
497.06400,33.54621889
497.06450,44.83841198
497.06500,53.6890498
497.06550,52.16307776
497.06600,40.87088468
497.06650,27.74752515
497.06700,19.20208173
497.06750,13.09819358
497.06800,6.689111014
497.06850,2.111194898
497.06900,1.806000491
497.06950,2.111194898
497.07000,-1.856332402
497.07050,-10.40177582
497.07100,-18.03163601
497.07150,-20.77838568
497.07200,-18.94721923
497.07250,-16.20046956
497.07300,-13.7589143
497.07350,-11.31735904
497.07400,-8.570609371
497.07450,-5.823859702
497.07500,-3.992693256
497.07550,-4.297887663
497.07600,-6.12905411
497.07650,-7.044637333
497.07700,-5.213470887
497.07750,-2.466721217
497.07800,-1.245943586
497.07850,-2.16152681
497.07900,-2.466721217
497.07950,-0.9407491788
497.08000,0.280028452
497.08050,1.500806083
497.08100,5.773527791
497.08150,14.62416561
497.08200,24.08519225
497.08250,26.52674751
497.08300,20.42285936
497.08350,11.26702713
497.08400,5.163138975
497.08450,2.721583714
497.08500,1.806000491
497.08550,3.026778121
497.08600,6.078722198
497.08650,9.435860683
497.08700,10.35144391
497.08750,7.909888645
497.08800,4.55275016
497.08850,1.500806083
497.08900,-0.6355547711
497.08950,-2.466721217
497.09000,-3.38230444
497.09050,-2.771915625
497.09100,-2.771915625
497.09150,-3.992693256
497.09200,-5.823859702
497.09250,-7.044637333
497.09300,-7.960220556
497.09350,-8.875803779
497.09400,-10.09658141
497.09450,-9.486192594
497.09500,-7.044637333
497.09550,-6.12905411
497.09600,-9.486192594
497.09650,-14.67449753
497.09700,-16.50566397
497.09750,-14.06410871
497.09800,-10.40177582
497.09850,-8.875803779
497.09900,-9.486192594
497.09950,-9.180998187
497.10000,-6.434248517
497.10050,-1.245943586
497.10100,5.773527791
497.10150,14.0137768
497.10200,22.25402581
497.10250,27.74752515
497.10300,28.35791396
497.10350,23.47480344
497.10400,15.84494324
497.10450,10.0462495
497.10500,7.604694237
497.10550,4.55275016
497.10600,-1.245943586
497.10650,-7.044637333
497.10700,-8.570609371
497.10750,-7.655026148
497.10800,-8.265414964
497.10850,-10.09658141
497.10900,-10.70697023
497.10950,-9.180998187
497.11000,-8.570609371
497.11050,-9.791387002
497.11100,-11.92774786
497.11150,-14.97969193
497.11200,-20.16799686
497.11250,-25.6614962
497.11300,-25.35630179
497.11350,-17.42124719
497.11400,-5.823859702
497.11450,1.195611675
497.11500,1.195611675
497.11550,-4.603082071
497.11600,-11.01216463
497.11650,-11.31735904
497.11700,-4.297887663
497.11750,5.163138975
497.11800,10.65663831
497.11850,9.130666275
497.11900,4.55275016
497.11950,1.500806083
497.12000,1.806000491
497.12050,3.942361344
497.12100,5.773527791
497.12150,6.689111014
497.12200,7.604694237
497.12250,8.215083052
497.12300,8.215083052
497.12350,6.994305421
497.12400,6.689111014
497.12450,9.130666275
497.12500,12.18261035
497.12550,12.79299917
497.12600,11.57222154
497.12650,12.79299917
497.12700,16.76052647
497.12750,17.37091528
497.12800,11.87741594
497.12850,3.942361344
497.12900,-0.6355547711
497.12950,-3.687498848
497.13000,-9.486192594
497.13050,-16.50566397
497.13100,-19.55760805
497.13150,-17.11605279
497.13200,-13.45371989
497.13250,-12.23294226
497.13300,-13.45371989
497.13350,-14.36930312
497.13400,-14.67449753
497.13450,-14.97969193
497.13500,-14.97969193
497.13550,-12.23294226
497.13600,-4.297887663
497.13650,6.078722198
497.13700,12.48780476
497.13750,9.741055091
497.13800,1.500806083
497.13850,-2.16152681
497.13900,0.280028452
497.13950,4.857944568
497.14000,5.468333383
497.14050,4.247555752
497.14100,5.773527791
497.14150,8.52027746
497.14200,8.825471868
497.14250,6.078722198
497.14300,4.247555752
497.14350,5.468333383
497.14400,7.604694237
497.14450,8.52027746
497.14500,8.52027746
497.14550,7.909888645
497.14600,7.604694237
497.14650,7.604694237
497.14700,7.909888645
497.14750,8.52027746
497.14800,6.689111014
497.14850,-0.02516595566
497.14900,-10.09658141
497.14950,-18.64202483
497.15000,-20.16799686
497.15050,-15.89527516
497.15100,-11.01216463
497.15150,-8.875803779
497.15200,-5.823859702
497.15250,-0.3303603634
497.15300,3.026778121
497.15350,3.026778121
497.15400,4.247555752
497.15450,10.0462495
497.15500,15.53974884
497.15550,11.26702713
497.15600,-0.3303603634
497.15650,-10.70697023
497.15700,-15.59008075
497.15750,-18.94721923
497.15800,-21.38877449
497.15850,-18.03163601
497.15900,-7.044637333
497.15950,0.8904172674
497.16000,-2.16152681
497.16050,-12.84333108
497.16100,-21.38877449
497.16150,-23.21994094
497.16200,-21.38877449
497.16250,-18.64202483
497.16300,-16.20046956
497.16350,-14.06410871
497.16400,-11.62255345
497.16450,-6.739442925
497.16500,1.806000491
497.16550,10.65663831
497.16600,15.84494324
497.16650,18.28649851
497.16700,21.9488314
497.16750,29.27349718
497.16800,39.95530145
497.16850,51.55268895
497.16900,60.09813236
497.16950,61.6241044
497.17000,55.82541065
497.17050,47.58516165
497.17100,39.03971823
497.17150,26.83194192
497.17200,8.825471868
497.17250,-10.40177582
497.17300,-26.27188502
497.17350,-39.39524455
497.17400,-52.21340967
497.17450,-60.45365868
497.17500,-60.75885309
497.17550,-60.75885309
497.17600,-71.74585177
497.17650,-88.8367386
497.17700,-91.88868267
497.17750,-68.69390769
497.17800,-32.07057876
497.17850,-4.908276479
497.17900,3.637166937
497.17950,5.163138975
497.18000,10.35144391
497.18050,19.81247054
497.18100,27.44233074
497.18150,30.18908041
497.18200,28.96830278
497.18250,26.22155311
497.18300,25.00077548
497.18350,25.30596988
497.18400,25.00077548
497.18450,21.9488314
497.18500,18.89688732
497.18550,20.42285936
497.18600,24.69558107
497.18650,26.22155311
497.18700,23.16960903
497.18750,18.89688732
497.18800,16.45533206
497.18850,14.31897121
497.18900,10.35144391
497.18950,6.689111014
497.19000,6.078722198
497.19050,6.994305421
497.19100,5.468333383
497.19150,1.500806083
497.19200,-1.245943586
497.19250,-2.16152681
497.19300,-2.466721217
497.19350,-3.077110033
497.19400,-2.466721217
497.19450,-1.551137994
497.19500,-1.551137994
497.19550,-2.16152681
497.19600,-1.856332402
497.19650,-0.3303603634
497.19700,0.280028452
497.19750,0.280028452
497.19800,1.806000491
497.19850,5.468333383
497.19900,7.909888645
497.19950,6.383916606
497.20000,3.026778121
497.20050,2.111194898
497.20100,5.468333383
497.20150,10.0462495
497.20200,13.40338798
497.20250,14.31897121
497.20300,14.31897121
497.20350,13.40338798
497.20400,11.26702713
497.20450,9.130666275
497.20500,9.130666275
497.20550,12.18261035
497.20600,15.53974884
497.20650,15.84494324
497.20700,13.70858239
497.20750,12.48780476
497.20800,12.79299917
497.20850,12.18261035
497.20900,9.741055091
497.20950,6.383916606
497.21000,3.026778121
497.21050,-1.856332402
497.21100,-8.570609371
497.21150,-12.84333108
497.21200,-13.45371989
497.21250,-13.14852549
497.21300,-14.36930312
497.21350,-15.59008075
497.21400,-14.97969193
497.21450,-14.36930312
497.21500,-16.20046956
497.21550,-16.81085838
497.21600,-12.53813667
497.21650,-5.823859702
497.21700,-2.466721217
497.21750,-3.38230444
497.21800,-7.044637333
497.21850,-11.31735904
497.21900,-16.50566397
497.21950,-19.55760805
497.22000,-17.11605279
497.22050,-10.09658141
497.22100,-1.551137994
497.22150,7.299499829
497.22200,17.9813041
497.22250,26.22155311
497.22300,25.9163587
497.22350,17.67610969
497.22400,10.96183272
497.22450,13.09819358
497.22500,19.81247054
497.22550,22.55922021
497.22600,17.67610969
497.22650,9.435860683
497.22700,3.331972529
497.22750,0.5852228597
497.22800,-0.6355547711
497.22850,-3.077110033
497.22900,-6.12905411
497.22950,-8.875803779
497.23000,-11.31735904
497.23050,-12.84333108
497.23100,-12.53813667
497.23150,-11.01216463
497.23200,-10.70697023
497.23250,-12.84333108
497.23300,-16.50566397
497.23350,-19.55760805
497.23400,-21.38877449
497.23450,-23.83032976
497.23500,-26.57707943
497.23550,-26.27188502
497.23600,-21.08358009
497.23650,-13.7589143
497.23700,-7.960220556
497.23750,-5.213470887
497.23800,-3.687498848
497.23850,-3.077110033
497.23900,-2.466721217
497.23950,-2.771915625
497.24000,-2.771915625
497.24050,-1.551137994
497.24100,1.195611675
497.24150,5.773527791
497.24200,10.0462495
497.24250,11.57222154
497.24300,9.435860683
497.24350,6.383916606
497.24400,4.55275016
497.24450,4.247555752
497.24500,4.55275016
497.24550,3.942361344
497.24600,3.331972529
497.24650,3.331972529
497.24700,2.721583714
497.24750,1.195611675
497.24800,-0.6355547711
497.24850,-2.771915625
497.24900,-4.603082071
497.24950,-5.823859702
497.25000,-5.213470887
497.25050,-1.856332402
497.25100,1.195611675
497.25150,0.280028452
497.25200,-6.434248517
497.25250,-14.67449753
497.25300,-18.94721923
497.25350,-18.64202483
497.25400,-17.11605279
497.25450,-18.33683042
497.25500,-20.16799686
497.25550,-17.7264416
497.25600,-10.70697023
497.25650,-3.687498848
497.25700,-2.466721217
497.25750,-6.12905411
497.25800,-9.486192594
497.25850,-10.40177582
497.25900,-10.40177582
497.25950,-11.62255345
497.26000,-12.53813667
497.26050,-12.23294226
497.26100,-11.62255345
497.26150,-11.92774786
497.26200,-10.70697023
497.26250,-5.823859702
497.26300,1.500806083
497.26350,10.0462495
497.26400,19.81247054
497.26450,29.883886
497.26500,36.29296856
497.26550,33.54621889
497.26600,22.25402581
497.26650,8.52027746
497.26700,-1.245943586
497.26750,-5.518665294
497.26800,-5.518665294
497.26850,-2.771915625
497.26900,-1.245943586
497.26950,-2.466721217
497.27000,-3.992693256
497.27050,-2.16152681
497.27100,3.637166937
497.27150,8.215083052
497.27200,6.994305421
497.27250,1.500806083
497.27300,-4.297887663
497.27350,-8.875803779
497.27400,-12.23294226
497.27450,-13.45371989
497.27500,-11.62255345
497.27550,-5.823859702
497.27600,2.111194898
497.27650,11.26702713
497.27700,18.28649851
497.27750,21.33844258
497.27800,21.33844258
497.27850,21.03324818
497.27900,20.72805377
497.27950,16.45533206
497.28000,6.689111014
497.28050,-3.992693256
497.28100,-9.791387002
497.28150,-8.570609371
497.28200,-4.603082071
497.28250,-0.02516595566
497.28300,4.857944568
497.28350,10.35144391
497.28400,12.18261035
497.28450,8.825471868
497.28500,4.857944568
497.28550,5.773527791
497.28600,10.0462495
497.28650,12.79299917
497.28700,9.741055091
497.28750,2.721583714
497.28800,-6.12905411
497.28850,-15.28488634
497.28900,-22.60955213
497.28950,-25.35630179
497.29000,-22.30435772
497.29050,-15.89527516
497.29100,-10.40177582
497.29150,-7.960220556
497.29200,-8.265414964
497.29250,-11.31735904
497.29300,-17.7264416
497.29350,-25.05110739
497.29400,-27.18746824
497.29450,-19.55760805
497.29500,-6.12905411
497.29550,5.773527791
497.29600,10.96183272
497.29650,10.96183272
497.29700,10.35144391
497.29750,10.96183272
497.29800,11.87741594
497.29850,11.87741594
497.29900,11.26702713
497.29950,11.87741594
497.30000,14.92936002
497.30050,18.59169291
497.30100,21.03324818
497.30150,21.33844258
497.30200,21.03324818
497.30250,20.11766495
497.30300,15.23455443
497.30350,4.247555752
497.30400,-6.434248517
497.30450,-8.570609371
497.30500,-1.245943586
497.30550,6.078722198
497.30600,5.468333383
497.30650,-0.6355547711
497.30700,-6.739442925
497.30750,-9.791387002
497.30800,-12.53813667
497.30850,-13.45371989
497.30900,-7.34983174
497.30950,5.773527791
497.31000,20.11766495
497.31050,30.18908041
497.31100,35.98777415
497.31150,39.03971823
497.31200,35.37738534
497.31250,22.86441462
497.31300,5.773527791
497.31350,-7.34983174
497.31400,-12.84333108
497.31450,-13.45371989
497.31500,-13.7589143
497.31550,-14.67449753
497.31600,-14.06410871
497.31650,-11.01216463
497.31700,-7.34983174
497.31750,-4.603082071
497.31800,-3.38230444
497.31850,-2.466721217
497.31900,-0.02516595566
497.31950,3.331972529
497.32000,4.857944568
497.32050,4.247555752
497.32100,3.942361344
497.32150,6.994305421
497.32200,11.26702713
497.32250,12.79299917
497.32300,10.65663831
497.32350,7.299499829
497.32400,4.55275016
497.32450,2.721583714
497.32500,1.195611675
497.32550,-0.02516595566
497.32600,-0.02516595566
497.32650,-0.02516595566
497.32700,-0.02516595566
497.32750,-0.3303603634
497.32800,0.5852228597
497.32850,3.942361344
497.32900,6.689111014
497.32950,6.078722198
497.33000,2.416389306
497.33050,-0.9407491788
497.33100,-1.245943586
497.33150,0.5852228597
497.33200,2.111194898
497.33250,1.500806083
497.33300,-0.9407491788
497.33350,-3.992693256
497.33400,-6.12905411
497.33450,-7.044637333
497.33500,-8.265414964
497.33550,-10.09658141
497.33600,-11.92774786
497.33650,-13.45371989
497.33700,-14.06410871
497.33750,-14.06410871
497.33800,-11.31735904
497.33850,-4.603082071
497.33900,3.026778121
497.33950,9.130666275
497.34000,12.79299917
497.34050,14.62416561
497.34100,14.31897121
497.34150,10.0462495
497.34200,4.857944568
497.34250,2.111194898
497.34300,2.111194898
497.34350,0.8904172674
497.34400,-3.687498848
497.34450,-9.180998187
497.34500,-12.84333108
497.34550,-13.14852549
497.34600,-10.40177582
497.34650,-3.077110033
497.34700,6.078722198
497.34750,12.48780476
497.34800,12.79299917
497.34850,10.35144391
497.34900,9.741055091
497.34950,10.65663831
497.35000,10.65663831
497.35050,8.215083052
497.35100,5.468333383
497.35150,3.637166937
497.35200,2.111194898
497.35250,-0.6355547711
497.35300,-4.603082071
497.35350,-8.570609371
497.35400,-11.31735904
497.35450,-12.84333108
497.35500,-14.06410871
497.35550,-15.59008075
497.35600,-15.89527516
497.35650,-13.7589143
497.35700,-10.70697023
497.35750,-8.265414964
497.35800,-6.739442925
497.35850,-5.823859702
497.35900,-5.518665294
497.35950,-6.434248517
497.36000,-6.739442925
497.36050,-4.603082071
497.36100,-0.9407491788
497.36150,1.806000491
497.36200,3.331972529
497.36250,4.857944568
497.36300,6.078722198
497.36350,6.078722198
497.36400,5.468333383
497.36450,6.689111014
497.36500,8.52027746
497.36550,8.825471868
497.36600,7.299499829
497.36650,5.773527791
497.36700,5.163138975
497.36750,3.331972529
497.36800,0.280028452
497.36850,-0.02516595566
497.36900,0.8904172674
497.36950,-0.9407491788
497.37000,-7.34983174
497.37050,-12.84333108
497.37100,-14.06410871
497.37150,-13.45371989
497.37200,-15.28488634
497.37250,-17.11605279
497.37300,-16.20046956
497.37350,-14.97969193
497.37400,-16.50566397
497.37450,-17.11605279
497.37500,-11.92774786
497.37550,-2.466721217
497.37600,4.247555752
497.37650,5.773527791
497.37700,3.942361344
497.37750,1.500806083
497.37800,-0.3303603634
497.37850,-2.466721217
497.37900,-2.16152681
497.37950,-0.3303603634
497.38000,1.806000491
497.38050,3.637166937
497.38100,5.468333383
497.38150,6.383916606
497.38200,6.383916606
497.38250,6.078722198
497.38300,6.383916606
497.38350,5.773527791
497.38400,1.806000491
497.38450,-2.16152681
497.38500,-4.297887663
497.38550,-3.992693256
497.38600,-3.992693256
497.38650,-3.077110033
497.38700,0.280028452
497.38750,3.942361344
497.38800,3.026778121
497.38850,-1.551137994
497.38900,-5.213470887
497.38950,-5.823859702
497.39000,-5.518665294
497.39050,-4.297887663
497.39100,-0.9407491788
497.39150,1.806000491
497.39200,0.8904172674
497.39250,-3.38230444
497.39300,-6.12905411
497.39350,-6.434248517
497.39400,-6.434248517
497.39450,-6.434248517
497.39500,-4.297887663
497.39550,0.280028452
497.39600,4.857944568
497.39650,9.130666275
497.39700,15.53974884
497.39750,21.9488314
497.39800,23.16960903
497.39850,18.59169291
497.39900,14.31897121
497.39950,12.79299917
497.40000,10.35144391
497.40050,5.773527791
497.40100,3.637166937
497.40150,5.163138975
497.40200,3.637166937
497.40250,-6.434248517
497.40300,-21.38877449
497.40350,-32.68096758
497.40400,-36.95368929
497.40450,-35.73291166
497.40500,-31.76538436
497.40550,-28.71344028
497.40600,-28.71344028
497.40650,-27.79785706
497.40700,-20.16799686
497.40750,-6.739442925
497.40800,5.163138975
497.40850,10.65663831
497.40900,11.87741594
497.40950,11.57222154
497.41000,8.52027746
497.41050,3.331972529
497.41100,1.195611675
497.41150,3.942361344
497.41200,6.994305421
497.41250,5.163138975
497.41300,1.500806083
497.41350,1.500806083
497.41400,6.383916606
497.41450,10.35144391
497.41500,10.96183272
497.41550,8.52027746
497.41600,6.689111014
497.41650,6.994305421
497.41700,7.909888645
497.41750,6.689111014
497.41800,4.857944568
497.41850,6.689111014
497.41900,13.70858239
497.41950,21.9488314
497.42000,28.05271955
497.42050,33.54621889
497.42100,39.65010705
497.42150,40.26049586
497.42200,31.40985804
497.42250,17.06572088
497.42300,5.163138975
497.42350,-4.603082071
497.42400,-17.7264416
497.42450,-31.76538436
497.42500,-39.09005014
497.42550,-36.64849488
497.42600,-30.23941232
497.42650,-24.74591298
497.42700,-18.33683042
497.42750,-10.09658141
497.42800,-2.16152681
497.42850,2.111194898
497.42900,3.331972529
497.42950,2.111194898
497.43000,-0.02516595566
497.43050,0.8904172674
497.43100,6.383916606
497.43150,13.09819358
497.43200,14.92936002
497.43250,10.65663831
497.43300,6.078722198
497.43350,3.637166937
497.43400,1.500806083
497.43450,-3.077110033
497.43500,-7.960220556
497.43550,-9.486192594
497.43600,-7.655026148
497.43650,-5.518665294
497.43700,-3.38230444
497.43750,-0.9407491788
497.43800,2.416389306
497.43850,6.383916606
497.43900,11.26702713
497.43950,14.92936002
497.44000,16.15013765
497.44050,14.31897121
497.44100,12.48780476
497.44150,13.09819358
497.44200,14.0137768
497.44250,12.48780476
497.44300,8.825471868
497.44350,6.689111014
497.44400,7.299499829
497.44450,8.52027746
497.44500,8.52027746
497.44550,6.994305421
497.44600,5.773527791
497.44650,4.857944568
497.44700,3.637166937
497.44750,1.806000491
497.44800,-0.02516595566
497.44850,-1.856332402
497.44900,-4.297887663
497.44950,-6.739442925
497.45000,-8.570609371
497.45050,-9.180998187
497.45100,-9.486192594
497.45150,-10.09658141
497.45200,-10.70697023
497.45250,-11.31735904
497.45300,-12.53813667
497.45350,-14.06410871
497.45400,-15.28488634
497.45450,-15.59008075
497.45500,-16.81085838
497.45550,-18.64202483
497.45600,-19.55760805
497.45650,-16.20046956
497.45700,-9.180998187
497.45750,-2.16152681
497.45800,2.111194898
497.45850,3.637166937
497.45900,2.721583714
497.45950,0.8904172674
497.46000,-0.02516595566
497.46050,0.5852228597
497.46100,2.111194898
497.46150,2.721583714
497.46200,2.111194898
497.46250,1.806000491
497.46300,4.247555752
497.46350,7.604694237
497.46400,9.130666275
497.46450,9.130666275
497.46500,8.215083052
497.46550,6.994305421
497.46600,3.942361344
497.46650,-1.856332402
497.46700,-9.486192594
497.46750,-16.81085838
497.46800,-21.08358009
497.46850,-22.60955213
497.46900,-22.30435772
497.46950,-21.08358009
497.47000,-18.33683042
497.47050,-12.23294226
497.47100,-2.16152681
497.47150,8.52027746
497.47200,16.15013765
497.47250,19.20208173
497.47300,20.11766495
497.47350,21.33844258
497.47400,22.25402581
497.47450,19.50727614
497.47500,11.87741594
497.47550,3.637166937
497.47600,0.280028452
497.47650,1.500806083
497.47700,3.026778121
497.47750,2.111194898
497.47800,-0.02516595566
497.47850,0.280028452
497.47900,1.806000491
497.47950,1.195611675
497.48000,-1.856332402
497.48050,-3.992693256
497.48100,-2.16152681
497.48150,0.5852228597
497.48200,1.500806083
497.48250,-0.02516595566
497.48300,-0.9407491788
497.48350,-0.02516595566
497.48400,1.500806083
497.48450,1.500806083
497.48500,0.280028452
497.48550,-0.02516595566
497.48600,2.111194898
497.48650,8.825471868
497.48700,17.37091528
497.48750,22.25402581
497.48800,20.11766495
497.48850,13.40338798
497.48900,6.994305421
497.48950,3.026778121
497.49000,0.5852228597
497.49050,-1.856332402
497.49100,-5.213470887
497.49150,-10.09658141
497.49200,-16.81085838
497.49250,-23.21994094
497.49300,-25.6614962
497.49350,-23.21994094
497.49400,-19.86280246
497.49450,-19.25241364
497.49500,-22.60955213
497.49550,-25.96669061
497.49600,-25.35630179
497.49650,-18.33683042
497.49700,-7.044637333
497.49750,3.331972529
497.49800,9.435860683
497.49850,10.35144391
497.49900,6.994305421
497.49950,2.111194898
497.50000,-1.245943586
497.50050,-1.856332402
497.50100,0.280028452
497.50150,2.721583714
497.50200,1.806000491
497.50250,-1.245943586
497.50300,-3.38230444
497.50350,-2.466721217
497.50400,0.5852228597
497.50450,3.942361344
497.50500,3.637166937
497.50550,-0.02516595566
497.50600,-4.297887663
497.50650,-3.687498848
497.50700,3.331972529
497.50750,12.48780476
497.50800,17.37091528
497.50850,14.92936002
497.50900,9.435860683
497.50950,5.468333383
497.51000,4.857944568
497.51050,6.689111014
497.51100,9.435860683
497.51150,11.87741594
497.51200,12.79299917
497.51250,11.57222154
497.51300,9.741055091
497.51350,7.604694237
497.51400,5.773527791
497.51450,2.416389306
497.51500,-3.687498848
497.51550,-12.53813667
497.51600,-20.77838568
497.51650,-23.52513535
497.51700,-19.25241364
497.51750,-11.01216463
497.51800,-3.687498848
497.51850,-1.551137994
497.51900,-2.771915625
497.51950,-3.992693256
497.52000,-3.992693256
497.52050,-2.771915625
497.52100,-1.856332402
497.52150,-1.551137994
497.52200,-1.551137994
497.52250,-0.3303603634
497.52300,1.806000491
497.52350,3.942361344
497.52400,3.942361344
497.52450,2.721583714
497.52500,2.416389306
497.52550,3.331972529
497.52600,4.247555752
497.52650,4.857944568
497.52700,6.689111014
497.52750,9.130666275
497.52800,9.130666275
497.52850,6.078722198
497.52900,2.111194898
497.52950,0.5852228597
497.53000,0.5852228597
497.53050,-0.02516595566
497.53100,-2.771915625
497.53150,-5.823859702
497.53200,-8.265414964
497.53250,-9.486192594
497.53300,-8.570609371
497.53350,-7.34983174
497.53400,-7.655026148
497.53450,-9.791387002
497.53500,-11.92774786
497.53550,-14.36930312
497.53600,-17.11605279
497.53650,-20.16799686
497.53700,-20.47319127
497.53750,-16.81085838
497.53800,-12.23294226
497.53850,-8.570609371
497.53900,-5.213470887
497.53950,0.280028452
497.54000,7.604694237
497.54050,13.09819358
497.54100,17.06572088
497.54150,22.55922021
497.54200,29.27349718
497.54250,33.24102448
497.54300,30.18908041
497.54350,23.77999785
497.54400,20.72805377
497.54450,23.77999785
497.54500,28.35791396
497.54550,28.05271955
497.54600,21.9488314
497.54650,14.62416561
497.54700,9.435860683
497.54750,5.468333383
497.54800,0.280028452
497.54850,-2.771915625
497.54900,-0.6355547711
497.54950,3.942361344
497.55000,5.773527791
497.55050,2.111194898
497.55100,-2.16152681
497.55150,-3.992693256
497.55200,-4.297887663
497.55250,-5.823859702
497.55300,-8.265414964
497.55350,-9.791387002
497.55400,-9.180998187
497.55450,-5.823859702
497.55500,-0.02516595566
497.55550,6.689111014
497.55600,11.26702713
497.55650,13.70858239
497.55700,17.06572088
497.55750,21.9488314
497.55800,24.69558107
497.55850,21.03324818
497.55900,12.18261035
497.55950,3.026778121
497.56000,-2.466721217
497.56050,-3.992693256
497.56100,-1.551137994
497.56150,3.331972529
497.56200,8.215083052
497.56250,9.741055091
497.56300,6.689111014
497.56350,2.416389306
497.56400,-0.3303603634
497.56450,-2.771915625
497.56500,-7.044637333
497.56550,-14.36930312
497.56600,-22.30435772
497.56650,-27.18746824
497.56700,-27.79785706
497.56750,-26.88227383
497.56800,-27.79785706
497.56850,-29.6290235
497.56900,-29.6290235
497.56950,-26.27188502
497.57000,-21.6939689
497.57050,-18.94721923
497.57100,-17.7264416
497.57150,-17.11605279
497.57200,-16.81085838
497.57250,-15.89527516
497.57300,-12.53813667
497.57350,-5.823859702
497.57400,-0.02516595566
497.57450,0.5852228597
497.57500,-4.297887663
497.57550,-12.53813667
497.57600,-19.25241364
497.57650,-22.30435772
497.57700,-21.08358009
497.57750,-16.20046956
497.57800,-9.486192594
497.57850,-3.687498848
497.57900,-0.02516595566
497.57950,1.500806083
497.58000,3.331972529
497.58050,7.909888645
497.58100,15.84494324
497.58150,22.55922021
497.58200,23.47480344
497.58250,18.59169291
497.58300,13.70858239
497.58350,14.0137768
497.58400,17.37091528
497.58450,18.59169291
497.58500,16.45533206
497.58550,13.09819358
497.58600,9.741055091
497.58650,6.994305421
497.58700,3.942361344
497.58750,2.416389306
497.58800,3.026778121
497.58850,6.689111014
497.58900,13.40338798
497.58950,20.72805377
497.59000,22.86441462
497.59050,17.06572088
497.59100,7.299499829
497.59150,-0.02516595566
497.59200,-3.077110033
497.59250,-3.992693256
497.59300,-3.687498848
497.59350,-2.466721217
497.59400,-0.3303603634
497.59450,-0.02516595566
497.59500,-1.551137994
497.59550,-3.077110033
497.59600,-4.297887663
497.59650,-5.213470887
497.59700,-4.908276479
497.59750,-2.16152681
497.59800,1.806000491
497.59850,3.331972529
497.59900,1.806000491
497.59950,1.195611675
497.60000,5.773527791
497.60050,14.0137768
497.60100,21.03324818
497.60150,24.69558107
497.60200,27.44233074
497.60250,29.57869159
497.60300,28.66310837
497.60350,22.86441462
497.60400,14.31897121
497.60450,6.994305421
497.60500,3.331972529
497.60550,0.5852228597
497.60600,-2.466721217
497.60650,-5.518665294
497.60700,-5.823859702
497.60750,-3.687498848
497.60800,-1.856332402
497.60850,-2.16152681
497.60900,-3.077110033
497.60950,-1.245943586
497.61000,3.637166937
497.61050,8.825471868
497.61100,10.35144391
497.61150,6.383916606
497.61200,-0.6355547711
497.61250,-7.044637333
497.61300,-11.01216463
497.61350,-13.7589143
497.61400,-14.97969193
497.61450,-13.14852549
497.61500,-10.09658141
497.61550,-9.486192594
497.61600,-12.23294226
497.61650,-14.36930312
497.61700,-13.14852549
497.61750,-10.40177582
497.61800,-9.486192594
497.61850,-10.70697023
497.61900,-11.62255345
497.61950,-12.23294226
497.62000,-12.53813667
497.62050,-9.486192594
497.62100,-1.856332402
497.62150,6.994305421
497.62200,10.96183272
