"type","name","time_units","begin_time","frequency","count","units"
"signal","Ultium EMG-EXT.DIG. RT","s",120.98000,2000,22000,"uV"

"time","value"
120.98000,2.765204703
120.98050,-2.728294635
120.98100,-3.643877858
120.98150,-2.728294635
120.98200,0.01845503415
120.98250,4.59637115
120.98300,7.953509634
120.98350,8.56389845
120.98400,7.953509634
120.98450,7.953509634
120.98500,7.343120819
120.98550,5.81714878
120.98600,4.59637115
120.98650,2.460010296
120.98700,-0.5919337813
120.98750,-3.033489043
120.98800,-3.033489043
120.98850,-3.643877858
120.98900,-10.05296042
120.98950,-20.12437587
120.99000,-24.70229199
120.99050,-18.90359824
120.99100,-9.442571605
120.99150,-3.949072266
120.99200,0.01845503415
120.99250,10.08987049
120.99300,24.12881324
120.99350,27.18075732
120.99400,13.14181457
120.99450,-6.695821935
120.99500,-17.98801502
120.99550,-20.12437587
120.99600,-22.26073673
120.99650,-25.31268081
120.99700,-20.12437587
120.99750,-2.11790582
120.99800,18.02492509
120.99850,26.5703685
120.99900,20.77167476
120.99950,10.3950649
121.00000,4.59637115
121.00050,3.985982334
121.00100,4.291176742
121.00150,2.154815888
121.00200,-0.897128189
121.00250,-3.033489043
121.00300,-2.11790582
121.00350,-2.11790582
121.00400,-4.559461081
121.00450,-7.916599566
121.00500,-7.001016343
121.00550,-0.897128189
121.00600,5.511954373
121.00650,8.869092857
121.00700,9.784676081
121.00750,9.479481673
121.00800,7.037926411
121.00850,0.01845503415
121.00900,-9.747766012
121.00950,-18.59840384
121.01000,-21.0399591
121.01050,-13.4100989
121.01100,0.3236494419
121.01150,11.92103693
121.01200,14.05739779
121.01250,8.869092857
121.01300,4.901565557
121.01350,3.985982334
121.01400,0.9340382573
121.01450,-5.169849897
121.01500,-7.611405158
121.01550,-0.897128189
121.01600,9.479481673
121.01650,12.53142575
121.01700,6.122343188
121.01750,-1.202322597
121.01800,-4.254266674
121.01850,-5.169849897
121.01900,-8.221793974
121.01950,-13.1049045
121.02000,-15.54645976
121.02050,-13.4100989
121.02100,-7.916599566
121.02150,-2.423100227
121.02200,1.84962148
121.02250,4.901565557
121.02300,7.343120819
121.02350,7.037926411
121.02400,2.765204703
121.02450,-2.423100227
121.02500,-4.864655489
121.02550,-2.728294635
121.02600,-0.897128189
121.02650,-3.033489043
121.02700,-6.390627528
121.02750,-6.695821935
121.02800,-5.169849897
121.02850,-6.390627528
121.02900,-10.35815483
121.02950,-12.79971009
121.03000,-11.57893246
121.03050,-7.611405158
121.03100,-2.423100227
121.03150,3.985982334
121.03200,10.7002593
121.03250,14.6677866
121.03300,14.3625922
121.03350,11.92103693
121.03400,7.953509634
121.03450,3.375593519
121.03500,-2.423100227
121.03550,-9.137377197
121.03600,-17.3776262
121.03650,-25.31268081
121.03700,-28.05943047
121.03750,-22.56593114
121.03800,-11.88412687
121.03850,-3.033489043
121.03900,1.239232665
121.03950,4.291176742
121.04000,7.343120819
121.04050,8.56389845
121.04100,7.037926411
121.04150,6.122343188
121.04200,7.648315227
121.04250,9.784676081
121.04300,10.3950649
121.04350,9.784676081
121.04400,8.869092857
121.04450,7.037926411
121.04500,5.206759965
121.04550,5.511954373
121.04600,7.648315227
121.04650,7.953509634
121.04700,5.206759965
121.04750,2.765204703
121.04800,3.375593519
121.04850,4.901565557
121.04900,5.511954373
121.04950,7.037926411
121.05000,8.869092857
121.05050,6.122343188
121.05100,-2.423100227
121.05150,-10.66334924
121.05200,-10.96854364
121.05250,-5.780238712
121.05300,-0.897128189
121.05350,0.6288438496
121.05400,2.460010296
121.05450,3.680787927
121.05500,2.154815888
121.05550,0.01845503415
121.05600,-1.202322597
121.05650,-2.728294635
121.05700,-7.916599566
121.05750,-14.02048772
121.05800,-14.32568213
121.05850,-9.442571605
121.05900,-4.254266674
121.05950,-0.2867393736
121.06000,3.680787927
121.06050,7.953509634
121.06100,9.479481673
121.06150,8.869092857
121.06200,8.258704042
121.06250,6.732732004
121.06300,-0.897128189
121.06350,-13.4100989
121.06400,-22.26073673
121.06450,-21.95554232
121.06500,-15.85165417
121.06550,-9.747766012
121.06600,-4.864655489
121.06650,-1.202322597
121.06700,1.84962148
121.06750,3.985982334
121.06800,5.81714878
121.06850,7.953509634
121.06900,9.479481673
121.06950,8.869092857
121.07000,4.901565557
121.07050,-1.812711412
121.07100,-8.526988381
121.07150,-10.96854364
121.07200,-7.306210751
121.07250,-0.897128189
121.07300,3.375593519
121.07350,5.511954373
121.07400,5.206759965
121.07450,2.765204703
121.07500,0.01845503415
121.07550,-0.5919337813
121.07600,-0.2867393736
121.07650,-2.11790582
121.07700,-5.780238712
121.07750,-6.695821935
121.07800,-3.338683451
121.07850,0.01845503415
121.07900,1.544427073
121.07950,6.427537596
121.08000,17.71973068
121.08050,28.70672936
121.08100,31.14828462
121.08150,25.04439647
121.08200,17.41453627
121.08250,11.61584253
121.08300,7.648315227
121.08350,4.291176742
121.08400,1.84962148
121.08450,-1.507517004
121.08500,-5.169849897
121.08550,-5.169849897
121.08600,-0.5919337813
121.08650,3.070399111
121.08700,0.3236494419
121.08750,-4.559461081
121.08800,-7.001016343
121.08850,-5.475044304
121.08900,-4.254266674
121.08950,-3.643877858
121.09000,-2.423100227
121.09050,-2.728294635
121.09100,-6.08543312
121.09150,-10.66334924
121.09200,-13.71529331
121.09250,-16.15684857
121.09300,-17.3776262
121.09350,-16.15684857
121.09400,-13.1049045
121.09450,-10.05296042
121.09500,-3.338683451
121.09550,14.3625922
121.09600,41.52489448
121.09650,60.44694776
121.09700,59.22617013
121.09750,44.27164415
121.09800,30.5378958
121.09850,19.55089713
121.09900,5.511954373
121.09950,-10.35815483
121.10000,-17.68282061
121.10050,-12.18932127
121.10100,-1.812711412
121.10150,4.901565557
121.10200,4.901565557
121.10250,-1.812711412
121.10300,-14.32568213
121.10350,-25.31268081
121.10400,-26.22826403
121.10450,-17.3776262
121.10500,-7.916599566
121.10550,-4.559461081
121.10600,-5.169849897
121.10650,-3.949072266
121.10700,-1.202322597
121.10750,-0.2867393736
121.10800,-1.507517004
121.10850,-3.033489043
121.10900,-4.864655489
121.10950,-8.221793974
121.11000,-12.49451568
121.11050,-14.63087654
121.11100,-14.02048772
121.11150,-13.1049045
121.11200,-11.57893246
121.11250,-7.001016343
121.11300,0.6288438496
121.11350,6.427537596
121.11400,5.206759965
121.11450,0.01845503415
121.11500,-2.728294635
121.11550,-1.202322597
121.11600,-0.897128189
121.11650,-6.08543312
121.11700,-12.49451568
121.11750,-12.18932127
121.11800,-3.949072266
121.11850,3.985982334
121.11900,4.59637115
121.11950,-1.812711412
121.12000,-10.05296042
121.12050,-13.71529331
121.12100,-10.96854364
121.12150,-4.864655489
121.12200,-1.507517004
121.12250,-3.338683451
121.12300,-7.001016343
121.12350,-7.916599566
121.12400,-4.864655489
121.12450,-0.897128189
121.12500,2.460010296
121.12550,7.037926411
121.12600,12.83662016
121.12650,16.49895305
121.12700,15.58336983
121.12750,12.22623134
121.12800,9.479481673
121.12850,7.343120819
121.12900,4.59637115
121.12950,2.460010296
121.13000,2.154815888
121.13050,1.84962148
121.13100,0.6288438496
121.13150,-0.897128189
121.13200,-0.2867393736
121.13250,2.154815888
121.13300,4.291176742
121.13350,4.901565557
121.13400,4.901565557
121.13450,5.511954373
121.13500,5.206759965
121.13550,3.985982334
121.13600,3.680787927
121.13650,3.680787927
121.13700,3.070399111
121.13750,1.239232665
121.13800,0.6288438496
121.13850,1.239232665
121.13900,0.9340382573
121.13950,-0.5919337813
121.14000,-0.897128189
121.14050,1.239232665
121.14100,2.765204703
121.14150,0.6288438496
121.14200,-2.11790582
121.14250,-2.11790582
121.14300,-0.2867393736
121.14350,0.01845503415
121.14400,-1.507517004
121.14450,-3.949072266
121.14500,-5.169849897
121.14550,-4.864655489
121.14600,-2.728294635
121.14650,-1.812711412
121.14700,-4.559461081
121.14750,-10.05296042
121.14800,-12.18932127
121.14850,-7.001016343
121.14900,0.3236494419
121.14950,4.59637115
121.15000,6.122343188
121.15050,11.31064812
121.15100,18.6353139
121.15150,20.46648035
121.15200,14.3625922
121.15250,7.343120819
121.15300,5.81714878
121.15350,4.901565557
121.15400,-0.5919337813
121.15450,-8.526988381
121.15500,-10.35815483
121.15550,-5.780238712
121.15600,-1.812711412
121.15650,-2.423100227
121.15700,-5.169849897
121.15750,-7.916599566
121.15800,-10.35815483
121.15850,-11.27373805
121.15900,-8.221793974
121.15950,-4.559461081
121.16000,-5.780238712
121.16050,-9.137377197
121.16100,-4.254266674
121.16150,11.00545371
121.16200,23.51842443
121.16250,20.46648035
121.16300,6.427537596
121.16350,-3.338683451
121.16400,-3.949072266
121.16450,-2.11790582
121.16500,-3.949072266
121.16550,-7.611405158
121.16600,-9.137377197
121.16650,-6.390627528
121.16700,-0.5919337813
121.16750,3.680787927
121.16800,2.765204703
121.16850,-3.643877858
121.16900,-9.442571605
121.16950,-9.442571605
121.17000,-6.08543312
121.17050,-5.169849897
121.17100,-5.475044304
121.17150,-3.643877858
121.17200,-0.5919337813
121.17250,0.01845503415
121.17300,0.9340382573
121.17350,6.122343188
121.17400,12.53142575
121.17450,14.3625922
121.17500,11.31064812
121.17550,9.174287265
121.17600,9.479481673
121.17650,8.869092857
121.17700,4.901565557
121.17750,0.01845503415
121.17800,-4.559461081
121.17850,-7.306210751
121.17900,-7.001016343
121.17950,-3.033489043
121.18000,1.84962148
121.18050,4.291176742
121.18100,4.901565557
121.18150,3.985982334
121.18200,0.01845503415
121.18250,-7.001016343
121.18300,-12.79971009
121.18350,-12.79971009
121.18400,-9.137377197
121.18450,-6.695821935
121.18500,-5.475044304
121.18550,-4.254266674
121.18600,-3.949072266
121.18650,-5.780238712
121.18700,-6.08543312
121.18750,-3.033489043
121.18800,-0.897128189
121.18850,-3.643877858
121.18900,-7.916599566
121.18950,-7.001016343
121.19000,-1.812711412
121.19050,3.070399111
121.19100,5.206759965
121.19150,3.680787927
121.19200,-0.897128189
121.19250,-5.169849897
121.19300,-2.423100227
121.19350,7.037926411
121.19400,13.75220338
121.19450,11.31064812
121.19500,6.122343188
121.19550,6.122343188
121.19600,7.037926411
121.19650,2.765204703
121.19700,-1.202322597
121.19750,2.460010296
121.19800,10.3950649
121.19850,12.53142575
121.19900,7.953509634
121.19950,4.291176742
121.20000,2.460010296
121.20050,-2.728294635
121.20100,-9.442571605
121.20150,-10.35815483
121.20200,-5.475044304
121.20250,-2.728294635
121.20300,-3.949072266
121.20350,-2.423100227
121.20400,2.765204703
121.20450,4.291176742
121.20500,0.01845503415
121.20550,-5.475044304
121.20600,-8.832182789
121.20650,-14.02048772
121.20700,-21.65034791
121.20750,-25.61787521
121.20800,-24.09190317
121.20850,-23.48151436
121.20900,-24.09190317
121.20950,-11.88412687
121.21000,17.41453627
121.21050,44.27164415
121.21100,45.18722737
121.21150,24.73920206
121.21200,13.44700897
121.21250,27.48595173
121.21300,48.84956027
121.21350,52.20669875
121.21400,36.94697837
121.21450,22.2976468
121.21500,17.71973068
121.21550,14.3625922
121.21600,2.154815888
121.21650,-14.93607094
121.21700,-26.53345844
121.21750,-27.14384725
121.21800,-21.3451535
121.21850,-14.93607094
121.21900,-12.49451568
121.21950,-13.71529331
121.22000,-14.63087654
121.22050,-9.747766012
121.22100,0.01845503415
121.22150,7.953509634
121.22200,8.56389845
121.22250,3.680787927
121.22300,-1.202322597
121.22350,-4.254266674
121.22400,-5.475044304
121.22450,-5.475044304
121.22500,-2.423100227
121.22550,3.070399111
121.22600,7.648315227
121.22650,8.56389845
121.22700,6.122343188
121.22750,3.680787927
121.22800,3.070399111
121.22850,3.070399111
121.22900,0.6288438496
121.22950,-3.949072266
121.23000,-7.611405158
121.23050,-7.001016343
121.23100,-1.202322597
121.23150,5.511954373
121.23200,8.56389845
121.23250,5.206759965
121.23300,-3.949072266
121.23350,-14.02048772
121.23400,-17.3776262
121.23450,-10.05296042
121.23500,2.154815888
121.23550,10.08987049
121.23600,8.258704042
121.23650,0.3236494419
121.23700,-6.390627528
121.23750,-6.695821935
121.23800,-0.2867393736
121.23850,8.258704042
121.23900,10.7002593
121.23950,0.01845503415
121.24000,-18.59840384
121.24050,-35.07890185
121.24100,-39.04642915
121.24150,-31.11137455
121.24200,-18.90359824
121.24250,-7.916599566
121.24300,0.01845503415
121.24350,4.901565557
121.24400,6.427537596
121.24450,4.59637115
121.24500,1.84962148
121.24550,0.01845503415
121.24600,-1.202322597
121.24650,-4.254266674
121.24700,-9.137377197
121.24750,-12.79971009
121.24800,-12.18932127
121.24850,-8.526988381
121.24900,-5.169849897
121.24950,-3.949072266
121.25000,-3.643877858
121.25050,-2.423100227
121.25100,2.154815888
121.25150,11.92103693
121.25200,23.82361883
121.25250,28.70672936
121.25300,21.07686917
121.25350,6.732732004
121.25400,-1.812711412
121.25450,-0.2867393736
121.25500,1.84962148
121.25550,-2.423100227
121.25600,-7.916599566
121.25650,-4.864655489
121.25700,5.511954373
121.25750,13.44700897
121.25800,13.75220338
121.25850,12.22623134
121.25900,11.61584253
121.25950,7.953509634
121.26000,0.6288438496
121.26050,-4.254266674
121.26100,-1.507517004
121.26150,5.511954373
121.26200,9.479481673
121.26250,8.869092857
121.26300,7.648315227
121.26350,6.732732004
121.26400,4.901565557
121.26450,3.985982334
121.26500,5.511954373
121.26550,7.037926411
121.26600,5.81714878
121.26650,3.375593519
121.26700,3.985982334
121.26750,7.343120819
121.26800,9.479481673
121.26850,9.784676081
121.26900,8.56389845
121.26950,4.59637115
121.27000,-3.033489043
121.27050,-9.747766012
121.27100,-9.137377197
121.27150,-3.949072266
121.27200,-2.728294635
121.27250,-7.916599566
121.27300,-12.49451568
121.27350,-10.96854364
121.27400,-7.001016343
121.27450,-5.780238712
121.27500,-5.169849897
121.27550,-1.812711412
121.27600,1.239232665
121.27650,0.9340382573
121.27700,0.01845503415
121.27750,3.070399111
121.27800,7.343120819
121.27850,7.953509634
121.27900,5.511954373
121.27950,4.291176742
121.28000,1.84962148
121.28050,-7.001016343
121.28100,-20.42957028
121.28150,-28.36462488
121.28200,-26.22826403
121.28250,-18.59840384
121.28300,-12.49451568
121.28350,-8.832182789
121.28400,-5.780238712
121.28450,-3.033489043
121.28500,-2.728294635
121.28550,-3.949072266
121.28600,-5.169849897
121.28650,-5.780238712
121.28700,-7.001016343
121.28750,-9.137377197
121.28800,-12.79971009
121.28850,-15.54645976
121.28900,-14.63087654
121.28950,-9.442571605
121.29000,-3.033489043
121.29050,3.985982334
121.29100,13.44700897
121.29150,24.73920206
121.29200,32.36906225
121.29250,32.97945107
121.29300,28.70672936
121.29350,25.34959087
121.29400,22.6028412
121.29450,18.94050831
121.29500,14.97298101
121.29550,14.97298101
121.29600,16.19375864
121.29650,11.92103693
121.29700,1.544427073
121.29750,-5.780238712
121.29800,-5.169849897
121.29850,-1.812711412
121.29900,-4.559461081
121.29950,-14.02048772
121.30000,-22.87112554
121.30050,-23.48151436
121.30100,-15.54645976
121.30150,-6.390627528
121.30200,-2.11790582
121.30250,-3.338683451
121.30300,-4.254266674
121.30350,0.3236494419
121.30400,7.343120819
121.30450,10.08987049
121.30500,6.427537596
121.30550,0.9340382573
121.30600,-1.812711412
121.30650,-1.507517004
121.30700,0.01845503415
121.30750,0.9340382573
121.30800,0.9340382573
121.30850,-0.2867393736
121.30900,-2.423100227
121.30950,-3.949072266
121.31000,-5.780238712
121.31050,-7.306210751
121.31100,-5.780238712
121.31150,-0.2867393736
121.31200,5.81714878
121.31250,8.869092857
121.31300,7.953509634
121.31350,5.511954373
121.31400,3.070399111
121.31450,0.01845503415
121.31500,-3.338683451
121.31550,-4.559461081
121.31600,-3.338683451
121.31650,-1.507517004
121.31700,0.3236494419
121.31750,4.59637115
121.31800,8.869092857
121.31850,8.56389845
121.31900,2.154815888
121.31950,-5.780238712
121.32000,-9.137377197
121.32050,-6.695821935
121.32100,-2.423100227
121.32150,-1.507517004
121.32200,-2.423100227
121.32250,-0.2867393736
121.32300,6.122343188
121.32350,11.92103693
121.32400,11.31064812
121.32450,7.037926411
121.32500,6.427537596
121.32550,10.3950649
121.32600,10.7002593
121.32650,4.59637115
121.32700,-0.2867393736
121.32750,2.765204703
121.32800,9.174287265
121.32850,8.258704042
121.32900,0.01845503415
121.32950,-6.695821935
121.33000,-6.695821935
121.33050,-5.169849897
121.33100,-7.916599566
121.33150,-11.57893246
121.33200,-10.96854364
121.33250,-6.08543312
121.33300,-1.202322597
121.33350,0.6288438496
121.33400,-0.2867393736
121.33450,-3.949072266
121.33500,-10.05296042
121.33550,-14.63087654
121.33600,-14.63087654
121.33650,-10.66334924
121.33700,-8.221793974
121.33750,-7.916599566
121.33800,-7.916599566
121.33850,-7.001016343
121.33900,-7.306210751
121.33950,-8.832182789
121.34000,-10.35815483
121.34050,-10.35815483
121.34100,-10.66334924
121.34150,-10.66334924
121.34200,-9.137377197
121.34250,-5.475044304
121.34300,-1.507517004
121.34350,1.84962148
121.34400,7.343120819
121.34450,14.05739779
121.34500,17.71973068
121.34550,15.27817542
121.34600,9.174287265
121.34650,4.59637115
121.34700,3.375593519
121.34750,3.985982334
121.34800,4.59637115
121.34850,5.81714878
121.34900,6.732732004
121.34950,6.732732004
121.35000,4.901565557
121.35050,2.154815888
121.35100,1.239232665
121.35150,3.070399111
121.35200,5.511954373
121.35250,6.122343188
121.35300,3.985982334
121.35350,0.6288438496
121.35400,-4.559461081
121.35450,-12.49451568
121.35500,-18.59840384
121.35550,-18.90359824
121.35600,-18.29320943
121.35650,-22.26073673
121.35700,-24.39709758
121.35750,-12.18932127
121.35800,11.31064812
121.35850,24.12881324
121.35900,14.97298101
121.35950,1.84962148
121.36000,6.122343188
121.36050,21.07686917
121.36100,24.43400765
121.36150,12.22623134
121.36200,1.84962148
121.36250,2.765204703
121.36300,6.122343188
121.36350,3.070399111
121.36400,-0.2867393736
121.36450,0.9340382573
121.36500,2.460010296
121.36550,-0.5919337813
121.36600,-3.949072266
121.36650,-2.423100227
121.36700,-0.5919337813
121.36750,-3.643877858
121.36800,-9.137377197
121.36850,-10.66334924
121.36900,-8.221793974
121.36950,-4.864655489
121.37000,-2.423100227
121.37050,0.9340382573
121.37100,7.037926411
121.37150,13.44700897
121.37200,19.55089713
121.37250,22.6028412
121.37300,20.77167476
121.37350,16.19375864
121.37400,14.97298101
121.37450,18.6353139
121.37500,22.6028412
121.37550,21.38206357
121.37600,16.19375864
121.37650,8.56389845
121.37700,-1.812711412
121.37750,-15.85165417
121.37800,-25.92306962
121.37850,-25.31268081
121.37900,-17.3776262
121.37950,-12.18932127
121.38000,-13.4100989
121.38050,-15.85165417
121.38100,-14.93607094
121.38150,-13.4100989
121.38200,-13.4100989
121.38250,-12.79971009
121.38300,-10.66334924
121.38350,-11.57893246
121.38400,-17.3776262
121.38450,-20.42957028
121.38500,-12.79971009
121.38550,1.84962148
121.38600,11.00545371
121.38650,8.869092857
121.38700,1.544427073
121.38750,-0.2867393736
121.38800,4.291176742
121.38850,11.31064812
121.38900,14.6677866
121.38950,12.53142575
121.39000,6.732732004
121.39050,1.84962148
121.39100,0.9340382573
121.39150,2.460010296
121.39200,3.070399111
121.39250,2.765204703
121.39300,4.59637115
121.39350,8.258704042
121.39400,10.3950649
121.39450,8.258704042
121.39500,3.375593519
121.39550,-0.2867393736
121.39600,-2.728294635
121.39650,-3.033489043
121.39700,-1.507517004
121.39750,0.3236494419
121.39800,0.3236494419
121.39850,-2.423100227
121.39900,-5.780238712
121.39950,-5.780238712
121.40000,-2.728294635
121.40050,0.01845503415
121.40100,0.3236494419
121.40150,-0.897128189
121.40200,-2.728294635
121.40250,-3.338683451
121.40300,-3.338683451
121.40350,-3.643877858
121.40400,-3.949072266
121.40450,-3.949072266
121.40500,-3.033489043
121.40550,-2.11790582
121.40600,-1.507517004
121.40650,0.01845503415
121.40700,3.070399111
121.40750,6.122343188
121.40800,7.037926411
121.40850,5.81714878
121.40900,4.901565557
121.40950,6.122343188
121.41000,8.869092857
121.41050,11.61584253
121.41100,13.44700897
121.41150,11.61584253
121.41200,4.59637115
121.41250,-3.643877858
121.41300,-5.475044304
121.41350,-0.5919337813
121.41400,1.544427073
121.41450,-6.390627528
121.41500,-21.0399591
121.41550,-29.89059692
121.41600,-27.75423607
121.41650,-20.73476469
121.41700,-14.63087654
121.41750,-9.747766012
121.41800,-4.254266674
121.41850,-0.2867393736
121.41900,0.3236494419
121.41950,1.544427073
121.42000,5.206759965
121.42050,7.953509634
121.42100,6.122343188
121.42150,2.154815888
121.42200,1.239232665
121.42250,3.375593519
121.42300,4.291176742
121.42350,3.680787927
121.42400,3.985982334
121.42450,4.901565557
121.42500,3.070399111
121.42550,-1.507517004
121.42600,-3.643877858
121.42650,0.01845503415
121.42700,3.680787927
121.42750,3.375593519
121.42800,2.154815888
121.42850,4.901565557
121.42900,8.56389845
121.42950,7.648315227
121.43000,3.680787927
121.43050,5.206759965
121.43100,13.14181457
121.43150,17.10934187
121.43200,9.174287265
121.43250,-3.949072266
121.43300,-11.57893246
121.43350,-9.442571605
121.43400,-3.338683451
121.43450,0.9340382573
121.43500,3.375593519
121.43550,3.680787927
121.43600,3.070399111
121.43650,3.680787927
121.43700,6.427537596
121.43750,9.479481673
121.43800,8.56389845
121.43850,2.460010296
121.43900,-5.780238712
121.43950,-13.71529331
121.44000,-18.29320943
121.44050,-17.98801502
121.44100,-16.15684857
121.44150,-17.3776262
121.44200,-20.12437587
121.44250,-17.68282061
121.44300,-9.137377197
121.44350,-3.033489043
121.44400,-4.254266674
121.44450,-4.864655489
121.44500,1.239232665
121.44550,7.648315227
121.44600,5.206759965
121.44650,-1.812711412
121.44700,-1.812711412
121.44750,6.732732004
121.44800,14.6677866
121.44850,16.49895305
121.44900,14.97298101
121.44950,14.6677866
121.45000,15.27817542
121.45050,18.94050831
121.45100,28.40153495
121.45150,38.4729504
121.45200,37.86256159
121.45250,25.34959087
121.45300,10.08987049
121.45350,0.9340382573
121.45400,-3.338683451
121.45450,-6.390627528
121.45500,-8.221793974
121.45550,-7.916599566
121.45600,-8.221793974
121.45650,-8.221793974
121.45700,-5.169849897
121.45750,1.239232665
121.45800,8.258704042
121.45850,12.22623134
121.45900,15.27817542
121.45950,18.02492509
121.46000,17.10934187
121.46050,11.92103693
121.46100,5.511954373
121.46150,0.6288438496
121.46200,-3.949072266
121.46250,-10.05296042
121.46300,-13.71529331
121.46350,-11.57893246
121.46400,-5.475044304
121.46450,-1.202322597
121.46500,-0.897128189
121.46550,-2.11790582
121.46600,-3.033489043
121.46650,-3.338683451
121.46700,-3.338683451
121.46750,-3.338683451
121.46800,-3.643877858
121.46850,-3.643877858
121.46900,-3.643877858
121.46950,-4.559461081
121.47000,-6.08543312
121.47050,-6.695821935
121.47100,-6.08543312
121.47150,-5.780238712
121.47200,-6.08543312
121.47250,-5.475044304
121.47300,-5.169849897
121.47350,-7.611405158
121.47400,-11.88412687
121.47450,-13.71529331
121.47500,-9.442571605
121.47550,-3.033489043
121.47600,-0.2867393736
121.47650,-0.5919337813
121.47700,-1.202322597
121.47750,-0.5919337813
121.47800,-0.2867393736
121.47850,0.01845503415
121.47900,0.01845503415
121.47950,-0.897128189
121.48000,-3.033489043
121.48050,-4.254266674
121.48100,-3.949072266
121.48150,-5.780238712
121.48200,-10.66334924
121.48250,-12.79971009
121.48300,-8.221793974
121.48350,-0.897128189
121.48400,2.460010296
121.48450,3.680787927
121.48500,6.122343188
121.48550,6.122343188
121.48600,-0.5919337813
121.48650,-10.35815483
121.48700,-14.32568213
121.48750,-12.18932127
121.48800,-10.05296042
121.48850,-10.05296042
121.48900,-9.137377197
121.48950,-7.001016343
121.49000,-7.001016343
121.49050,-10.66334924
121.49100,-16.15684857
121.49150,-20.42957028
121.49200,-21.3451535
121.49250,-17.3776262
121.49300,-12.79971009
121.49350,-15.85165417
121.49400,-25.0074864
121.49450,-27.44904166
121.49500,-12.49451568
121.49550,11.92103693
121.49600,31.45347903
121.49650,37.55736718
121.49700,31.75867344
121.49750,18.3301195
121.49800,6.122343188
121.49850,4.291176742
121.49900,7.648315227
121.49950,0.3236494419
121.50000,-17.0724318
121.50050,-18.29320943
121.50100,14.05739779
121.50150,56.78461487
121.50200,68.07680795
121.50250,43.35606093
121.50300,14.6677866
121.50350,6.732732004
121.50400,10.7002593
121.50450,11.31064812
121.50500,7.343120819
121.50550,3.375593519
121.50600,-1.507517004
121.50650,-7.611405158
121.50700,-9.137377197
121.50750,-5.169849897
121.50800,-4.254266674
121.50850,-10.66334924
121.50900,-16.15684857
121.50950,-14.63087654
121.51000,-10.35815483
121.51050,-9.747766012
121.51100,-10.66334924
121.51150,-7.611405158
121.51200,-2.11790582
121.51250,-0.2867393736
121.51300,-1.812711412
121.51350,-3.033489043
121.51400,-3.033489043
121.51450,-3.949072266
121.51500,-5.169849897
121.51550,-4.254266674
121.51600,-0.5919337813
121.51650,3.375593519
121.51700,5.81714878
121.51750,5.81714878
121.51800,4.59637115
121.51850,3.680787927
121.51900,3.680787927
121.51950,4.59637115
121.52000,5.206759965
121.52050,4.59637115
121.52100,2.765204703
121.52150,0.01845503415
121.52200,-3.033489043
121.52250,-5.475044304
121.52300,-5.475044304
121.52350,-3.033489043
121.52400,0.6288438496
121.52450,3.680787927
121.52500,4.291176742
121.52550,1.84962148
121.52600,0.01845503415
121.52650,0.01845503415
121.52700,0.6288438496
121.52750,-0.5919337813
121.52800,-5.169849897
121.52850,-8.832182789
121.52900,-8.221793974
121.52950,-5.169849897
121.53000,-3.643877858
121.53050,-3.338683451
121.53100,0.01845503415
121.53150,5.81714878
121.53200,11.00545371
121.53250,11.00545371
121.53300,6.122343188
121.53350,0.3236494419
121.53400,-3.033489043
121.53450,-4.864655489
121.53500,-6.390627528
121.53550,-8.221793974
121.53600,-10.05296042
121.53650,-10.05296042
121.53700,-7.306210751
121.53750,-1.202322597
121.53800,5.511954373
121.53850,9.479481673
121.53900,7.343120819
121.53950,0.01845503415
121.54000,-6.390627528
121.54050,-8.526988381
121.54100,-8.526988381
121.54150,-10.35815483
121.54200,-13.1049045
121.54250,-11.57893246
121.54300,-3.949072266
121.54350,3.680787927
121.54400,8.869092857
121.54450,11.92103693
121.54500,16.49895305
121.54550,22.6028412
121.54600,26.87556291
121.54650,25.95997969
121.54700,17.41453627
121.54750,4.901565557
121.54800,-3.643877858
121.54850,-2.423100227
121.54900,3.985982334
121.54950,7.037926411
121.55000,3.680787927
121.55050,0.9340382573
121.55100,3.070399111
121.55150,6.122343188
121.55200,4.901565557
121.55250,1.84962148
121.55300,1.239232665
121.55350,2.460010296
121.55400,3.375593519
121.55450,4.59637115
121.55500,8.56389845
121.55550,13.44700897
121.55600,13.14181457
121.55650,5.81714878
121.55700,-2.728294635
121.55750,-7.306210751
121.55800,-6.390627528
121.55850,-3.643877858
121.55900,-1.507517004
121.55950,0.3236494419
121.56000,2.765204703
121.56050,3.375593519
121.56100,0.01845503415
121.56150,-7.001016343
121.56200,-12.18932127
121.56250,-13.1049045
121.56300,-13.1049045
121.56350,-14.63087654
121.56400,-15.24126535
121.56450,-12.18932127
121.56500,-6.390627528
121.56550,-2.11790582
121.56600,-0.5919337813
121.56650,0.01845503415
121.56700,-0.2867393736
121.56750,-1.812711412
121.56800,-3.338683451
121.56850,-2.423100227
121.56900,0.3236494419
121.56950,3.375593519
121.57000,4.901565557
121.57050,4.59637115
121.57100,2.765204703
121.57150,0.01845503415
121.57200,-1.507517004
121.57250,0.01845503415
121.57300,2.765204703
121.57350,4.291176742
121.57400,3.375593519
121.57450,0.9340382573
121.57500,-0.897128189
121.57550,-2.728294635
121.57600,-5.475044304
121.57650,-9.747766012
121.57700,-14.32568213
121.57750,-16.15684857
121.57800,-13.4100989
121.57850,-9.137377197
121.57900,-6.390627528
121.57950,-5.169849897
121.58000,-2.728294635
121.58050,0.9340382573
121.58100,5.206759965
121.58150,7.953509634
121.58200,9.174287265
121.58250,9.479481673
121.58300,10.7002593
121.58350,11.92103693
121.58400,12.22623134
121.58450,9.479481673
121.58500,4.901565557
121.58550,0.6288438496
121.58600,-1.812711412
121.58650,-3.949072266
121.58700,-3.338683451
121.58750,1.84962148
121.58800,10.7002593
121.58850,16.19375864
121.58900,14.3625922
121.58950,7.953509634
121.59000,0.9340382573
121.59050,-1.507517004
121.59100,0.6288438496
121.59150,5.81714878
121.59200,6.732732004
121.59250,0.01845503415
121.59300,-8.832182789
121.59350,-11.27373805
121.59400,-5.780238712
121.59450,0.01845503415
121.59500,1.84962148
121.59550,2.460010296
121.59600,5.81714878
121.59650,10.3950649
121.59700,12.53142575
121.59750,12.22623134
121.59800,11.61584253
121.59850,9.479481673
121.59900,5.511954373
121.59950,2.154815888
121.60000,0.01845503415
121.60050,-3.643877858
121.60100,-10.35815483
121.60150,-14.93607094
121.60200,-12.49451568
121.60250,-5.780238712
121.60300,-1.202322597
121.60350,-1.202322597
121.60400,-2.728294635
121.60450,-3.949072266
121.60500,-5.169849897
121.60550,-5.780238712
121.60600,-4.559461081
121.60650,-1.202322597
121.60700,1.239232665
121.60750,3.070399111
121.60800,5.206759965
121.60850,7.648315227
121.60900,7.648315227
121.60950,5.206759965
121.61000,1.84962148
121.61050,-0.5919337813
121.61100,-2.728294635
121.61150,-3.643877858
121.61200,-3.338683451
121.61250,-4.559461081
121.61300,-8.832182789
121.61350,-12.79971009
121.61400,-10.35815483
121.61450,-3.338683451
121.61500,0.01845503415
121.61550,-3.949072266
121.61600,-8.832182789
121.61650,-7.611405158
121.61700,-2.728294635
121.61750,-2.11790582
121.61800,-5.169849897
121.61850,-4.254266674
121.61900,3.070399111
121.61950,11.00545371
121.62000,12.22623134
121.62050,10.08987049
121.62100,12.22623134
121.62150,17.10934187
121.62200,15.58336983
121.62250,1.239232665
121.62300,-17.68282061
121.62350,-28.9750137
121.62400,-27.14384725
121.62450,-18.29320943
121.62500,-9.747766012
121.62550,-3.949072266
121.62600,0.01845503415
121.62650,1.84962148
121.62700,1.544427073
121.62750,0.01845503415
121.62800,-1.202322597
121.62850,-1.812711412
121.62900,-1.202322597
121.62950,0.6288438496
121.63000,3.375593519
121.63050,4.59637115
121.63100,4.59637115
121.63150,4.291176742
121.63200,4.901565557
121.63250,5.81714878
121.63300,6.122343188
121.63350,5.81714878
121.63400,5.511954373
121.63450,4.59637115
121.63500,4.59637115
121.63550,5.511954373
121.63600,5.511954373
121.63650,1.544427073
121.63700,-5.780238712
121.63750,-12.79971009
121.63800,-15.24126535
121.63850,-13.4100989
121.63900,-9.137377197
121.63950,-4.254266674
121.64000,-0.5919337813
121.64050,0.01845503415
121.64100,-3.338683451
121.64150,-11.27373805
121.64200,-22.26073673
121.64250,-33.24773541
121.64300,-37.21526271
121.64350,-32.33215218
121.64400,-24.09190317
121.64450,-16.46204298
121.64500,-3.033489043
121.64550,22.90803561
121.64600,53.12228197
121.64650,67.46641914
121.64700,57.39500368
121.64750,38.4729504
121.64800,28.09634054
121.64850,25.65478528
121.64900,17.41453627
121.64950,-0.2867393736
121.65000,-16.76723739
121.65050,-20.12437587
121.65100,-13.4100989
121.65150,-6.390627528
121.65200,-4.254266674
121.65250,-3.949072266
121.65300,-3.949072266
121.65350,-7.001016343
121.65400,-13.71529331
121.65450,-19.20879265
121.65500,-18.29320943
121.65550,-12.49451568
121.65600,-5.475044304
121.65650,1.84962148
121.65700,12.22623134
121.65750,22.90803561
121.65800,27.48595173
121.65850,23.51842443
121.65900,17.41453627
121.65950,14.05739779
121.66000,12.53142575
121.66050,8.258704042
121.66100,1.84962148
121.66150,0.01845503415
121.66200,3.680787927
121.66250,6.427537596
121.66300,0.9340382573
121.66350,-10.05296042
121.66400,-20.12437587
121.66450,-23.48151436
121.66500,-23.17631995
121.66550,-23.17631995
121.66600,-21.95554232
121.66650,-16.76723739
121.66700,-8.832182789
121.66750,-3.033489043
121.66800,-1.202322597
121.66850,-0.2867393736
121.66900,0.01845503415
121.66950,-0.897128189
121.67000,-2.423100227
121.67050,-1.202322597
121.67100,1.84962148
121.67150,1.544427073
121.67200,-1.812711412
121.67250,-0.897128189
121.67300,7.953509634
121.67350,15.88856423
121.67400,12.53142575
121.67450,2.154815888
121.67500,-3.949072266
121.67550,-3.643877858
121.67600,-2.728294635
121.67650,-4.559461081
121.67700,-6.08543312
121.67750,-5.475044304
121.67800,-5.169849897
121.67850,-6.08543312
121.67900,-6.695821935
121.67950,-6.695821935
121.68000,-7.611405158
121.68050,-8.832182789
121.68100,-6.695821935
121.68150,-1.507517004
121.68200,3.375593519
121.68250,6.122343188
121.68300,6.732732004
121.68350,7.037926411
121.68400,6.732732004
121.68450,5.81714878
121.68500,4.59637115
121.68550,3.070399111
121.68600,1.239232665
121.68650,1.239232665
121.68700,3.070399111
121.68750,3.985982334
121.68800,3.070399111
121.68850,2.154815888
121.68900,1.84962148
121.68950,0.9340382573
121.69000,-1.507517004
121.69050,-3.643877858
121.69100,-3.338683451
121.69150,-0.897128189
121.69200,0.3236494419
121.69250,0.9340382573
121.69300,0.01845503415
121.69350,-3.033489043
121.69400,-5.475044304
121.69450,-4.864655489
121.69500,-1.507517004
121.69550,1.239232665
121.69600,2.765204703
121.69650,5.511954373
121.69700,7.343120819
121.69750,3.985982334
121.69800,-2.11790582
121.69850,-4.254266674
121.69900,-1.812711412
121.69950,-1.812711412
121.70000,-5.475044304
121.70050,-5.780238712
121.70100,-2.11790582
121.70150,-2.11790582
121.70200,-7.611405158
121.70250,-4.864655489
121.70300,13.75220338
121.70350,35.11581192
121.70400,39.08333922
121.70450,25.95997969
121.70500,12.83662016
121.70550,8.869092857
121.70600,9.479481673
121.70650,8.56389845
121.70700,5.511954373
121.70750,0.01845503415
121.70800,-7.916599566
121.70850,-15.24126535
121.70900,-18.29320943
121.70950,-17.3776262
121.71000,-14.02048772
121.71050,-7.916599566
121.71100,-0.5919337813
121.71150,1.544427073
121.71200,-1.507517004
121.71250,-1.507517004
121.71300,7.343120819
121.71350,18.3301195
121.71400,19.55089713
121.71450,11.00545371
121.71500,3.070399111
121.71550,0.3236494419
121.71600,-0.897128189
121.71650,-3.643877858
121.71700,-6.695821935
121.71750,-8.221793974
121.71800,-8.832182789
121.71850,-8.526988381
121.71900,-7.306210751
121.71950,-6.390627528
121.72000,-6.08543312
121.72050,-3.643877858
121.72100,1.544427073
121.72150,6.732732004
121.72200,9.479481673
121.72250,11.92103693
121.72300,14.05739779
121.72350,14.05739779
121.72400,10.3950649
121.72450,7.648315227
121.72500,8.869092857
121.72550,10.08987049
121.72600,7.648315227
121.72650,3.680787927
121.72700,2.765204703
121.72750,3.985982334
121.72800,4.901565557
121.72850,5.81714878
121.72900,7.343120819
121.72950,6.427537596
121.73000,1.239232665
121.73050,-3.949072266
121.73100,-5.475044304
121.73150,-5.780238712
121.73200,-8.832182789
121.73250,-13.1049045
121.73300,-14.02048772
121.73350,-11.27373805
121.73400,-9.137377197
121.73450,-7.916599566
121.73500,-3.949072266
121.73550,0.6288438496
121.73600,1.239232665
121.73650,-3.949072266
121.73700,-9.442571605
121.73750,-10.05296042
121.73800,-7.611405158
121.73850,-6.695821935
121.73900,-7.306210751
121.73950,-6.695821935
121.74000,-4.254266674
121.74050,-2.728294635
121.74100,-3.033489043
121.74150,-3.338683451
121.74200,-2.11790582
121.74250,-0.897128189
121.74300,-1.202322597
121.74350,-1.812711412
121.74400,-1.812711412
121.74450,-1.812711412
121.74500,-2.728294635
121.74550,-2.728294635
121.74600,0.6288438496
121.74650,6.427537596
121.74700,10.7002593
121.74750,11.31064812
121.74800,8.56389845
121.74850,4.291176742
121.74900,0.01845503415
121.74950,-2.11790582
121.75000,-1.812711412
121.75050,-0.897128189
121.75100,-0.897128189
121.75150,0.3236494419
121.75200,7.037926411
121.75250,16.49895305
121.75300,21.38206357
121.75350,18.3301195
121.75400,11.31064812
121.75450,6.122343188
121.75500,2.765204703
121.75550,-0.5919337813
121.75600,-3.033489043
121.75650,-1.202322597
121.75700,3.680787927
121.75750,5.206759965
121.75800,0.01845503415
121.75850,-8.221793974
121.75900,-12.49451568
121.75950,-12.18932127
121.76000,-14.02048772
121.76050,-21.65034791
121.76100,-30.50098574
121.76150,-32.33215218
121.76200,-24.09190317
121.76250,-9.747766012
121.76300,3.070399111
121.76350,8.869092857
121.76400,4.901565557
121.76450,-3.949072266
121.76500,-9.747766012
121.76550,-7.001016343
121.76600,0.6288438496
121.76650,7.953509634
121.76700,11.92103693
121.76750,13.14181457
121.76800,10.3950649
121.76850,3.070399111
121.76900,-3.949072266
121.76950,-7.306210751
121.77000,-7.611405158
121.77050,-7.001016343
121.77100,-5.169849897
121.77150,-2.423100227
121.77200,-4.254266674
121.77250,-13.4100989
121.77300,-21.95554232
121.77350,-22.26073673
121.77400,-16.46204298
121.77450,-10.05296042
121.77500,-1.202322597
121.77550,13.14181457
121.77600,26.2651741
121.77650,29.31711817
121.77700,26.5703685
121.77750,25.65478528
121.77800,23.82361883
121.77850,14.6677866
121.77900,4.291176742
121.77950,2.154815888
121.78000,1.84962148
121.78050,-9.442571605
121.78100,-27.44904166
121.78150,-33.55292981
121.78200,-23.48151436
121.78250,-11.57893246
121.78300,-7.611405158
121.78350,-8.221793974
121.78400,-10.35815483
121.78450,-12.79971009
121.78500,-7.001016343
121.78550,15.88856423
121.78600,43.96644974
121.78650,50.68072671
121.78700,30.84309021
121.78750,7.648315227
121.78800,1.84962148
121.78850,6.427537596
121.78900,8.56389845
121.78950,8.56389845
121.79000,11.61584253
121.79050,14.6677866
121.79100,11.00545371
121.79150,3.985982334
121.79200,-0.2867393736
121.79250,-2.728294635
121.79300,-5.475044304
121.79350,-4.559461081
121.79400,1.84962148
121.79450,7.343120819
121.79500,5.81714878
121.79550,0.01845503415
121.79600,-2.728294635
121.79650,-2.11790582
121.79700,-2.11790582
121.79750,-4.559461081
121.79800,-7.001016343
121.79850,-8.221793974
121.79900,-9.442571605
121.79950,-9.747766012
121.80000,-8.526988381
121.80050,-5.169849897
121.80100,-1.812711412
121.80150,0.01845503415
121.80200,0.6288438496
121.80250,2.460010296
121.80300,5.511954373
121.80350,7.648315227
121.80400,7.037926411
121.80450,6.122343188
121.80500,7.953509634
121.80550,8.869092857
121.80600,3.375593519
121.80650,-6.390627528
121.80700,-13.4100989
121.80750,-12.79971009
121.80800,-9.747766012
121.80850,-9.442571605
121.80900,-11.27373805
121.80950,-12.49451568
121.81000,-13.71529331
121.81050,-12.79971009
121.81100,-7.001016343
121.81150,0.9340382573
121.81200,3.070399111
121.81250,-1.507517004
121.81300,-4.254266674
121.81350,0.3236494419
121.81400,5.206759965
121.81450,2.765204703
121.81500,1.239232665
121.81550,9.784676081
121.81600,22.90803561
121.81650,25.04439647
121.81700,11.92103693
121.81750,-5.475044304
121.81800,-16.15684857
121.81850,-17.68282061
121.81900,-13.71529331
121.81950,-9.137377197
121.82000,-8.526988381
121.82050,-12.49451568
121.82100,-15.54645976
121.82150,-12.79971009
121.82200,-6.695821935
121.82250,-2.728294635
121.82300,-1.812711412
121.82350,-1.202322597
121.82400,-0.897128189
121.82450,0.01845503415
121.82500,2.154815888
121.82550,7.037926411
121.82600,11.31064812
121.82650,11.61584253
121.82700,10.3950649
121.82750,10.08987049
121.82800,9.479481673
121.82850,6.427537596
121.82900,3.985982334
121.82950,3.375593519
121.83000,2.460010296
121.83050,-0.5919337813
121.83100,-3.949072266
121.83150,-5.169849897
121.83200,-5.780238712
121.83250,-6.390627528
121.83300,-4.254266674
121.83350,0.01845503415
121.83400,-0.2867393736
121.83450,-6.08543312
121.83500,-6.695821935
121.83550,4.291176742
121.83600,16.49895305
121.83650,15.58336983
121.83700,3.985982334
121.83750,-3.949072266
121.83800,-2.423100227
121.83850,0.9340382573
121.83900,1.84962148
121.83950,2.765204703
121.84000,4.901565557
121.84050,7.037926411
121.84100,8.258704042
121.84150,7.953509634
121.84200,3.375593519
121.84250,-5.475044304
121.84300,-10.66334924
121.84350,-3.338683451
121.84400,10.3950649
121.84450,15.88856423
121.84500,11.00545371
121.84550,7.343120819
121.84600,9.479481673
121.84650,10.3950649
121.84700,6.122343188
121.84750,1.84962148
121.84800,2.154815888
121.84850,1.84962148
121.84900,-1.507517004
121.84950,-4.864655489
121.85000,-4.864655489
121.85050,-5.780238712
121.85100,-10.05296042
121.85150,-11.57893246
121.85200,-7.611405158
121.85250,-4.559461081
121.85300,-8.526988381
121.85350,-14.02048772
121.85400,-12.79971009
121.85450,-6.390627528
121.85500,-2.423100227
121.85550,-1.202322597
121.85600,1.239232665
121.85650,2.765204703
121.85700,-1.812711412
121.85750,-9.442571605
121.85800,-10.05296042
121.85850,-5.169849897
121.85900,-6.695821935
121.85950,-19.51398706
121.86000,-31.11137455
121.86050,-31.41656896
121.86100,-26.83865284
121.86150,-27.14384725
121.86200,-25.0074864
121.86250,-4.864655489
121.86300,28.40153495
121.86350,51.59630994
121.86400,49.45994908
121.86450,33.58983988
121.86500,23.51842443
121.86550,22.6028412
121.86600,20.77167476
121.86650,14.05739779
121.86700,7.648315227
121.86750,5.511954373
121.86800,4.59637115
121.86850,3.070399111
121.86900,2.154815888
121.86950,2.765204703
121.87000,1.239232665
121.87050,-2.11790582
121.87100,-3.949072266
121.87150,-2.11790582
121.87200,0.01845503415
121.87250,-2.728294635
121.87300,-8.832182789
121.87350,-13.1049045
121.87400,-11.88412687
121.87450,-7.306210751
121.87500,-2.423100227
121.87550,0.6288438496
121.87600,3.375593519
121.87650,5.81714878
121.87700,7.343120819
121.87750,7.037926411
121.87800,5.206759965
121.87850,3.680787927
121.87900,2.765204703
121.87950,1.84962148
121.88000,0.01845503415
121.88050,-2.728294635
121.88100,-4.559461081
121.88150,-3.643877858
121.88200,-1.202322597
121.88250,1.239232665
121.88300,2.154815888
121.88350,0.3236494419
121.88400,-3.033489043
121.88450,-7.001016343
121.88500,-9.442571605
121.88550,-9.137377197
121.88600,-7.916599566
121.88650,-7.611405158
121.88700,-8.832182789
121.88750,-9.442571605
121.88800,-6.390627528
121.88850,0.3236494419
121.88900,7.648315227
121.88950,11.31064812
121.89000,10.3950649
121.89050,7.953509634
121.89100,7.648315227
121.89150,10.7002593
121.89200,14.97298101
121.89250,17.71973068
121.89300,17.10934187
121.89350,13.14181457
121.89400,7.037926411
121.89450,0.6288438496
121.89500,-4.254266674
121.89550,-7.916599566
121.89600,-10.05296042
121.89650,-10.05296042
121.89700,-7.306210751
121.89750,-4.559461081
121.89800,-4.864655489
121.89850,-7.916599566
121.89900,-10.66334924
121.89950,-12.18932127
121.90000,-14.32568213
121.90050,-17.3776262
121.90100,-18.29320943
121.90150,-16.15684857
121.90200,-13.71529331
121.90250,-10.35815483
121.90300,-3.643877858
121.90350,3.985982334
121.90400,6.427537596
121.90450,2.765204703
121.90500,0.6288438496
121.90550,3.985982334
121.90600,8.258704042
121.90650,7.953509634
121.90700,7.648315227
121.90750,11.00545371
121.90800,11.92103693
121.90850,6.732732004
121.90900,5.81714878
121.90950,18.6353139
121.91000,35.72620074
121.91050,38.167756
121.91100,22.90803561
121.91150,4.901565557
121.91200,-4.559461081
121.91250,-8.221793974
121.91300,-10.05296042
121.91350,-10.05296042
121.91400,-8.221793974
121.91450,-7.611405158
121.91500,-7.611405158
121.91550,-4.559461081
121.91600,0.6288438496
121.91650,1.544427073
121.91700,-3.033489043
121.91750,-7.916599566
121.91800,-9.137377197
121.91850,-8.526988381
121.91900,-8.526988381
121.91950,-8.832182789
121.92000,-8.221793974
121.92050,-7.306210751
121.92100,-4.559461081
121.92150,0.6288438496
121.92200,4.291176742
121.92250,0.3236494419
121.92300,-7.916599566
121.92350,-11.57893246
121.92400,-7.306210751
121.92450,-1.202322597
121.92500,0.6288438496
121.92550,0.6288438496
121.92600,1.84962148
121.92650,3.070399111
121.92700,3.070399111
121.92750,4.291176742
121.92800,8.258704042
121.92850,11.61584253
121.92900,11.31064812
121.92950,7.953509634
121.93000,5.206759965
121.93050,4.59637115
121.93100,4.901565557
121.93150,4.59637115
121.93200,3.985982334
121.93250,2.154815888
121.93300,-0.5919337813
121.93350,-5.475044304
121.93400,-10.35815483
121.93450,-12.79971009
121.93500,-12.18932127
121.93550,-10.66334924
121.93600,-9.137377197
121.93650,-7.306210751
121.93700,-5.475044304
121.93750,-6.695821935
121.93800,-9.442571605
121.93850,-7.611405158
121.93900,0.9340382573
121.93950,9.479481673
121.94000,7.343120819
121.94050,-2.11790582
121.94100,-7.001016343
121.94150,-2.423100227
121.94200,2.765204703
121.94250,2.765204703
121.94300,1.239232665
121.94350,2.765204703
121.94400,5.206759965
121.94450,4.291176742
121.94500,1.239232665
121.94550,-1.202322597
121.94600,-3.338683451
121.94650,-5.169849897
121.94700,-5.475044304
121.94750,-5.475044304
121.94800,-8.526988381
121.94850,-11.27373805
121.94900,-7.611405158
121.94950,0.9340382573
121.95000,5.511954373
121.95050,4.291176742
121.95100,8.258704042
121.95150,22.2976468
121.95200,34.81061751
121.95250,31.75867344
121.95300,18.3301195
121.95350,7.953509634
121.95400,3.985982334
121.95450,0.01845503415
121.95500,-4.559461081
121.95550,-6.08543312
121.95600,-3.949072266
121.95650,-2.728294635
121.95700,-3.643877858
121.95750,-3.949072266
121.95800,-4.559461081
121.95850,-7.306210751
121.95900,-10.05296042
121.95950,-7.611405158
121.96000,-1.507517004
121.96050,1.239232665
121.96100,-0.897128189
121.96150,-3.949072266
121.96200,-4.254266674
121.96250,-3.033489043
121.96300,-2.11790582
121.96350,-1.507517004
121.96400,-0.5919337813
121.96450,-0.2867393736
121.96500,-0.897128189
121.96550,-0.897128189
121.96600,-0.897128189
121.96650,-2.728294635
121.96700,-4.864655489
121.96750,-5.169849897
121.96800,-3.643877858
121.96850,-2.423100227
121.96900,-3.033489043
121.96950,-2.728294635
121.97000,-1.812711412
121.97050,-1.507517004
121.97100,-2.423100227
121.97150,-2.423100227
121.97200,-0.2867393736
121.97250,0.9340382573
121.97300,0.01845503415
121.97350,-0.5919337813
121.97400,0.6288438496
121.97450,3.375593519
121.97500,4.901565557
121.97550,4.59637115
121.97600,4.901565557
121.97650,5.511954373
121.97700,4.901565557
121.97750,3.070399111
121.97800,1.84962148
121.97850,3.070399111
121.97900,9.174287265
121.97950,18.02492509
121.98000,23.21323002
121.98050,19.24570272
121.98100,11.00545371
121.98150,6.732732004
121.98200,2.765204703
121.98250,-16.15684857
121.98300,-50.94901105
121.98350,-76.28014689
121.98400,-69.87106433
121.98450,-41.18279001
121.98500,-17.0724318
121.98550,-7.611405158
121.98600,-0.897128189
121.98650,11.31064812
121.98700,22.6028412
121.98750,26.2651741
121.98800,25.95997969
121.98850,25.04439647
121.98900,22.6028412
121.98950,21.07686917
121.99000,24.43400765
121.99050,28.09634054
121.99100,20.46648035
121.99150,3.680787927
121.99200,-5.780238712
121.99250,-1.202322597
121.99300,6.122343188
121.99350,4.901565557
121.99400,0.01845503415
121.99450,0.3236494419
121.99500,3.375593519
121.99550,2.460010296
121.99600,0.6288438496
121.99650,2.765204703
121.99700,4.901565557
121.99750,1.84962148
121.99800,-1.812711412
121.99850,0.01845503415
121.99900,3.985982334
121.99950,2.765204703
122.00000,-2.728294635
122.00050,-5.780238712
122.00100,-5.169849897
122.00150,-4.864655489
122.00200,-4.864655489
122.00250,-2.728294635
122.00300,-0.5919337813
122.00350,-2.728294635
122.00400,-6.390627528
122.00450,-4.864655489
122.00500,2.765204703
122.00550,8.869092857
122.00600,8.869092857
122.00650,6.122343188
122.00700,4.901565557
122.00750,4.291176742
122.00800,3.680787927
122.00850,3.375593519
122.00900,3.985982334
122.00950,3.375593519
122.01000,0.01845503415
122.01050,-4.254266674
122.01100,-6.08543312
122.01150,-5.169849897
122.01200,-3.338683451
122.01250,-3.338683451
122.01300,-5.169849897
122.01350,-5.780238712
122.01400,-3.643877858
122.01450,-0.5919337813
122.01500,-0.2867393736
122.01550,-0.897128189
122.01600,2.154815888
122.01650,9.784676081
122.01700,16.19375864
122.01750,17.41453627
122.01800,15.27817542
122.01850,11.92103693
122.01900,6.427537596
122.01950,-0.2867393736
122.02000,-5.475044304
122.02050,-9.747766012
122.02100,-17.3776262
122.02150,-26.83865284
122.02200,-30.19579133
122.02250,-25.61787521
122.02300,-18.90359824
122.02350,-12.49451568
122.02400,-2.11790582
122.02450,12.53142575
122.02500,21.68725798
122.02550,17.41453627
122.02600,7.648315227
122.02650,4.901565557
122.02700,7.953509634
122.02750,8.56389845
122.02800,4.901565557
122.02850,2.154815888
122.02900,2.154815888
122.02950,2.460010296
122.03000,2.154815888
122.03050,0.9340382573
122.03100,-2.423100227
122.03150,-7.306210751
122.03200,-6.695821935
122.03250,2.460010296
122.03300,11.31064812
122.03350,10.3950649
122.03400,2.154815888
122.03450,-1.812711412
122.03500,0.3236494419
122.03550,2.765204703
122.03600,1.239232665
122.03650,-1.202322597
122.03700,-1.507517004
122.03750,-0.2867393736
122.03800,1.239232665
122.03850,3.375593519
122.03900,5.206759965
122.03950,5.81714878
122.04000,4.901565557
122.04050,2.154815888
122.04100,-3.033489043
122.04150,-11.27373805
122.04200,-16.46204298
122.04250,-14.63087654
122.04300,-7.306210751
122.04350,-1.507517004
122.04400,-0.5919337813
122.04450,-3.643877858
122.04500,-8.526988381
122.04550,-12.79971009
122.04600,-13.1049045
122.04650,-9.137377197
122.04700,-4.559461081
122.04750,-2.728294635
122.04800,-3.338683451
122.04850,-3.338683451
122.04900,-1.202322597
122.04950,1.544427073
122.05000,2.765204703
122.05050,2.460010296
122.05100,1.544427073
122.05150,0.3236494419
122.05200,-0.897128189
122.05250,-2.11790582
122.05300,-2.423100227
122.05350,-1.812711412
122.05400,-0.897128189
122.05450,-0.2867393736
122.05500,-0.5919337813
122.05550,-1.202322597
122.05600,-0.5919337813
122.05650,0.3236494419
122.05700,1.239232665
122.05750,0.6288438496
122.05800,-0.2867393736
122.05850,-0.5919337813
122.05900,-0.5919337813
122.05950,-1.812711412
122.06000,-2.728294635
122.06050,-0.897128189
122.06100,3.375593519
122.06150,7.953509634
122.06200,11.31064812
122.06250,14.6677866
122.06300,16.80414746
122.06350,14.97298101
122.06400,9.784676081
122.06450,3.375593519
122.06500,-3.949072266
122.06550,-16.46204298
122.06600,-28.05943047
122.06650,-26.53345844
122.06700,-11.27373805
122.06750,0.9340382573
122.06800,-3.643877858
122.06850,-16.46204298
122.06900,-17.68282061
122.06950,-4.864655489
122.07000,6.732732004
122.07050,8.56389845
122.07100,6.427537596
122.07150,6.427537596
122.07200,6.427537596
122.07250,4.59637115
122.07300,3.985982334
122.07350,3.375593519
122.07400,-2.423100227
122.07450,-9.747766012
122.07500,-10.66334924
122.07550,-7.611405158
122.07600,-12.18932127
122.07650,-21.0399591
122.07700,-14.32568213
122.07750,12.53142575
122.07800,35.72620074
122.07850,34.2002287
122.07900,18.02492509
122.07950,11.00545371
122.08000,15.27817542
122.08050,15.58336983
122.08100,7.037926411
122.08150,0.6288438496
122.08200,0.9340382573
122.08250,1.84962148
122.08300,0.3236494419
122.08350,1.84962148
122.08400,6.122343188
122.08450,7.037926411
122.08500,3.070399111
122.08550,0.6288438496
122.08600,1.84962148
122.08650,2.460010296
122.08700,-0.5919337813
122.08750,-2.728294635
122.08800,-1.812711412
122.08850,-1.812711412
122.08900,-5.475044304
122.08950,-7.916599566
122.09000,-5.475044304
122.09050,-0.5919337813
122.09100,1.544427073
122.09150,1.239232665
122.09200,0.9340382573
122.09250,0.9340382573
122.09300,0.9340382573
122.09350,1.544427073
122.09400,2.460010296
122.09450,1.544427073
122.09500,-0.2867393736
122.09550,-1.812711412
122.09600,-2.11790582
122.09650,-2.423100227
122.09700,-2.728294635
122.09750,-2.423100227
122.09800,-2.11790582
122.09850,-3.643877858
122.09900,-5.475044304
122.09950,-4.864655489
122.10000,-1.812711412
122.10050,0.9340382573
122.10100,1.239232665
122.10150,0.01845503415
122.10200,-2.728294635
122.10250,-6.08543312
122.10300,-8.832182789
122.10350,-8.832182789
122.10400,-6.695821935
122.10450,-3.033489043
122.10500,0.01845503415
122.10550,3.375593519
122.10600,5.511954373
122.10650,6.732732004
122.10700,7.648315227
122.10750,8.869092857
122.10800,7.953509634
122.10850,3.375593519
122.10900,-3.033489043
122.10950,-7.916599566
122.11000,-10.35815483
122.11050,-10.35815483
122.11100,-9.137377197
122.11150,-7.611405158
122.11200,-7.916599566
122.11250,-10.05296042
122.11300,-11.27373805
122.11350,-9.747766012
122.11400,-7.916599566
122.11450,-8.221793974
122.11500,-9.442571605
122.11550,-9.747766012
122.11600,-8.221793974
122.11650,-4.559461081
122.11700,0.9340382573
122.11750,8.56389845
122.11800,14.05739779
122.11850,14.97298101
122.11900,11.92103693
122.11950,7.343120819
122.12000,3.070399111
122.12050,0.01845503415
122.12100,-0.897128189
122.12150,-0.897128189
122.12200,-0.897128189
122.12250,-0.2867393736
122.12300,2.154815888
122.12350,7.037926411
122.12400,11.00545371
122.12450,12.22623134
122.12500,12.53142575
122.12550,13.14181457
122.12600,13.14181457
122.12650,11.61584253
122.12700,9.174287265
122.12750,5.206759965
122.12800,-2.11790582
122.12850,-11.88412687
122.12900,-17.0724318
122.12950,-13.1049045
122.13000,-4.254266674
122.13050,1.84962148
122.13100,2.154815888
122.13150,0.3236494419
122.13200,0.6288438496
122.13250,3.070399111
122.13300,5.81714878
122.13350,7.953509634
122.13400,10.3950649
122.13450,12.83662016
122.13500,13.75220338
122.13550,10.3950649
122.13600,3.070399111
122.13650,-3.643877858
122.13700,-7.611405158
122.13750,-8.221793974
122.13800,-8.526988381
122.13850,-9.137377197
122.13900,-7.611405158
122.13950,-4.559461081
122.14000,-2.423100227
122.14050,-2.728294635
122.14100,-3.033489043
122.14150,-1.507517004
122.14200,0.01845503415
122.14250,0.01845503415
122.14300,-1.812711412
122.14350,-3.643877858
122.14400,-3.949072266
122.14450,-4.559461081
122.14500,-5.780238712
122.14550,-6.390627528
122.14600,-4.559461081
122.14650,-2.11790582
122.14700,-0.5919337813
122.14750,-0.5919337813
122.14800,-0.2867393736
122.14850,0.6288438496
122.14900,1.544427073
122.14950,0.6288438496
122.15000,-1.202322597
122.15050,-2.11790582
122.15100,-2.11790582
122.15150,-1.507517004
122.15200,0.01845503415
122.15250,2.460010296
122.15300,5.206759965
122.15350,5.81714878
122.15400,5.81714878
122.15450,6.122343188
122.15500,6.122343188
122.15550,3.985982334
122.15600,0.6288438496
122.15650,1.544427073
122.15700,7.648315227
122.15750,15.27817542
122.15800,20.16128594
122.15850,20.46648035
122.15900,17.41453627
122.15950,11.61584253
122.16000,2.765204703
122.16050,-8.221793974
122.16100,-17.98801502
122.16150,-22.87112554
122.16200,-20.73476469
122.16250,-15.24126535
122.16300,-11.88412687
122.16350,-12.18932127
122.16400,-13.71529331
122.16450,-14.32568213
122.16500,-15.54645976
122.16550,-19.51398706
122.16600,-23.78670877
122.16650,-24.70229199
122.16700,-20.12437587
122.16750,-10.66334924
122.16800,0.9340382573
122.16850,11.61584253
122.16900,16.49895305
122.16950,14.97298101
122.17000,11.00545371
122.17050,9.784676081
122.17100,11.92103693
122.17150,14.3625922
122.17200,13.75220338
122.17250,11.31064812
122.17300,9.479481673
122.17350,8.869092857
122.17400,9.479481673
122.17450,9.174287265
122.17500,7.037926411
122.17550,4.291176742
122.17600,2.460010296
122.17650,2.154815888
122.17700,3.680787927
122.17750,6.732732004
122.17800,9.479481673
122.17850,7.953509634
122.17900,0.01845503415
122.17950,-10.05296042
122.18000,-11.88412687
122.18050,-3.338683451
122.18100,7.037926411
122.18150,10.08987049
122.18200,4.291176742
122.18250,-1.507517004
122.18300,-0.897128189
122.18350,7.037926411
122.18400,16.49895305
122.18450,19.55089713
122.18500,12.83662016
122.18550,0.6288438496
122.18600,-8.526988381
122.18650,-10.66334924
122.18700,-7.306210751
122.18750,-3.033489043
122.18800,-0.5919337813
122.18850,0.3236494419
122.18900,0.9340382573
122.18950,0.3236494419
122.19000,0.01845503415
122.19050,0.6288438496
122.19100,2.460010296
122.19150,3.680787927
122.19200,3.680787927
122.19250,2.765204703
122.19300,1.544427073
122.19350,0.3236494419
122.19400,-0.5919337813
122.19450,-0.897128189
122.19500,1.544427073
122.19550,6.122343188
122.19600,7.953509634
122.19650,5.511954373
122.19700,0.6288438496
122.19750,-2.423100227
122.19800,-3.949072266
122.19850,-3.338683451
122.19900,-1.812711412
122.19950,-3.643877858
122.20000,-13.4100989
122.20050,-27.44904166
122.20100,-35.07890185
122.20150,-32.02695777
122.20200,-27.44904166
122.20250,-30.80618014
122.20300,-35.99448507
122.20350,-28.9750137
122.20400,-7.001016343
122.20450,19.24570272
122.20500,40.91450567
122.20550,52.51189316
122.20600,50.0703379
122.20650,31.45347903
122.20700,6.427537596
122.20750,-9.747766012
122.20800,-10.66334924
122.20850,-3.338683451
122.20900,1.544427073
122.20950,1.544427073
122.21000,-3.949072266
122.21050,-10.96854364
122.21100,-10.96854364
122.21150,0.6288438496
122.21200,14.6677866
122.21250,17.10934187
122.21300,7.037926411
122.21350,-1.812711412
122.21400,-3.033489043
122.21450,-0.5919337813
122.21500,1.544427073
122.21550,4.901565557
122.21600,9.174287265
122.21650,8.258704042
122.21700,3.375593519
122.21750,3.680787927
122.21800,10.3950649
122.21850,15.27817542
122.21900,11.92103693
122.21950,7.343120819
122.22000,7.343120819
122.22050,6.732732004
122.22100,0.9340382573
122.22150,-4.864655489
122.22200,-4.864655489
122.22250,-1.812711412
122.22300,-0.897128189
122.22350,-1.202322597
122.22400,0.01845503415
122.22450,1.239232665
122.22500,-0.2867393736
122.22550,-2.423100227
122.22600,-1.507517004
122.22650,-0.897128189
122.22700,-5.475044304
122.22750,-13.1049045
122.22800,-16.46204298
122.22850,-13.4100989
122.22900,-8.832182789
122.22950,-6.08543312
122.23000,-5.475044304
122.23050,-5.780238712
122.23100,-6.08543312
122.23150,-5.475044304
122.23200,-2.728294635
122.23250,0.01845503415
122.23300,0.9340382573
122.23350,0.6288438496
122.23400,0.6288438496
122.23450,0.6288438496
122.23500,-1.202322597
122.23550,-6.08543312
122.23600,-10.66334924
122.23650,-11.27373805
122.23700,-7.306210751
122.23750,-1.812711412
122.23800,0.9340382573
122.23850,0.01845503415
122.23900,-2.423100227
122.23950,-3.949072266
122.24000,-3.949072266
122.24050,-4.864655489
122.24100,-7.916599566
122.24150,-10.96854364
122.24200,-10.35815483
122.24250,-7.001016343
122.24300,-5.169849897
122.24350,-5.780238712
122.24400,-7.001016343
122.24450,-5.780238712
122.24500,-3.033489043
122.24550,-0.5919337813
122.24600,1.544427073
122.24650,5.206759965
122.24700,9.174287265
122.24750,11.31064812
122.24800,12.53142575
122.24850,14.6677866
122.24900,17.10934187
122.24950,15.58336983
122.25000,8.258704042
122.25050,0.01845503415
122.25100,-3.033489043
122.25150,-1.507517004
122.25200,-0.897128189
122.25250,-6.08543312
122.25300,-15.54645976
122.25350,-21.95554232
122.25400,-21.0399591
122.25450,-16.15684857
122.25500,-14.02048772
122.25550,-15.85165417
122.25600,-16.15684857
122.25650,-12.18932127
122.25700,-7.611405158
122.25750,-6.08543312
122.25800,-4.254266674
122.25850,3.070399111
122.25900,12.53142575
122.25950,16.19375864
122.26000,11.61584253
122.26050,5.206759965
122.26100,2.154815888
122.26150,2.460010296
122.26200,3.070399111
122.26250,3.375593519
122.26300,3.680787927
122.26350,4.59637115
122.26400,8.258704042
122.26450,15.27817542
122.26500,22.2976468
122.26550,22.6028412
122.26600,11.92103693
122.26650,-3.949072266
122.26700,-17.0724318
122.26750,-21.0399591
122.26800,-17.3776262
122.26850,-12.49451568
122.26900,-11.88412687
122.26950,-12.79971009
122.27000,-8.526988381
122.27050,2.765204703
122.27100,14.3625922
122.27150,16.49895305
122.27200,8.56389845
122.27250,-1.507517004
122.27300,-7.001016343
122.27350,-7.001016343
122.27400,-4.254266674
122.27450,-0.5919337813
122.27500,1.84962148
122.27550,3.985982334
122.27600,6.427537596
122.27650,10.7002593
122.27700,15.27817542
122.27750,16.49895305
122.27800,14.3625922
122.27850,10.7002593
122.27900,8.56389845
122.27950,8.258704042
122.28000,9.784676081
122.28050,10.3950649
122.28100,7.037926411
122.28150,1.239232665
122.28200,-1.507517004
122.28250,1.239232665
122.28300,6.427537596
122.28350,10.3950649
122.28400,13.75220338
122.28450,17.41453627
122.28500,17.10934187
122.28550,11.00545371
122.28600,6.427537596
122.28650,11.00545371
122.28700,16.19375864
122.28750,7.953509634
122.28800,-13.4100989
122.28850,-32.02695777
122.28900,-36.60487389
122.28950,-34.77370744
122.29000,-33.85812422
122.29050,-29.89059692
122.29100,-14.63087654
122.29150,7.953509634
122.29200,26.2651741
122.29250,30.84309021
122.29300,25.04439647
122.29350,18.3301195
122.29400,20.16128594
122.29450,29.01192377
122.29500,32.67425666
122.29550,23.21323002
122.29600,10.7002593
122.29650,8.258704042
122.29700,9.784676081
122.29750,0.01845503415
122.29800,-17.3776262
122.29850,-17.98801502
122.29900,3.985982334
122.29950,23.51842443
122.30000,15.88856423
122.30050,-6.390627528
122.30100,-15.24126535
122.30150,-5.169849897
122.30200,4.59637115
122.30250,2.765204703
122.30300,-3.033489043
122.30350,-0.5919337813
122.30400,7.648315227
122.30450,8.869092857
122.30500,-7.001016343
122.30550,-36.60487389
122.30600,-61.63081532
122.30650,-65.90353703
122.30700,-49.11784461
122.30750,-26.22826403
122.30800,-10.35815483
122.30850,-2.728294635
122.30900,0.01845503415
122.30950,0.3236494419
122.31000,0.01845503415
122.31050,2.765204703
122.31100,8.56389845
122.31150,10.7002593
122.31200,6.732732004
122.31250,2.765204703
122.31300,4.59637115
122.31350,7.343120819
122.31400,3.375593519
122.31450,-6.695821935
122.31500,-13.1049045
122.31550,-7.916599566
122.31600,7.037926411
122.31650,22.90803561
122.31700,29.92750699
122.31750,25.65478528
122.31800,15.27817542
122.31850,8.258704042
122.31900,5.81714878
122.31950,2.460010296
122.32000,-2.423100227
122.32050,-4.254266674
122.32100,1.239232665
122.32150,7.343120819
122.32200,6.427537596
122.32250,0.6288438496
122.32300,-1.202322597
122.32350,2.460010296
122.32400,6.427537596
122.32450,7.343120819
122.32500,6.732732004
122.32550,7.953509634
122.32600,9.479481673
122.32650,9.479481673
122.32700,7.648315227
122.32750,3.985982334
122.32800,-1.202322597
122.32850,-6.390627528
122.32900,-7.001016343
122.32950,-3.949072266
122.33000,-3.033489043
122.33050,-5.780238712
122.33100,-7.916599566
122.33150,-6.695821935
122.33200,-7.001016343
122.33250,-14.63087654
122.33300,-26.53345844
122.33350,-32.33215218
122.33400,-25.31268081
122.33450,-9.442571605
122.33500,4.901565557
122.33550,10.3950649
122.33600,6.427537596
122.33650,-0.897128189
122.33700,-6.390627528
122.33750,-7.001016343
122.33800,-5.475044304
122.33850,-5.475044304
122.33900,-6.08543312
122.33950,-5.780238712
122.34000,-3.643877858
122.34050,-1.812711412
122.34100,-2.423100227
122.34150,-5.475044304
122.34200,-7.306210751
122.34250,-5.475044304
122.34300,-1.202322597
122.34350,0.01845503415
122.34400,-1.812711412
122.34450,-4.254266674
122.34500,-4.559461081
122.34550,-4.254266674
122.34600,-4.254266674
122.34650,-1.202322597
122.34700,5.511954373
122.34750,11.31064812
122.34800,10.3950649
122.34850,6.427537596
122.34900,5.81714878
122.34950,8.56389845
122.35000,8.56389845
122.35050,4.291176742
122.35100,0.6288438496
122.35150,0.01845503415
122.35200,-3.338683451
122.35250,-9.442571605
122.35300,-13.4100989
122.35350,-12.49451568
122.35400,-10.35815483
122.35450,-8.526988381
122.35500,-1.507517004
122.35550,11.92103693
122.35600,21.68725798
122.35650,16.80414746
122.35700,1.84962148
122.35750,-8.832182789
122.35800,-9.442571605
122.35850,-4.864655489
122.35900,-1.202322597
122.35950,0.3236494419
122.36000,2.154815888
122.36050,3.680787927
122.36100,3.985982334
122.36150,3.070399111
122.36200,1.544427073
122.36250,-0.2867393736
122.36300,-0.897128189
122.36350,0.3236494419
122.36400,0.01845503415
122.36450,-6.390627528
122.36500,-15.54645976
122.36550,-20.73476469
122.36600,-19.20879265
122.36650,-13.4100989
122.36700,-6.390627528
122.36750,-0.897128189
122.36800,0.6288438496
122.36850,0.01845503415
122.36900,1.239232665
122.36950,8.56389845
122.37000,16.80414746
122.37050,19.24570272
122.37100,14.97298101
122.37150,9.784676081
122.37200,6.427537596
122.37250,2.765204703
122.37300,-0.2867393736
122.37350,0.3236494419
122.37400,5.81714878
122.37450,12.22623134
122.37500,15.88856423
122.37550,17.71973068
122.37600,18.3301195
122.37650,16.80414746
122.37700,14.05739779
122.37750,11.00545371
122.37800,6.732732004
122.37850,-0.2867393736
122.37900,-8.832182789
122.37950,-13.4100989
122.38000,-12.79971009
122.38050,-10.66334924
122.38100,-9.747766012
122.38150,-10.05296042
122.38200,-9.442571605
122.38250,-8.526988381
122.38300,-8.526988381
122.38350,-10.05296042
122.38400,-11.88412687
122.38450,-12.18932127
122.38500,-10.66334924
122.38550,-8.526988381
122.38600,-7.306210751
122.38650,-7.306210751
122.38700,-6.08543312
122.38750,-3.643877858
122.38800,-1.202322597
122.38850,1.239232665
122.38900,7.037926411
122.38950,14.05739779
122.39000,18.02492509
122.39050,18.02492509
122.39100,17.41453627
122.39150,17.10934187
122.39200,11.92103693
122.39250,-0.2867393736
122.39300,-12.18932127
122.39350,-14.02048772
122.39400,-5.475044304
122.39450,3.375593519
122.39500,6.732732004
122.39550,6.732732004
122.39600,9.174287265
122.39650,12.53142575
122.39700,10.3950649
122.39750,-0.2867393736
122.39800,-13.71529331
122.39850,-21.0399591
122.39900,-17.98801502
122.39950,-10.05296042
122.40000,-4.254266674
122.40050,-3.033489043
122.40100,-4.559461081
122.40150,-6.08543312
122.40200,-5.475044304
122.40250,-0.897128189
122.40300,4.59637115
122.40350,7.037926411
122.40400,3.070399111
122.40450,-3.338683451
122.40500,-7.611405158
122.40550,-7.611405158
122.40600,-5.780238712
122.40650,-3.949072266
122.40700,-0.5919337813
122.40750,5.511954373
122.40800,13.75220338
122.40850,21.07686917
122.40900,24.73920206
122.40950,23.82361883
122.41000,20.77167476
122.41050,17.41453627
122.41100,14.05739779
122.41150,9.174287265
122.41200,3.375593519
122.41250,0.01845503415
122.41300,1.544427073
122.41350,4.291176742
122.41400,3.985982334
122.41450,0.3236494419
122.41500,-2.728294635
122.41550,-5.169849897
122.41600,-5.780238712
122.41650,-3.338683451
122.41700,1.544427073
122.41750,5.81714878
122.41800,6.122343188
122.41850,3.985982334
122.41900,4.291176742
122.41950,7.343120819
122.42000,9.784676081
122.42050,9.784676081
122.42100,8.56389845
122.42150,6.122343188
122.42200,2.154815888
122.42250,-1.812711412
122.42300,-2.728294635
122.42350,-0.897128189
122.42400,0.6288438496
122.42450,0.01845503415
122.42500,-0.2867393736
122.42550,1.84962148
122.42600,3.985982334
122.42650,1.84962148
122.42700,-3.643877858
122.42750,-8.832182789
122.42800,-10.35815483
122.42850,-10.05296042
122.42900,-8.526988381
122.42950,-5.780238712
122.43000,-0.897128189
122.43050,3.680787927
122.43100,7.648315227
122.43150,10.08987049
122.43200,10.3950649
122.43250,9.479481673
122.43300,9.174287265
122.43350,9.479481673
122.43400,7.343120819
122.43450,0.01845503415
122.43500,-9.747766012
122.43550,-17.0724318
122.43600,-20.42957028
122.43650,-20.73476469
122.43700,-17.68282061
122.43750,-12.49451568
122.43800,-8.221793974
122.43850,-8.221793974
122.43900,-11.88412687
122.43950,-16.76723739
122.44000,-22.87112554
122.44050,-28.66981929
122.44100,-31.11137455
122.44150,-27.75423607
122.44200,-22.87112554
122.44250,-21.65034791
122.44300,-20.12437587
122.44350,-10.05296042
122.44400,6.732732004
122.44450,17.41453627
122.44500,13.44700897
122.44550,2.154815888
122.44600,-2.11790582
122.44650,5.206759965
122.44700,18.6353139
122.44750,28.09634054
122.44800,27.79114613
122.44850,19.55089713
122.44900,10.3950649
122.44950,6.427537596
122.45000,8.258704042
122.45050,10.08987049
122.45100,7.037926411
122.45150,0.9340382573
122.45200,-3.643877858
122.45250,-3.033489043
122.45300,1.84962148
122.45350,9.174287265
122.45400,14.3625922
122.45450,15.58336983
122.45500,11.92103693
122.45550,6.122343188
122.45600,0.9340382573
122.45650,-1.507517004
122.45700,-5.169849897
122.45750,-13.4100989
122.45800,-25.92306962
122.45850,-34.77370744
122.45900,-34.77370744
122.45950,-29.28020811
122.46000,-25.61787521
122.46050,-22.87112554
122.46100,-14.63087654
122.46150,-1.202322597
122.46200,7.953509634
122.46250,7.037926411
122.46300,3.070399111
122.46350,9.784676081
122.46400,27.18075732
122.46450,41.52489448
122.46500,41.21970007
122.46550,30.5378958
122.46600,20.16128594
122.46650,13.44700897
122.46700,6.732732004
122.46750,-2.11790582
122.46800,-9.747766012
122.46850,-12.49451568
122.46900,-12.18932127
122.46950,-11.57893246
122.47000,-10.66334924
122.47050,-7.001016343
122.47100,-2.728294635
122.47150,-1.202322597
122.47200,-1.812711412
122.47250,-2.11790582
122.47300,-0.897128189
122.47350,-0.2867393736
122.47400,-0.2867393736
122.47450,0.01845503415
122.47500,0.01845503415
122.47550,-4.254266674
122.47600,-10.05296042
122.47650,-10.66334924
122.47700,-2.423100227
122.47750,8.869092857
122.47800,13.14181457
122.47850,8.56389845
122.47900,1.84962148
122.47950,-1.202322597
122.48000,-1.507517004
122.48050,-1.812711412
122.48100,-2.728294635
122.48150,-2.11790582
122.48200,-0.897128189
122.48250,-0.5919337813
122.48300,-2.728294635
122.48350,-4.864655489
122.48400,-3.949072266
122.48450,0.3236494419
122.48500,5.511954373
122.48550,8.869092857
122.48600,10.3950649
122.48650,11.61584253
122.48700,11.92103693
122.48750,10.7002593
122.48800,9.479481673
122.48850,9.479481673
122.48900,8.56389845
122.48950,4.291176742
122.49000,-0.5919337813
122.49050,0.01845503415
122.49100,4.291176742
122.49150,3.070399111
122.49200,-8.526988381
122.49250,-22.26073673
122.49300,-26.22826403
122.49350,-21.0399591
122.49400,-15.24126535
122.49450,-10.66334924
122.49500,-4.254266674
122.49550,1.239232665
122.49600,0.01845503415
122.49650,-5.169849897
122.49700,-4.559461081
122.49750,5.206759965
122.49800,13.14181457
122.49850,10.3950649
122.49900,2.154815888
122.49950,-0.897128189
122.50000,1.239232665
122.50050,3.070399111
122.50100,2.460010296
122.50150,1.84962148
122.50200,2.154815888
122.50250,1.84962148
122.50300,1.544427073
122.50350,2.765204703
122.50400,3.680787927
122.50450,2.154815888
122.50500,-0.2867393736
122.50550,0.01845503415
122.50600,1.239232665
122.50650,0.6288438496
122.50700,-0.897128189
122.50750,1.239232665
122.50800,7.953509634
122.50850,12.22623134
122.50900,8.56389845
122.50950,1.84962148
122.51000,-1.507517004
122.51050,-0.5919337813
122.51100,1.84962148
122.51150,3.375593519
122.51200,2.765204703
122.51250,0.6288438496
122.51300,-0.5919337813
122.51350,0.6288438496
122.51400,3.680787927
122.51450,4.901565557
122.51500,3.680787927
122.51550,3.070399111
122.51600,3.680787927
122.51650,2.460010296
122.51700,-1.812711412
122.51750,-7.306210751
122.51800,-11.88412687
122.51850,-16.15684857
122.51900,-17.3776262
122.51950,-10.66334924
122.52000,2.154815888
122.52050,10.3950649
122.52100,7.037926411
122.52150,-0.5919337813
122.52200,-2.11790582
122.52250,2.765204703
122.52300,7.037926411
122.52350,7.037926411
122.52400,6.427537596
122.52450,6.427537596
122.52500,3.070399111
122.52550,-4.254266674
122.52600,-11.27373805
122.52650,-14.93607094
122.52700,-15.54645976
122.52750,-12.49451568
122.52800,-3.643877858
122.52850,5.81714878
122.52900,5.511954373
122.52950,-7.611405158
122.53000,-21.65034791
122.53050,-21.3451535
122.53100,-8.221793974
122.53150,3.985982334
122.53200,8.258704042
122.53250,10.7002593
122.53300,17.71973068
122.53350,24.43400765
122.53400,23.51842443
122.53450,15.88856423
122.53500,7.953509634
122.53550,3.680787927
122.53600,3.070399111
122.53650,4.901565557
122.53700,5.206759965
122.53750,0.3236494419
122.53800,-7.306210751
122.53850,-8.221793974
122.53900,1.239232665
122.53950,8.56389845
122.54000,0.3236494419
122.54050,-14.63087654
122.54100,-15.85165417
122.54150,0.9340382573
122.54200,18.02492509
122.54250,18.94050831
122.54300,12.53142575
122.54350,13.75220338
122.54400,21.38206357
122.54450,22.2976468
122.54500,14.05739779
122.54550,7.343120819
122.54600,6.732732004
122.54650,5.206759965
122.54700,-3.338683451
122.54750,-14.63087654
122.54800,-22.26073673
122.54850,-28.36462488
122.54900,-33.55292981
122.54950,-31.72176337
122.55000,-17.98801502
122.55050,-1.202322597
122.55100,4.901565557
122.55150,0.3236494419
122.55200,-3.643877858
122.55250,-0.897128189
122.55300,3.680787927
122.55350,5.511954373
122.55400,3.680787927
122.55450,0.01845503415
122.55500,-5.169849897
122.55550,-10.66334924
122.55600,-10.66334924
122.55650,-6.08543312
122.55700,-3.338683451
122.55750,-5.475044304
122.55800,-7.916599566
122.55850,-5.780238712
122.55900,-2.423100227
122.55950,-2.728294635
122.56000,-4.864655489
122.56050,-4.864655489
122.56100,-3.338683451
122.56150,-2.728294635
122.56200,-1.202322597
122.56250,2.765204703
122.56300,6.427537596
122.56350,4.59637115
122.56400,-0.5919337813
122.56450,-2.728294635
122.56500,0.6288438496
122.56550,4.59637115
122.56600,3.680787927
122.56650,-2.423100227
122.56700,-9.747766012
122.56750,-12.49451568
122.56800,-9.747766012
122.56850,-7.916599566
122.56900,-13.1049045
122.56950,-20.42957028
122.57000,-16.15684857
122.57050,2.460010296
122.57100,20.77167476
122.57150,23.51842443
122.57200,12.83662016
122.57250,3.985982334
122.57300,3.375593519
122.57350,4.901565557
122.57400,3.070399111
122.57450,0.01845503415
122.57500,-2.11790582
122.57550,-4.559461081
122.57600,-7.306210751
122.57650,-5.780238712
122.57700,0.01845503415
122.57750,4.291176742
122.57800,4.901565557
122.57850,5.206759965
122.57900,6.122343188
122.57950,4.901565557
122.58000,-0.5919337813
122.58050,-6.390627528
122.58100,-6.695821935
122.58150,-2.11790582
122.58200,2.765204703
122.58250,7.343120819
122.58300,10.7002593
122.58350,12.83662016
122.58400,13.44700897
122.58450,11.61584253
122.58500,6.122343188
122.58550,-3.643877858
122.58600,-14.02048772
122.58650,-18.29320943
122.58700,-14.93607094
122.58750,-9.747766012
122.58800,-7.611405158
122.58850,-6.390627528
122.58900,-4.254266674
122.58950,-2.728294635
122.59000,-3.949072266
122.59050,-4.254266674
122.59100,0.6288438496
122.59150,8.258704042
122.59200,12.53142575
122.59250,12.53142575
122.59300,11.61584253
122.59350,12.53142575
122.59400,13.75220338
122.59450,13.14181457
122.59500,10.3950649
122.59550,4.291176742
122.59600,-3.643877858
122.59650,-8.221793974
122.59700,-6.390627528
122.59750,-1.202322597
122.59800,0.3236494419
122.59850,-1.202322597
122.59900,-1.812711412
122.59950,2.154815888
122.60000,6.732732004
122.60050,7.648315227
122.60100,5.511954373
122.60150,1.84962148
122.60200,-2.728294635
122.60250,-7.611405158
122.60300,-9.747766012
122.60350,-7.611405158
122.60400,-3.643877858
122.60450,-2.11790582
122.60500,-3.643877858
122.60550,-4.864655489
122.60600,-3.949072266
122.60650,-0.5919337813
122.60700,3.070399111
122.60750,6.427537596
122.60800,8.869092857
122.60850,11.31064812
122.60900,12.22623134
122.60950,9.174287265
122.61000,0.6288438496
122.61050,-10.35815483
122.61100,-17.0724318
122.61150,-14.63087654
122.61200,-6.695821935
122.61250,-1.507517004
122.61300,-2.423100227
122.61350,-6.695821935
122.61400,-9.442571605
122.61450,-10.35815483
122.61500,-9.442571605
122.61550,-6.390627528
122.61600,-0.2867393736
122.61650,6.427537596
122.61700,10.08987049
122.61750,7.648315227
122.61800,-0.2867393736
122.61850,-9.747766012
122.61900,-17.0724318
122.61950,-21.0399591
122.62000,-23.17631995
122.62050,-22.56593114
122.62100,-15.85165417
122.62150,-3.033489043
122.62200,9.479481673
122.62250,14.3625922
122.62300,11.31064812
122.62350,8.869092857
122.62400,15.27817542
122.62450,29.31711817
122.62500,40.30411685
122.62550,37.55736718
122.62600,21.38206357
122.62650,3.985982334
122.62700,-1.202322597
122.62750,4.59637115
122.62800,12.53142575
122.62850,16.49895305
122.62900,18.94050831
122.62950,20.46648035
122.63000,16.49895305
122.63050,7.037926411
122.63100,0.01845503415
122.63150,-1.507517004
122.63200,-5.780238712
122.63250,-16.76723739
122.63300,-24.70229199
122.63350,-17.98801502
122.63400,-1.507517004
122.63450,10.7002593
122.63500,14.6677866
122.63550,15.88856423
122.63600,16.49895305
122.63650,14.97298101
122.63700,14.05739779
122.63750,20.46648035
122.63800,28.40153495
122.63850,25.65478528
122.63900,11.00545371
122.63950,-3.033489043
122.64000,-8.221793974
122.64050,-8.221793974
122.64100,-9.137377197
122.64150,-10.66334924
122.64200,-13.4100989
122.64250,-20.42957028
122.64300,-30.50098574
122.64350,-35.07890185
122.64400,-31.11137455
122.64450,-24.70229199
122.64500,-19.20879265
122.64550,-10.05296042
122.64600,3.070399111
122.64650,11.61584253
122.64700,10.08987049
122.64750,6.427537596
122.64800,7.648315227
122.64850,7.648315227
122.64900,-1.507517004
122.64950,-14.02048772
122.65000,-16.46204298
122.65050,-9.442571605
122.65100,-5.475044304
122.65150,-7.001016343
122.65200,-3.643877858
122.65250,6.732732004
122.65300,14.6677866
122.65350,11.00545371
122.65400,2.460010296
122.65450,-2.423100227
122.65500,-4.254266674
122.65550,-7.001016343
122.65600,-5.780238712
122.65650,3.070399111
122.65700,12.53142575
122.65750,11.00545371
122.65800,-1.507517004
122.65850,-13.4100989
122.65900,-15.85165417
122.65950,-11.88412687
122.66000,-7.611405158
122.66050,-5.169849897
122.66100,-3.643877858
122.66150,-2.11790582
122.66200,-0.897128189
122.66250,0.3236494419
122.66300,2.154815888
122.66350,2.154815888
122.66400,0.9340382573
122.66450,1.239232665
122.66500,2.460010296
122.66550,0.9340382573
122.66600,-5.169849897
122.66650,-12.18932127
122.66700,-13.71529331
122.66750,-10.35815483
122.66800,-5.780238712
122.66850,-3.338683451
122.66900,-1.507517004
122.66950,-0.2867393736
122.67000,-0.2867393736
122.67050,-1.812711412
122.67100,-3.643877858
122.67150,-4.559461081
122.67200,-3.338683451
122.67250,-0.897128189
122.67300,1.84962148
122.67350,3.070399111
122.67400,2.460010296
122.67450,1.544427073
122.67500,2.460010296
122.67550,4.291176742
122.67600,4.901565557
122.67650,3.680787927
122.67700,2.765204703
122.67750,3.375593519
122.67800,4.291176742
122.67850,3.680787927
122.67900,2.460010296
122.67950,1.544427073
122.68000,1.84962148
122.68050,3.070399111
122.68100,4.59637115
122.68150,5.206759965
122.68200,4.59637115
122.68250,3.070399111
122.68300,3.375593519
122.68350,5.206759965
122.68400,6.732732004
122.68450,5.511954373
122.68500,2.765204703
122.68550,0.3236494419
122.68600,-0.897128189
122.68650,-1.507517004
122.68700,-1.507517004
122.68750,-1.202322597
122.68800,-1.202322597
122.68850,-1.202322597
122.68900,0.3236494419
122.68950,3.680787927
122.69000,6.732732004
122.69050,7.648315227
122.69100,6.427537596
122.69150,5.206759965
122.69200,4.291176742
122.69250,3.375593519
122.69300,1.544427073
122.69350,0.01845503415
122.69400,-1.812711412
122.69450,-3.643877858
122.69500,-5.475044304
122.69550,-6.695821935
122.69600,-6.695821935
122.69650,-5.475044304
122.69700,-4.864655489
122.69750,-4.864655489
122.69800,-4.864655489
122.69850,-3.949072266
122.69900,-1.202322597
122.69950,1.544427073
122.70000,2.460010296
122.70050,1.239232665
122.70100,0.01845503415
122.70150,-0.897128189
122.70200,-2.11790582
122.70250,-3.643877858
122.70300,-2.728294635
122.70350,1.544427073
122.70400,6.122343188
122.70450,6.122343188
122.70500,3.680787927
122.70550,3.070399111
122.70600,4.291176742
122.70650,3.680787927
122.70700,1.544427073
122.70750,0.3236494419
122.70800,-0.5919337813
122.70850,-4.864655489
122.70900,-9.137377197
122.70950,-6.08543312
122.71000,3.985982334
122.71050,11.61584253
122.71100,10.7002593
122.71150,7.343120819
122.71200,9.174287265
122.71250,13.75220338
122.71300,14.3625922
122.71350,10.3950649
122.71400,5.81714878
122.71450,2.460010296
122.71500,0.01845503415
122.71550,-1.812711412
122.71600,-2.11790582
122.71650,-2.728294635
122.71700,-3.949072266
122.71750,-3.949072266
122.71800,-2.423100227
122.71850,-2.728294635
122.71900,-6.08543312
122.71950,-8.832182789
122.72000,-8.221793974
122.72050,-7.306210751
122.72100,-9.137377197
122.72150,-13.1049045
122.72200,-15.54645976
122.72250,-16.46204298
122.72300,-15.24126535
122.72350,-9.137377197
122.72400,3.070399111
122.72450,15.27817542
122.72500,19.85609153
122.72550,16.80414746
122.72600,12.53142575
122.72650,10.7002593
122.72700,10.7002593
122.72750,11.00545371
122.72800,10.7002593
122.72850,6.122343188
122.72900,-4.559461081
122.72950,-17.0724318
122.73000,-21.95554232
122.73050,-16.76723739
122.73100,-8.832182789
122.73150,-5.169849897
122.73200,-6.08543312
122.73250,-5.475044304
122.73300,-2.423100227
122.73350,0.6288438496
122.73400,1.84962148
122.73450,0.9340382573
122.73500,-1.507517004
122.73550,-5.475044304
122.73600,-9.137377197
122.73650,-13.1049045
122.73700,-20.42957028
122.73750,-29.28020811
122.73800,-30.50098574
122.73850,-17.68282061
122.73900,1.239232665
122.73950,12.53142575
122.74000,12.53142575
122.74050,11.31064812
122.74100,16.19375864
122.74150,20.16128594
122.74200,15.58336983
122.74250,6.732732004
122.74300,1.84962148
122.74350,2.460010296
122.74400,3.680787927
122.74450,5.206759965
122.74500,9.479481673
122.74550,13.44700897
122.74600,11.31064812
122.74650,3.985982334
122.74700,-0.897128189
122.74750,0.01845503415
122.74800,1.84962148
122.74850,1.239232665
122.74900,2.154815888
122.74950,8.869092857
122.75000,17.41453627
122.75050,19.24570272
122.75100,13.14181457
122.75150,7.343120819
122.75200,7.037926411
122.75250,8.258704042
122.75300,4.59637115
122.75350,-3.949072266
122.75400,-13.71529331
122.75450,-22.87112554
122.75500,-29.28020811
122.75550,-26.83865284
122.75600,-12.79971009
122.75650,2.154815888
122.75700,4.59637115
122.75750,-3.949072266
122.75800,-4.254266674
122.75850,13.75220338
122.75900,33.28464547
122.75950,32.06386784
122.76000,11.00545371
122.76050,-7.611405158
122.76100,-11.57893246
122.76150,-7.611405158
122.76200,-7.611405158
122.76250,-10.96854364
122.76300,-9.747766012
122.76350,-0.897128189
122.76400,10.08987049
122.76450,16.19375864
122.76500,13.44700897
122.76550,4.291176742
122.76600,-4.254266674
122.76650,-8.221793974
122.76700,-7.611405158
122.76750,-7.001016343
122.76800,-6.390627528
122.76850,-3.643877858
122.76900,1.239232665
122.76950,3.985982334
122.77000,2.154815888
122.77050,-1.202322597
122.77100,-1.507517004
122.77150,0.9340382573
122.77200,2.460010296
122.77250,2.460010296
122.77300,4.901565557
122.77350,10.3950649
122.77400,12.53142575
122.77450,7.648315227
122.77500,2.765204703
122.77550,6.122343188
122.77600,12.53142575
122.77650,9.174287265
122.77700,-3.338683451
122.77750,-12.18932127
122.77800,-10.35815483
122.77850,-4.559461081
122.77900,-3.643877858
122.77950,-5.169849897
122.78000,-5.169849897
122.78050,-4.864655489
122.78100,-7.916599566
122.78150,-14.32568213
122.78200,-21.3451535
122.78250,-27.44904166
122.78300,-29.28020811
122.78350,-25.92306962
122.78400,-22.26073673
122.78450,-24.39709758
122.78500,-25.0074864
122.78550,-11.27373805
122.78600,13.44700897
122.78650,29.31711817
122.78700,24.73920206
122.78750,13.14181457
122.78800,10.7002593
122.78850,14.6677866
122.78900,13.14181457
122.78950,4.59637115
122.79000,-2.11790582
122.79050,-4.864655489
122.79100,-5.780238712
122.79150,-5.475044304
122.79200,-1.507517004
122.79250,3.070399111
122.79300,4.59637115
122.79350,3.375593519
122.79400,3.985982334
122.79450,5.206759965
122.79500,3.375593519
122.79550,-0.2867393736
122.79600,-2.728294635
122.79650,-3.033489043
122.79700,-2.423100227
122.79750,-2.11790582
122.79800,-1.202322597
122.79850,0.01845503415
122.79900,1.239232665
122.79950,4.291176742
122.80000,7.953509634
122.80050,8.56389845
122.80100,5.511954373
122.80150,1.544427073
122.80200,-1.202322597
122.80250,-3.643877858
122.80300,-5.780238712
122.80350,-4.559461081
122.80400,-0.5919337813
122.80450,0.9340382573
122.80500,-0.5919337813
122.80550,-1.812711412
122.80600,0.01845503415
122.80650,2.765204703
122.80700,2.460010296
122.80750,0.6288438496
122.80800,0.01845503415
122.80850,-1.507517004
122.80900,-5.475044304
122.80950,-9.747766012
122.81000,-9.747766012
122.81050,-4.254266674
122.81100,4.59637115
122.81150,14.3625922
122.81200,21.38206357
122.81250,23.51842443
122.81300,20.16128594
122.81350,12.83662016
122.81400,1.544427073
122.81450,-11.27373805
122.81500,-20.73476469
122.81550,-20.42957028
122.81600,-10.66334924
122.81650,1.544427073
122.81700,10.7002593
122.81750,14.97298101
122.81800,13.44700897
122.81850,6.732732004
122.81900,-1.812711412
122.81950,-7.001016343
122.82000,-5.780238712
122.82050,-2.11790582
122.82100,-1.812711412
122.82150,-3.949072266
122.82200,-5.475044304
122.82250,-4.559461081
122.82300,-2.11790582
122.82350,0.6288438496
122.82400,2.765204703
122.82450,3.070399111
122.82500,1.544427073
122.82550,0.01845503415
122.82600,-1.202322597
122.82650,-3.643877858
122.82700,-5.169849897
122.82750,-4.254266674
122.82800,-2.11790582
122.82850,-1.812711412
122.82900,-3.033489043
122.82950,-0.897128189
122.83000,5.206759965
122.83050,9.784676081
122.83100,8.258704042
122.83150,3.375593519
122.83200,1.544427073
122.83250,2.765204703
122.83300,3.680787927
122.83350,3.680787927
122.83400,4.291176742
122.83450,3.985982334
122.83500,2.154815888
122.83550,0.9340382573
122.83600,2.154815888
122.83650,3.680787927
122.83700,2.154815888
122.83750,0.9340382573
122.83800,4.59637115
122.83850,10.08987049
122.83900,10.08987049
122.83950,6.122343188
122.84000,4.59637115
122.84050,4.59637115
122.84100,0.01845503415
122.84150,-9.747766012
122.84200,-15.54645976
122.84250,-11.88412687
122.84300,-5.780238712
122.84350,-3.949072266
122.84400,-5.169849897
122.84450,-5.475044304
122.84500,-6.08543312
122.84550,-7.611405158
122.84600,-5.780238712
122.84650,0.01845503415
122.84700,2.460010296
122.84750,-3.643877858
122.84800,-9.747766012
122.84850,-6.08543312
122.84900,2.460010296
122.84950,2.765204703
122.85000,-4.864655489
122.85050,-6.695821935
122.85100,6.427537596
122.85150,24.43400765
122.85200,30.84309021
122.85250,22.2976468
122.85300,8.258704042
122.85350,-0.897128189
122.85400,-4.254266674
122.85450,-7.916599566
122.85500,-17.0724318
122.85550,-29.28020811
122.85600,-37.21526271
122.85650,-36.9100683
122.85700,-31.41656896
122.85750,-24.09190317
122.85800,-12.79971009
122.85850,3.985982334
122.85900,19.24570272
122.85950,24.43400765
122.86000,20.77167476
122.86050,17.71973068
122.86100,18.02492509
122.86150,16.49895305
122.86200,10.08987049
122.86250,3.985982334
122.86300,2.460010296
122.86350,2.460010296
122.86400,-0.2867393736
122.86450,-3.643877858
122.86500,-1.812711412
122.86550,4.901565557
122.86600,11.00545371
122.86650,12.83662016
122.86700,10.3950649
122.86750,6.732732004
122.86800,6.122343188
122.86850,9.784676081
122.86900,11.00545371
122.86950,3.070399111
122.87000,-9.442571605
122.87050,-12.79971009
122.87100,-1.812711412
122.87150,10.3950649
122.87200,11.31064812
122.87250,2.765204703
122.87300,-2.728294635
122.87350,-3.033489043
122.87400,-4.864655489
122.87450,-10.35815483
122.87500,-14.02048772
122.87550,-14.32568213
122.87600,-15.24126535
122.87650,-17.0724318
122.87700,-13.71529331
122.87750,-3.643877858
122.87800,3.985982334
122.87850,4.291176742
122.87900,2.154815888
122.87950,4.291176742
122.88000,8.258704042
122.88050,7.953509634
122.88100,4.291176742
122.88150,2.765204703
122.88200,3.070399111
122.88250,2.460010296
122.88300,0.6288438496
122.88350,0.9340382573
122.88400,1.544427073
122.88450,-2.11790582
122.88500,-8.526988381
122.88550,-11.27373805
122.88600,-9.137377197
122.88650,-7.611405158
122.88700,-9.137377197
122.88750,-7.611405158
122.88800,0.01845503415
122.88850,7.953509634
122.88900,9.174287265
122.88950,4.901565557
122.89000,1.84962148
122.89050,1.239232665
122.89100,0.3236494419
122.89150,-1.507517004
122.89200,-2.728294635
122.89250,-1.812711412
122.89300,-1.202322597
122.89350,-0.897128189
122.89400,0.01845503415
122.89450,0.3236494419
122.89500,-1.812711412
122.89550,-6.390627528
122.89600,-8.832182789
122.89650,-8.526988381
122.89700,-8.221793974
122.89750,-7.916599566
122.89800,-5.475044304
122.89850,-2.423100227
122.89900,-1.507517004
122.89950,0.3236494419
122.90000,12.22623134
122.90050,30.5378958
122.90100,39.38853363
122.90150,31.14828462
122.90200,16.19375864
122.90250,8.869092857
122.90300,7.648315227
122.90350,3.985982334
122.90400,0.6288438496
122.90450,5.206759965
122.90500,14.05739779
122.90550,15.58336983
122.90600,9.784676081
122.90650,7.037926411
122.90700,9.174287265
122.90750,4.901565557
122.90800,-7.916599566
122.90850,-15.24126535
122.90900,-9.137377197
122.90950,0.01845503415
122.91000,-2.11790582
122.91050,-12.79971009
122.91100,-18.59840384
122.91150,-16.15684857
122.91200,-12.79971009
122.91250,-12.79971009
122.91300,-13.4100989
122.91350,-13.71529331
122.91400,-14.32568213
122.91450,-11.57893246
122.91500,-3.338683451
122.91550,3.985982334
122.91600,0.9340382573
122.91650,-9.747766012
122.91700,-16.46204298
122.91750,-13.71529331
122.91800,-7.306210751
122.91850,-3.949072266
122.91900,-0.5919337813
122.91950,4.59637115
122.92000,7.343120819
122.92050,3.375593519
122.92100,-2.728294635
122.92150,-3.338683451
122.92200,0.6288438496
122.92250,3.985982334
122.92300,4.291176742
122.92350,3.375593519
122.92400,2.460010296
122.92450,2.154815888
122.92500,2.765204703
122.92550,4.291176742
122.92600,3.985982334
122.92650,2.154815888
122.92700,0.9340382573
122.92750,0.9340382573
122.92800,0.3236494419
122.92850,0.6288438496
122.92900,3.985982334
122.92950,8.258704042
122.93000,8.258704042
122.93050,3.070399111
122.93100,-1.507517004
122.93150,-3.949072266
122.93200,-6.390627528
122.93250,-7.611405158
122.93300,-3.338683451
122.93350,2.154815888
122.93400,-0.2867393736
122.93450,-11.27373805
122.93500,-21.3451535
122.93550,-25.31268081
122.93600,-27.44904166
122.93650,-27.75423607
122.93700,-21.3451535
122.93750,-13.1049045
122.93800,-12.18932127
122.93850,-10.05296042
122.93900,12.83662016
122.93950,53.73267079
122.94000,77.53783459
122.94050,63.49889184
122.94100,32.67425666
122.94150,14.97298101
122.94200,9.479481673
122.94250,-3.643877858
122.94300,-23.78670877
122.94350,-31.72176337
122.94400,-23.17631995
122.94450,-14.63087654
122.94500,-15.54645976
122.94550,-17.3776262
122.94600,-12.79971009
122.94650,-6.695821935
122.94700,-5.169849897
122.94750,-6.390627528
122.94800,-6.08543312
122.94850,-4.864655489
122.94900,-3.949072266
122.94950,-0.897128189
122.95000,6.732732004
122.95050,16.49895305
122.95100,23.21323002
122.95150,23.21323002
122.95200,18.3301195
122.95250,11.61584253
122.95300,6.732732004
122.95350,5.81714878
122.95400,9.784676081
122.95450,15.88856423
122.95500,16.80414746
122.95550,6.122343188
122.95600,-9.137377197
122.95650,-15.54645976
122.95700,-10.66334924
122.95750,-8.832182789
122.95800,-19.20879265
122.95850,-28.66981929
122.95900,-18.90359824
122.95950,5.81714878
122.96000,25.04439647
122.96050,25.95997969
122.96100,15.27817542
122.96150,6.427537596
122.96200,3.985982334
122.96250,6.122343188
122.96300,7.343120819
122.96350,3.070399111
122.96400,-7.306210751
122.96450,-18.59840384
122.96500,-24.70229199
122.96550,-25.92306962
122.96600,-24.70229199
122.96650,-21.0399591
122.96700,-16.15684857
122.96750,-13.4100989
122.96800,-11.27373805
122.96850,0.01845503415
122.96900,22.2976468
122.96950,40.60931126
122.97000,40.30411685
122.97050,29.01192377
122.97100,23.82361883
122.97150,26.2651741
122.97200,23.51842443
122.97250,11.92103693
122.97300,3.985982334
122.97350,7.037926411
122.97400,11.92103693
122.97450,9.174287265
122.97500,3.985982334
122.97550,6.122343188
122.97600,11.92103693
122.97650,9.784676081
122.97700,-0.2867393736
122.97750,-8.832182789
122.97800,-7.916599566
122.97850,-0.5919337813
122.97900,7.037926411
122.97950,13.14181457
122.98000,14.05739779
122.98050,5.206759965
122.98100,-10.35815483
122.98150,-20.73476469
122.98200,-17.3776262
122.98250,-8.221793974
122.98300,-6.695821935
122.98350,-14.63087654
122.98400,-21.3451535
122.98450,-20.12437587
122.98500,-15.54645976
122.98550,-12.79971009
122.98600,-13.1049045
122.98650,-14.93607094
122.98700,-16.15684857
122.98750,-12.18932127
122.98800,-1.812711412
122.98850,7.343120819
122.98900,6.122343188
122.98950,-0.897128189
122.99000,1.239232665
122.99050,18.02492509
122.99100,32.67425666
122.99150,29.92750699
122.99200,15.88856423
122.99250,5.81714878
122.99300,3.375593519
122.99350,-1.202322597
122.99400,-11.88412687
122.99450,-20.42957028
122.99500,-19.51398706
122.99550,-12.79971009
122.99600,-8.221793974
122.99650,-9.137377197
122.99700,-13.4100989
122.99750,-15.85165417
122.99800,-14.93607094
122.99850,-11.57893246
122.99900,-8.832182789
122.99950,-8.221793974
123.00000,-7.611405158
123.00050,-5.475044304
123.00100,-3.643877858
123.00150,-3.949072266
123.00200,-6.695821935
123.00250,-9.137377197
123.00300,-7.916599566
123.00350,-3.949072266
123.00400,-1.507517004
123.00450,-3.338683451
123.00500,-9.442571605
123.00550,-16.15684857
123.00600,-20.73476469
123.00650,-21.0399591
123.00700,-16.76723739
123.00750,-9.747766012
123.00800,-3.338683451
123.00850,2.154815888
123.00900,11.31064812
123.00950,25.65478528
123.01000,40.60931126
123.01050,46.408005
123.01100,39.99892244
123.01150,26.5703685
123.01200,14.97298101
123.01250,11.31064812
123.01300,15.58336983
123.01350,20.77167476
123.01400,18.6353139
123.01450,6.732732004
123.01500,-7.306210751
123.01550,-12.79971009
123.01600,-8.221793974
123.01650,-1.812711412
123.01700,0.01845503415
123.01750,-0.5919337813
123.01800,-0.897128189
123.01850,-2.11790582
123.01900,-5.780238712
123.01950,-8.221793974
123.02000,-6.695821935
123.02050,-4.254266674
123.02100,-3.643877858
123.02150,-0.5919337813
123.02200,8.258704042
123.02250,16.49895305
123.02300,11.61584253
123.02350,-6.08543312
123.02400,-23.78670877
123.02450,-30.19579133
123.02500,-30.50098574
123.02550,-33.55292981
123.02600,-35.99448507
123.02650,-25.92306962
123.02700,0.01845503415
123.02750,29.01192377
123.02800,44.27164415
123.02850,40.30411685
123.02900,26.5703685
123.02950,15.88856423
123.03000,11.92103693
123.03050,9.784676081
123.03100,4.901565557
123.03150,1.239232665
123.03200,2.460010296
123.03250,5.511954373
123.03300,6.427537596
123.03350,7.648315227
123.03400,12.83662016
123.03450,18.3301195
123.03500,15.27817542
123.03550,1.84962148
123.03600,-17.0724318
123.03650,-36.29967948
123.03700,-48.20226138
123.03750,-45.76070612
123.03800,-35.38409626
123.03850,-36.60487389
123.03900,-50.94901105
123.03950,-46.98148375
123.04000,0.01845503415
123.04050,63.49889184
123.04100,87.91444445
123.04150,59.22617013
123.04200,20.46648035
123.04250,9.479481673
123.04300,15.88856423
123.04350,11.61584253
123.04400,-3.033489043
123.04450,-10.66334924
123.04500,-8.832182789
123.04550,-8.221793974
123.04600,-10.05296042
123.04650,-7.001016343
123.04700,-0.897128189
123.04750,0.01845503415
123.04800,-2.423100227
123.04850,-2.423100227
123.04900,0.01845503415
123.04950,2.460010296
123.05000,5.206759965
123.05050,9.479481673
123.05100,12.22623134
123.05150,9.784676081
123.05200,5.206759965
123.05250,2.154815888
123.05300,-1.507517004
123.05350,-7.611405158
123.05400,-10.35815483
123.05450,-7.916599566
123.05500,-5.780238712
123.05550,-7.611405158
123.05600,-8.832182789
123.05650,-3.949072266
123.05700,1.544427073
123.05750,2.460010296
123.05800,0.3236494419
123.05850,0.01845503415
123.05900,0.3236494419
123.05950,-0.5919337813
123.06000,-2.11790582
123.06050,-1.507517004
123.06100,-0.5919337813
123.06150,-2.11790582
123.06200,-4.559461081
123.06250,-4.254266674
123.06300,-2.11790582
123.06350,-1.507517004
123.06400,-2.423100227
123.06450,-3.643877858
123.06500,-5.169849897
123.06550,-6.695821935
123.06600,-5.780238712
123.06650,-1.812711412
123.06700,1.84962148
123.06750,3.985982334
123.06800,5.81714878
123.06850,7.953509634
123.06900,8.56389845
123.06950,7.037926411
123.07000,6.122343188
123.07050,5.511954373
123.07100,0.9340382573
123.07150,-7.916599566
123.07200,-14.93607094
123.07250,-12.79971009
123.07300,-3.949072266
123.07350,3.680787927
123.07400,6.427537596
123.07450,6.122343188
123.07500,4.901565557
123.07550,2.765204703
123.07600,0.9340382573
123.07650,0.01845503415
123.07700,-2.423100227
123.07750,-7.611405158
123.07800,-12.49451568
123.07850,-11.88412687
123.07900,-6.08543312
123.07950,0.01845503415
123.08000,1.84962148
123.08050,1.239232665
123.08100,0.3236494419
123.08150,0.3236494419
123.08200,0.01845503415
123.08250,-0.897128189
123.08300,-1.507517004
123.08350,-1.202322597
123.08400,0.01845503415
123.08450,1.84962148
123.08500,3.070399111
123.08550,2.154815888
123.08600,0.3236494419
123.08650,-0.897128189
123.08700,-1.812711412
123.08750,-2.423100227
123.08800,-2.11790582
123.08850,-0.5919337813
123.08900,0.3236494419
123.08950,0.3236494419
123.09000,-0.2867393736
123.09050,-2.728294635
123.09100,-7.306210751
123.09150,-10.96854364
123.09200,-9.442571605
123.09250,-2.423100227
123.09300,0.6288438496
123.09350,-6.08543312
123.09400,-14.32568213
123.09450,-10.66334924
123.09500,5.511954373
123.09550,18.94050831
123.09600,18.6353139
123.09650,11.61584253
123.09700,11.00545371
123.09750,17.41453627
123.09800,20.77167476
123.09850,17.41453627
123.09900,12.53142575
123.09950,10.08987049
123.10000,9.784676081
123.10050,10.3950649
123.10100,13.44700897
123.10150,18.02492509
123.10200,19.85609153
123.10250,17.71973068
123.10300,14.97298101
123.10350,14.97298101
123.10400,13.44700897
123.10450,4.291176742
123.10500,-10.96854364
123.10550,-25.31268081
123.10600,-30.80618014
123.10650,-26.53345844
123.10700,-17.3776262
123.10750,-9.137377197
123.10800,-4.254266674
123.10850,-1.202322597
123.10900,1.84962148
123.10950,3.070399111
123.11000,-0.897128189
123.11050,-9.442571605
123.11100,-14.63087654
123.11150,-13.1049045
123.11200,-7.611405158
123.11250,0.01845503415
123.11300,13.44700897
123.11350,30.84309021
123.11400,42.1352833
123.11450,38.4729504
123.11500,24.73920206
123.11550,12.22623134
123.11600,4.59637115
123.11650,-2.423100227
123.11700,-11.27373805
123.11750,-17.0724318
123.11800,-16.76723739
123.11850,-14.93607094
123.11900,-16.76723739
123.11950,-21.3451535
123.12000,-23.78670877
123.12050,-21.0399591
123.12100,-17.0724318
123.12150,-18.59840384
123.12200,-24.70229199
123.12250,-25.92306962
123.12300,-15.54645976
123.12350,-1.202322597
123.12400,2.460010296
123.12450,-2.423100227
123.12500,-0.2867393736
123.12550,17.41453627
123.12600,36.94697837
123.12650,40.60931126
123.12700,29.31711817
123.12750,18.3301195
123.12800,12.53142575
123.12850,6.427537596
123.12900,-2.423100227
123.12950,-7.306210751
123.13000,-5.475044304
123.13050,-3.643877858
123.13100,-5.780238712
123.13150,-5.780238712
123.13200,1.239232665
123.13250,9.784676081
123.13300,7.953509634
123.13350,-3.643877858
123.13400,-15.54645976
123.13450,-20.12437587
123.13500,-19.51398706
123.13550,-18.29320943
123.13600,-14.02048772
123.13650,-4.864655489
123.13700,3.070399111
123.13750,5.511954373
123.13800,6.732732004
123.13850,15.58336983
123.13900,29.31711817
123.13950,34.2002287
123.14000,23.21323002
123.14050,3.985982334
123.14100,-12.49451568
123.14150,-24.09190317
123.14200,-32.33215218
123.14250,-38.43604034
123.14300,-44.53992849
123.14350,-50.64381664
123.14400,-47.59187257
123.14450,-23.48151436
123.14500,14.3625922
123.14550,41.21970007
123.14600,40.60931126
123.14650,22.6028412
123.14700,7.648315227
123.14750,0.9340382573
123.14800,-3.033489043
123.14850,-5.780238712
123.14900,-2.728294635
123.14950,2.765204703
123.15000,4.291176742
123.15050,1.84962148
123.15100,2.154815888
123.15150,5.206759965
123.15200,6.732732004
123.15250,7.037926411
123.15300,9.479481673
123.15350,11.00545371
123.15400,7.037926411
123.15450,0.3236494419
123.15500,-1.812711412
123.15550,0.01845503415
123.15600,0.6288438496
123.15650,0.3236494419
123.15700,1.84962148
123.15750,3.985982334
123.15800,2.154815888
123.15850,-0.897128189
123.15900,-1.202322597
123.15950,0.6288438496
123.16000,-1.202322597
123.16050,-7.916599566
123.16100,-11.57893246
123.16150,-8.221793974
123.16200,-1.812711412
123.16250,3.070399111
123.16300,6.122343188
123.16350,7.343120819
123.16400,5.511954373
123.16450,3.070399111
123.16500,3.680787927
123.16550,6.122343188
123.16600,6.122343188
123.16650,1.544427073
123.16700,-5.475044304
123.16750,-14.02048772
123.16800,-21.3451535
123.16850,-23.78670877
123.16900,-19.51398706
123.16950,-13.1049045
123.17000,-11.27373805
123.17050,-9.442571605
123.17100,2.765204703
123.17150,25.04439647
123.17200,41.83008889
123.17250,39.38853363
123.17300,22.6028412
123.17350,6.122343188
123.17400,-1.507517004
123.17450,-3.643877858
123.17500,-3.033489043
123.17550,0.6288438496
123.17600,7.953509634
123.17650,14.6677866
123.17700,14.97298101
123.17750,9.174287265
123.17800,2.154815888
123.17850,-1.507517004
123.17900,-4.559461081
123.17950,-9.747766012
123.18000,-14.93607094
123.18050,-14.63087654
123.18100,-9.137377197
123.18150,-5.780238712
123.18200,-8.221793974
123.18250,-9.442571605
123.18300,-1.507517004
123.18350,9.479481673
123.18400,14.05739779
123.18450,11.61584253
123.18500,9.784676081
123.18550,11.00545371
123.18600,8.869092857
123.18650,0.9340382573
123.18700,-5.169849897
123.18750,-4.864655489
123.18800,0.3236494419
123.18850,6.427537596
123.18900,11.92103693
123.18950,14.05739779
123.19000,10.7002593
123.19050,5.511954373
123.19100,3.680787927
123.19150,2.460010296
123.19200,-4.864655489
123.19250,-15.85165417
123.19300,-18.29320943
123.19350,-7.916599566
123.19400,3.070399111
123.19450,4.291176742
123.19500,-0.2867393736
123.19550,-1.202322597
123.19600,1.239232665
123.19650,1.84962148
123.19700,-0.5919337813
123.19750,-0.897128189
123.19800,0.6288438496
123.19850,0.01845503415
123.19900,-3.643877858
123.19950,-7.001016343
123.20000,-7.001016343
123.20050,-8.221793974
123.20100,-12.18932127
123.20150,-15.85165417
123.20200,-14.93607094
123.20250,-12.79971009
123.20300,-13.4100989
123.20350,-14.32568213
123.20400,-8.221793974
123.20450,4.59637115
123.20500,14.3625922
123.20550,14.05739779
123.20600,8.869092857
123.20650,5.81714878
123.20700,4.291176742
123.20750,-0.897128189
123.20800,-5.780238712
123.20850,-0.5919337813
123.20900,12.53142575
123.20950,19.85609153
123.21000,14.05739779
123.21050,3.070399111
123.21100,-2.423100227
123.21150,-4.254266674
123.21200,-6.695821935
123.21250,-7.916599566
123.21300,-4.559461081
123.21350,-0.897128189
123.21400,-0.5919337813
123.21450,0.6288438496
123.21500,9.479481673
123.21550,20.46648035
123.21600,23.21323002
123.21650,17.10934187
123.21700,10.08987049
123.21750,6.122343188
123.21800,0.3236494419
123.21850,-9.137377197
123.21900,-17.98801502
123.21950,-19.81918147
123.22000,-17.68282061
123.22050,-17.0724318
123.22100,-17.68282061
123.22150,-15.54645976
123.22200,-10.66334924
123.22250,-6.695821935
123.22300,-4.254266674
123.22350,-1.507517004
123.22400,-0.5919337813
123.22450,-4.254266674
123.22500,-10.05296042
123.22550,-11.27373805
123.22600,-8.526988381
123.22650,-8.526988381
123.22700,-11.88412687
123.22750,-9.137377197
123.22800,3.680787927
123.22850,17.71973068
123.22900,21.99245239
123.22950,19.24570272
123.23000,16.19375864
123.23050,12.83662016
123.23100,5.511954373
123.23150,-0.897128189
123.23200,-0.5919337813
123.23250,1.239232665
123.23300,-3.643877858
123.23350,-14.63087654
123.23400,-19.20879265
123.23450,-14.02048772
123.23500,-6.695821935
123.23550,-2.423100227
123.23600,0.6288438496
123.23650,3.680787927
123.23700,1.84962148
123.23750,-2.728294635
123.23800,-2.728294635
123.23850,3.985982334
123.23900,8.869092857
123.23950,4.901565557
123.24000,-1.507517004
123.24050,-3.033489043
123.24100,-0.897128189
123.24150,-0.2867393736
123.24200,0.01845503415
123.24250,3.070399111
123.24300,7.343120819
123.24350,8.258704042
123.24400,5.81714878
123.24450,3.375593519
123.24500,1.239232665
123.24550,-1.812711412
123.24600,-3.949072266
123.24650,-2.423100227
123.24700,0.01845503415
123.24750,0.6288438496
123.24800,0.01845503415
123.24850,0.9340382573
123.24900,3.985982334
123.24950,3.375593519
123.25000,0.01845503415
123.25050,-1.202322597
123.25100,2.154815888
123.25150,4.901565557
123.25200,3.375593519
123.25250,0.01845503415
123.25300,-0.2867393736
123.25350,1.544427073
123.25400,3.375593519
123.25450,3.070399111
123.25500,1.239232665
123.25550,-1.812711412
123.25600,-5.475044304
123.25650,-7.001016343
123.25700,-5.780238712
123.25750,-6.08543312
123.25800,-9.442571605
123.25850,-11.88412687
123.25900,-10.96854364
123.25950,-11.57893246
123.26000,-16.15684857
123.26050,-15.85165417
123.26100,-1.812711412
123.26150,19.85609153
123.26200,31.45347903
123.26250,25.65478528
123.26300,14.6677866
123.26350,9.479481673
123.26400,7.953509634
123.26450,2.765204703
123.26500,-3.949072266
123.26550,-3.949072266
123.26600,3.680787927
123.26650,13.14181457
123.26700,19.55089713
123.26750,22.2976468
123.26800,19.55089713
123.26850,7.648315227
123.26900,-9.747766012
123.26950,-21.95554232
123.27000,-22.56593114
123.27050,-17.68282061
123.27100,-16.76723739
123.27150,-18.29320943
123.27200,-14.02048772
123.27250,-0.897128189
123.27300,12.53142575
123.27350,18.6353139
123.27400,17.71973068
123.27450,14.3625922
123.27500,11.61584253
123.27550,7.953509634
123.27600,3.375593519
123.27650,-1.812711412
123.27700,-7.611405158
123.27750,-11.88412687
123.27800,-11.27373805
123.27850,-5.475044304
123.27900,0.6288438496
123.27950,3.070399111
123.28000,1.239232665
123.28050,-0.5919337813
123.28100,-0.2867393736
123.28150,0.9340382573
123.28200,2.154815888
123.28250,1.84962148
123.28300,0.3236494419
123.28350,-1.812711412
123.28400,-5.780238712
123.28450,-10.96854364
123.28500,-14.32568213
123.28550,-11.27373805
123.28600,-1.202322597
123.28650,8.869092857
123.28700,15.58336983
123.28750,20.16128594
123.28800,25.65478528
123.28850,26.87556291
123.28900,14.3625922
123.28950,-8.221793974
123.29000,-26.53345844
123.29050,-28.36462488
123.29100,-17.98801502
123.29150,-8.526988381
123.29200,-5.780238712
123.29250,-5.780238712
123.29300,-0.2867393736
123.29350,11.31064812
123.29400,21.99245239
123.29450,22.2976468
123.29500,9.479481673
123.29550,-6.390627528
123.29600,-14.93607094
123.29650,-13.4100989
123.29700,-9.442571605
123.29750,-7.001016343
123.29800,-3.338683451
123.29850,2.154815888
123.29900,6.122343188
123.29950,5.206759965
123.30000,1.544427073
123.30050,0.01845503415
123.30100,-0.2867393736
123.30150,0.01845503415
123.30200,1.544427073
123.30250,3.680787927
123.30300,3.375593519
123.30350,-0.2867393736
123.30400,-3.949072266
123.30450,-3.643877858
123.30500,-1.507517004
123.30550,-0.5919337813
123.30600,0.3236494419
123.30650,2.460010296
123.30700,3.070399111
123.30750,-0.5919337813
123.30800,-5.169849897
123.30850,-5.475044304
123.30900,-2.728294635
123.30950,-0.5919337813
123.31000,1.84962148
123.31050,8.869092857
123.31100,17.41453627
123.31150,19.24570272
123.31200,12.22623134
123.31250,3.375593519
123.31300,-0.2867393736
123.31350,0.6288438496
123.31400,3.680787927
123.31450,6.122343188
123.31500,6.427537596
123.31550,5.511954373
123.31600,5.81714878
123.31650,7.648315227
123.31700,6.732732004
123.31750,1.544427073
123.31800,-2.423100227
123.31850,-2.423100227
123.31900,-4.864655489
123.31950,-17.3776262
123.32000,-33.55292981
123.32050,-41.18279001
123.32100,-38.13084593
123.32150,-31.41656896
123.32200,-21.65034791
123.32250,-2.728294635
123.32300,21.99245239
123.32350,37.25217277
123.32400,37.25217277
123.32450,31.75867344
123.32500,28.70672936
123.32550,25.04439647
123.32600,17.41453627
123.32650,11.61584253
123.32700,10.3950649
123.32750,4.901565557
123.32800,-8.832182789
123.32850,-20.73476469
123.32900,-19.81918147
123.32950,-12.18932127
123.33000,-9.442571605
123.33050,-10.66334924
123.33100,-5.780238712
123.33150,3.070399111
123.33200,4.901565557
123.33250,-3.033489043
123.33300,-11.57893246
123.33350,-14.63087654
123.33400,-15.54645976
123.33450,-16.76723739
123.33500,-14.32568213
123.33550,-6.695821935
123.33600,0.6288438496
123.33650,2.765204703
123.33700,1.84962148
123.33750,1.239232665
123.33800,2.154815888
123.33850,3.070399111
123.33900,4.901565557
123.33950,5.206759965
123.34000,3.070399111
123.34050,-0.897128189
123.34100,-4.559461081
123.34150,-8.221793974
123.34200,-11.88412687
123.34250,-12.49451568
123.34300,-9.442571605
123.34350,-10.35815483
123.34400,-21.3451535
123.34450,-31.72176337
123.34500,-24.09190317
123.34550,0.3236494419
123.34600,17.71973068
123.34650,13.14181457
123.34700,0.9340382573
123.34750,4.291176742
123.34800,23.21323002
123.34850,37.25217277
123.34900,34.5054231
123.34950,22.90803561
123.35000,14.3625922
123.35050,11.00545371
123.35100,9.174287265
123.35150,7.953509634
123.35200,5.81714878
123.35250,1.544427073
123.35300,-4.559461081
123.35350,-7.306210751
123.35400,-3.033489043
123.35450,3.680787927
123.35500,7.037926411
123.35550,5.511954373
123.35600,3.985982334
123.35650,4.59637115
123.35700,5.511954373
123.35750,3.070399111
123.35800,-3.033489043
123.35850,-9.137377197
123.35900,-13.1049045
123.35950,-14.02048772
123.36000,-14.02048772
123.36050,-12.79971009
123.36100,-11.27373805
123.36150,-9.747766012
123.36200,-7.916599566
123.36250,-5.475044304
123.36300,-2.728294635
123.36350,-2.11790582
123.36400,-4.559461081
123.36450,-7.001016343
123.36500,-5.475044304
123.36550,-0.5919337813
123.36600,2.460010296
123.36650,1.239232665
123.36700,-2.728294635
123.36750,-5.475044304
123.36800,-3.643877858
123.36850,0.6288438496
123.36900,4.291176742
123.36950,5.81714878
123.37000,7.037926411
123.37050,8.869092857
123.37100,9.174287265
123.37150,4.291176742
123.37200,-5.780238712
123.37250,-17.0724318
123.37300,-24.09190317
123.37350,-23.48151436
123.37400,-18.90359824
123.37450,-15.85165417
123.37500,-13.1049045
123.37550,-4.864655489
123.37600,8.869092857
123.37650,18.94050831
123.37700,16.49895305
123.37750,5.511954373
123.37800,-1.202322597
123.37850,0.9340382573
123.37900,5.206759965
123.37950,3.070399111
123.38000,-4.559461081
123.38050,-10.05296042
123.38100,-9.137377197
123.38150,-2.728294635
123.38200,3.070399111
123.38250,1.544427073
123.38300,-6.695821935
123.38350,-10.66334924
123.38400,2.460010296
123.38450,26.87556291
123.38500,42.4404777
123.38550,38.4729504
123.38600,24.43400765
123.38650,14.97298101
123.38700,11.31064812
123.38750,7.953509634
123.38800,4.59637115
123.38850,5.206759965
123.38900,8.869092857
123.38950,8.869092857
123.39000,5.206759965
123.39050,3.070399111
123.39100,4.901565557
123.39150,7.648315227
123.39200,8.56389845
123.39250,8.869092857
123.39300,7.648315227
123.39350,1.84962148
123.39400,-8.832182789
123.39450,-19.20879265
123.39500,-21.65034791
123.39550,-17.0724318
123.39600,-11.27373805
123.39650,-8.832182789
123.39700,-7.916599566
123.39750,-5.169849897
123.39800,-1.812711412
123.39850,-1.202322597
123.39900,-4.559461081
123.39950,-7.001016343
123.40000,-5.780238712
123.40050,-2.423100227
123.40100,-0.897128189
123.40150,-0.5919337813
123.40200,0.01845503415
123.40250,2.154815888
123.40300,4.291176742
123.40350,5.206759965
123.40400,5.81714878
123.40450,6.427537596
123.40500,7.037926411
123.40550,7.343120819
123.40600,6.732732004
123.40650,4.291176742
123.40700,0.9340382573
123.40750,-1.202322597
123.40800,-0.2867393736
123.40850,1.84962148
123.40900,4.59637115
123.40950,7.037926411
123.41000,8.869092857
123.41050,7.648315227
123.41100,1.239232665
123.41150,-7.611405158
123.41200,-13.71529331
123.41250,-12.79971009
123.41300,-7.001016343
123.41350,0.01845503415
123.41400,3.680787927
123.41450,3.375593519
123.41500,-0.5919337813
123.41550,-4.559461081
123.41600,-5.169849897
123.41650,-2.11790582
123.41700,3.070399111
123.41750,9.174287265
123.41800,12.83662016
123.41850,10.3950649
123.41900,2.765204703
123.41950,-3.033489043
123.42000,-3.338683451
123.42050,-3.949072266
123.42100,-14.02048772
123.42150,-31.41656896
123.42200,-43.01395645
123.42250,-41.18279001
123.42300,-31.72176337
123.42350,-22.26073673
123.42400,-12.18932127
123.42450,1.84962148
123.42500,15.88856423
123.42550,21.68725798
123.42600,19.24570272
123.42650,15.88856423
123.42700,14.6677866
123.42750,13.14181457
123.42800,9.479481673
123.42850,7.343120819
123.42900,8.869092857
123.42950,11.31064812
123.43000,10.7002593
123.43050,8.258704042
123.43100,7.343120819
123.43150,7.343120819
123.43200,4.59637115
123.43250,-0.2867393736
123.43300,-3.949072266
123.43350,-3.033489043
123.43400,0.3236494419
123.43450,2.154815888
123.43500,1.84962148
123.43550,1.544427073
123.43600,1.239232665
123.43650,-0.5919337813
123.43700,-3.033489043
123.43750,-3.643877858
123.43800,-1.507517004
123.43850,0.01845503415
123.43900,-0.5919337813
123.43950,-2.11790582
123.44000,-3.033489043
123.44050,-4.254266674
123.44100,-6.390627528
123.44150,-8.221793974
123.44200,-7.916599566
123.44250,-7.001016343
123.44300,-7.001016343
123.44350,-9.442571605
123.44400,-13.71529331
123.44450,-17.3776262
123.44500,-17.68282061
123.44550,-13.4100989
123.44600,-7.306210751
123.44650,-3.033489043
123.44700,1.239232665
123.44750,9.784676081
123.44800,20.16128594
123.44850,23.21323002
123.44900,15.88856423
123.44950,5.206759965
123.45000,0.6288438496
123.45050,1.239232665
123.45100,1.239232665
123.45150,0.01845503415
123.45200,-0.2867393736
123.45250,0.01845503415
123.45300,0.01845503415
123.45350,0.9340382573
123.45400,6.427537596
123.45450,13.14181457
123.45500,15.58336983
123.45550,11.61584253
123.45600,5.511954373
123.45650,0.01845503415
123.45700,-3.949072266
123.45750,-6.390627528
123.45800,-9.442571605
123.45850,-18.59840384
123.45900,-32.33215218
123.45950,-39.04642915
123.46000,-29.58540251
123.46050,-11.27373805
123.46100,0.6288438496
123.46150,3.070399111
123.46200,6.122343188
123.46250,12.53142575
123.46300,14.3625922
123.46350,8.56389845
123.46400,3.375593519
123.46450,4.901565557
123.46500,6.732732004
123.46550,2.460010296
123.46600,-1.507517004
123.46650,2.154815888
123.46700,10.7002593
123.46750,13.14181457
123.46800,9.784676081
123.46850,9.174287265
123.46900,13.75220338
123.46950,16.19375864
123.47000,11.92103693
123.47050,6.427537596
123.47100,6.122343188
123.47150,9.479481673
123.47200,11.00545371
123.47250,8.258704042
123.47300,2.765204703
123.47350,-3.033489043
123.47400,-7.306210751
123.47450,-7.916599566
123.47500,-4.864655489
123.47550,-1.812711412
123.47600,-1.812711412
123.47650,-3.033489043
123.47700,-2.423100227
123.47750,-0.5919337813
123.47800,0.01845503415
123.47850,-0.2867393736
123.47900,-0.2867393736
123.47950,0.01845503415
123.48000,-0.897128189
123.48050,-3.949072266
123.48100,-6.695821935
123.48150,-7.306210751
123.48200,-5.169849897
123.48250,-1.812711412
123.48300,0.9340382573
123.48350,1.84962148
123.48400,1.239232665
123.48450,0.01845503415
123.48500,-1.507517004
123.48550,-1.812711412
123.48600,-1.202322597
123.48650,-0.5919337813
123.48700,-0.5919337813
123.48750,-1.812711412
123.48800,-2.11790582
123.48850,-0.5919337813
123.48900,1.239232665
123.48950,1.84962148
123.49000,1.84962148
123.49050,2.765204703
123.49100,5.511954373
123.49150,7.037926411
123.49200,7.648315227
123.49250,10.08987049
123.49300,12.83662016
123.49350,11.31064812
123.49400,3.680787927
123.49450,-5.169849897
123.49500,-10.96854364
123.49550,-16.15684857
123.49600,-23.78670877
123.49650,-31.72176337
123.49700,-32.942541
123.49750,-25.61787521
123.49800,-13.4100989
123.49850,0.3236494419
123.49900,16.80414746
123.49950,32.36906225
123.50000,39.99892244
123.50050,35.11581192
123.50100,21.99245239
123.50150,12.22623134
123.50200,13.14181457
123.50250,18.6353139
123.50300,15.88856423
123.50350,-0.2867393736
123.50400,-20.42957028
123.50450,-30.19579133
123.50500,-26.22826403
123.50550,-17.0724318
123.50600,-11.27373805
123.50650,-7.611405158
123.50700,-5.169849897
123.50750,-4.864655489
123.50800,-8.832182789
123.50850,-12.49451568
123.50900,-12.18932127
123.50950,-9.442571605
123.51000,-7.611405158
123.51050,-7.001016343
123.51100,-4.864655489
123.51150,-2.423100227
123.51200,-1.507517004
123.51250,-1.202322597
123.51300,1.239232665
123.51350,5.81714878
123.51400,8.869092857
123.51450,7.953509634
123.51500,5.206759965
123.51550,3.680787927
123.51600,3.375593519
123.51650,2.460010296
123.51700,1.239232665
123.51750,0.6288438496
123.51800,0.01845503415
123.51850,-1.507517004
123.51900,-2.11790582
123.51950,0.3236494419
123.52000,5.511954373
123.52050,8.258704042
123.52100,6.122343188
123.52150,2.765204703
123.52200,1.544427073
123.52250,1.239232665
123.52300,0.9340382573
123.52350,1.84962148
123.52400,3.985982334
123.52450,5.511954373
123.52500,5.206759965
123.52550,6.122343188
123.52600,8.56389845
123.52650,8.869092857
123.52700,6.732732004
123.52750,6.122343188
123.52800,7.037926411
123.52850,2.460010296
123.52900,-9.747766012
123.52950,-21.3451535
123.53000,-25.0074864
123.53050,-26.83865284
123.53100,-33.85812422
123.53150,-37.21526271
123.53200,-27.44904166
123.53250,-12.18932127
123.53300,-4.559461081
123.53350,-0.897128189
123.53400,12.53142575
123.53450,31.75867344
123.53500,35.42100633
123.53550,15.58336983
123.53600,-10.05296042
123.53650,-24.39709758
123.53700,-28.66981929
123.53750,-29.28020811
123.53800,-25.0074864
123.53850,-13.71529331
123.53900,-3.949072266
123.53950,-1.812711412
123.54000,-0.2867393736
123.54050,11.31064812
123.54100,30.5378958
123.54150,45.18722737
123.54200,49.45994908
123.54250,47.93397704
123.54300,43.35606093
123.54350,35.11581192
123.54400,23.51842443
123.54450,12.83662016
123.54500,6.732732004
123.54550,3.070399111
123.54600,-0.5919337813
123.54650,-4.864655489
123.54700,-6.695821935
123.54750,-3.338683451
123.54800,2.765204703
123.54850,6.427537596
123.54900,3.375593519
123.54950,-2.728294635
123.55000,-3.338683451
123.55050,4.901565557
123.55100,15.88856423
123.55150,18.6353139
123.55200,10.7002593
123.55250,-1.202322597
123.55300,-9.747766012
123.55350,-11.88412687
123.55400,-11.27373805
123.55450,-11.27373805
123.55500,-11.88412687
123.55550,-10.66334924
123.55600,-7.916599566
123.55650,-5.780238712
123.55700,-5.780238712
123.55750,-6.390627528
123.55800,-5.475044304
123.55850,-3.949072266
123.55900,-3.643877858
123.55950,-4.559461081
123.56000,-4.254266674
123.56050,-2.423100227
123.56100,0.01845503415
123.56150,0.9340382573
123.56200,0.3236494419
123.56250,-0.897128189
123.56300,-2.423100227
123.56350,-3.033489043
123.56400,-3.338683451
123.56450,-3.949072266
123.56500,-4.864655489
123.56550,-5.169849897
123.56600,-5.169849897
123.56650,-5.780238712
123.56700,-6.695821935
123.56750,-5.780238712
123.56800,-1.507517004
123.56850,2.460010296
123.56900,3.985982334
123.56950,3.375593519
123.57000,3.680787927
123.57050,4.59637115
123.57100,2.460010296
123.57150,-3.949072266
123.57200,-11.27373805
123.57250,-14.63087654
123.57300,-13.4100989
123.57350,-11.27373805
123.57400,-10.35815483
123.57450,-9.747766012
123.57500,-9.137377197
123.57550,-8.832182789
123.57600,-10.05296042
123.57650,-12.18932127
123.57700,-13.71529331
123.57750,-12.49451568
123.57800,-10.35815483
123.57850,-9.747766012
123.57900,-11.88412687
123.57950,-13.4100989
123.58000,-10.35815483
123.58050,-3.643877858
123.58100,3.375593519
123.58150,11.31064812
123.58200,20.16128594
123.58250,25.34959087
123.58300,19.85609153
123.58350,7.343120819
123.58400,0.3236494419
123.58450,5.511954373
123.58500,12.53142575
123.58550,8.869092857
123.58600,-1.202322597
123.58650,-3.643877858
123.58700,7.037926411
123.58750,18.94050831
123.58800,19.24570272
123.58850,10.7002593
123.58900,4.291176742
123.58950,3.985982334
123.59000,4.901565557
123.59050,3.375593519
123.59100,0.9340382573
123.59150,0.9340382573
123.59200,2.765204703
123.59250,3.375593519
123.59300,1.84962148
123.59350,-0.5919337813
123.59400,-3.033489043
123.59450,-3.949072266
123.59500,-4.254266674
123.59550,-4.559461081
123.59600,-3.643877858
123.59650,-1.202322597
123.59700,0.9340382573
123.59750,0.6288438496
123.59800,-0.2867393736
123.59850,-0.2867393736
123.59900,0.9340382573
123.59950,0.9340382573
123.60000,-1.202322597
123.60050,-2.728294635
123.60100,-1.812711412
123.60150,-0.2867393736
123.60200,-0.2867393736
123.60250,-1.202322597
123.60300,-1.202322597
123.60350,-0.897128189
123.60400,-0.2867393736
123.60450,0.3236494419
123.60500,0.6288438496
123.60550,-0.5919337813
123.60600,-3.338683451
123.60650,-5.780238712
123.60700,-6.390627528
123.60750,-6.08543312
123.60800,-5.169849897
123.60850,-2.728294635
123.60900,0.01845503415
123.60950,0.6288438496
123.61000,1.239232665
123.61050,5.511954373
123.61100,14.05739779
123.61150,19.55089713
123.61200,16.49895305
123.61250,8.869092857
123.61300,3.985982334
123.61350,2.460010296
123.61400,-1.202322597
123.61450,-9.137377197
123.61500,-14.02048772
123.61550,-9.747766012
123.61600,0.01845503415
123.61650,7.343120819
123.61700,9.784676081
123.61750,11.61584253
123.61800,14.3625922
123.61850,14.3625922
123.61900,10.08987049
123.61950,4.59637115
123.62000,-0.5919337813
123.62050,-10.35815483
123.62100,-27.75423607
123.62150,-44.23473408
123.62200,-47.89706697
123.62250,-39.35162356
123.62300,-31.11137455
123.62350,-30.80618014
123.62400,-32.02695777
123.62450,-25.92306962
123.62500,-15.24126535
123.62550,-8.221793974
123.62600,-4.254266674
123.62650,3.070399111
123.62700,14.97298101
123.62750,22.90803561
123.62800,21.07686917
123.62850,13.14181457
123.62900,5.511954373
123.62950,3.375593519
123.63000,10.3950649
123.63050,26.5703685
123.63100,41.83008889
123.63150,43.35606093
123.63200,30.5378958
123.63250,15.58336983
123.63300,10.08987049
123.63350,12.83662016
123.63400,14.97298101
123.63450,14.3625922
123.63500,14.05739779
123.63550,14.6677866
123.63600,14.05739779
123.63650,11.92103693
123.63700,10.08987049
123.63750,7.037926411
123.63800,1.239232665
123.63850,-5.169849897
123.63900,-8.526988381
123.63950,-6.695821935
123.64000,-2.423100227
123.64050,1.544427073
123.64100,4.901565557
123.64150,5.206759965
