"type","name","time_units","begin_time","frequency","count","units"
"signal","Ultium EMG-FLEX.CAPR.U RT","s",65.98000,2000,22000,"uV"

"time","value"
65.98000,-1.505686753
65.98050,-1.505686753
65.98100,-3.336853199
65.98150,-6.388797276
65.98200,-7.304380499
65.98250,-6.693991684
65.98300,-5.778408461
65.98350,-6.999186092
65.98400,-9.440741353
65.98450,-12.79787984
65.98500,-16.76540714
65.98550,-19.81735122
65.98600,-19.2069624
65.98650,-14.62904628
65.98700,-9.440741353
65.98750,-6.388797276
65.98800,-5.473214053
65.98850,-3.336853199
65.98900,0.02028528547
65.98950,2.767034955
65.99000,6.734562255
65.99050,13.75403363
65.99100,21.07869942
65.99150,22.90986586
65.99200,18.63714416
65.99250,13.14364482
65.99300,11.31247837
65.99350,10.39689515
65.99400,6.734562255
65.99450,1.851451732
65.99500,0.6306741009
65.99550,3.072229362
65.99600,4.598201401
65.99650,2.156646139
65.99700,-1.200492345
65.99750,-2.726464384
65.99800,-2.726464384
65.99850,-3.336853199
65.99900,-4.55763083
65.99950,-3.642047607
66.00000,-0.8952979376
66.00050,2.156646139
66.00100,4.598201401
66.00150,5.818979032
66.00200,4.903395809
66.00250,2.156646139
66.00300,0.6306741009
66.00350,1.851451732
66.00400,4.903395809
66.00450,5.818979032
66.00500,4.293006993
66.00550,3.072229362
66.00600,4.293006993
66.00650,5.513784624
66.00700,4.598201401
66.00750,1.241062916
66.00800,-3.031658792
66.00850,-6.693991684
66.00900,-7.609574907
66.00950,-4.252436422
66.01000,0.02028528547
66.01050,1.851451732
66.01100,-1.200492345
66.01150,-6.388797276
66.01200,-9.135546946
66.01250,-7.914769315
66.01300,-4.862825238
66.01350,-2.116075568
66.01400,-2.116075568
66.01450,-4.55763083
66.01500,-6.999186092
66.01550,-6.693991684
66.01600,-3.642047607
66.01650,-0.8952979376
66.01700,-1.200492345
66.01750,-2.726464384
66.01800,-2.116075568
66.01850,0.02028528547
66.01900,0.02028528547
66.01950,-3.336853199
66.02000,-5.168019645
66.02050,-2.726464384
66.02100,2.156646139
66.02150,5.513784624
66.02200,5.208590216
66.02250,3.682618178
66.02300,3.072229362
66.02350,2.767034955
66.02400,1.546257324
66.02450,0.02028528547
66.02500,-1.200492345
66.02550,-1.200492345
66.02600,-0.5901035299
66.02650,0.6306741009
66.02700,1.546257324
66.02750,2.156646139
66.02800,2.156646139
66.02850,2.156646139
66.02900,1.546257324
66.02950,0.6306741009
66.03000,1.241062916
66.03050,3.987812586
66.03100,7.34495107
66.03150,7.955339886
66.03200,6.124173439
66.03250,3.987812586
66.03300,2.767034955
66.03350,1.546257324
66.03400,0.02028528547
66.03450,-1.200492345
66.03500,-1.810881161
66.03550,-2.726464384
66.03600,-4.55763083
66.03650,-6.999186092
66.03700,-9.440741353
66.03750,-10.96671339
66.03800,-10.05113017
66.03850,-6.388797276
66.03900,-1.200492345
66.03950,2.461840547
66.04000,6.429367847
66.04050,11.61767278
66.04100,16.19558889
66.04150,16.19558889
66.04200,12.533256
66.04250,9.786506332
66.04300,8.870923109
66.04350,7.955339886
66.04400,5.208590216
66.04450,3.37742377
66.04500,3.072229362
66.04550,1.241062916
66.04600,-3.947242015
66.04650,-9.135546946
66.04700,-9.440741353
66.04750,-6.693991684
66.04800,-5.168019645
66.04850,-5.473214053
66.04900,-5.473214053
66.04950,-4.252436422
66.05000,-3.642047607
66.05050,-3.642047607
66.05100,-2.421269976
66.05150,-0.5901035299
66.05200,-0.8952979376
66.05250,-2.726464384
66.05300,-4.55763083
66.05350,-4.252436422
66.05400,-2.726464384
66.05450,-1.505686753
66.05500,0.02028528547
66.05550,1.241062916
66.05600,0.9358685086
66.05650,-0.8952979376
66.05700,-2.726464384
66.05750,-2.421269976
66.05800,-0.8952979376
66.05850,0.02028528547
66.05900,-0.5901035299
66.05950,-1.810881161
66.06000,-3.031658792
66.06050,-4.252436422
66.06100,-4.55763083
66.06150,-3.947242015
66.06200,-2.116075568
66.06250,0.3254796932
66.06300,3.072229362
66.06350,5.208590216
66.06400,6.429367847
66.06450,5.513784624
66.06500,2.156646139
66.06550,-1.810881161
66.06600,-5.168019645
66.06650,-6.693991684
66.06700,-7.304380499
66.06750,-8.219963722
66.06800,-9.135546946
66.06850,-8.219963722
66.06900,-5.473214053
66.06950,-3.031658792
66.07000,-1.505686753
66.07050,0.02028528547
66.07100,2.461840547
66.07150,3.987812586
66.07200,4.293006993
66.07250,5.818979032
66.07300,10.70208956
66.07350,16.5007833
66.07400,18.02675534
66.07450,14.66961686
66.07500,10.70208956
66.07550,8.870923109
66.07600,7.34495107
66.07650,4.293006993
66.07700,0.9358685086
66.07750,-0.2849091222
66.07800,-0.2849091222
66.07850,0.02028528547
66.07900,0.9358685086
66.07950,3.072229362
66.08000,3.987812586
66.08050,2.461840547
66.08100,0.3254796932
66.08150,0.3254796932
66.08200,2.156646139
66.08250,2.767034955
66.08300,1.851451732
66.08350,0.9358685086
66.08400,0.3254796932
66.08450,0.02028528547
66.08500,-0.5901035299
66.08550,0.02028528547
66.08600,0.9358685086
66.08650,0.6306741009
66.08700,-0.2849091222
66.08750,-0.5901035299
66.08800,0.9358685086
66.08850,1.546257324
66.08900,0.02028528547
66.08950,-1.505686753
66.09000,-2.116075568
66.09050,-2.726464384
66.09100,-5.168019645
66.09150,-8.52515813
66.09200,-10.35632458
66.09250,-10.66151898
66.09300,-10.96671339
66.09350,-12.18749102
66.09400,-12.79787984
66.09450,-11.57710221
66.09500,-10.35632458
66.09550,-9.745935761
66.09600,-9.135546946
66.09650,-6.999186092
66.09700,-3.336853199
66.09750,-1.200492345
66.09800,-1.505686753
66.09850,-1.810881161
66.09900,0.6306741009
66.09950,5.818979032
66.10000,10.39689515
66.10050,12.533256
66.10100,12.533256
66.10150,11.61767278
66.10200,9.481311924
66.10250,5.818979032
66.10300,1.851451732
66.10350,-0.5901035299
66.10400,-1.505686753
66.10450,-0.5901035299
66.10500,0.6306741009
66.10550,0.9358685086
66.10600,0.02028528547
66.10650,-1.810881161
66.10700,-1.200492345
66.10750,1.546257324
66.10800,4.293006993
66.10850,4.598201401
66.10900,2.767034955
66.10950,0.02028528547
66.11000,-3.031658792
66.11050,-5.778408461
66.11100,-6.693991684
66.11150,-5.778408461
66.11200,-5.778408461
66.11250,-7.304380499
66.11300,-8.52515813
66.11350,-7.914769315
66.11400,-6.083602869
66.11450,-4.862825238
66.11500,-4.862825238
66.11550,-4.862825238
66.11600,-4.252436422
66.11650,-4.55763083
66.11700,-4.862825238
66.11750,-4.252436422
66.11800,-2.421269976
66.11850,0.02028528547
66.11900,2.767034955
66.11950,4.598201401
66.12000,5.208590216
66.12050,4.293006993
66.12100,3.682618178
66.12150,3.987812586
66.12200,4.903395809
66.12250,4.903395809
66.12300,3.682618178
66.12350,3.072229362
66.12400,3.682618178
66.12450,3.682618178
66.12500,2.461840547
66.12550,1.851451732
66.12600,3.682618178
66.12650,6.124173439
66.12700,6.429367847
66.12750,3.37742377
66.12800,1.241062916
66.12850,2.461840547
66.12900,4.903395809
66.12950,4.598201401
66.13000,1.241062916
66.13050,-1.810881161
66.13100,-2.421269976
66.13150,-0.8952979376
66.13200,0.02028528547
66.13250,-0.2849091222
66.13300,-1.505686753
66.13350,-3.031658792
66.13400,-3.947242015
66.13450,-3.947242015
66.13500,-3.031658792
66.13550,-1.505686753
66.13600,-0.2849091222
66.13650,0.6306741009
66.13700,1.241062916
66.13750,1.241062916
66.13800,1.546257324
66.13850,2.156646139
66.13900,2.156646139
66.13950,1.241062916
66.14000,1.241062916
66.14050,3.072229362
66.14100,3.987812586
66.14150,2.461840547
66.14200,0.3254796932
66.14250,1.546257324
66.14300,5.818979032
66.14350,8.870923109
66.14400,7.955339886
66.14450,4.903395809
66.14500,2.156646139
66.14550,-0.5901035299
66.14600,-4.252436422
66.14650,-6.083602869
66.14700,-3.947242015
66.14750,-1.810881161
66.14800,-2.421269976
66.14850,-4.55763083
66.14900,-3.031658792
66.14950,1.546257324
66.15000,5.818979032
66.15050,6.429367847
66.15100,6.429367847
66.15150,8.565728701
66.15200,10.70208956
66.15250,8.870923109
66.15300,3.682618178
66.15350,0.02028528547
66.15400,-0.2849091222
66.15450,1.546257324
66.15500,4.598201401
66.15550,7.34495107
66.15600,7.34495107
66.15650,4.293006993
66.15700,0.6306741009
66.15750,-0.2849091222
66.15800,0.02028528547
66.15850,-0.2849091222
66.15900,-4.862825238
66.15950,-10.66151898
66.16000,-15.84982392
66.16050,-20.12254562
66.16100,-23.47968411
66.16150,-25.00565615
66.16200,-24.70046174
66.16250,-22.56410088
66.16300,-19.2069624
66.16350,-13.10307425
66.16400,-4.862825238
66.16450,2.156646139
66.16500,7.650145478
66.16550,13.14364482
66.16600,20.77350501
66.16650,26.57219876
66.16700,25.65661553
66.16750,18.94233856
66.16800,12.83845041
66.16850,9.786506332
66.16900,8.565728701
66.16950,6.124173439
66.17000,2.767034955
66.17050,0.02028528547
66.17100,-1.505686753
66.17150,-1.505686753
66.17200,1.241062916
66.17250,5.513784624
66.17300,7.039756663
66.17350,4.903395809
66.17400,2.156646139
66.17450,1.851451732
66.17500,2.461840547
66.17550,1.851451732
66.17600,0.6306741009
66.17650,0.3254796932
66.17700,0.6306741009
66.17750,0.02028528547
66.17800,-0.5901035299
66.17850,-0.5901035299
66.17900,0.02028528547
66.17950,-0.2849091222
66.18000,-1.810881161
66.18050,-2.421269976
66.18100,-1.810881161
66.18150,-1.505686753
66.18200,-1.810881161
66.18250,-1.505686753
66.18300,-0.5901035299
66.18350,0.02028528547
66.18400,0.3254796932
66.18450,0.02028528547
66.18500,-1.505686753
66.18550,-2.726464384
66.18600,-2.116075568
66.18650,0.02028528547
66.18700,2.461840547
66.18750,2.461840547
66.18800,0.6306741009
66.18850,-0.5901035299
66.18900,-0.8952979376
66.18950,-1.810881161
66.19000,-3.947242015
66.19050,-6.083602869
66.19100,-6.693991684
66.19150,-6.693991684
66.19200,-5.778408461
66.19250,-4.862825238
66.19300,-4.862825238
66.19350,-5.473214053
66.19400,-5.473214053
66.19450,-3.642047607
66.19500,-2.421269976
66.19550,-3.642047607
66.19600,-6.693991684
66.19650,-8.219963722
66.19700,-7.914769315
66.19750,-6.693991684
66.19800,-4.252436422
66.19850,-1.810881161
66.19900,-1.505686753
66.19950,-5.168019645
66.20000,-9.135546946
66.20050,-8.52515813
66.20100,-4.252436422
66.20150,-1.505686753
66.20200,-1.810881161
66.20250,-2.421269976
66.20300,-1.810881161
66.20350,-2.116075568
66.20400,-4.252436422
66.20450,-5.168019645
66.20500,-3.336853199
66.20550,-0.5901035299
66.20600,-0.2849091222
66.20650,-2.116075568
66.20700,-3.031658792
66.20750,-1.810881161
66.20800,0.6306741009
66.20850,2.767034955
66.20900,3.682618178
66.20950,3.682618178
66.21000,3.072229362
66.21050,1.546257324
66.21100,-0.5901035299
66.21150,-2.726464384
66.21200,-3.031658792
66.21250,-1.505686753
66.21300,-1.505686753
66.21350,-3.947242015
66.21400,-6.693991684
66.21450,-6.388797276
66.21500,-3.642047607
66.21550,-0.8952979376
66.21600,0.6306741009
66.21650,1.851451732
66.21700,3.37742377
66.21750,3.987812586
66.21800,3.987812586
66.21850,3.072229362
66.21900,1.546257324
66.21950,0.9358685086
66.22000,3.37742377
66.22050,8.260534293
66.22100,11.61767278
66.22150,10.39689515
66.22200,5.513784624
66.22250,1.851451732
66.22300,2.156646139
66.22350,3.682618178
66.22400,3.987812586
66.22450,3.987812586
66.22500,5.513784624
66.22550,7.650145478
66.22600,8.260534293
66.22650,6.429367847
66.22700,4.598201401
66.22750,3.987812586
66.22800,1.851451732
66.22850,-2.116075568
66.22900,-6.083602869
66.22950,-6.693991684
66.23000,-5.778408461
66.23050,-7.914769315
66.23100,-13.10307425
66.23150,-17.07060155
66.23200,-15.84982392
66.23250,-10.96671339
66.23300,-5.778408461
66.23350,-1.505686753
66.23400,1.546257324
66.23450,3.682618178
66.23500,3.987812586
66.23550,5.208590216
66.23600,10.09170074
66.23650,16.80597771
66.23700,20.4683106
66.23750,20.4683106
66.23800,18.02675534
66.23850,15.89039449
66.23900,13.75403363
66.23950,11.61767278
66.24000,10.09170074
66.24050,8.870923109
66.24100,6.429367847
66.24150,3.987812586
66.24200,2.156646139
66.24250,1.851451732
66.24300,1.546257324
66.24350,1.241062916
66.24400,1.851451732
66.24450,1.241062916
66.24500,-1.505686753
66.24550,-4.55763083
66.24600,-3.947242015
66.24650,-1.200492345
66.24700,-0.5901035299
66.24750,-3.642047607
66.24800,-5.778408461
66.24850,-4.252436422
66.24900,-1.505686753
66.24950,-0.5901035299
66.25000,-1.200492345
66.25050,-1.810881161
66.25100,-2.726464384
66.25150,-3.336853199
66.25200,-1.810881161
66.25250,0.02028528547
66.25300,-0.2849091222
66.25350,-2.116075568
66.25400,-2.726464384
66.25450,-1.200492345
66.25500,-1.200492345
66.25550,-3.336853199
66.25600,-4.252436422
66.25650,-3.031658792
66.25700,-2.116075568
66.25750,-4.252436422
66.25800,-7.609574907
66.25850,-9.745935761
66.25900,-9.745935761
66.25950,-8.52515813
66.26000,-4.55763083
66.26050,0.6306741009
66.26100,5.208590216
66.26150,7.650145478
66.26200,9.786506332
66.26250,11.00728396
66.26300,9.481311924
66.26350,5.513784624
66.26400,3.072229362
66.26450,3.072229362
66.26500,3.072229362
66.26550,0.02028528547
66.26600,-3.642047607
66.26650,-5.778408461
66.26700,-7.609574907
66.26750,-10.66151898
66.26800,-12.18749102
66.26850,-10.35632458
66.26900,-7.609574907
66.26950,-6.999186092
66.27000,-7.304380499
66.27050,-5.473214053
66.27100,-2.726464384
66.27150,-1.200492345
66.27200,-1.505686753
66.27250,-1.505686753
66.27300,-0.5901035299
66.27350,-0.2849091222
66.27400,-0.8952979376
66.27450,-1.505686753
66.27500,-2.116075568
66.27550,-3.031658792
66.27600,-3.336853199
66.27650,-2.421269976
66.27700,-1.200492345
66.27750,-0.8952979376
66.27800,-0.5901035299
66.27850,0.3254796932
66.27900,1.851451732
66.27950,1.851451732
66.28000,0.6306741009
66.28050,0.02028528547
66.28100,0.02028528547
66.28150,0.02028528547
66.28200,-0.5901035299
66.28250,-0.2849091222
66.28300,0.3254796932
66.28350,0.3254796932
66.28400,-0.8952979376
66.28450,-1.505686753
66.28500,-0.2849091222
66.28550,1.241062916
66.28600,2.461840547
66.28650,2.461840547
66.28700,2.156646139
66.28750,2.767034955
66.28800,4.293006993
66.28850,6.124173439
66.28900,7.34495107
66.28950,7.650145478
66.29000,7.955339886
66.29050,7.955339886
66.29100,7.039756663
66.29150,5.818979032
66.29200,5.208590216
66.29250,5.818979032
66.29300,5.818979032
66.29350,2.767034955
66.29400,-2.116075568
66.29450,-5.473214053
66.29500,-3.947242015
66.29550,1.546257324
66.29600,8.260534293
66.29650,11.31247837
66.29700,9.786506332
66.29750,5.513784624
66.29800,1.546257324
66.29850,-0.2849091222
66.29900,-1.200492345
66.29950,-0.8952979376
66.30000,0.9358685086
66.30050,4.598201401
66.30100,6.734562255
66.30150,5.818979032
66.30200,3.072229362
66.30250,1.546257324
66.30300,0.9358685086
66.30350,0.02028528547
66.30400,-0.8952979376
66.30450,0.02028528547
66.30500,3.072229362
66.30550,4.903395809
66.30600,2.156646139
66.30650,-2.116075568
66.30700,-4.55763083
66.30750,-4.862825238
66.30800,-5.778408461
66.30850,-8.830352538
66.30900,-10.05113017
66.30950,-7.609574907
66.31000,-3.642047607
66.31050,-2.116075568
66.31100,-2.421269976
66.31150,-3.031658792
66.31200,-3.031658792
66.31250,-3.031658792
66.31300,-2.421269976
66.31350,0.6306741009
66.31400,4.903395809
66.31450,6.124173439
66.31500,3.682618178
66.31550,0.3254796932
66.31600,-2.116075568
66.31650,-5.168019645
66.31700,-8.52515813
66.31750,-11.88229661
66.31800,-15.84982392
66.31850,-20.73293444
66.31900,-24.70046174
66.31950,-24.09007292
66.32000,-19.2069624
66.32050,-14.62904628
66.32100,-12.49268543
66.32150,-9.440741353
66.32200,-4.252436422
66.32250,-0.8952979376
66.32300,-0.5901035299
66.32350,0.02028528547
66.32400,7.039756663
66.32450,16.5007833
66.32500,21.38389382
66.32550,19.85792179
66.32600,16.80597771
66.32650,15.89039449
66.32700,16.19558889
66.32750,14.36442245
66.32800,11.31247837
66.32850,9.176117517
66.32900,7.955339886
66.32950,6.734562255
66.33000,4.598201401
66.33050,3.072229362
66.33100,3.072229362
66.33150,3.987812586
66.33200,4.598201401
66.33250,4.293006993
66.33300,2.767034955
66.33350,0.6306741009
66.33400,-0.5901035299
66.33450,-1.505686753
66.33500,-2.116075568
66.33550,-2.726464384
66.33600,-3.336853199
66.33650,-2.726464384
66.33700,-2.421269976
66.33750,-2.726464384
66.33800,-2.726464384
66.33850,-0.5901035299
66.33900,2.156646139
66.33950,3.072229362
66.34000,0.02028528547
66.34050,-3.947242015
66.34100,-5.168019645
66.34150,-2.726464384
66.34200,0.02028528547
66.34250,0.3254796932
66.34300,0.6306741009
66.34350,2.156646139
66.34400,4.293006993
66.34450,3.682618178
66.34500,0.6306741009
66.34550,-0.5901035299
66.34600,0.02028528547
66.34650,2.461840547
66.34700,2.767034955
66.34750,0.3254796932
66.34800,-3.031658792
66.34850,-5.168019645
66.34900,-4.55763083
66.34950,-1.505686753
66.35000,0.9358685086
66.35050,1.851451732
66.35100,0.6306741009
66.35150,-1.200492345
66.35200,-2.421269976
66.35250,-2.421269976
66.35300,-1.200492345
66.35350,0.02028528547
66.35400,0.6306741009
66.35450,0.9358685086
66.35500,1.546257324
66.35550,2.461840547
66.35600,2.156646139
66.35650,1.546257324
66.35700,1.546257324
66.35750,2.767034955
66.35800,3.37742377
66.35850,1.851451732
66.35900,-0.8952979376
66.35950,-2.421269976
66.36000,-1.810881161
66.36050,-1.505686753
66.36100,-1.810881161
66.36150,-2.726464384
66.36200,-4.862825238
66.36250,-7.914769315
66.36300,-11.2719078
66.36350,-11.2719078
66.36400,-7.304380499
66.36450,-1.200492345
66.36500,3.987812586
66.36550,8.565728701
66.36600,12.22806159
66.36650,14.05922804
66.36700,13.14364482
66.36750,10.09170074
66.36800,6.734562255
66.36850,5.818979032
66.36900,6.124173439
66.36950,4.903395809
66.37000,0.6306741009
66.37050,-3.031658792
66.37100,-3.336853199
66.37150,-0.2849091222
66.37200,2.156646139
66.37250,1.546257324
66.37300,0.02028528547
66.37350,-0.5901035299
66.37400,-0.5901035299
66.37450,-1.505686753
66.37500,-3.642047607
66.37550,-3.947242015
66.37600,-2.116075568
66.37650,0.02028528547
66.37700,0.9358685086
66.37750,2.461840547
66.37800,3.987812586
66.37850,4.903395809
66.37900,3.37742377
66.37950,0.02028528547
66.38000,-3.031658792
66.38050,-4.252436422
66.38100,-2.726464384
66.38150,0.3254796932
66.38200,3.072229362
66.38250,3.987812586
66.38300,3.072229362
66.38350,2.156646139
66.38400,0.3254796932
66.38450,-1.810881161
66.38500,-3.642047607
66.38550,-3.336853199
66.38600,-1.200492345
66.38650,-0.5901035299
66.38700,-2.421269976
66.38750,-4.862825238
66.38800,-4.55763083
66.38850,-2.726464384
66.38900,-2.421269976
66.38950,-3.642047607
66.39000,-4.252436422
66.39050,-3.336853199
66.39100,-2.421269976
66.39150,-3.642047607
66.39200,-5.168019645
66.39250,-5.168019645
66.39300,-4.252436422
66.39350,-3.031658792
66.39400,-1.810881161
66.39450,0.02028528547
66.39500,1.546257324
66.39550,1.851451732
66.39600,0.9358685086
66.39650,-0.5901035299
66.39700,-3.336853199
66.39750,-6.999186092
66.39800,-8.52515813
66.39850,-7.609574907
66.39900,-6.999186092
66.39950,-9.440741353
66.40000,-12.18749102
66.40050,-11.57710221
66.40100,-7.914769315
66.40150,-5.168019645
66.40200,-4.252436422
66.40250,-2.116075568
66.40300,1.241062916
66.40350,2.461840547
66.40400,2.156646139
66.40450,4.903395809
66.40500,11.61767278
66.40550,16.5007833
66.40600,14.97481126
66.40650,10.39689515
66.40700,7.955339886
66.40750,7.34495107
66.40800,3.987812586
66.40850,-1.810881161
66.40900,-6.693991684
66.40950,-8.219963722
66.41000,-7.609574907
66.41050,-8.219963722
66.41100,-9.135546946
66.41150,-9.745935761
66.41200,-9.440741353
66.41250,-9.135546946
66.41300,-9.135546946
66.41350,-8.52515813
66.41400,-6.999186092
66.41450,-3.336853199
66.41500,0.02028528547
66.41550,0.02028528547
66.41600,-3.031658792
66.41650,-6.083602869
66.41700,-5.168019645
66.41750,-2.116075568
66.41800,-0.2849091222
66.41850,-2.116075568
66.41900,-4.252436422
66.41950,-4.252436422
66.42000,-1.200492345
66.42050,2.156646139
66.42100,5.513784624
66.42150,7.34495107
66.42200,7.650145478
66.42250,7.039756663
66.42300,6.124173439
66.42350,6.124173439
66.42400,6.124173439
66.42450,4.598201401
66.42500,1.851451732
66.42550,0.02028528547
66.42600,0.3254796932
66.42650,1.241062916
66.42700,1.241062916
66.42750,0.6306741009
66.42800,1.241062916
66.42850,2.767034955
66.42900,3.37742377
66.42950,1.851451732
66.43000,0.02028528547
66.43050,-0.5901035299
66.43100,-0.2849091222
66.43150,-1.505686753
66.43200,-3.642047607
66.43250,-5.168019645
66.43300,-3.947242015
66.43350,-2.116075568
66.43400,-1.505686753
66.43450,-2.116075568
66.43500,-2.726464384
66.43550,-2.421269976
66.43600,-1.505686753
66.43650,-1.505686753
66.43700,-2.726464384
66.43750,-3.336853199
66.43800,-1.505686753
66.43850,2.156646139
66.43900,5.208590216
66.43950,5.208590216
66.44000,2.767034955
66.44050,1.546257324
66.44100,2.767034955
66.44150,5.513784624
66.44200,6.734562255
66.44250,6.429367847
66.44300,5.208590216
66.44350,5.513784624
66.44400,8.260534293
66.44450,11.61767278
66.44500,12.22806159
66.44550,7.955339886
66.44600,1.546257324
66.44650,-1.505686753
66.44700,0.02028528547
66.44750,3.682618178
66.44800,3.072229362
66.44850,-1.200492345
66.44900,-5.168019645
66.44950,-3.947242015
66.45000,0.6306741009
66.45050,4.293006993
66.45100,4.903395809
66.45150,4.293006993
66.45200,4.903395809
66.45250,5.208590216
66.45300,4.293006993
66.45350,3.072229362
66.45400,3.37742377
66.45450,5.208590216
66.45500,6.124173439
66.45550,5.208590216
66.45600,2.767034955
66.45650,0.9358685086
66.45700,0.3254796932
66.45750,0.6306741009
66.45800,0.9358685086
66.45850,1.546257324
66.45900,2.156646139
66.45950,3.072229362
66.46000,3.37742377
66.46050,2.156646139
66.46100,0.3254796932
66.46150,-0.2849091222
66.46200,0.02028528547
66.46250,0.02028528547
66.46300,0.02028528547
66.46350,-0.5901035299
66.46400,-1.200492345
66.46450,-1.505686753
66.46500,-1.505686753
66.46550,-0.8952979376
66.46600,-0.8952979376
66.46650,-2.421269976
66.46700,-3.031658792
66.46750,-0.2849091222
66.46800,3.682618178
66.46850,5.208590216
66.46900,3.37742377
66.46950,0.6306741009
66.47000,-0.2849091222
66.47050,-2.421269976
66.47100,-5.473214053
66.47150,-6.083602869
66.47200,-2.421269976
66.47250,2.461840547
66.47300,6.124173439
66.47350,8.260534293
66.47400,9.481311924
66.47450,8.870923109
66.47500,5.513784624
66.47550,2.156646139
66.47600,0.9358685086
66.47650,2.461840547
66.47700,4.598201401
66.47750,5.208590216
66.47800,4.903395809
66.47850,4.293006993
66.47900,4.293006993
66.47950,4.903395809
66.48000,5.208590216
66.48050,4.598201401
66.48100,3.682618178
66.48150,3.37742377
66.48200,2.156646139
66.48250,-1.810881161
66.48300,-6.999186092
66.48350,-10.05113017
66.48400,-10.66151898
66.48450,-11.57710221
66.48500,-13.40826865
66.48550,-14.62904628
66.48600,-13.71346306
66.48650,-12.49268543
66.48700,-10.96671339
66.48750,-9.135546946
66.48800,-6.999186092
66.48850,-6.693991684
66.48900,-6.388797276
66.48950,-2.726464384
66.49000,4.293006993
66.49050,9.786506332
66.49100,10.09170074
66.49150,7.34495107
66.49200,6.124173439
66.49250,6.124173439
66.49300,4.598201401
66.49350,1.546257324
66.49400,-0.8952979376
66.49450,-2.726464384
66.49500,-4.862825238
66.49550,-6.693991684
66.49600,-6.083602869
66.49650,-3.336853199
66.49700,-1.810881161
66.49750,-2.421269976
66.49800,-3.642047607
66.49850,-3.336853199
66.49900,-1.810881161
66.49950,-1.810881161
66.50000,-3.336853199
66.50050,-5.778408461
66.50100,-7.304380499
66.50150,-6.999186092
66.50200,-6.083602869
66.50250,-4.862825238
66.50300,-4.55763083
66.50350,-5.168019645
66.50400,-6.083602869
66.50450,-6.693991684
66.50500,-6.999186092
66.50550,-6.999186092
66.50600,-6.693991684
66.50650,-6.693991684
66.50700,-6.999186092
66.50750,-7.609574907
66.50800,-7.609574907
66.50850,-6.083602869
66.50900,-3.642047607
66.50950,-1.505686753
66.51000,-2.116075568
66.51050,-5.473214053
66.51100,-8.219963722
66.51150,-6.999186092
66.51200,-3.642047607
66.51250,-1.810881161
66.51300,-3.031658792
66.51350,-4.55763083
66.51400,-3.642047607
66.51450,-1.505686753
66.51500,0.02028528547
66.51550,0.02028528547
66.51600,0.02028528547
66.51650,0.02028528547
66.51700,-0.8952979376
66.51750,-0.8952979376
66.51800,2.461840547
66.51850,7.955339886
66.51900,11.31247837
66.51950,10.70208956
66.52000,10.09170074
66.52050,11.00728396
66.52100,10.09170074
66.52150,5.513784624
66.52200,0.6306741009
66.52250,0.3254796932
66.52300,4.293006993
66.52350,7.650145478
66.52400,8.260534293
66.52450,8.565728701
66.52500,8.870923109
66.52550,7.34495107
66.52600,3.37742377
66.52650,0.02028528547
66.52700,-1.200492345
66.52750,-0.8952979376
66.52800,-1.505686753
66.52850,-2.726464384
66.52900,-2.726464384
66.52950,-1.505686753
66.53000,-0.2849091222
66.53050,0.6306741009
66.53100,1.851451732
66.53150,3.072229362
66.53200,2.767034955
66.53250,0.9358685086
66.53300,-1.200492345
66.53350,-3.642047607
66.53400,-3.642047607
66.53450,-0.8952979376
66.53500,1.546257324
66.53550,0.6306741009
66.53600,-2.726464384
66.53650,-4.55763083
66.53700,-2.726464384
66.53750,-0.8952979376
66.53800,-2.116075568
66.53850,-3.336853199
66.53900,-1.810881161
66.53950,0.9358685086
66.54000,1.546257324
66.54050,1.546257324
66.54100,3.37742377
66.54150,5.818979032
66.54200,4.598201401
66.54250,0.9358685086
66.54300,0.02028528547
66.54350,3.37742377
66.54400,6.124173439
66.54450,4.903395809
66.54500,1.851451732
66.54550,0.9358685086
66.54600,1.241062916
66.54650,0.02028528547
66.54700,-2.421269976
66.54750,-3.336853199
66.54800,-2.116075568
66.54850,0.02028528547
66.54900,1.851451732
66.54950,3.987812586
66.55000,4.598201401
66.55050,2.767034955
66.55100,0.02028528547
66.55150,-0.5901035299
66.55200,0.6306741009
66.55250,2.461840547
66.55300,2.156646139
66.55350,0.9358685086
66.55400,0.02028528547
66.55450,0.02028528547
66.55500,0.02028528547
66.55550,-0.5901035299
66.55600,-1.200492345
66.55650,-0.5901035299
66.55700,0.3254796932
66.55750,1.241062916
66.55800,1.241062916
66.55850,2.156646139
66.55900,3.987812586
66.55950,4.903395809
66.56000,4.903395809
66.56050,5.818979032
66.56100,8.565728701
66.56150,11.31247837
66.56200,11.00728396
66.56250,8.260534293
66.56300,6.429367847
66.56350,5.513784624
66.56400,2.461840547
66.56450,-3.031658792
66.56500,-8.52515813
66.56550,-12.49268543
66.56600,-15.54462951
66.56650,-17.68099036
66.56700,-16.76540714
66.56750,-11.57710221
66.56800,-5.168019645
66.56850,0.02028528547
66.56900,4.598201401
66.56950,8.565728701
66.57000,10.39689515
66.57050,9.176117517
66.57100,8.565728701
66.57150,12.533256
66.57200,18.02675534
66.57250,20.4683106
66.57300,18.63714416
66.57350,16.19558889
66.57400,14.36442245
66.57450,11.61767278
66.57500,8.260534293
66.57550,5.208590216
66.57600,3.072229362
66.57650,0.02028528547
66.57700,-4.252436422
66.57750,-5.778408461
66.57800,-3.947242015
66.57850,-0.8952979376
66.57900,0.6306741009
66.57950,1.546257324
66.58000,2.461840547
66.58050,1.851451732
66.58100,0.02028528547
66.58150,-1.810881161
66.58200,-1.505686753
66.58250,-0.5901035299
66.58300,-0.2849091222
66.58350,-0.5901035299
66.58400,-0.2849091222
66.58450,0.02028528547
66.58500,-1.200492345
66.58550,-3.336853199
66.58600,-6.083602869
66.58650,-8.52515813
66.58700,-9.440741353
66.58750,-8.219963722
66.58800,-5.473214053
66.58850,-2.421269976
66.58900,-0.8952979376
66.58950,-1.505686753
66.59000,-3.336853199
66.59050,-6.083602869
66.59100,-8.219963722
66.59150,-9.440741353
66.59200,-9.745935761
66.59250,-10.66151898
66.59300,-11.88229661
66.59350,-11.88229661
66.59400,-10.35632458
66.59450,-9.135546946
66.59500,-8.830352538
66.59550,-8.219963722
66.59600,-5.778408461
66.59650,-2.421269976
66.59700,0.02028528547
66.59750,1.546257324
66.59800,1.851451732
66.59850,1.546257324
66.59900,0.9358685086
66.59950,1.241062916
66.60000,2.767034955
66.60050,3.37742377
66.60100,2.461840547
66.60150,0.6306741009
66.60200,0.9358685086
66.60250,3.072229362
66.60300,5.818979032
66.60350,6.734562255
66.60400,4.903395809
66.60450,2.156646139
66.60500,0.3254796932
66.60550,0.9358685086
66.60600,2.156646139
66.60650,2.461840547
66.60700,2.156646139
66.60750,1.241062916
66.60800,0.3254796932
66.60850,-0.2849091222
66.60900,-0.2849091222
66.60950,0.02028528547
66.61000,0.6306741009
66.61050,0.02028528547
66.61100,-0.2849091222
66.61150,-0.2849091222
66.61200,-0.5901035299
66.61250,-3.031658792
66.61300,-5.168019645
66.61350,-3.642047607
66.61400,0.02028528547
66.61450,2.461840547
66.61500,1.851451732
66.61550,1.851451732
66.61600,3.072229362
66.61650,2.156646139
66.61700,-1.810881161
66.61750,-4.55763083
66.61800,-2.421269976
66.61850,1.241062916
66.61900,0.9358685086
66.61950,-3.031658792
66.62000,-5.473214053
66.62050,-3.947242015
66.62100,-1.505686753
66.62150,0.02028528547
66.62200,1.851451732
66.62250,3.682618178
66.62300,4.293006993
66.62350,3.987812586
66.62400,4.293006993
66.62450,5.513784624
66.62500,5.818979032
66.62550,4.598201401
66.62600,3.37742377
66.62650,2.461840547
66.62700,1.851451732
66.62750,1.546257324
66.62800,1.546257324
66.62850,0.9358685086
66.62900,-0.5901035299
66.62950,-1.505686753
66.63000,0.3254796932
66.63050,3.682618178
66.63100,3.682618178
66.63150,0.02028528547
66.63200,-2.726464384
66.63250,-2.726464384
66.63300,-2.116075568
66.63350,-3.031658792
66.63400,-3.947242015
66.63450,-2.421269976
66.63500,-0.5901035299
66.63550,-0.8952979376
66.63600,-2.421269976
66.63650,-1.810881161
66.63700,0.6306741009
66.63750,2.461840547
66.63800,2.767034955
66.63850,1.851451732
66.63900,0.6306741009
66.63950,-0.2849091222
66.64000,0.02028528547
66.64050,1.241062916
66.64100,2.461840547
66.64150,2.156646139
66.64200,1.241062916
66.64250,1.241062916
66.64300,1.241062916
66.64350,0.3254796932
66.64400,-0.5901035299
66.64450,0.02028528547
66.64500,1.851451732
66.64550,1.851451732
66.64600,0.02028528547
66.64650,-1.505686753
66.64700,-1.505686753
66.64750,-0.8952979376
66.64800,-1.810881161
66.64850,-2.726464384
66.64900,-3.031658792
66.64950,-2.421269976
66.65000,-1.810881161
66.65050,-1.810881161
66.65100,-1.505686753
66.65150,-0.5901035299
66.65200,0.3254796932
66.65250,0.3254796932
66.65300,0.02028528547
66.65350,0.3254796932
66.65400,2.767034955
66.65450,5.208590216
66.65500,5.818979032
66.65550,4.293006993
66.65600,3.37742377
66.65650,4.903395809
66.65700,7.650145478
66.65750,9.176117517
66.65800,9.481311924
66.65850,8.870923109
66.65900,7.955339886
66.65950,6.124173439
66.66000,2.767034955
66.66050,-0.2849091222
66.66100,-3.336853199
66.66150,-5.168019645
66.66200,-5.778408461
66.66250,-6.693991684
66.66300,-10.05113017
66.66350,-14.62904628
66.66400,-17.37579595
66.66450,-15.84982392
66.66500,-12.18749102
66.66550,-8.219963722
66.66600,-4.252436422
66.66650,-1.505686753
66.66700,-1.505686753
66.66750,-1.810881161
66.66800,1.851451732
66.66850,11.31247837
66.66900,19.24753297
66.66950,18.94233856
66.67000,12.83845041
66.67050,8.565728701
66.67100,8.870923109
66.67150,8.870923109
66.67200,4.903395809
66.67250,-0.2849091222
66.67300,-3.031658792
66.67350,-2.726464384
66.67400,-1.810881161
66.67450,-3.031658792
66.67500,-5.778408461
66.67550,-9.440741353
66.67600,-10.35632458
66.67650,-7.914769315
66.67700,-4.55763083
66.67750,-3.642047607
66.67800,-3.947242015
66.67850,-0.5901035299
66.67900,5.208590216
66.67950,8.870923109
66.68000,7.039756663
66.68050,3.072229362
66.68100,1.241062916
66.68150,0.3254796932
66.68200,-1.200492345
66.68250,-2.421269976
66.68300,-0.8952979376
66.68350,1.241062916
66.68400,1.546257324
66.68450,0.6306741009
66.68500,1.241062916
66.68550,1.546257324
66.68600,-0.5901035299
66.68650,-4.862825238
66.68700,-6.388797276
66.68750,-3.336853199
66.68800,0.3254796932
66.68850,2.461840547
66.68900,1.546257324
66.68950,-0.2849091222
66.69000,-2.726464384
66.69050,-4.252436422
66.69100,-4.55763083
66.69150,-5.168019645
66.69200,-6.388797276
66.69250,-7.304380499
66.69300,-6.388797276
66.69350,-5.168019645
66.69400,-4.252436422
66.69450,-4.55763083
66.69500,-4.55763083
66.69550,-4.55763083
66.69600,-4.55763083
66.69650,-4.55763083
66.69700,-3.031658792
66.69750,-0.8952979376
66.69800,0.02028528547
66.69850,0.3254796932
66.69900,0.02028528547
66.69950,-0.5901035299
66.70000,-1.505686753
66.70050,-1.505686753
66.70100,0.02028528547
66.70150,0.9358685086
66.70200,0.6306741009
66.70250,-0.2849091222
66.70300,-0.5901035299
66.70350,-0.8952979376
66.70400,-2.726464384
66.70450,-4.55763083
66.70500,-4.252436422
66.70550,-3.031658792
66.70600,-3.947242015
66.70650,-6.083602869
66.70700,-5.778408461
66.70750,-2.421269976
66.70800,0.02028528547
66.70850,-0.2849091222
66.70900,-2.116075568
66.70950,-2.116075568
66.71000,-1.200492345
66.71050,-2.116075568
66.71100,-3.642047607
66.71150,-2.421269976
66.71200,0.3254796932
66.71250,2.461840547
66.71300,1.546257324
66.71350,-0.2849091222
66.71400,-1.505686753
66.71450,-2.421269976
66.71500,-3.947242015
66.71550,-4.55763083
66.71600,-3.336853199
66.71650,-1.200492345
66.71700,-1.200492345
66.71750,-2.116075568
66.71800,-2.116075568
66.71850,-0.2849091222
66.71900,0.6306741009
66.71950,-0.2849091222
66.72000,-3.031658792
66.72050,-5.168019645
66.72100,-5.778408461
66.72150,-5.168019645
66.72200,-5.168019645
66.72250,-6.083602869
66.72300,-7.609574907
66.72350,-8.830352538
66.72400,-8.830352538
66.72450,-8.219963722
66.72500,-7.609574907
66.72550,-7.304380499
66.72600,-6.999186092
66.72650,-5.778408461
66.72700,-2.726464384
66.72750,1.241062916
66.72800,6.124173439
66.72850,8.870923109
66.72900,9.176117517
66.72950,7.650145478
66.73000,6.429367847
66.73050,5.818979032
66.73100,4.903395809
66.73150,4.293006993
66.73200,4.293006993
66.73250,5.208590216
66.73300,4.903395809
66.73350,3.37742377
66.73400,2.461840547
66.73450,3.072229362
66.73500,4.293006993
66.73550,4.293006993
66.73600,3.37742377
66.73650,3.987812586
66.73700,6.124173439
66.73750,7.34495107
66.73800,6.124173439
66.73850,3.37742377
66.73900,1.546257324
66.73950,1.851451732
66.74000,2.156646139
66.74050,0.3254796932
66.74100,-3.031658792
66.74150,-5.778408461
66.74200,-6.083602869
66.74250,-5.168019645
66.74300,-4.55763083
66.74350,-4.862825238
66.74400,-5.168019645
66.74450,-5.473214053
66.74500,-5.168019645
66.74550,-3.642047607
66.74600,-1.505686753
66.74650,0.6306741009
66.74700,3.072229362
66.74750,6.734562255
66.74800,12.533256
66.74850,18.33194975
66.74900,20.77350501
66.74950,19.24753297
66.75000,16.5007833
66.75050,13.75403363
66.75100,10.09170074
66.75150,6.124173439
66.75200,4.293006993
66.75250,4.293006993
66.75300,3.987812586
66.75350,0.9358685086
66.75400,-0.8952979376
66.75450,-0.5901035299
66.75500,0.3254796932
66.75550,-0.5901035299
66.75600,-3.947242015
66.75650,-5.168019645
66.75700,-3.031658792
66.75750,0.3254796932
66.75800,3.37742377
66.75850,4.293006993
66.75900,2.461840547
66.75950,-0.2849091222
66.76000,-2.421269976
66.76050,-1.810881161
66.76100,-0.5901035299
66.76150,-1.200492345
66.76200,-2.726464384
66.76250,-1.505686753
66.76300,2.156646139
66.76350,4.903395809
66.76400,4.903395809
66.76450,4.903395809
66.76500,5.818979032
66.76550,6.124173439
66.76600,3.987812586
66.76650,0.6306741009
66.76700,-0.8952979376
66.76750,-0.5901035299
66.76800,-1.200492345
66.76850,-2.726464384
66.76900,-4.55763083
66.76950,-4.55763083
66.77000,-2.421269976
66.77050,0.02028528547
66.77100,1.241062916
66.77150,0.6306741009
66.77200,-0.5901035299
66.77250,-1.810881161
66.77300,-2.116075568
66.77350,-2.421269976
66.77400,-2.116075568
66.77450,-0.2849091222
66.77500,0.6306741009
66.77550,-0.2849091222
66.77600,-2.726464384
66.77650,-3.947242015
66.77700,-2.726464384
66.77750,-0.5901035299
66.77800,0.6306741009
66.77850,1.241062916
66.77900,0.9358685086
66.77950,-0.2849091222
66.78000,-1.810881161
66.78050,-2.421269976
66.78100,-1.505686753
66.78150,0.02028528547
66.78200,1.851451732
66.78250,3.072229362
66.78300,3.987812586
66.78350,4.293006993
66.78400,4.598201401
66.78450,4.293006993
66.78500,3.682618178
66.78550,2.156646139
66.78600,1.241062916
66.78650,1.851451732
66.78700,2.461840547
66.78750,2.156646139
66.78800,0.9358685086
66.78850,0.02028528547
66.78900,-2.116075568
66.78950,-6.388797276
66.79000,-10.35632458
66.79050,-11.2719078
66.79100,-8.830352538
66.79150,-4.55763083
66.79200,-0.2849091222
66.79250,3.072229362
66.79300,6.429367847
66.79350,7.34495107
66.79400,5.513784624
66.79450,2.767034955
66.79500,1.546257324
66.79550,2.156646139
66.79600,3.072229362
66.79650,3.682618178
66.79700,4.293006993
66.79750,4.598201401
66.79800,3.682618178
66.79850,1.546257324
66.79900,-0.2849091222
66.79950,-0.5901035299
66.80000,0.3254796932
66.80050,0.6306741009
66.80100,-0.5901035299
66.80150,-1.505686753
66.80200,-0.5901035299
66.80250,0.6306741009
66.80300,0.3254796932
66.80350,-1.505686753
66.80400,-3.031658792
66.80450,-2.421269976
66.80500,-0.5901035299
66.80550,0.9358685086
66.80600,2.767034955
66.80650,3.072229362
66.80700,1.851451732
66.80750,0.3254796932
66.80800,0.6306741009
66.80850,0.9358685086
66.80900,0.02028528547
66.80950,-2.116075568
66.81000,-1.505686753
66.81050,1.241062916
66.81100,3.072229362
66.81150,2.156646139
66.81200,0.3254796932
66.81250,0.9358685086
66.81300,2.461840547
66.81350,2.767034955
66.81400,3.072229362
66.81450,3.987812586
66.81500,4.293006993
66.81550,2.156646139
66.81600,-0.2849091222
66.81650,-0.5901035299
66.81700,1.241062916
66.81750,1.851451732
66.81800,-0.8952979376
66.81850,-5.168019645
66.81900,-6.999186092
66.81950,-6.388797276
66.82000,-5.168019645
66.82050,-5.473214053
66.82100,-7.914769315
66.82150,-10.96671339
66.82200,-13.40826865
66.82250,-15.2394351
66.82300,-15.84982392
66.82350,-14.32385188
66.82400,-10.66151898
66.82450,-5.778408461
66.82500,-1.505686753
66.82550,1.851451732
66.82600,6.124173439
66.82650,10.09170074
66.82700,12.22806159
66.82750,12.533256
66.82800,14.36442245
66.82850,18.63714416
66.82900,22.90986586
66.82950,23.82544909
66.83000,20.77350501
66.83050,16.5007833
66.83100,13.44883922
66.83150,11.31247837
66.83200,7.955339886
66.83250,3.682618178
66.83300,0.3254796932
66.83350,-0.2849091222
66.83400,0.6306741009
66.83450,2.461840547
66.83500,3.37742377
66.83550,3.072229362
66.83600,2.156646139
66.83650,0.3254796932
66.83700,-1.505686753
66.83750,-2.726464384
66.83800,-2.726464384
66.83850,-2.116075568
66.83900,-1.810881161
66.83950,-2.421269976
66.84000,-3.031658792
66.84050,-2.421269976
66.84100,-0.5901035299
66.84150,0.3254796932
66.84200,0.6306741009
66.84250,0.02028528547
66.84300,-1.505686753
66.84350,-2.421269976
66.84400,-2.421269976
66.84450,-0.2849091222
66.84500,1.546257324
66.84550,1.851451732
66.84600,0.02028528547
66.84650,-1.200492345
66.84700,-1.200492345
66.84750,0.02028528547
66.84800,-0.5901035299
66.84850,-2.421269976
66.84900,-3.947242015
66.84950,-4.252436422
66.85000,-3.947242015
66.85050,-4.252436422
66.85100,-4.862825238
66.85150,-5.168019645
66.85200,-5.473214053
66.85250,-6.388797276
66.85300,-6.083602869
66.85350,-4.55763083
66.85400,-2.726464384
66.85450,-2.421269976
66.85500,-3.031658792
66.85550,-3.031658792
66.85600,-2.726464384
66.85650,-3.642047607
66.85700,-5.473214053
66.85750,-6.388797276
66.85800,-5.473214053
66.85850,-4.252436422
66.85900,-3.642047607
66.85950,-3.336853199
66.86000,-1.810881161
66.86050,-0.5901035299
66.86100,-0.2849091222
66.86150,-0.8952979376
66.86200,-0.5901035299
66.86250,0.02028528547
66.86300,0.6306741009
66.86350,0.3254796932
66.86400,0.02028528547
66.86450,0.02028528547
66.86500,0.9358685086
66.86550,2.461840547
66.86600,5.208590216
66.86650,7.955339886
66.86700,7.650145478
66.86750,4.903395809
66.86800,1.851451732
66.86850,0.3254796932
66.86900,-0.8952979376
66.86950,-2.726464384
66.87000,-3.947242015
66.87050,-3.031658792
66.87100,-1.810881161
66.87150,-2.116075568
66.87200,-3.642047607
66.87250,-4.55763083
66.87300,-4.55763083
66.87350,-4.252436422
66.87400,-3.947242015
66.87450,-3.336853199
66.87500,-1.810881161
66.87550,0.02028528547
66.87600,0.3254796932
66.87650,-0.8952979376
66.87700,-2.726464384
66.87750,-3.642047607
66.87800,-3.947242015
66.87850,-4.862825238
66.87900,-5.778408461
66.87950,-2.726464384
66.88000,2.767034955
66.88050,7.34495107
66.88100,6.734562255
66.88150,3.987812586
66.88200,3.072229362
66.88250,3.37742377
66.88300,2.461840547
66.88350,0.6306741009
66.88400,1.241062916
66.88450,3.37742377
66.88500,2.461840547
66.88550,-1.200492345
66.88600,-2.726464384
66.88650,0.9358685086
66.88700,5.818979032
66.88750,5.818979032
66.88800,0.9358685086
66.88850,-3.336853199
66.88900,-4.55763083
66.88950,-3.031658792
66.89000,-1.505686753
66.89050,-1.200492345
66.89100,-1.505686753
66.89150,-1.810881161
66.89200,-1.810881161
66.89250,-3.336853199
66.89300,-5.473214053
66.89350,-6.693991684
66.89400,-5.778408461
66.89450,-3.642047607
66.89500,-2.726464384
66.89550,-1.505686753
66.89600,0.02028528547
66.89650,0.3254796932
66.89700,-3.336853199
66.89750,-10.35632458
66.89800,-16.15501832
66.89850,-18.59657358
66.89900,-18.59657358
66.89950,-17.68099036
66.90000,-14.32385188
66.90050,-9.135546946
66.90100,-3.031658792
66.90150,2.156646139
66.90200,7.34495107
66.90250,10.39689515
66.90300,9.481311924
66.90350,6.734562255
66.90400,5.818979032
66.90450,7.34495107
66.90500,7.34495107
66.90550,3.987812586
66.90600,1.546257324
66.90650,2.461840547
66.90700,5.513784624
66.90750,7.039756663
66.90800,5.513784624
66.90850,2.767034955
66.90900,0.02028528547
66.90950,-2.116075568
66.91000,-3.031658792
66.91050,-3.947242015
66.91100,-6.388797276
66.91150,-9.745935761
66.91200,-11.2719078
66.91250,-9.745935761
66.91300,-7.304380499
66.91350,-6.388797276
66.91400,-5.473214053
66.91450,-2.421269976
66.91500,1.241062916
66.91550,3.682618178
66.91600,5.818979032
66.91650,10.09170074
66.91700,15.28000567
66.91750,17.11117212
66.91800,15.28000567
66.91850,13.44883922
66.91900,14.36442245
66.91950,15.28000567
66.92000,14.05922804
66.92050,10.70208956
66.92100,7.34495107
66.92150,4.598201401
66.92200,1.851451732
66.92250,0.02028528547
66.92300,-1.200492345
66.92350,-1.810881161
66.92400,-2.726464384
66.92450,-3.642047607
66.92500,-3.336853199
66.92550,-3.031658792
66.92600,-2.726464384
66.92650,-2.116075568
66.92700,-1.810881161
66.92750,-1.505686753
66.92800,-1.810881161
66.92850,-1.505686753
66.92900,-1.200492345
66.92950,-0.5901035299
66.93000,-0.5901035299
66.93050,-0.5901035299
66.93100,-2.421269976
66.93150,-6.693991684
66.93200,-10.35632458
66.93250,-10.35632458
66.93300,-6.693991684
66.93350,-3.947242015
66.93400,-4.55763083
66.93450,-5.778408461
66.93500,-4.862825238
66.93550,-2.726464384
66.93600,-2.116075568
66.93650,-3.031658792
66.93700,-3.336853199
66.93750,-2.421269976
66.93800,-1.810881161
66.93850,-1.810881161
66.93900,-2.116075568
66.93950,-1.810881161
66.94000,-0.8952979376
66.94050,0.02028528547
66.94100,0.9358685086
66.94150,1.241062916
66.94200,0.6306741009
66.94250,0.9358685086
66.94300,2.156646139
66.94350,3.37742377
66.94400,3.37742377
66.94450,2.767034955
66.94500,2.156646139
66.94550,0.9358685086
66.94600,-1.200492345
66.94650,-3.947242015
66.94700,-4.862825238
66.94750,-3.031658792
66.94800,0.02028528547
66.94850,2.156646139
66.94900,2.461840547
66.94950,1.851451732
66.95000,1.241062916
66.95050,0.6306741009
66.95100,0.3254796932
66.95150,-0.5901035299
66.95200,-1.810881161
66.95250,-2.421269976
66.95300,-0.8952979376
66.95350,0.3254796932
66.95400,1.241062916
66.95450,1.241062916
66.95500,1.241062916
66.95550,1.546257324
66.95600,0.9358685086
66.95650,-0.2849091222
66.95700,-1.505686753
66.95750,-1.810881161
66.95800,-2.116075568
66.95850,-2.726464384
66.95900,-2.726464384
66.95950,-2.421269976
66.96000,-2.421269976
66.96050,-3.336853199
66.96100,-4.55763083
66.96150,-5.168019645
66.96200,-3.947242015
66.96250,-1.505686753
66.96300,0.9358685086
66.96350,2.156646139
66.96400,2.156646139
66.96450,1.546257324
66.96500,0.9358685086
66.96550,0.3254796932
66.96600,-0.5901035299
66.96650,-2.116075568
66.96700,-2.421269976
66.96750,-1.505686753
66.96800,-0.5901035299
66.96850,-0.5901035299
66.96900,-0.8952979376
66.96950,-0.2849091222
66.97000,0.02028528547
66.97050,-0.2849091222
66.97100,-0.8952979376
66.97150,-0.2849091222
66.97200,0.9358685086
66.97250,1.851451732
66.97300,1.241062916
66.97350,0.02028528547
66.97400,0.6306741009
66.97450,3.072229362
66.97500,6.429367847
66.97550,8.870923109
66.97600,9.481311924
66.97650,7.650145478
66.97700,3.072229362
66.97750,-1.810881161
66.97800,-5.473214053
66.97850,-7.609574907
66.97900,-8.830352538
66.97950,-9.745935761
66.98000,-10.05113017
66.98050,-9.135546946
66.98100,-7.914769315
66.98150,-7.304380499
66.98200,-5.168019645
66.98250,0.02028528547
66.98300,5.513784624
66.98350,7.955339886
66.98400,7.039756663
66.98450,8.870923109
66.98500,15.28000567
66.98550,21.99428264
66.98600,23.52025468
66.98650,20.4683106
66.98700,17.11117212
66.98750,15.89039449
66.98800,13.75403363
66.98850,9.786506332
66.98900,5.818979032
66.98950,3.987812586
66.99000,3.987812586
66.99050,4.598201401
66.99100,4.293006993
66.99150,3.37742377
66.99200,2.156646139
66.99250,1.241062916
66.99300,0.02028528547
66.99350,-0.8952979376
66.99400,-2.116075568
66.99450,-2.421269976
66.99500,-2.421269976
66.99550,-3.031658792
66.99600,-4.55763083
66.99650,-4.862825238
66.99700,-3.031658792
66.99750,-2.116075568
66.99800,-3.336853199
66.99850,-5.168019645
66.99900,-5.778408461
66.99950,-5.168019645
67.00000,-3.947242015
67.00050,-1.810881161
67.00100,0.9358685086
67.00150,1.851451732
67.00200,1.241062916
67.00250,1.546257324
67.00300,4.293006993
67.00350,6.734562255
67.00400,6.429367847
67.00450,3.987812586
67.00500,1.851451732
67.00550,0.02028528547
67.00600,-1.810881161
67.00650,-3.031658792
67.00700,-2.421269976
67.00750,-2.421269976
67.00800,-3.642047607
67.00850,-3.336853199
67.00900,0.9358685086
67.00950,6.734562255
67.01000,10.70208956
67.01050,11.92286719
67.01100,11.92286719
67.01150,9.176117517
67.01200,3.682618178
67.01250,-0.5901035299
67.01300,-0.8952979376
67.01350,0.3254796932
67.01400,0.3254796932
67.01450,-1.200492345
67.01500,-1.505686753
67.01550,0.02028528547
67.01600,1.851451732
67.01650,2.461840547
67.01700,2.767034955
67.01750,3.37742377
67.01800,2.767034955
67.01850,1.241062916
67.01900,0.02028528547
67.01950,-1.200492345
67.02000,-3.642047607
67.02050,-4.862825238
67.02100,-2.421269976
67.02150,1.546257324
67.02200,3.987812586
67.02250,3.072229362
67.02300,1.851451732
67.02350,1.241062916
67.02400,0.02028528547
67.02450,-3.031658792
67.02500,-5.473214053
67.02550,-4.862825238
67.02600,-3.031658792
67.02650,-2.421269976
67.02700,-3.642047607
67.02750,-4.55763083
67.02800,-4.55763083
67.02850,-3.336853199
67.02900,-1.810881161
67.02950,0.02028528547
67.03000,0.3254796932
67.03050,-1.200492345
67.03100,-3.031658792
67.03150,-2.726464384
67.03200,-1.200492345
67.03250,-1.200492345
67.03300,-1.505686753
67.03350,-0.5901035299
67.03400,0.02028528547
67.03450,-3.031658792
67.03500,-9.135546946
67.03550,-13.71346306
67.03600,-13.10307425
67.03650,-8.830352538
67.03700,-3.947242015
67.03750,-0.2849091222
67.03800,2.461840547
67.03850,3.682618178
67.03900,3.987812586
67.03950,5.208590216
67.04000,7.955339886
67.04050,8.870923109
67.04100,5.513784624
67.04150,1.546257324
67.04200,0.9358685086
67.04250,3.37742377
67.04300,3.987812586
67.04350,1.851451732
67.04400,0.02028528547
67.04450,0.02028528547
67.04500,0.02028528547
67.04550,0.3254796932
67.04600,0.9358685086
67.04650,2.461840547
67.04700,3.072229362
67.04750,2.156646139
67.04800,0.9358685086
67.04850,0.6306741009
67.04900,0.02028528547
67.04950,-0.5901035299
67.05000,-2.421269976
67.05050,-5.168019645
67.05100,-8.830352538
67.05150,-12.49268543
67.05200,-13.71346306
67.05250,-13.10307425
67.05300,-12.18749102
67.05350,-11.88229661
67.05400,-10.05113017
67.05450,-6.083602869
67.05500,-1.505686753
67.05550,0.3254796932
67.05600,0.6306741009
67.05650,1.241062916
67.05700,4.598201401
67.05750,10.70208956
67.05800,16.5007833
67.05850,18.63714416
67.05900,15.89039449
67.05950,11.92286719
67.06000,10.39689515
67.06050,11.31247837
67.06100,11.61767278
67.06150,9.786506332
67.06200,7.650145478
67.06250,7.039756663
67.06300,7.039756663
67.06350,6.124173439
67.06400,4.293006993
67.06450,3.37742377
67.06500,3.072229362
67.06550,3.072229362
67.06600,2.767034955
67.06650,2.767034955
67.06700,2.156646139
67.06750,0.02028528547
67.06800,-2.421269976
67.06850,-3.642047607
67.06900,-3.642047607
67.06950,-4.252436422
67.07000,-5.778408461
67.07050,-6.083602869
67.07100,-4.55763083
67.07150,-3.031658792
67.07200,-3.947242015
67.07250,-5.778408461
67.07300,-5.778408461
67.07350,-4.55763083
67.07400,-3.947242015
67.07450,-4.252436422
67.07500,-4.252436422
67.07550,-3.336853199
67.07600,-3.031658792
67.07650,-3.947242015
67.07700,-4.55763083
67.07750,-4.55763083
67.07800,-5.168019645
67.07850,-6.083602869
67.07900,-5.778408461
67.07950,-4.55763083
67.08000,-3.642047607
67.08050,-4.862825238
67.08100,-6.083602869
67.08150,-5.473214053
67.08200,-2.726464384
67.08250,0.3254796932
67.08300,2.767034955
67.08350,2.767034955
67.08400,1.241062916
67.08450,0.02028528547
67.08500,0.02028528547
67.08550,0.6306741009
67.08600,1.241062916
67.08650,0.3254796932
67.08700,0.3254796932
67.08750,1.851451732
67.08800,2.461840547
67.08850,0.02028528547
67.08900,-4.862825238
67.08950,-8.830352538
67.09000,-10.35632458
67.09050,-11.57710221
67.09100,-12.79787984
67.09150,-13.71346306
67.09200,-12.79787984
67.09250,-10.35632458
67.09300,-7.609574907
67.09350,-5.473214053
67.09400,-4.252436422
67.09450,-3.642047607
67.09500,-2.726464384
67.09550,-1.200492345
67.09600,0.02028528547
67.09650,0.3254796932
67.09700,0.6306741009
67.09750,2.461840547
67.09800,6.429367847
67.09850,9.786506332
67.09900,10.39689515
67.09950,7.955339886
67.10000,3.987812586
67.10050,0.9358685086
67.10100,0.3254796932
67.10150,1.851451732
67.10200,3.987812586
67.10250,3.987812586
67.10300,2.767034955
67.10350,2.156646139
67.10400,3.37742377
67.10450,5.208590216
67.10500,5.513784624
67.10550,3.37742377
67.10600,0.9358685086
67.10650,-0.2849091222
67.10700,-0.2849091222
67.10750,0.02028528547
67.10800,0.6306741009
67.10850,0.9358685086
67.10900,0.9358685086
67.10950,1.241062916
67.11000,2.461840547
67.11050,3.987812586
67.11100,4.598201401
67.11150,3.987812586
67.11200,2.767034955
67.11250,1.546257324
67.11300,0.6306741009
67.11350,0.6306741009
67.11400,1.241062916
67.11450,1.546257324
67.11500,1.241062916
67.11550,0.6306741009
67.11600,0.6306741009
67.11650,0.3254796932
67.11700,0.02028528547
67.11750,-0.8952979376
67.11800,-0.5901035299
67.11850,0.02028528547
67.11900,0.02028528547
67.11950,-0.8952979376
67.12000,-0.5901035299
67.12050,1.241062916
67.12100,3.682618178
67.12150,3.37742377
67.12200,0.9358685086
67.12250,0.02028528547
67.12300,2.461840547
67.12350,6.734562255
67.12400,9.176117517
67.12450,8.565728701
67.12500,6.734562255
67.12550,5.208590216
67.12600,3.987812586
67.12650,2.461840547
67.12700,1.546257324
67.12750,1.241062916
67.12800,1.851451732
67.12850,1.241062916
67.12900,0.02028528547
67.12950,-1.810881161
67.13000,-3.642047607
67.13050,-5.473214053
67.13100,-7.609574907
67.13150,-10.05113017
67.13200,-14.01865747
67.13250,-17.98618477
67.13300,-18.59657358
67.13350,-14.62904628
67.13400,-8.52515813
67.13450,-4.862825238
67.13500,-3.336853199
67.13550,-1.505686753
67.13600,1.241062916
67.13650,4.293006993
67.13700,6.124173439
67.13750,6.734562255
67.13800,6.124173439
67.13850,2.767034955
67.13900,-1.810881161
67.13950,-4.862825238
67.14000,-4.55763083
67.14050,-4.252436422
67.14100,-6.388797276
67.14150,-9.745935761
67.14200,-11.88229661
67.14250,-12.79787984
67.14300,-13.40826865
67.14350,-13.10307425
67.14400,-11.2719078
67.14450,-8.219963722
67.14500,-4.252436422
67.14550,-0.5901035299
67.14600,1.851451732
67.14650,2.156646139
67.14700,2.461840547
67.14750,6.429367847
67.14800,15.28000567
67.14850,22.60467146
67.14900,21.68908823
67.14950,14.66961686
67.15000,8.565728701
67.15050,6.429367847
67.15100,6.124173439
67.15150,4.293006993
67.15200,1.546257324
67.15250,-1.200492345
67.15300,-5.168019645
67.15350,-9.440741353
67.15400,-10.96671339
67.15450,-9.135546946
67.15500,-6.083602869
67.15550,-4.862825238
67.15600,-3.947242015
67.15650,-0.5901035299
67.15700,3.682618178
67.15750,7.039756663
67.15800,7.34495107
67.15850,6.124173439
67.15900,5.208590216
67.15950,4.598201401
67.16000,3.682618178
67.16050,3.37742377
67.16100,3.072229362
67.16150,2.461840547
67.16200,0.6306741009
67.16250,-0.2849091222
67.16300,-0.2849091222
67.16350,0.02028528547
67.16400,-0.5901035299
67.16450,-1.505686753
67.16500,-0.8952979376
67.16550,1.241062916
67.16600,2.767034955
67.16650,1.546257324
67.16700,-0.8952979376
67.16750,-3.336853199
67.16800,-3.947242015
67.16850,-3.947242015
67.16900,-3.947242015
67.16950,-4.862825238
67.17000,-6.693991684
67.17050,-8.830352538
67.17100,-10.35632458
67.17150,-10.35632458
67.17200,-9.745935761
67.17250,-9.745935761
67.17300,-10.05113017
67.17350,-10.05113017
67.17400,-8.52515813
67.17450,-4.55763083
67.17500,0.02028528547
67.17550,2.767034955
67.17600,3.072229362
67.17650,1.546257324
67.17700,0.02028528547
67.17750,-0.8952979376
67.17800,-0.2849091222
67.17850,2.461840547
67.17900,7.34495107
67.17950,10.09170074
67.18000,7.955339886
67.18050,3.987812586
67.18100,3.682618178
67.18150,6.734562255
67.18200,8.870923109
67.18250,7.955339886
67.18300,6.734562255
67.18350,6.734562255
67.18400,5.818979032
67.18450,2.767034955
67.18500,-0.2849091222
67.18550,-1.200492345
67.18600,-0.8952979376
67.18650,-1.810881161
67.18700,-3.031658792
67.18750,-3.031658792
67.18800,-1.810881161
67.18850,-1.505686753
67.18900,-3.031658792
67.18950,-4.252436422
67.19000,-4.252436422
67.19050,-2.116075568
67.19100,0.02028528547
67.19150,1.241062916
67.19200,1.851451732
67.19250,3.072229362
67.19300,5.513784624
67.19350,8.565728701
67.19400,9.481311924
67.19450,8.565728701
67.19500,7.039756663
67.19550,6.429367847
67.19600,5.818979032
67.19650,4.903395809
67.19700,3.682618178
67.19750,2.767034955
67.19800,2.767034955
67.19850,3.37742377
67.19900,4.293006993
67.19950,5.818979032
67.20000,6.734562255
67.20050,6.734562255
67.20100,6.124173439
67.20150,5.818979032
67.20200,6.429367847
67.20250,6.734562255
67.20300,6.734562255
67.20350,6.734562255
67.20400,5.818979032
67.20450,3.987812586
67.20500,2.156646139
67.20550,2.156646139
67.20600,3.37742377
67.20650,4.598201401
67.20700,4.293006993
67.20750,3.072229362
67.20800,2.156646139
67.20850,1.241062916
67.20900,0.02028528547
67.20950,-1.505686753
67.21000,-1.810881161
67.21050,-1.505686753
67.21100,-1.810881161
67.21150,-3.947242015
67.21200,-6.388797276
67.21250,-8.219963722
67.21300,-8.219963722
67.21350,-5.778408461
67.21400,-2.116075568
67.21450,-0.2849091222
67.21500,-1.505686753
67.21550,-3.642047607
67.21600,-4.252436422
67.21650,-3.031658792
67.21700,-3.031658792
67.21750,-4.862825238
67.21800,-6.083602869
67.21850,-5.778408461
67.21900,-5.778408461
67.21950,-7.609574907
67.22000,-9.135546946
67.22050,-8.219963722
67.22100,-5.168019645
67.22150,-2.421269976
67.22200,0.6306741009
67.22250,4.598201401
67.22300,7.650145478
67.22350,7.039756663
67.22400,5.208590216
67.22450,7.039756663
67.22500,12.83845041
67.22550,18.02675534
67.22600,18.02675534
67.22650,14.97481126
67.22700,12.22806159
67.22750,10.39689515
67.22800,6.429367847
67.22850,0.3254796932
67.22900,-4.252436422
67.22950,-5.473214053
67.23000,-5.473214053
67.23050,-7.304380499
67.23100,-9.745935761
67.23150,-10.05113017
67.23200,-7.609574907
67.23250,-5.778408461
67.23300,-6.693991684
67.23350,-8.219963722
67.23400,-7.914769315
67.23450,-6.999186092
67.23500,-7.609574907
67.23550,-7.609574907
67.23600,-4.55763083
67.23650,-0.2849091222
67.23700,0.3254796932
67.23750,-2.116075568
67.23800,-3.947242015
67.23850,-2.726464384
67.23900,-1.505686753
67.23950,-2.726464384
67.24000,-4.862825238
67.24050,-3.642047607
67.24100,0.02028528547
67.24150,1.851451732
67.24200,1.546257324
67.24250,0.3254796932
67.24300,-0.5901035299
67.24350,-1.505686753
67.24400,-1.810881161
67.24450,-1.200492345
67.24500,0.02028528547
67.24550,0.02028528547
67.24600,-0.5901035299
67.24650,-0.8952979376
67.24700,-0.2849091222
67.24750,0.9358685086
67.24800,2.767034955
67.24850,3.072229362
67.24900,2.156646139
67.24950,0.02028528547
67.25000,-0.5901035299
67.25050,0.02028528547
67.25100,0.9358685086
67.25150,0.9358685086
67.25200,-0.2849091222
67.25250,-1.505686753
67.25300,-0.2849091222
67.25350,2.156646139
67.25400,3.682618178
67.25450,1.851451732
67.25500,-1.810881161
67.25550,-5.473214053
67.25600,-6.693991684
67.25650,-6.693991684
67.25700,-6.999186092
67.25750,-7.914769315
67.25800,-8.52515813
67.25850,-7.304380499
67.25900,-3.947242015
67.25950,0.02028528547
67.26000,3.987812586
67.26050,7.039756663
67.26100,9.481311924
67.26150,12.22806159
67.26200,14.66961686
67.26250,14.97481126
67.26300,11.61767278
67.26350,7.34495107
67.26400,5.818979032
67.26450,7.34495107
67.26500,9.481311924
67.26550,8.565728701
67.26600,4.903395809
67.26650,1.241062916
67.26700,0.02028528547
67.26750,0.6306741009
67.26800,1.851451732
67.26850,1.851451732
67.26900,0.9358685086
67.26950,-0.5901035299
67.27000,-2.116075568
67.27050,-2.116075568
67.27100,-0.5901035299
67.27150,0.3254796932
67.27200,-0.2849091222
67.27250,-2.726464384
67.27300,-3.642047607
67.27350,-2.421269976
67.27400,-0.2849091222
67.27450,0.02028528547
67.27500,-2.116075568
67.27550,-4.55763083
67.27600,-4.55763083
67.27650,-2.421269976
67.27700,-0.8952979376
67.27750,-1.505686753
67.27800,-3.031658792
67.27850,-3.336853199
67.27900,-3.031658792
67.27950,-3.947242015
67.28000,-6.083602869
67.28050,-8.219963722
67.28100,-8.830352538
67.28150,-9.440741353
67.28200,-9.135546946
67.28250,-8.219963722
67.28300,-6.999186092
67.28350,-6.693991684
67.28400,-7.304380499
67.28450,-7.304380499
67.28500,-5.778408461
67.28550,-5.168019645
67.28600,-6.693991684
67.28650,-8.219963722
67.28700,-6.693991684
67.28750,-2.726464384
67.28800,0.3254796932
67.28850,1.851451732
67.28900,1.851451732
67.28950,0.6306741009
67.29000,-0.5901035299
67.29050,-0.5901035299
67.29100,1.546257324
67.29150,3.37742377
67.29200,2.461840547
67.29250,0.02028528547
67.29300,-1.810881161
67.29350,-1.200492345
67.29400,-1.200492345
67.29450,-3.642047607
67.29500,-5.168019645
67.29550,-2.726464384
67.29600,2.156646139
67.29650,5.208590216
67.29700,4.598201401
67.29750,2.767034955
67.29800,2.767034955
67.29850,3.37742377
67.29900,3.682618178
67.29950,2.767034955
67.30000,1.851451732
67.30050,0.6306741009
67.30100,-0.2849091222
67.30150,-0.5901035299
67.30200,0.02028528547
67.30250,1.241062916
67.30300,1.241062916
67.30350,1.241062916
67.30400,3.072229362
67.30450,6.429367847
67.30500,7.650145478
67.30550,3.682618178
67.30600,-1.505686753
67.30650,-5.473214053
67.30700,-7.304380499
67.30750,-9.135546946
67.30800,-12.49268543
67.30850,-14.01865747
67.30900,-11.57710221
67.30950,-6.693991684
67.31000,-1.505686753
67.31050,2.156646139
67.31100,4.293006993
67.31150,3.987812586
67.31200,2.156646139
67.31250,1.241062916
67.31300,4.598201401
67.31350,11.00728396
67.31400,15.89039449
67.31450,17.41636652
67.31500,18.02675534
67.31550,20.16311619
67.31600,21.99428264
67.31650,18.63714416
67.31700,11.00728396
67.31750,4.293006993
67.31800,1.546257324
67.31850,0.02028528547
67.31900,-3.031658792
67.31950,-5.168019645
67.32000,-3.642047607
67.32050,-1.505686753
67.32100,-2.116075568
67.32150,-4.862825238
67.32200,-5.473214053
67.32250,-3.642047607
67.32300,-3.031658792
67.32350,-4.252436422
67.32400,-4.252436422
67.32450,-1.200492345
67.32500,1.241062916
67.32550,2.156646139
67.32600,2.461840547
67.32650,3.072229362
67.32700,2.156646139
67.32750,0.6306741009
67.32800,0.02028528547
67.32850,0.3254796932
67.32900,0.6306741009
67.32950,0.6306741009
67.33000,1.241062916
67.33050,2.767034955
67.33100,3.072229362
67.33150,2.767034955
67.33200,2.461840547
67.33250,2.156646139
67.33300,0.3254796932
67.33350,-1.505686753
67.33400,-0.8952979376
67.33450,2.461840547
67.33500,4.293006993
67.33550,2.461840547
67.33600,0.02028528547
67.33650,-0.5901035299
67.33700,0.02028528547
67.33750,0.02028528547
67.33800,0.02028528547
67.33850,1.546257324
67.33900,3.682618178
67.33950,4.293006993
67.34000,3.37742377
67.34050,2.156646139
67.34100,1.546257324
67.34150,1.546257324
67.34200,1.241062916
67.34250,0.3254796932
67.34300,-0.8952979376
67.34350,-2.421269976
67.34400,-3.642047607
67.34450,-4.55763083
67.34500,-5.778408461
67.34550,-7.609574907
67.34600,-8.830352538
67.34650,-9.135546946
67.34700,-9.135546946
67.34750,-7.914769315
67.34800,-5.473214053
67.34850,-3.947242015
67.34900,-4.55763083
67.34950,-6.083602869
67.35000,-6.083602869
67.35050,-4.55763083
67.35100,-3.642047607
67.35150,-4.55763083
67.35200,-5.168019645
67.35250,-4.55763083
67.35300,-3.031658792
67.35350,-1.505686753
67.35400,-0.2849091222
67.35450,0.6306741009
67.35500,1.851451732
67.35550,2.461840547
67.35600,2.156646139
67.35650,1.546257324
67.35700,1.851451732
67.35750,3.987812586
67.35800,6.734562255
67.35850,7.955339886
67.35900,7.34495107
67.35950,6.429367847
67.36000,7.039756663
67.36050,8.260534293
67.36100,8.870923109
67.36150,8.565728701
67.36200,7.650145478
67.36250,7.650145478
67.36300,7.34495107
67.36350,7.039756663
67.36400,6.124173439
67.36450,4.903395809
67.36500,3.682618178
67.36550,3.37742377
67.36600,3.987812586
67.36650,4.903395809
67.36700,6.124173439
67.36750,5.818979032
67.36800,3.987812586
67.36850,1.546257324
67.36900,0.9358685086
67.36950,2.156646139
67.37000,2.461840547
67.37050,0.3254796932
67.37100,-3.031658792
67.37150,-3.947242015
67.37200,-1.505686753
67.37250,0.6306741009
67.37300,-0.2849091222
67.37350,-4.252436422
67.37400,-8.219963722
67.37450,-10.05113017
67.37500,-10.96671339
67.37550,-11.2719078
67.37600,-11.2719078
67.37650,-10.35632458
67.37700,-8.830352538
67.37750,-6.999186092
67.37800,-4.252436422
67.37850,-0.5901035299
67.37900,2.767034955
67.37950,5.208590216
67.38000,5.818979032
67.38050,4.903395809
67.38100,3.072229362
67.38150,0.9358685086
67.38200,-0.5901035299
67.38250,-0.8952979376
67.38300,-0.8952979376
67.38350,-1.505686753
67.38400,-2.421269976
67.38450,-2.726464384
67.38500,-2.116075568
67.38550,-1.810881161
67.38600,-2.116075568
67.38650,-2.726464384
67.38700,-3.336853199
67.38750,-3.947242015
67.38800,-3.336853199
67.38850,-1.505686753
67.38900,0.6306741009
67.38950,2.156646139
67.39000,2.767034955
67.39050,1.546257324
67.39100,-1.505686753
67.39150,-5.778408461
67.39200,-7.914769315
67.39250,-6.388797276
67.39300,-4.252436422
67.39350,-5.473214053
67.39400,-8.830352538
67.39450,-9.135546946
67.39500,-6.083602869
67.39550,-3.031658792
67.39600,-1.505686753
67.39650,-0.2849091222
67.39700,1.241062916
67.39750,2.461840547
67.39800,4.598201401
67.39850,10.70208956
67.39900,19.55272738
67.39950,23.82544909
67.40000,21.07869942
67.40050,15.58520008
67.40100,13.14364482
67.40150,13.14364482
67.40200,11.92286719
67.40250,8.870923109
67.40300,5.208590216
67.40350,1.241062916
67.40400,-2.421269976
67.40450,-3.947242015
67.40500,-2.116075568
67.40550,0.02028528547
67.40600,0.02028528547
67.40650,-1.505686753
67.40700,-3.336853199
67.40750,-3.031658792
67.40800,-1.200492345
67.40850,-0.2849091222
67.40900,-1.200492345
67.40950,-4.252436422
67.41000,-7.304380499
67.41050,-7.914769315
67.41100,-6.083602869
67.41150,-4.55763083
67.41200,-4.862825238
67.41250,-6.388797276
67.41300,-8.52515813
67.41350,-10.05113017
67.41400,-10.66151898
67.41450,-9.135546946
67.41500,-6.388797276
67.41550,-4.862825238
67.41600,-5.168019645
67.41650,-6.388797276
67.41700,-6.388797276
67.41750,-4.862825238
67.41800,-3.336853199
67.41850,-2.116075568
67.41900,-1.810881161
67.41950,-1.810881161
67.42000,-1.200492345
67.42050,-0.5901035299
67.42100,-0.5901035299
67.42150,-1.505686753
67.42200,-0.8952979376
67.42250,1.241062916
67.42300,3.37742377
67.42350,2.767034955
67.42400,1.241062916
67.42450,1.851451732
67.42500,2.461840547
67.42550,-0.5901035299
67.42600,-6.388797276
67.42650,-9.135546946
67.42700,-6.388797276
67.42750,-1.810881161
67.42800,-0.8952979376
67.42850,-2.726464384
67.42900,-3.031658792
67.42950,-1.810881161
67.43000,-1.200492345
67.43050,-2.116075568
67.43100,-2.421269976
67.43150,-1.505686753
67.43200,-2.421269976
67.43250,-6.388797276
67.43300,-9.135546946
67.43350,-6.999186092
67.43400,-1.505686753
67.43450,1.546257324
67.43500,1.241062916
67.43550,0.6306741009
67.43600,0.6306741009
67.43650,0.3254796932
67.43700,-0.5901035299
67.43750,-1.200492345
67.43800,-0.2849091222
67.43850,0.02028528547
67.43900,-0.8952979376
67.43950,-1.505686753
67.44000,0.02028528547
67.44050,1.851451732
67.44100,3.682618178
67.44150,6.124173439
67.44200,8.870923109
67.44250,9.481311924
67.44300,7.34495107
67.44350,4.903395809
67.44400,5.208590216
67.44450,6.734562255
67.44500,6.429367847
67.44550,4.598201401
67.44600,3.987812586
67.44650,5.513784624
67.44700,6.734562255
67.44750,5.818979032
67.44800,3.987812586
67.44850,2.461840547
67.44900,1.546257324
67.44950,1.851451732
67.45000,3.682618178
67.45050,5.818979032
67.45100,5.513784624
67.45150,3.072229362
67.45200,0.02028528547
67.45250,-3.947242015
67.45300,-8.52515813
67.45350,-12.18749102
67.45400,-12.18749102
67.45450,-8.52515813
67.45500,-4.55763083
67.45550,-3.031658792
67.45600,-2.726464384
67.45650,-1.505686753
67.45700,0.02028528547
67.45750,0.6306741009
67.45800,0.3254796932
67.45850,1.241062916
67.45900,2.767034955
67.45950,3.987812586
67.46000,4.293006993
67.46050,4.598201401
67.46100,5.513784624
67.46150,6.429367847
67.46200,6.734562255
67.46250,7.650145478
67.46300,8.260534293
67.46350,8.565728701
67.46400,7.34495107
67.46450,5.208590216
67.46500,3.072229362
67.46550,1.546257324
67.46600,0.02028528547
67.46650,-1.505686753
67.46700,-2.726464384
67.46750,-3.031658792
67.46800,-2.116075568
67.46850,-1.505686753
67.46900,-2.421269976
67.46950,-4.252436422
67.47000,-4.252436422
67.47050,-2.726464384
67.47100,-2.116075568
67.47150,-3.336853199
67.47200,-4.55763083
67.47250,-3.642047607
67.47300,-2.116075568
67.47350,-1.810881161
67.47400,-3.031658792
67.47450,-3.947242015
67.47500,-3.031658792
67.47550,-1.810881161
67.47600,-1.810881161
67.47650,-3.336853199
67.47700,-2.726464384
67.47750,1.546257324
67.47800,7.650145478
67.47850,10.70208956
67.47900,7.039756663
67.47950,1.241062916
67.48000,-0.5901035299
67.48050,1.241062916
67.48100,0.9358685086
67.48150,-4.55763083
67.48200,-12.18749102
67.48250,-16.76540714
67.48300,-18.90176799
67.48350,-19.81735122
67.48400,-19.2069624
67.48450,-14.32385188
67.48500,-7.914769315
67.48550,-4.252436422
67.48600,-3.336853199
67.48650,-1.200492345
67.48700,3.682618178
67.48750,10.09170074
67.48800,15.58520008
67.48850,19.55272738
67.48900,21.99428264
67.48950,22.60467146
67.49000,22.90986586
67.49050,22.90986586
67.49100,20.77350501
67.49150,16.5007833
67.49200,12.83845041
67.49250,12.533256
67.49300,14.05922804
67.49350,13.44883922
67.49400,10.70208956
67.49450,8.260534293
67.49500,6.734562255
67.49550,4.903395809
67.49600,3.37742377
67.49650,3.37742377
67.49700,4.293006993
67.49750,2.461840547
67.49800,-0.8952979376
67.49850,-3.947242015
67.49900,-4.862825238
67.49950,-6.083602869
67.50000,-7.914769315
67.50050,-7.609574907
67.50100,-2.726464384
67.50150,3.072229362
67.50200,7.955339886
67.50250,10.39689515
67.50300,10.70208956
67.50350,7.955339886
67.50400,2.461840547
67.50450,-1.505686753
67.50500,-2.726464384
67.50550,-1.810881161
67.50600,-2.116075568
67.50650,-3.947242015
67.50700,-5.778408461
67.50750,-7.304380499
67.50800,-8.52515813
67.50850,-8.52515813
67.50900,-7.609574907
67.50950,-6.388797276
67.51000,-6.999186092
67.51050,-8.219963722
67.51100,-8.219963722
67.51150,-6.999186092
67.51200,-6.388797276
67.51250,-6.693991684
67.51300,-6.693991684
67.51350,-5.778408461
67.51400,-5.473214053
67.51450,-5.473214053
67.51500,-3.947242015
67.51550,-0.8952979376
67.51600,0.3254796932
67.51650,-1.505686753
67.51700,-5.473214053
67.51750,-7.914769315
67.51800,-7.914769315
67.51850,-7.609574907
67.51900,-6.999186092
67.51950,-5.778408461
67.52000,-5.168019645
67.52050,-6.083602869
67.52100,-7.609574907
67.52150,-6.999186092
67.52200,-4.862825238
67.52250,-3.642047607
67.52300,-3.947242015
67.52350,-3.642047607
67.52400,-2.116075568
67.52450,-1.200492345
67.52500,-2.421269976
67.52550,-3.642047607
67.52600,-3.336853199
67.52650,-2.116075568
67.52700,-1.810881161
67.52750,-2.421269976
67.52800,-2.726464384
67.52850,-2.726464384
67.52900,-1.810881161
67.52950,0.3254796932
67.53000,3.37742377
67.53050,1.851451732
67.53100,-5.168019645
67.53150,-13.10307425
67.53200,-13.10307425
67.53250,-6.083602869
67.53300,-0.8952979376
67.53350,-3.031658792
67.53400,-7.914769315
67.53450,-7.304380499
67.53500,-1.200492345
67.53550,4.293006993
67.53600,6.429367847
67.53650,6.734562255
67.53700,7.039756663
67.53750,6.429367847
67.53800,3.682618178
67.53850,0.9358685086
67.53900,0.6306741009
67.53950,2.461840547
67.54000,3.072229362
67.54050,2.156646139
67.54100,1.851451732
67.54150,3.682618178
67.54200,5.208590216
67.54250,3.987812586
67.54300,1.241062916
67.54350,1.546257324
67.54400,5.818979032
67.54450,10.39689515
67.54500,12.22806159
67.54550,11.92286719
67.54600,11.92286719
67.54650,11.61767278
67.54700,8.870923109
67.54750,3.987812586
67.54800,1.546257324
67.54850,3.37742377
67.54900,5.818979032
67.54950,5.513784624
67.55000,2.767034955
67.55050,0.9358685086
67.55100,0.9358685086
67.55150,0.6306741009
67.55200,-0.2849091222
67.55250,-1.200492345
67.55300,-0.8952979376
67.55350,-0.8952979376
67.55400,-2.421269976
67.55450,-3.642047607
67.55500,-2.726464384
67.55550,-0.5901035299
67.55600,0.6306741009
67.55650,1.241062916
67.55700,1.546257324
67.55750,2.156646139
67.55800,2.461840547
67.55850,3.37742377
67.55900,4.598201401
67.55950,4.293006993
67.56000,1.241062916
67.56050,-1.810881161
67.56100,-1.810881161
67.56150,0.9358685086
67.56200,4.598201401
67.56250,5.513784624
67.56300,5.208590216
67.56350,4.903395809
67.56400,4.293006993
67.56450,2.156646139
67.56500,-0.5901035299
67.56550,-3.031658792
67.56600,-5.168019645
67.56650,-7.914769315
67.56700,-11.2719078
67.56750,-12.79787984
67.56800,-11.88229661
67.56850,-10.66151898
67.56900,-10.35632458
67.56950,-9.440741353
67.57000,-6.388797276
67.57050,-2.421269976
67.57100,0.6306741009
67.57150,5.513784624
67.57200,13.14364482
67.57250,20.77350501
67.57300,22.60467146
67.57350,18.02675534
67.57400,13.44883922
67.57450,12.533256
67.57500,11.61767278
67.57550,7.955339886
67.57600,3.37742377
67.57650,2.156646139
67.57700,2.156646139
67.57750,0.02028528547
67.57800,-2.726464384
67.57850,-3.642047607
67.57900,-2.421269976
67.57950,-2.421269976
67.58000,-3.947242015
67.58050,-4.252436422
67.58100,-3.031658792
67.58150,-2.116075568
67.58200,-2.421269976
67.58250,-3.031658792
67.58300,-3.336853199
67.58350,-4.252436422
67.58400,-3.642047607
67.58450,0.02028528547
67.58500,4.598201401
67.58550,4.903395809
67.58600,1.851451732
67.58650,0.3254796932
67.58700,2.461840547
67.58750,4.598201401
67.58800,5.208590216
67.58850,5.513784624
67.58900,6.124173439
67.58950,4.903395809
67.59000,0.6306741009
67.59050,-2.421269976
67.59100,-2.116075568
67.59150,-0.2849091222
67.59200,-0.5901035299
67.59250,-1.810881161
67.59300,-2.726464384
67.59350,-4.862825238
67.59400,-8.52515813
67.59450,-10.35632458
67.59500,-7.914769315
67.59550,-3.642047607
67.59600,-2.421269976
67.59650,-4.55763083
67.59700,-6.388797276
67.59750,-6.083602869
67.59800,-4.55763083
67.59850,-2.726464384
67.59900,-0.8952979376
67.59950,0.3254796932
67.60000,0.9358685086
67.60050,0.02028528547
67.60100,-0.5901035299
67.60150,-1.200492345
67.60200,-1.200492345
67.60250,-0.5901035299
67.60300,0.02028528547
67.60350,0.02028528547
67.60400,-0.5901035299
67.60450,-2.116075568
67.60500,-2.726464384
67.60550,-2.421269976
67.60600,-1.200492345
67.60650,0.02028528547
67.60700,2.156646139
67.60750,5.208590216
67.60800,7.650145478
67.60850,9.176117517
67.60900,9.481311924
67.60950,9.176117517
67.61000,8.565728701
67.61050,6.429367847
67.61100,3.682618178
67.61150,1.546257324
67.61200,0.9358685086
67.61250,1.546257324
67.61300,1.851451732
67.61350,1.241062916
67.61400,0.3254796932
67.61450,-0.2849091222
67.61500,-0.5901035299
67.61550,-0.5901035299
67.61600,-1.505686753
67.61650,-3.642047607
67.61700,-5.473214053
67.61750,-5.168019645
67.61800,-3.947242015
67.61850,-3.947242015
67.61900,-5.473214053
67.61950,-6.693991684
67.62000,-5.473214053
67.62050,-3.031658792
67.62100,-0.8952979376
67.62150,0.02028528547
67.62200,0.6306741009
67.62250,0.3254796932
67.62300,-0.5901035299
67.62350,-2.421269976
67.62400,-3.947242015
67.62450,-5.168019645
67.62500,-6.388797276
67.62550,-7.304380499
67.62600,-7.914769315
67.62650,-7.914769315
67.62700,-7.304380499
67.62750,-5.778408461
67.62800,-3.336853199
67.62850,-1.810881161
67.62900,-0.2849091222
67.62950,1.851451732
67.63000,4.598201401
67.63050,5.513784624
67.63100,2.767034955
67.63150,-2.116075568
67.63200,-6.083602869
67.63250,-6.999186092
67.63300,-5.473214053
67.63350,-3.336853199
67.63400,-2.421269976
67.63450,-3.642047607
67.63500,-5.168019645
67.63550,-4.252436422
67.63600,-1.505686753
67.63650,0.9358685086
67.63700,0.9358685086
67.63750,-0.2849091222
67.63800,-1.505686753
67.63850,-1.810881161
67.63900,-2.421269976
67.63950,-2.726464384
67.64000,-0.8952979376
67.64050,1.546257324
67.64100,3.682618178
67.64150,3.682618178
67.64200,1.546257324
67.64250,0.6306741009
67.64300,2.461840547
67.64350,5.513784624
67.64400,6.429367847
67.64450,3.987812586
67.64500,0.02028528547
67.64550,-1.200492345
67.64600,-0.8952979376
67.64650,-1.200492345
67.64700,-3.336853199
67.64750,-5.778408461
67.64800,-7.304380499
67.64850,-9.135546946
67.64900,-11.88229661
67.64950,-13.71346306
67.65000,-13.10307425
67.65050,-11.88229661
67.65100,-11.88229661
67.65150,-11.88229661
67.65200,-9.440741353
67.65250,-4.252436422
67.65300,0.3254796932
67.65350,3.682618178
67.65400,7.039756663
67.65450,11.61767278
67.65500,16.5007833
67.65550,18.94233856
67.65600,18.02675534
67.65650,15.28000567
67.65700,12.533256
67.65750,10.39689515
67.65800,8.565728701
67.65850,5.818979032
67.65900,3.072229362
67.65950,1.546257324
67.66000,1.241062916
67.66050,0.9358685086
67.66100,0.3254796932
67.66150,0.3254796932
67.66200,1.241062916
67.66250,2.156646139
67.66300,2.461840547
67.66350,2.767034955
67.66400,2.767034955
67.66450,2.461840547
67.66500,1.241062916
67.66550,0.3254796932
67.66600,0.3254796932
67.66650,0.3254796932
67.66700,0.02028528547
67.66750,-0.5901035299
67.66800,-1.505686753
67.66850,-2.726464384
67.66900,-4.252436422
67.66950,-5.168019645
67.67000,-5.168019645
67.67050,-4.862825238
67.67100,-4.252436422
67.67150,-3.031658792
67.67200,-1.505686753
67.67250,-0.5901035299
67.67300,-0.2849091222
67.67350,0.3254796932
67.67400,1.241062916
67.67450,0.6306741009
67.67500,-0.2849091222
67.67550,0.3254796932
67.67600,4.598201401
67.67650,7.34495107
67.67700,5.513784624
67.67750,1.241062916
67.67800,-0.5901035299
67.67850,0.6306741009
67.67900,2.767034955
67.67950,3.682618178
67.68000,3.37742377
67.68050,2.767034955
67.68100,2.156646139
67.68150,0.9358685086
67.68200,-1.200492345
67.68250,-3.642047607
67.68300,-3.031658792
67.68350,1.241062916
67.68400,6.429367847
67.68450,7.955339886
67.68500,5.513784624
67.68550,3.37742377
67.68600,4.598201401
67.68650,7.34495107
67.68700,7.650145478
67.68750,5.513784624
67.68800,1.851451732
67.68850,-2.421269976
67.68900,-6.693991684
67.68950,-9.440741353
67.69000,-9.135546946
67.69050,-6.999186092
67.69100,-6.693991684
67.69150,-8.830352538
67.69200,-10.96671339
67.69250,-10.05113017
67.69300,-6.388797276
67.69350,-3.642047607
67.69400,-3.336853199
67.69450,-3.642047607
67.69500,-2.726464384
67.69550,-0.5901035299
67.69600,0.9358685086
67.69650,2.461840547
67.69700,4.293006993
67.69750,6.429367847
67.69800,7.955339886
67.69850,8.260534293
67.69900,8.565728701
67.69950,8.870923109
67.70000,7.650145478
67.70050,5.513784624
67.70100,3.072229362
67.70150,0.9358685086
67.70200,-0.2849091222
67.70250,-0.2849091222
67.70300,2.156646139
67.70350,5.818979032
67.70400,7.955339886
67.70450,7.650145478
67.70500,6.429367847
67.70550,5.818979032
67.70600,4.903395809
67.70650,3.987812586
67.70700,2.767034955
67.70750,1.241062916
67.70800,0.02028528547
67.70850,0.02028528547
67.70900,0.3254796932
67.70950,1.241062916
67.71000,0.3254796932
67.71050,-1.505686753
67.71100,-4.862825238
67.71150,-8.219963722
67.71200,-9.745935761
67.71250,-9.135546946
67.71300,-6.388797276
67.71350,-3.947242015
67.71400,-2.726464384
67.71450,-2.116075568
67.71500,-1.200492345
67.71550,-0.5901035299
67.71600,-0.5901035299
67.71650,0.6306741009
67.71700,2.767034955
67.71750,4.293006993
67.71800,3.37742377
67.71850,1.851451732
67.71900,0.9358685086
67.71950,0.6306741009
67.72000,-0.5901035299
67.72050,-2.421269976
67.72100,-3.336853199
67.72150,-3.642047607
67.72200,-3.336853199
67.72250,-1.505686753
67.72300,0.6306741009
67.72350,1.851451732
67.72400,0.6306741009
67.72450,-0.5901035299
67.72500,-0.2849091222
67.72550,0.3254796932
67.72600,0.02028528547
67.72650,-1.200492345
67.72700,-1.810881161
67.72750,-0.5901035299
67.72800,0.3254796932
67.72850,1.546257324
67.72900,2.156646139
67.72950,2.156646139
67.73000,1.241062916
67.73050,0.02028528547
67.73100,-0.2849091222
67.73150,-1.200492345
67.73200,-3.947242015
67.73250,-7.914769315
67.73300,-10.96671339
67.73350,-12.49268543
67.73400,-13.71346306
67.73450,-14.62904628
67.73500,-14.93424069
67.73550,-13.40826865
67.73600,-10.35632458
67.73650,-6.083602869
67.73700,-1.505686753
67.73750,0.6306741009
67.73800,1.851451732
67.73850,4.903395809
67.73900,11.00728396
67.73950,17.11117212
67.74000,19.24753297
67.74050,18.63714416
67.74100,18.02675534
67.74150,17.11117212
67.74200,14.36442245
67.74250,9.786506332
67.74300,6.429367847
67.74350,5.818979032
67.74400,4.903395809
67.74450,2.156646139
67.74500,0.02028528547
67.74550,-1.810881161
67.74600,-4.55763083
67.74650,-9.135546946
67.74700,-12.79787984
67.74750,-13.10307425
67.74800,-11.57710221
67.74850,-10.05113017
67.74900,-7.304380499
67.74950,-2.726464384
67.75000,2.156646139
67.75050,4.903395809
67.75100,4.293006993
67.75150,2.461840547
67.75200,0.6306741009
67.75250,-0.8952979376
67.75300,-1.810881161
67.75350,-1.810881161
67.75400,-0.5901035299
67.75450,0.9358685086
67.75500,2.767034955
67.75550,4.293006993
67.75600,4.903395809
67.75650,3.682618178
67.75700,1.241062916
67.75750,-0.2849091222
67.75800,-0.2849091222
67.75850,0.02028528547
67.75900,0.02028528547
67.75950,0.02028528547
67.76000,0.3254796932
67.76050,0.3254796932
67.76100,-2.421269976
67.76150,-6.693991684
67.76200,-7.609574907
67.76250,-4.252436422
67.76300,0.02028528547
67.76350,2.461840547
67.76400,3.987812586
67.76450,7.650145478
67.76500,10.70208956
67.76550,8.260534293
67.76600,2.156646139
67.76650,-1.810881161
67.76700,-1.505686753
67.76750,0.3254796932
67.76800,1.241062916
67.76850,2.461840547
67.76900,3.987812586
67.76950,3.37742377
67.77000,0.9358685086
67.77050,0.3254796932
67.77100,3.072229362
67.77150,3.987812586
67.77200,0.02028528547
67.77250,-5.778408461
67.77300,-6.999186092
67.77350,-5.168019645
67.77400,-5.473214053
67.77450,-7.914769315
67.77500,-8.219963722
67.77550,-4.55763083
67.77600,-0.5901035299
67.77650,-0.2849091222
67.77700,-2.726464384
67.77750,-4.55763083
67.77800,-5.168019645
67.77850,-4.55763083
67.77900,-3.336853199
67.77950,-1.505686753
67.78000,-0.2849091222
67.78050,0.9358685086
67.78100,2.156646139
67.78150,1.546257324
67.78200,-1.810881161
67.78250,-5.473214053
67.78300,-4.252436422
67.78350,0.3254796932
67.78400,4.293006993
67.78450,3.37742377
67.78500,0.9358685086
67.78550,0.02028528547
67.78600,0.9358685086
67.78650,1.546257324
67.78700,0.9358685086
67.78750,0.02028528547
67.78800,-2.421269976
67.78850,-5.473214053
67.78900,-8.52515813
67.78950,-10.05113017
67.79000,-10.05113017
67.79050,-8.830352538
67.79100,-6.388797276
67.79150,-3.642047607
67.79200,-1.200492345
67.79250,0.3254796932
67.79300,2.461840547
67.79350,4.903395809
67.79400,5.513784624
67.79450,3.682618178
67.79500,0.9358685086
67.79550,0.02028528547
67.79600,0.02028528547
67.79650,0.9358685086
67.79700,1.851451732
67.79750,2.767034955
67.79800,2.767034955
67.79850,2.156646139
67.79900,2.767034955
67.79950,4.598201401
67.80000,5.513784624
67.80050,3.072229362
67.80100,-0.5901035299
67.80150,-1.505686753
67.80200,0.6306741009
67.80250,3.37742377
67.80300,3.682618178
67.80350,2.767034955
67.80400,2.461840547
67.80450,2.461840547
67.80500,2.461840547
67.80550,2.461840547
67.80600,2.461840547
67.80650,3.072229362
67.80700,3.37742377
67.80750,2.767034955
67.80800,-0.2849091222
67.80850,-6.083602869
67.80900,-11.88229661
67.80950,-14.32385188
67.81000,-13.71346306
67.81050,-13.10307425
67.81100,-13.10307425
67.81150,-12.18749102
67.81200,-9.745935761
67.81250,-6.999186092
67.81300,-4.862825238
67.81350,-1.505686753
67.81400,2.156646139
67.81450,4.598201401
67.81500,5.513784624
67.81550,7.34495107
67.81600,12.533256
67.81650,17.72156093
67.81700,18.94233856
67.81750,16.80597771
67.81800,15.28000567
67.81850,16.19558889
67.81900,17.41636652
67.81950,14.97481126
67.82000,10.39689515
67.82050,6.734562255
67.82100,6.124173439
67.82150,7.34495107
67.82200,7.039756663
67.82250,3.682618178
67.82300,0.02028528547
67.82350,-1.200492345
67.82400,0.6306741009
67.82450,2.156646139
67.82500,0.9358685086
67.82550,-0.2849091222
67.82600,0.6306741009
67.82650,2.767034955
67.82700,3.682618178
67.82750,3.072229362
67.82800,3.987812586
67.82850,5.818979032
67.82900,5.208590216
67.82950,1.546257324
67.83000,-1.200492345
67.83050,-2.116075568
67.83100,-2.116075568
67.83150,-2.726464384
67.83200,-2.116075568
67.83250,0.02028528547
67.83300,2.156646139
67.83350,1.241062916
67.83400,-0.2849091222
67.83450,0.02028528547
67.83500,1.851451732
67.83550,2.767034955
67.83600,0.9358685086
67.83650,-1.200492345
67.83700,-2.421269976
67.83750,-2.116075568
67.83800,-0.2849091222
67.83850,1.851451732
67.83900,2.461840547
67.83950,0.6306741009
67.84000,-0.8952979376
67.84050,-1.200492345
67.84100,-0.5901035299
67.84150,-1.810881161
67.84200,-4.252436422
67.84250,-5.778408461
67.84300,-5.168019645
67.84350,-3.642047607
67.84400,-2.421269976
67.84450,-1.505686753
67.84500,-2.116075568
67.84550,-2.421269976
67.84600,-1.505686753
67.84650,1.241062916
67.84700,2.156646139
67.84750,-0.8952979376
67.84800,-5.778408461
67.84850,-7.304380499
67.84900,-3.642047607
67.84950,0.3254796932
67.85000,1.851451732
67.85050,0.9358685086
67.85100,0.6306741009
67.85150,0.02028528547
67.85200,-1.505686753
67.85250,-3.947242015
67.85300,-4.55763083
67.85350,-2.726464384
67.85400,-1.505686753
67.85450,-2.421269976
67.85500,-4.55763083
67.85550,-6.083602869
67.85600,-6.083602869
67.85650,-4.862825238
67.85700,-2.116075568
67.85750,0.6306741009
67.85800,2.156646139
67.85850,2.156646139
67.85900,1.851451732
67.85950,3.072229362
67.86000,5.513784624
67.86050,6.734562255
67.86100,6.124173439
67.86150,3.682618178
67.86200,0.9358685086
67.86250,-0.5901035299
67.86300,-1.200492345
67.86350,-1.810881161
67.86400,-3.947242015
67.86450,-7.609574907
67.86500,-10.35632458
67.86550,-10.66151898
67.86600,-8.830352538
67.86650,-5.778408461
67.86700,-2.421269976
67.86750,1.546257324
67.86800,3.682618178
67.86850,3.072229362
67.86900,0.6306741009
67.86950,-0.5901035299
67.87000,-0.8952979376
67.87050,-0.8952979376
67.87100,-1.810881161
67.87150,-2.726464384
67.87200,-3.031658792
67.87250,-3.031658792
67.87300,-3.642047607
67.87350,-3.947242015
67.87400,-3.642047607
67.87450,-2.726464384
67.87500,-1.810881161
67.87550,-0.8952979376
67.87600,-0.8952979376
67.87650,-2.116075568
67.87700,-4.55763083
67.87750,-6.693991684
67.87800,-8.830352538
67.87850,-10.05113017
67.87900,-9.440741353
67.87950,-6.693991684
67.88000,-3.031658792
67.88050,-0.2849091222
67.88100,0.02028528547
67.88150,-1.505686753
67.88200,-3.642047607
67.88250,-3.947242015
67.88300,-1.810881161
67.88350,1.241062916
67.88400,2.156646139
67.88450,0.6306741009
67.88500,0.9358685086
67.88550,4.903395809
67.88600,8.870923109
67.88650,7.650145478
67.88700,3.072229362
67.88750,-0.2849091222
67.88800,-0.5901035299
67.88850,0.02028528547
67.88900,0.02028528547
67.88950,0.6306741009
67.89000,2.156646139
67.89050,0.9358685086
67.89100,-4.252436422
67.89150,-9.745935761
67.89200,-10.66151898
67.89250,-9.440741353
67.89300,-10.35632458
67.89350,-13.71346306
67.89400,-17.07060155
67.89450,-18.29137918
67.89500,-18.90176799
67.89550,-19.2069624
67.89600,-17.68099036
67.89650,-14.01865747
67.89700,-9.440741353
67.89750,-4.252436422
67.89800,0.6306741009
67.89850,4.903395809
67.89900,7.039756663
67.89950,9.786506332
67.90000,16.80597771
67.90050,25.65661553
67.90100,30.53972606
67.90150,29.01375402
67.90200,25.65661553
67.90250,23.82544909
67.90300,22.29947705
67.90350,17.11117212
67.90400,9.786506332
67.90450,4.293006993
67.90500,2.156646139
67.90550,2.767034955
67.90600,3.682618178
67.90650,3.682618178
67.90700,2.156646139
67.90750,-0.5901035299
67.90800,-2.116075568
67.90850,-1.200492345
67.90900,0.6306741009
67.90950,1.546257324
67.91000,2.156646139
67.91050,2.767034955
67.91100,1.546257324
67.91150,-1.505686753
67.91200,-4.862825238
67.91250,-5.168019645
67.91300,-3.642047607
67.91350,-3.642047607
67.91400,-4.55763083
67.91450,-3.642047607
67.91500,-0.2849091222
67.91550,1.241062916
67.91600,-0.2849091222
67.91650,-3.336853199
67.91700,-4.55763083
67.91750,-4.252436422
67.91800,-3.947242015
67.91850,-3.642047607
67.91900,-2.421269976
67.91950,-1.505686753
67.92000,-1.505686753
67.92050,-1.505686753
67.92100,0.02028528547
67.92150,0.9358685086
67.92200,0.02028528547
67.92250,-2.116075568
67.92300,-3.642047607
67.92350,-4.252436422
67.92400,-5.473214053
67.92450,-6.999186092
67.92500,-6.693991684
67.92550,-3.947242015
67.92600,-1.505686753
67.92650,-1.200492345
67.92700,-2.116075568
67.92750,-2.116075568
67.92800,-1.810881161
67.92850,-1.505686753
67.92900,-1.200492345
67.92950,-0.2849091222
67.93000,0.3254796932
67.93050,0.3254796932
67.93100,0.02028528547
67.93150,0.3254796932
67.93200,0.3254796932
67.93250,-1.810881161
67.93300,-4.252436422
67.93350,-3.642047607
67.93400,-0.5901035299
67.93450,0.6306741009
67.93500,-0.8952979376
67.93550,-2.116075568
67.93600,-2.116075568
67.93650,-1.810881161
67.93700,-2.421269976
67.93750,-1.505686753
67.93800,1.546257324
67.93850,4.903395809
67.93900,5.513784624
67.93950,3.987812586
67.94000,3.37742377
67.94050,2.461840547
67.94100,-0.2849091222
67.94150,-3.336853199
67.94200,-2.726464384
67.94250,0.9358685086
67.94300,4.293006993
67.94350,4.293006993
67.94400,2.461840547
67.94450,2.461840547
67.94500,4.293006993
67.94550,4.903395809
67.94600,3.682618178
67.94650,1.851451732
67.94700,2.461840547
67.94750,5.208590216
67.94800,7.955339886
67.94850,8.260534293
67.94900,6.429367847
67.94950,5.208590216
67.95000,5.208590216
67.95050,5.818979032
67.95100,5.818979032
67.95150,5.513784624
67.95200,5.818979032
67.95250,5.208590216
67.95300,3.072229362
67.95350,0.6306741009
67.95400,0.02028528547
67.95450,1.851451732
67.95500,4.293006993
67.95550,5.818979032
67.95600,5.513784624
67.95650,5.818979032
67.95700,6.429367847
67.95750,7.650145478
67.95800,8.260534293
67.95850,8.260534293
67.95900,7.039756663
67.95950,5.208590216
67.96000,2.767034955
67.96050,0.9358685086
67.96100,0.02028528547
67.96150,0.6306741009
67.96200,1.241062916
67.96250,1.546257324
67.96300,1.546257324
67.96350,1.546257324
67.96400,1.546257324
67.96450,1.851451732
67.96500,1.851451732
67.96550,1.546257324
67.96600,1.851451732
67.96650,2.461840547
67.96700,2.767034955
67.96750,2.767034955
67.96800,3.072229362
67.96850,3.682618178
67.96900,4.293006993
67.96950,3.987812586
67.97000,3.37742377
67.97050,3.072229362
67.97100,3.682618178
67.97150,5.208590216
67.97200,5.818979032
67.97250,3.37742377
67.97300,-2.116075568
67.97350,-8.52515813
67.97400,-12.49268543
67.97450,-14.01865747
67.97500,-15.84982392
67.97550,-19.81735122
67.97600,-23.47968411
67.97650,-22.86929529
67.97700,-18.90176799
67.97750,-14.93424069
67.97800,-13.40826865
67.97850,-13.10307425
67.97900,-12.18749102
67.97950,-8.830352538
67.98000,-1.505686753
67.98050,9.786506332
67.98100,20.77350501
67.98150,26.87739316
67.98200,27.48778198
67.98250,26.26700435
67.98300,22.90986586
67.98350,16.19558889
67.98400,8.260534293
67.98450,4.903395809
67.98500,7.34495107
67.98550,10.09170074
67.98600,8.260534293
67.98650,4.293006993
67.98700,3.072229362
67.98750,3.37742377
67.98800,3.072229362
67.98850,0.3254796932
67.98900,-2.726464384
67.98950,-5.168019645
67.99000,-6.693991684
67.99050,-6.999186092
67.99100,-7.609574907
67.99150,-9.745935761
67.99200,-11.88229661
67.99250,-11.88229661
67.99300,-9.135546946
67.99350,-6.999186092
67.99400,-7.609574907
67.99450,-9.135546946
67.99500,-10.05113017
67.99550,-10.66151898
67.99600,-10.96671339
67.99650,-9.440741353
67.99700,-5.778408461
67.99750,-3.642047607
67.99800,-4.55763083
67.99850,-5.168019645
67.99900,-2.421269976
67.99950,1.241062916
68.00000,1.546257324
68.00050,-0.8952979376
68.00100,-3.031658792
68.00150,-1.810881161
68.00200,0.3254796932
68.00250,1.241062916
68.00300,0.6306741009
68.00350,-0.2849091222
68.00400,-1.505686753
68.00450,-3.031658792
68.00500,-3.947242015
68.00550,-3.031658792
68.00600,-0.2849091222
68.00650,2.767034955
68.00700,3.682618178
68.00750,1.851451732
68.00800,0.02028528547
68.00850,1.241062916
68.00900,4.293006993
68.00950,4.903395809
68.01000,2.767034955
68.01050,0.02028528547
68.01100,-0.5901035299
68.01150,-0.5901035299
68.01200,-1.200492345
68.01250,-1.810881161
68.01300,-1.200492345
68.01350,-0.2849091222
68.01400,0.02028528547
68.01450,0.02028528547
68.01500,0.02028528547
68.01550,0.02028528547
68.01600,0.6306741009
68.01650,2.156646139
68.01700,3.682618178
68.01750,3.682618178
68.01800,2.767034955
68.01850,4.293006993
68.01900,7.34495107
68.01950,8.870923109
68.02000,6.734562255
68.02050,4.293006993
68.02100,4.598201401
68.02150,6.734562255
68.02200,6.734562255
68.02250,4.598201401
68.02300,3.682618178
68.02350,4.598201401
68.02400,3.987812586
68.02450,0.9358685086
68.02500,-1.505686753
68.02550,-1.505686753
68.02600,-0.2849091222
68.02650,0.02028528547
68.02700,-0.5901035299
68.02750,0.02028528547
68.02800,2.156646139
68.02850,3.37742377
68.02900,2.461840547
68.02950,0.3254796932
68.03000,-0.2849091222
68.03050,-0.5901035299
68.03100,-1.200492345
68.03150,-2.116075568
68.03200,-2.726464384
68.03250,-2.116075568
68.03300,-1.200492345
68.03350,0.02028528547
68.03400,0.6306741009
68.03450,1.546257324
68.03500,2.156646139
68.03550,2.461840547
68.03600,2.767034955
68.03650,1.546257324
68.03700,-1.810881161
68.03750,-7.304380499
68.03800,-10.05113017
68.03850,-7.304380499
68.03900,-1.200492345
68.03950,2.156646139
68.04000,0.02028528547
68.04050,-5.778408461
68.04100,-10.35632458
68.04150,-10.35632458
68.04200,-7.609574907
68.04250,-5.168019645
68.04300,-4.55763083
68.04350,-4.252436422
68.04400,-3.336853199
68.04450,-2.421269976
68.04500,-2.116075568
68.04550,-2.726464384
68.04600,-2.726464384
68.04650,-1.200492345
68.04700,0.3254796932
68.04750,0.6306741009
68.04800,-0.2849091222
68.04850,-1.505686753
68.04900,-2.726464384
68.04950,-4.55763083
68.05000,-6.693991684
68.05050,-6.693991684
68.05100,-5.473214053
68.05150,-6.693991684
68.05200,-11.2719078
68.05250,-14.62904628
68.05300,-13.71346306
68.05350,-11.2719078
68.05400,-10.96671339
68.05450,-10.96671339
68.05500,-7.914769315
68.05550,-3.336853199
68.05600,-1.505686753
68.05650,0.02028528547
68.05700,4.598201401
68.05750,11.61767278
68.05800,14.36442245
68.05850,11.31247837
68.05900,9.786506332
68.05950,12.83845041
68.06000,16.19558889
68.06050,14.36442245
68.06100,8.870923109
68.06150,5.513784624
68.06200,5.513784624
68.06250,6.124173439
68.06300,6.124173439
68.06350,6.124173439
68.06400,5.208590216
68.06450,3.682618178
68.06500,2.156646139
68.06550,2.767034955
68.06600,3.987812586
68.06650,3.987812586
68.06700,3.072229362
68.06750,2.461840547
68.06800,2.461840547
68.06850,1.546257324
68.06900,0.3254796932
68.06950,0.02028528547
68.07000,-1.200492345
68.07050,-3.947242015
68.07100,-6.083602869
68.07150,-5.168019645
68.07200,-1.810881161
68.07250,-0.2849091222
68.07300,-1.810881161
68.07350,-3.947242015
68.07400,-4.252436422
68.07450,-3.642047607
68.07500,-3.947242015
68.07550,-5.168019645
68.07600,-6.083602869
68.07650,-6.693991684
68.07700,-7.914769315
68.07750,-8.830352538
68.07800,-9.135546946
68.07850,-8.830352538
68.07900,-9.135546946
68.07950,-9.135546946
68.08000,-9.135546946
68.08050,-9.440741353
68.08100,-8.219963722
68.08150,-4.252436422
68.08200,0.9358685086
68.08250,4.293006993
68.08300,3.987812586
68.08350,2.461840547
68.08400,2.767034955
68.08450,4.903395809
68.08500,6.734562255
68.08550,6.734562255
68.08600,5.513784624
68.08650,3.682618178
68.08700,1.851451732
68.08750,0.6306741009
68.08800,0.02028528547
68.08850,-1.200492345
68.08900,-3.642047607
68.08950,-5.168019645
68.09000,-3.947242015
68.09050,-1.505686753
68.09100,-0.8952979376
68.09150,-1.505686753
68.09200,-0.5901035299
68.09250,3.072229362
68.09300,6.734562255
68.09350,6.124173439
68.09400,1.546257324
68.09450,-2.116075568
68.09500,-3.031658792
68.09550,-1.810881161
68.09600,-0.5901035299
68.09650,0.02028528547
68.09700,0.3254796932
68.09750,1.241062916
68.09800,1.851451732
68.09850,1.546257324
68.09900,0.6306741009
68.09950,0.6306741009
68.10000,0.6306741009
68.10050,0.9358685086
68.10100,1.241062916
68.10150,1.851451732
68.10200,1.851451732
68.10250,1.241062916
68.10300,0.02028528547
68.10350,0.02028528547
68.10400,0.9358685086
68.10450,1.546257324
68.10500,1.546257324
68.10550,0.9358685086
68.10600,0.3254796932
68.10650,0.6306741009
68.10700,1.851451732
68.10750,3.987812586
68.10800,5.818979032
68.10850,7.039756663
68.10900,6.734562255
68.10950,5.513784624
68.11000,4.903395809
68.11050,5.208590216
68.11100,5.208590216
68.11150,3.987812586
68.11200,2.767034955
68.11250,2.767034955
68.11300,4.293006993
68.11350,4.598201401
68.11400,1.851451732
68.11450,-1.810881161
68.11500,-3.642047607
68.11550,-1.810881161
68.11600,1.546257324
68.11650,4.293006993
68.11700,4.293006993
68.11750,2.156646139
68.11800,0.02028528547
68.11850,-0.2849091222
68.11900,-0.2849091222
68.11950,-2.421269976
68.12000,-6.388797276
68.12050,-9.135546946
68.12100,-9.745935761
68.12150,-10.05113017
68.12200,-10.96671339
68.12250,-11.2719078
68.12300,-8.830352538
68.12350,-4.862825238
68.12400,-0.8952979376
68.12450,1.851451732
68.12500,3.682618178
68.12550,3.987812586
68.12600,3.987812586
68.12650,7.34495107
68.12700,14.36442245
68.12750,20.4683106
68.12800,20.77350501
68.12850,17.11117212
68.12900,13.14364482
68.12950,9.176117517
68.13000,3.987812586
68.13050,-0.5901035299
68.13100,-2.116075568
68.13150,-0.2849091222
68.13200,0.9358685086
68.13250,1.241062916
68.13300,0.9358685086
68.13350,0.6306741009
68.13400,-1.505686753
68.13450,-4.55763083
68.13500,-5.778408461
68.13550,-4.55763083
68.13600,-3.947242015
68.13650,-5.168019645
68.13700,-5.473214053
68.13750,-3.642047607
68.13800,-1.200492345
68.13850,-0.2849091222
68.13900,-0.2849091222
68.13950,0.02028528547
68.14000,0.6306741009
68.14050,0.3254796932
68.14100,0.3254796932
68.14150,2.156646139
68.14200,3.37742377
68.14250,2.156646139
68.14300,-1.810881161
68.14350,-5.168019645
68.14400,-5.473214053
68.14450,-3.642047607
68.14500,-1.810881161
68.14550,-1.200492345
68.14600,-1.505686753
68.14650,-2.116075568
68.14700,-2.421269976
68.14750,-1.810881161
68.14800,-0.5901035299
68.14850,0.02028528547
68.14900,0.02028528547
68.14950,-0.8952979376
68.15000,-2.726464384
68.15050,-3.642047607
68.15100,-3.336853199
68.15150,-2.421269976
68.15200,-2.421269976
68.15250,-3.947242015
68.15300,-5.473214053
68.15350,-4.862825238
68.15400,-2.726464384
68.15450,-2.116075568
68.15500,-3.642047607
68.15550,-4.862825238
68.15600,-3.947242015
68.15650,-2.421269976
68.15700,-1.810881161
68.15750,-2.116075568
68.15800,-2.116075568
68.15850,0.02028528547
68.15900,2.767034955
68.15950,4.598201401
68.16000,4.598201401
68.16050,3.682618178
68.16100,2.156646139
68.16150,-0.5901035299
68.16200,-4.252436422
68.16250,-6.388797276
68.16300,-4.55763083
68.16350,-0.5901035299
68.16400,1.851451732
68.16450,1.241062916
68.16500,0.02028528547
68.16550,0.3254796932
68.16600,2.156646139
68.16650,3.37742377
68.16700,3.682618178
68.16750,4.293006993
68.16800,5.513784624
68.16850,5.208590216
68.16900,3.987812586
68.16950,3.682618178
68.17000,5.208590216
68.17050,7.34495107
68.17100,7.34495107
68.17150,4.598201401
68.17200,1.851451732
68.17250,0.6306741009
68.17300,1.241062916
68.17350,2.461840547
68.17400,3.072229362
68.17450,2.461840547
68.17500,0.9358685086
68.17550,0.02028528547
68.17600,0.02028528547
68.17650,0.3254796932
68.17700,0.02028528547
68.17750,-0.2849091222
68.17800,-0.5901035299
68.17850,-0.8952979376
68.17900,-1.200492345
68.17950,-1.810881161
68.18000,-2.116075568
68.18050,-1.505686753
68.18100,0.02028528547
68.18150,1.851451732
68.18200,3.072229362
68.18250,3.072229362
68.18300,1.546257324
68.18350,0.02028528547
68.18400,-0.5901035299
68.18450,-0.2849091222
68.18500,-0.5901035299
68.18550,-0.8952979376
68.18600,-0.5901035299
68.18650,1.241062916
68.18700,3.072229362
68.18750,2.461840547
68.18800,0.9358685086
68.18850,0.3254796932
68.18900,0.6306741009
68.18950,-0.5901035299
68.19000,-3.642047607
68.19050,-5.473214053
68.19100,-4.252436422
68.19150,-2.421269976
68.19200,-2.421269976
68.19250,-4.252436422
68.19300,-5.473214053
68.19350,-4.55763083
68.19400,-2.421269976
68.19450,-1.505686753
68.19500,-1.505686753
68.19550,-1.200492345
68.19600,0.02028528547
68.19650,1.851451732
68.19700,3.987812586
68.19750,6.124173439
68.19800,8.870923109
68.19850,12.83845041
68.19900,15.28000567
68.19950,13.14364482
68.20000,6.124173439
68.20050,-1.810881161
68.20100,-6.693991684
68.20150,-7.609574907
68.20200,-7.914769315
68.20250,-10.35632458
68.20300,-14.93424069
68.20350,-18.90176799
68.20400,-19.51215681
68.20450,-16.76540714
68.20500,-12.18749102
68.20550,-7.304380499
68.20600,-2.116075568
68.20650,3.682618178
68.20700,10.70208956
68.20750,17.11117212
68.20800,21.68908823
68.20850,22.60467146
68.20900,20.16311619
68.20950,16.80597771
68.21000,14.05922804
68.21050,11.61767278
68.21100,7.955339886
68.21150,3.37742377
68.21200,-0.2849091222
68.21250,-2.421269976
68.21300,-3.642047607
68.21350,-4.862825238
68.21400,-4.862825238
68.21450,-2.421269976
68.21500,-0.5901035299
68.21550,-2.726464384
68.21600,-7.914769315
68.21650,-10.96671339
68.21700,-8.52515813
68.21750,-5.168019645
68.21800,-6.693991684
68.21850,-10.66151898
68.21900,-10.05113017
68.21950,-3.642047607
68.22000,1.241062916
68.22050,0.6306741009
68.22100,-2.726464384
68.22150,-3.031658792
68.22200,-0.2849091222
68.22250,0.3254796932
68.22300,-0.8952979376
68.22350,-1.810881161
68.22400,-0.2849091222
68.22450,1.241062916
68.22500,2.156646139
68.22550,2.156646139
68.22600,2.767034955
68.22650,2.156646139
68.22700,0.9358685086
68.22750,0.02028528547
68.22800,0.02028528547
68.22850,0.3254796932
68.22900,0.3254796932
68.22950,0.02028528547
68.23000,-1.200492345
68.23050,-3.031658792
68.23100,-3.947242015
68.23150,-3.031658792
68.23200,-1.810881161
68.23250,-3.031658792
68.23300,-6.083602869
68.23350,-7.609574907
68.23400,-5.168019645
68.23450,-2.116075568
68.23500,-1.810881161
68.23550,-3.642047607
68.23600,-4.55763083
68.23650,-3.336853199
68.23700,-2.116075568
68.23750,-2.421269976
68.23800,-3.336853199
68.23850,-3.031658792
68.23900,-1.505686753
68.23950,-0.2849091222
68.24000,-0.8952979376
68.24050,-2.726464384
68.24100,-3.336853199
68.24150,-2.726464384
68.24200,-2.421269976
68.24250,-2.116075568
68.24300,-0.8952979376
68.24350,0.9358685086
68.24400,1.546257324
68.24450,0.02028528547
68.24500,-1.200492345
68.24550,0.02028528547
68.24600,2.461840547
68.24650,2.461840547
68.24700,0.6306741009
68.24750,-0.2849091222
68.24800,0.02028528547
68.24850,0.02028528547
68.24900,-1.810881161
68.24950,-3.031658792
68.25000,-1.200492345
68.25050,0.9358685086
68.25100,0.6306741009
68.25150,-2.116075568
68.25200,-5.168019645
68.25250,-6.083602869
68.25300,-6.083602869
68.25350,-7.304380499
68.25400,-9.440741353
68.25450,-10.66151898
68.25500,-10.66151898
68.25550,-10.05113017
68.25600,-9.440741353
68.25650,-8.52515813
68.25700,-5.473214053
68.25750,-0.5901035299
68.25800,2.767034955
68.25850,3.682618178
68.25900,3.072229362
68.25950,3.987812586
68.26000,6.734562255
68.26050,9.481311924
68.26100,10.09170074
68.26150,9.176117517
68.26200,7.650145478
68.26250,5.818979032
68.26300,4.598201401
68.26350,5.513784624
68.26400,8.870923109
68.26450,11.31247837
68.26500,10.09170074
68.26550,6.429367847
68.26600,4.598201401
68.26650,4.903395809
68.26700,5.818979032
68.26750,6.429367847
68.26800,7.039756663
68.26850,8.565728701
68.26900,8.565728701
68.26950,6.734562255
68.27000,5.513784624
68.27050,6.429367847
68.27100,8.565728701
68.27150,7.650145478
68.27200,3.682618178
68.27250,-0.5901035299
68.27300,-0.8952979376
68.27350,1.546257324
68.27400,2.767034955
68.27450,-1.200492345
68.27500,-8.830352538
68.27550,-14.01865747
68.27600,-14.62904628
68.27650,-12.79787984
68.27700,-11.88229661
68.27750,-11.57710221
68.27800,-9.135546946
68.27850,-4.55763083
68.27900,-0.8952979376
68.27950,0.6306741009
68.28000,2.156646139
68.28050,3.987812586
68.28100,6.429367847
68.28150,8.870923109
68.28200,11.31247837
68.28250,13.44883922
68.28300,15.28000567
68.28350,16.80597771
68.28400,17.72156093
68.28450,17.41636652
68.28500,15.58520008
68.28550,13.44883922
68.28600,12.22806159
68.28650,11.92286719
68.28700,11.31247837
68.28750,9.481311924
68.28800,7.650145478
68.28850,6.124173439
68.28900,5.208590216
68.28950,4.598201401
68.29000,4.598201401
68.29050,3.987812586
68.29100,1.851451732
68.29150,-0.2849091222
68.29200,-2.116075568
68.29250,-3.336853199
68.29300,-4.252436422
68.29350,-5.168019645
68.29400,-5.778408461
68.29450,-6.083602869
68.29500,-5.168019645
68.29550,-3.947242015
68.29600,-3.031658792
68.29650,-3.642047607
68.29700,-4.862825238
68.29750,-4.862825238
68.29800,-3.031658792
68.29850,-1.200492345
68.29900,-1.200492345
68.29950,-3.031658792
68.30000,-3.336853199
68.30050,-2.116075568
68.30100,0.02028528547
68.30150,2.767034955
68.30200,4.293006993
68.30250,3.37742377
68.30300,0.3254796932
68.30350,-1.810881161
68.30400,0.02028528547
68.30450,2.767034955
68.30500,3.37742377
68.30550,0.3254796932
68.30600,-1.200492345
68.30650,0.02028528547
68.30700,2.156646139
68.30750,1.851451732
68.30800,0.6306741009
68.30850,0.02028528547
68.30900,0.02028528547
68.30950,-1.200492345
68.31000,-2.726464384
68.31050,-3.336853199
68.31100,-3.947242015
68.31150,-5.168019645
68.31200,-6.388797276
68.31250,-5.168019645
68.31300,-3.642047607
68.31350,-4.862825238
68.31400,-10.05113017
68.31450,-15.84982392
68.31500,-18.90176799
68.31550,-18.59657358
68.31600,-15.2394351
68.31650,-9.745935761
68.31700,-3.031658792
68.31750,2.767034955
68.31800,7.34495107
68.31850,10.39689515
68.31900,11.31247837
68.31950,10.39689515
68.32000,9.481311924
68.32050,8.870923109
68.32100,7.650145478
68.32150,4.293006993
68.32200,1.241062916
68.32250,1.241062916
68.32300,3.37742377
68.32350,4.293006993
68.32400,2.767034955
68.32450,1.546257324
68.32500,2.461840547
68.32550,3.987812586
68.32600,3.987812586
68.32650,3.37742377
68.32700,3.072229362
68.32750,2.461840547
68.32800,0.3254796932
68.32850,-2.421269976
68.32900,-4.55763083
68.32950,-4.862825238
68.33000,-4.862825238
68.33050,-5.473214053
68.33100,-6.999186092
68.33150,-8.52515813
68.33200,-9.440741353
68.33250,-9.745935761
68.33300,-9.135546946
68.33350,-7.914769315
68.33400,-6.999186092
68.33450,-6.999186092
68.33500,-7.304380499
68.33550,-7.304380499
68.33600,-5.778408461
68.33650,-3.642047607
68.33700,-1.810881161
68.33750,-1.505686753
68.33800,-3.031658792
68.33850,-4.862825238
68.33900,-6.388797276
68.33950,-6.693991684
68.34000,-6.083602869
68.34050,-6.083602869
68.34100,-6.693991684
68.34150,-6.388797276
68.34200,-4.55763083
68.34250,-2.116075568
68.34300,-0.5901035299
68.34350,-1.200492345
68.34400,-2.726464384
68.34450,-3.031658792
68.34500,-1.810881161
68.34550,-0.2849091222
68.34600,0.02028528547
68.34650,-1.200492345
68.34700,-2.116075568
68.34750,0.02028528547
68.34800,4.598201401
68.34850,7.34495107
68.34900,5.818979032
68.34950,2.767034955
68.35000,1.241062916
68.35050,1.241062916
68.35100,0.3254796932
68.35150,-0.5901035299
68.35200,-0.8952979376
68.35250,-0.8952979376
68.35300,-3.031658792
68.35350,-5.168019645
68.35400,-3.336853199
68.35450,2.767034955
68.35500,8.260534293
68.35550,10.09170074
68.35600,9.786506332
68.35650,10.09170074
68.35700,9.481311924
68.35750,6.124173439
68.35800,0.02028528547
68.35850,-6.693991684
68.35900,-12.18749102
68.35950,-16.15501832
68.36000,-15.84982392
68.36050,-12.49268543
68.36100,-10.05113017
68.36150,-10.35632458
68.36200,-9.440741353
68.36250,-4.55763083
68.36300,0.02028528547
68.36350,0.02028528547
68.36400,-0.2849091222
68.36450,5.208590216
68.36500,15.89039449
68.36550,22.90986586
68.36600,22.29947705
68.36650,19.24753297
68.36700,18.63714416
68.36750,18.33194975
68.36800,14.36442245
68.36850,9.481311924
68.36900,7.34495107
68.36950,7.650145478
68.37000,7.039756663
68.37050,4.598201401
68.37100,2.767034955
68.37150,2.461840547
68.37200,2.767034955
68.37250,3.072229362
68.37300,2.461840547
68.37350,0.3254796932
68.37400,-2.116075568
68.37450,-3.642047607
68.37500,-3.336853199
68.37550,-2.726464384
68.37600,-3.031658792
68.37650,-3.031658792
68.37700,-1.810881161
68.37750,-0.5901035299
68.37800,-1.200492345
68.37850,-2.116075568
68.37900,-1.200492345
68.37950,-0.2849091222
68.38000,-1.200492345
68.38050,-3.336853199
68.38100,-4.55763083
68.38150,-4.55763083
68.38200,-4.862825238
68.38250,-5.778408461
68.38300,-5.778408461
68.38350,-4.862825238
68.38400,-3.336853199
68.38450,-1.810881161
68.38500,0.02028528547
68.38550,1.851451732
68.38600,1.851451732
68.38650,0.6306741009
68.38700,0.02028528547
68.38750,0.6306741009
68.38800,0.6306741009
68.38850,-0.2849091222
68.38900,-0.8952979376
68.38950,-0.5901035299
68.39000,-0.2849091222
68.39050,-1.505686753
68.39100,-2.726464384
68.39150,-2.726464384
68.39200,-1.810881161
68.39250,-1.200492345
68.39300,-1.810881161
68.39350,-2.726464384
68.39400,-3.031658792
68.39450,-2.726464384
68.39500,-1.505686753
68.39550,0.02028528547
68.39600,0.3254796932
68.39650,-1.200492345
68.39700,-3.031658792
68.39750,-2.726464384
68.39800,-1.200492345
68.39850,-0.2849091222
68.39900,-0.8952979376
68.39950,-1.810881161
68.40000,-0.8952979376
68.40050,0.9358685086
68.40100,2.156646139
68.40150,1.546257324
68.40200,-0.2849091222
68.40250,-3.031658792
68.40300,-3.947242015
68.40350,-3.642047607
68.40400,-2.726464384
68.40450,-2.421269976
68.40500,-3.642047607
68.40550,-5.168019645
68.40600,-5.473214053
68.40650,-3.336853199
68.40700,-0.8952979376
68.40750,0.02028528547
68.40800,-0.2849091222
68.40850,0.3254796932
68.40900,2.461840547
68.40950,3.37742377
68.41000,1.546257324
68.41050,-0.2849091222
68.41100,0.9358685086
68.41150,3.987812586
68.41200,4.293006993
68.41250,0.6306741009
68.41300,-2.421269976
68.41350,-3.642047607
68.41400,-3.642047607
68.41450,-4.252436422
68.41500,-4.862825238
68.41550,-5.168019645
68.41600,-3.947242015
68.41650,-0.8952979376
68.41700,3.37742377
68.41750,6.734562255
68.41800,7.650145478
68.41850,7.039756663
68.41900,7.650145478
68.41950,7.650145478
68.42000,4.903395809
68.42050,0.02028528547
68.42100,-2.116075568
68.42150,-1.810881161
68.42200,-2.726464384
68.42250,-6.999186092
68.42300,-11.2719078
68.42350,-12.49268543
68.42400,-12.18749102
68.42450,-10.96671339
68.42500,-8.219963722
68.42550,-3.336853199
68.42600,0.3254796932
68.42650,2.461840547
68.42700,4.598201401
68.42750,8.870923109
68.42800,11.31247837
68.42850,9.176117517
68.42900,5.513784624
68.42950,3.987812586
68.43000,4.293006993
68.43050,4.293006993
68.43100,3.987812586
68.43150,6.734562255
68.43200,9.786506332
68.43250,8.870923109
68.43300,4.903395809
68.43350,2.767034955
68.43400,3.37742377
68.43450,2.767034955
68.43500,-0.5901035299
68.43550,-4.862825238
68.43600,-6.388797276
68.43650,-6.999186092
68.43700,-8.52515813
68.43750,-10.05113017
68.43800,-9.745935761
68.43850,-7.304380499
68.43900,-3.947242015
68.43950,0.02028528547
68.44000,1.546257324
68.44050,0.02028528547
68.44100,-1.200492345
68.44150,2.461840547
68.44200,11.00728396
68.44250,16.80597771
68.44300,15.28000567
68.44350,11.61767278
68.44400,12.22806159
68.44450,15.89039449
68.44500,15.58520008
68.44550,9.786506332
68.44600,3.987812586
68.44650,3.37742377
68.44700,6.124173439
68.44750,8.260534293
68.44800,8.870923109
68.44850,9.176117517
68.44900,9.481311924
68.44950,9.481311924
68.45000,8.565728701
68.45050,7.650145478
68.45100,6.429367847
68.45150,4.293006993
68.45200,1.241062916
68.45250,-1.200492345
68.45300,-1.810881161
68.45350,-0.8952979376
68.45400,-0.5901035299
68.45450,-0.5901035299
68.45500,-0.5901035299
68.45550,-0.2849091222
68.45600,-0.5901035299
68.45650,-1.505686753
68.45700,-2.726464384
68.45750,-3.642047607
68.45800,-5.473214053
68.45850,-7.914769315
68.45900,-9.745935761
68.45950,-9.440741353
68.46000,-7.914769315
68.46050,-6.083602869
68.46100,-4.252436422
68.46150,-2.421269976
68.46200,-1.810881161
68.46250,-3.031658792
68.46300,-4.55763083
68.46350,-3.642047607
68.46400,-1.505686753
68.46450,-1.200492345
68.46500,-2.421269976
68.46550,-2.726464384
68.46600,-1.200492345
68.46650,0.02028528547
68.46700,-0.2849091222
68.46750,-0.2849091222
68.46800,1.241062916
68.46850,2.461840547
68.46900,1.546257324
68.46950,0.02028528547
68.47000,0.6306741009
68.47050,2.156646139
68.47100,2.461840547
68.47150,0.3254796932
68.47200,-2.726464384
68.47250,-4.862825238
68.47300,-5.778408461
68.47350,-6.083602869
68.47400,-6.388797276
68.47450,-6.999186092
68.47500,-7.304380499
68.47550,-6.999186092
68.47600,-5.778408461
68.47650,-3.642047607
68.47700,-1.505686753
68.47750,-0.2849091222
68.47800,0.6306741009
68.47850,1.241062916
68.47900,0.9358685086
68.47950,0.02028528547
68.48000,-1.200492345
68.48050,-1.200492345
68.48100,0.02028528547
68.48150,0.9358685086
68.48200,0.6306741009
68.48250,-0.2849091222
68.48300,-0.5901035299
68.48350,0.9358685086
68.48400,3.072229362
68.48450,3.987812586
68.48500,3.987812586
68.48550,3.987812586
68.48600,4.598201401
68.48650,2.767034955
68.48700,-1.505686753
68.48750,-5.778408461
68.48800,-6.083602869
68.48850,-2.726464384
68.48900,1.241062916
68.48950,3.072229362
68.49000,3.37742377
68.49050,2.461840547
68.49100,1.546257324
68.49150,0.02028528547
68.49200,-2.116075568
68.49250,-2.726464384
68.49300,-1.505686753
68.49350,0.6306741009
68.49400,1.851451732
68.49450,0.3254796932
68.49500,-1.810881161
68.49550,-2.421269976
68.49600,-0.8952979376
68.49650,1.851451732
68.49700,3.987812586
68.49750,5.208590216
68.49800,5.208590216
68.49850,3.072229362
68.49900,0.9358685086
68.49950,-0.2849091222
68.50000,-0.2849091222
68.50050,-0.2849091222
68.50100,-0.5901035299
68.50150,0.02028528547
68.50200,0.02028528547
68.50250,-2.421269976
68.50300,-6.693991684
68.50350,-10.05113017
68.50400,-10.05113017
68.50450,-8.52515813
68.50500,-7.609574907
68.50550,-6.388797276
68.50600,-3.642047607
68.50650,-0.8952979376
68.50700,-0.2849091222
68.50750,-0.2849091222
68.50800,0.3254796932
68.50850,1.851451732
68.50900,0.9358685086
68.50950,-2.116075568
68.51000,-5.168019645
68.51050,-6.083602869
68.51100,-5.168019645
68.51150,-5.168019645
68.51200,-6.388797276
68.51250,-6.388797276
68.51300,-3.031658792
68.51350,1.241062916
68.51400,3.682618178
68.51450,3.072229362
68.51500,3.072229362
68.51550,4.293006993
68.51600,2.156646139
68.51650,-5.168019645
68.51700,-14.01865747
68.51750,-17.98618477
68.51800,-17.68099036
68.51850,-17.68099036
68.51900,-18.29137918
68.51950,-15.2394351
68.52000,-8.52515813
68.52050,-3.642047607
68.52100,-2.116075568
68.52150,0.6306741009
68.52200,6.124173439
68.52250,9.786506332
68.52300,10.09170074
68.52350,12.22806159
68.52400,19.24753297
68.52450,25.65661553
68.52500,25.96180994
68.52550,21.99428264
68.52600,19.24753297
68.52650,16.80597771
68.52700,11.31247837
68.52750,3.987812586
68.52800,-0.5901035299
68.52850,-2.726464384
68.52900,-5.168019645
68.52950,-6.693991684
68.53000,-3.031658792
68.53050,3.37742377
68.53100,6.734562255
68.53150,3.682618178
68.53200,-1.200492345
68.53250,-4.252436422
68.53300,-5.168019645
68.53350,-5.168019645
68.53400,-4.862825238
68.53450,-4.55763083
68.53500,-3.642047607
68.53550,-1.200492345
68.53600,1.851451732
68.53650,3.987812586
68.53700,3.37742377
68.53750,2.767034955
68.53800,4.598201401
68.53850,6.734562255
68.53900,6.124173439
68.53950,3.37742377
68.54000,1.546257324
68.54050,1.241062916
68.54100,1.546257324
68.54150,1.546257324
68.54200,1.241062916
68.54250,-0.8952979376
68.54300,-3.947242015
68.54350,-4.862825238
68.54400,-2.726464384
68.54450,-1.505686753
68.54500,-3.642047607
68.54550,-4.862825238
68.54600,-3.031658792
68.54650,-0.8952979376
68.54700,-1.200492345
68.54750,-2.726464384
68.54800,-1.810881161
68.54850,0.02028528547
68.54900,0.6306741009
68.54950,0.02028528547
68.55000,0.02028528547
68.55050,0.6306741009
68.55100,0.6306741009
68.55150,1.241062916
68.55200,1.851451732
68.55250,0.3254796932
68.55300,-3.642047607
68.55350,-5.473214053
68.55400,-0.8952979376
68.55450,5.513784624
68.55500,8.260534293
68.55550,6.429367847
68.55600,4.293006993
68.55650,2.767034955
68.55700,0.02028528547
68.55750,-2.116075568
68.55800,-0.5901035299
68.55850,1.851451732
68.55900,1.241062916
68.55950,-1.810881161
68.56000,-2.726464384
68.56050,-1.200492345
68.56100,-0.5901035299
68.56150,-1.810881161
68.56200,-1.810881161
68.56250,0.02028528547
68.56300,0.02028528547
68.56350,-2.421269976
68.56400,-3.031658792
68.56450,-0.5901035299
68.56500,1.546257324
68.56550,1.546257324
68.56600,0.9358685086
68.56650,1.851451732
68.56700,3.682618178
68.56750,4.598201401
68.56800,5.513784624
68.56850,6.734562255
68.56900,7.34495107
68.56950,6.429367847
68.57000,5.818979032
68.57050,5.818979032
68.57100,4.903395809
68.57150,1.241062916
68.57200,-2.421269976
68.57250,-3.947242015
68.57300,-3.031658792
68.57350,-1.810881161
68.57400,-1.810881161
68.57450,-2.421269976
68.57500,-3.031658792
68.57550,-3.031658792
68.57600,-1.810881161
68.57650,0.02028528547
68.57700,1.241062916
68.57750,0.02028528547
68.57800,-1.810881161
68.57850,-1.810881161
68.57900,-0.2849091222
68.57950,0.02028528547
68.58000,-1.505686753
68.58050,-1.810881161
68.58100,0.02028528547
68.58150,1.546257324
68.58200,1.546257324
68.58250,1.241062916
68.58300,2.461840547
68.58350,4.903395809
68.58400,5.513784624
68.58450,4.598201401
68.58500,3.987812586
68.58550,5.208590216
68.58600,6.734562255
68.58650,7.039756663
68.58700,5.818979032
68.58750,4.598201401
68.58800,4.598201401
68.58850,6.124173439
68.58900,8.260534293
68.58950,8.870923109
68.59000,6.734562255
68.59050,3.682618178
68.59100,2.461840547
68.59150,1.851451732
68.59200,-0.2849091222
68.59250,-5.473214053
68.59300,-9.440741353
68.59350,-10.35632458
68.59400,-10.66151898
68.59450,-12.49268543
68.59500,-14.93424069
68.59550,-14.62904628
68.59600,-12.79787984
68.59650,-10.05113017
68.59700,-5.778408461
68.59750,0.02028528547
68.59800,4.903395809
68.59850,6.429367847
68.59900,7.650145478
68.59950,14.05922804
68.60000,23.21506027
68.60050,26.87739316
68.60100,22.60467146
68.60150,16.19558889
68.60200,12.533256
68.60250,10.09170074
68.60300,6.124173439
68.60350,1.241062916
68.60400,-1.200492345
68.60450,-2.726464384
68.60500,-3.947242015
68.60550,-4.862825238
68.60600,-3.947242015
68.60650,-3.336853199
68.60700,-4.55763083
68.60750,-5.473214053
68.60800,-3.336853199
68.60850,-0.2849091222
68.60900,0.02028528547
68.60950,-1.200492345
68.61000,-0.5901035299
68.61050,1.241062916
68.61100,1.241062916
68.61150,-1.810881161
68.61200,-5.168019645
68.61250,-5.778408461
68.61300,-5.168019645
68.61350,-5.473214053
68.61400,-5.778408461
68.61450,-4.55763083
68.61500,-1.810881161
68.61550,-0.2849091222
68.61600,-0.5901035299
68.61650,-1.810881161
68.61700,-2.726464384
68.61750,-3.031658792
68.61800,-3.947242015
68.61850,-5.778408461
68.61900,-6.388797276
68.61950,-5.168019645
68.62000,-3.642047607
68.62050,-4.55763083
68.62100,-6.693991684
68.62150,-6.999186092
68.62200,-5.168019645
68.62250,-3.642047607
68.62300,-3.642047607
68.62350,-3.336853199
68.62400,-2.421269976
68.62450,-1.810881161
68.62500,-2.421269976
68.62550,-3.031658792
68.62600,-2.726464384
68.62650,-3.642047607
68.62700,-4.55763083
68.62750,-3.031658792
68.62800,1.546257324
68.62850,7.039756663
68.62900,11.31247837
68.62950,14.97481126
68.63000,17.11117212
68.63050,14.66961686
68.63100,7.650145478
68.63150,1.546257324
68.63200,0.3254796932
68.63250,1.241062916
68.63300,-0.2849091222
68.63350,-3.336853199
68.63400,-3.947242015
68.63450,-2.116075568
68.63500,-1.200492345
68.63550,-3.336853199
68.63600,-5.778408461
68.63650,-6.388797276
68.63700,-4.55763083
68.63750,-2.116075568
68.63800,-0.8952979376
68.63850,-1.810881161
68.63900,-4.55763083
68.63950,-5.778408461
68.64000,-4.55763083
68.64050,-2.726464384
68.64100,-2.726464384
68.64150,-3.336853199
68.64200,-2.421269976
68.64250,-1.505686753
68.64300,-2.726464384
68.64350,-5.473214053
68.64400,-6.388797276
68.64450,-5.168019645
68.64500,-3.947242015
68.64550,-3.642047607
68.64600,-3.642047607
68.64650,-3.031658792
68.64700,-2.421269976
68.64750,-1.810881161
68.64800,-1.200492345
68.64850,-0.8952979376
68.64900,-1.810881161
68.64950,-3.336853199
68.65000,-5.168019645
68.65050,-5.778408461
68.65100,-4.55763083
68.65150,-3.336853199
68.65200,-3.642047607
68.65250,-6.388797276
68.65300,-9.135546946
68.65350,-8.52515813
68.65400,-5.778408461
68.65450,-4.55763083
68.65500,-4.862825238
68.65550,-5.168019645
68.65600,-4.252436422
68.65650,-4.55763083
68.65700,-5.778408461
68.65750,-5.778408461
68.65800,-2.726464384
68.65850,0.02028528547
68.65900,0.02028528547
68.65950,-0.8952979376
68.66000,-1.505686753
68.66050,-1.200492345
68.66100,-2.116075568
68.66150,-3.336853199
68.66200,-2.726464384
68.66250,-0.8952979376
68.66300,0.02028528547
68.66350,0.3254796932
68.66400,0.9358685086
68.66450,0.9358685086
68.66500,0.02028528547
68.66550,-0.8952979376
68.66600,-0.2849091222
68.66650,0.6306741009
68.66700,0.9358685086
68.66750,1.241062916
68.66800,3.682618178
68.66850,7.34495107
68.66900,8.870923109
68.66950,8.870923109
68.67000,9.176117517
68.67050,10.70208956
68.67100,11.31247837
68.67150,9.176117517
68.67200,5.208590216
68.67250,1.851451732
68.67300,0.3254796932
68.67350,0.6306741009
68.67400,1.546257324
68.67450,2.461840547
68.67500,2.156646139
68.67550,1.851451732
68.67600,1.851451732
68.67650,0.6306741009
68.67700,-2.116075568
68.67750,-6.388797276
68.67800,-9.135546946
68.67850,-9.135546946
68.67900,-9.440741353
68.67950,-11.2719078
68.68000,-13.10307425
68.68050,-13.40826865
68.68100,-11.2719078
68.68150,-6.999186092
68.68200,-1.200492345
68.68250,2.767034955
68.68300,4.293006993
68.68350,4.903395809
68.68400,9.176117517
68.68450,17.11117212
68.68500,24.74103231
68.68550,26.57219876
68.68600,23.82544909
68.68650,19.55272738
68.68700,15.58520008
68.68750,12.22806159
68.68800,10.70208956
68.68850,10.70208956
68.68900,10.09170074
68.68950,6.734562255
68.69000,2.461840547
68.69050,1.851451732
68.69100,3.987812586
68.69150,4.293006993
68.69200,1.546257324
68.69250,-0.2849091222
68.69300,2.156646139
68.69350,5.513784624
68.69400,3.682618178
68.69450,-2.116075568
68.69500,-6.083602869
68.69550,-4.862825238
68.69600,-2.116075568
68.69650,-3.031658792
68.69700,-5.168019645
68.69750,-3.642047607
68.69800,0.6306741009
68.69850,3.987812586
68.69900,3.37742377
68.69950,2.156646139
68.70000,3.682618178
68.70050,6.734562255
68.70100,7.34495107
68.70150,3.987812586
68.70200,0.02028528547
68.70250,-1.200492345
68.70300,-0.5901035299
68.70350,0.02028528547
68.70400,-0.8952979376
68.70450,-2.421269976
68.70500,-3.031658792
68.70550,-2.726464384
68.70600,-2.421269976
68.70650,-2.421269976
68.70700,-1.505686753
68.70750,-0.2849091222
68.70800,0.6306741009
68.70850,0.9358685086
68.70900,0.3254796932
68.70950,0.02028528547
68.71000,-0.5901035299
68.71050,-0.5901035299
68.71100,-0.2849091222
68.71150,0.02028528547
68.71200,-0.2849091222
68.71250,-0.5901035299
68.71300,-0.2849091222
68.71350,0.3254796932
68.71400,0.02028528547
68.71450,-0.2849091222
68.71500,-0.2849091222
68.71550,0.3254796932
68.71600,0.9358685086
68.71650,-0.5901035299
68.71700,-2.726464384
68.71750,-3.642047607
68.71800,-3.642047607
68.71850,-3.947242015
68.71900,-3.947242015
68.71950,-2.116075568
68.72000,0.3254796932
68.72050,0.9358685086
68.72100,-0.2849091222
68.72150,-1.200492345
68.72200,-0.2849091222
68.72250,0.3254796932
68.72300,-0.2849091222
68.72350,-1.200492345
68.72400,-1.200492345
68.72450,-1.200492345
68.72500,-3.642047607
68.72550,-7.609574907
68.72600,-10.96671339
68.72650,-13.40826865
68.72700,-15.54462951
68.72750,-16.15501832
68.72800,-13.71346306
68.72850,-9.440741353
68.72900,-5.473214053
68.72950,-2.116075568
68.73000,0.6306741009
68.73050,2.767034955
68.73100,3.682618178
68.73150,3.37742377
68.73200,3.987812586
68.73250,4.598201401
68.73300,3.072229362
68.73350,0.3254796932
68.73400,0.3254796932
68.73450,3.987812586
68.73500,7.34495107
68.73550,5.818979032
68.73600,1.546257324
68.73650,0.02028528547
68.73700,0.6306741009
68.73750,1.241062916
68.73800,0.02028528547
68.73850,-0.5901035299
68.73900,0.02028528547
68.73950,1.241062916
68.74000,0.6306741009
68.74050,0.3254796932
68.74100,2.156646139
68.74150,4.903395809
68.74200,6.124173439
