"type","name","time_units","begin_time","frequency","count","units"
"signal","Ultium EMG-FLEX.CARP.R RT","s",516.98000,2000,22000,"uV"

"time","value"
516.98000,2.139716315
516.98050,3.970882761
516.98100,4.276077169
516.98150,3.360493945
516.98200,2.139716315
516.98250,1.529327499
516.98300,0.6137442762
516.98350,-0.6070333546
516.98400,-1.21742217
516.98450,-0.3018389469
516.98500,0.9189386839
516.98550,1.224133092
516.98600,0.3085498685
516.98650,-0.6070333546
516.98700,-1.522616578
516.98750,-1.21742217
516.98800,-0.3018389469
516.98850,0.3085498685
516.98900,0.9189386839
516.98950,0.3085498685
516.99000,-1.21742217
516.99050,-2.438199801
516.99100,-1.522616578
516.99150,-0.3018389469
516.99200,-0.6070333546
516.99250,-2.743394209
516.99300,-3.658977432
516.99350,-1.827810985
516.99400,0.003355460754
516.99450,0.3085498685
516.99500,-0.6070333546
516.99550,-0.6070333546
516.99600,0.9189386839
516.99650,3.055299538
516.99700,3.665688353
516.99750,3.360493945
516.99800,3.665688353
516.99850,3.970882761
516.99900,3.360493945
516.99950,1.529327499
517.00000,0.6137442762
517.00050,0.6137442762
517.00100,1.224133092
517.00150,0.3085498685
517.00200,-0.9122277624
517.00250,-1.21742217
517.00300,-0.6070333546
517.00350,-1.21742217
517.00400,-2.438199801
517.00450,-3.048588616
517.00500,-1.827810985
517.00550,-0.6070333546
517.00600,-0.9122277624
517.00650,-1.21742217
517.00700,-0.9122277624
517.00750,-0.9122277624
517.00800,-2.133005393
517.00850,-3.048588616
517.00900,-2.133005393
517.00950,-0.6070333546
517.01000,-0.9122277624
517.01050,-2.133005393
517.01100,-1.827810985
517.01150,0.003355460754
517.01200,0.9189386839
517.01250,0.3085498685
517.01300,-0.6070333546
517.01350,-0.9122277624
517.01400,-1.21742217
517.01450,-1.522616578
517.01500,-1.827810985
517.01550,-1.827810985
517.01600,-2.743394209
517.01650,-3.353783024
517.01700,-2.743394209
517.01750,-0.9122277624
517.01800,0.003355460754
517.01850,0.003355460754
517.01900,-0.9122277624
517.01950,-3.048588616
517.02000,-4.879755062
517.02050,-4.269366247
517.02100,-1.522616578
517.02150,0.9189386839
517.02200,1.834521907
517.02250,1.224133092
517.02300,1.529327499
517.02350,2.75010513
517.02400,3.665688353
517.02450,3.055299538
517.02500,2.444910722
517.02550,1.224133092
517.02600,0.003355460754
517.02650,-0.6070333546
517.02700,0.003355460754
517.02750,1.224133092
517.02800,1.529327499
517.02850,0.3085498685
517.02900,-1.21742217
517.02950,-1.827810985
517.03000,-1.21742217
517.03050,0.003355460754
517.03100,0.9189386839
517.03150,0.9189386839
517.03200,0.6137442762
517.03250,1.224133092
517.03300,2.444910722
517.03350,2.75010513
517.03400,1.224133092
517.03450,0.003355460754
517.03500,0.6137442762
517.03550,2.444910722
517.03600,2.139716315
517.03650,0.3085498685
517.03700,-0.6070333546
517.03750,0.003355460754
517.03800,0.9189386839
517.03850,1.529327499
517.03900,1.529327499
517.03950,0.9189386839
517.04000,-0.6070333546
517.04050,-1.522616578
517.04100,0.003355460754
517.04150,2.75010513
517.04200,2.75010513
517.04250,-0.3018389469
517.04300,-3.964171839
517.04350,-4.879755062
517.04400,-3.048588616
517.04450,-0.6070333546
517.04500,0.9189386839
517.04550,0.9189386839
517.04600,-0.6070333546
517.04650,-2.133005393
517.04700,-1.522616578
517.04750,0.003355460754
517.04800,0.003355460754
517.04850,-1.522616578
517.04900,-2.133005393
517.04950,0.003355460754
517.05000,1.529327499
517.05050,0.3085498685
517.05100,-1.21742217
517.05150,-1.522616578
517.05200,0.003355460754
517.05250,0.6137442762
517.05300,0.3085498685
517.05350,0.003355460754
517.05400,-0.6070333546
517.05450,-1.827810985
517.05500,-2.438199801
517.05550,-0.9122277624
517.05600,1.224133092
517.05650,1.834521907
517.05700,0.3085498685
517.05750,-0.3018389469
517.05800,0.3085498685
517.05850,1.224133092
517.05900,1.224133092
517.05950,1.224133092
517.06000,1.834521907
517.06050,2.139716315
517.06100,0.6137442762
517.06150,-0.6070333546
517.06200,-0.6070333546
517.06250,0.3085498685
517.06300,0.6137442762
517.06350,-0.3018389469
517.06400,-2.133005393
517.06450,-3.048588616
517.06500,-1.827810985
517.06550,0.3085498685
517.06600,1.224133092
517.06650,0.003355460754
517.06700,-3.353783024
517.06750,-5.490143878
517.06800,-4.574560655
517.06850,-1.522616578
517.06900,0.9189386839
517.06950,2.139716315
517.07000,1.529327499
517.07050,0.9189386839
517.07100,0.3085498685
517.07150,0.3085498685
517.07200,-0.6070333546
517.07250,-2.133005393
517.07300,-2.743394209
517.07350,-1.21742217
517.07400,0.3085498685
517.07450,1.529327499
517.07500,1.834521907
517.07550,1.529327499
517.07600,1.224133092
517.07650,0.9189386839
517.07700,1.529327499
517.07750,1.834521907
517.07800,1.529327499
517.07850,0.003355460754
517.07900,-0.9122277624
517.07950,-0.6070333546
517.08000,-0.3018389469
517.08050,-0.3018389469
517.08100,-0.6070333546
517.08150,-0.3018389469
517.08200,0.3085498685
517.08250,2.139716315
517.08300,3.665688353
517.08350,4.276077169
517.08400,2.75010513
517.08450,0.6137442762
517.08500,-0.6070333546
517.08550,-1.522616578
517.08600,-3.048588616
517.08650,-4.269366247
517.08700,-3.353783024
517.08750,-1.21742217
517.08800,-0.3018389469
517.08850,-0.9122277624
517.08900,-0.9122277624
517.08950,0.3085498685
517.09000,0.9189386839
517.09050,-0.6070333546
517.09100,-2.438199801
517.09150,-1.827810985
517.09200,0.003355460754
517.09250,0.6137442762
517.09300,0.9189386839
517.09350,0.9189386839
517.09400,1.834521907
517.09450,1.834521907
517.09500,1.529327499
517.09550,0.6137442762
517.09600,0.003355460754
517.09650,-0.3018389469
517.09700,-0.3018389469
517.09750,0.003355460754
517.09800,0.3085498685
517.09850,0.6137442762
517.09900,0.3085498685
517.09950,-0.3018389469
517.10000,-0.6070333546
517.10050,0.003355460754
517.10100,0.9189386839
517.10150,1.224133092
517.10200,0.3085498685
517.10250,-0.3018389469
517.10300,-0.9122277624
517.10350,-1.522616578
517.10400,-1.827810985
517.10450,-0.6070333546
517.10500,0.9189386839
517.10550,1.224133092
517.10600,-0.6070333546
517.10650,-2.133005393
517.10700,-1.522616578
517.10750,0.003355460754
517.10800,0.3085498685
517.10850,0.003355460754
517.10900,-0.3018389469
517.10950,-0.9122277624
517.11000,-1.827810985
517.11050,-2.743394209
517.11100,-2.438199801
517.11150,-2.133005393
517.11200,-2.743394209
517.11250,-3.048588616
517.11300,-2.133005393
517.11350,-0.9122277624
517.11400,-0.3018389469
517.11450,0.003355460754
517.11500,1.224133092
517.11550,2.75010513
517.11600,2.75010513
517.11650,1.529327499
517.11700,0.3085498685
517.11750,0.6137442762
517.11800,1.834521907
517.11850,3.970882761
517.11900,6.107243615
517.11950,6.71763243
517.12000,5.496854799
517.12050,4.276077169
517.12100,4.276077169
517.12150,4.581271576
517.12200,4.886465984
517.12250,5.191660392
517.12300,5.191660392
517.12350,4.276077169
517.12400,1.834521907
517.12450,-1.21742217
517.12500,-2.438199801
517.12550,-0.9122277624
517.12600,0.9189386839
517.12650,1.834521907
517.12700,0.3085498685
517.12750,-1.522616578
517.12800,-2.743394209
517.12850,-2.743394209
517.12900,-2.133005393
517.12950,-1.522616578
517.13000,-0.9122277624
517.13050,-1.21742217
517.13100,-3.353783024
517.13150,-5.795338286
517.13200,-5.490143878
517.13250,-1.827810985
517.13300,0.9189386839
517.13350,0.6137442762
517.13400,-0.6070333546
517.13450,-0.3018389469
517.13500,0.9189386839
517.13550,0.9189386839
517.13600,-0.3018389469
517.13650,0.003355460754
517.13700,2.444910722
517.13750,3.360493945
517.13800,1.224133092
517.13850,-0.6070333546
517.13900,-0.3018389469
517.13950,1.529327499
517.14000,2.75010513
517.14050,3.055299538
517.14100,1.834521907
517.14150,0.003355460754
517.14200,0.003355460754
517.14250,0.9189386839
517.14300,1.529327499
517.14350,0.003355460754
517.14400,-2.133005393
517.14450,-2.438199801
517.14500,-0.9122277624
517.14550,-0.3018389469
517.14600,-2.133005393
517.14650,-3.964171839
517.14700,-4.269366247
517.14750,-4.879755062
517.14800,-6.710921509
517.14850,-8.236893547
517.14900,-6.710921509
517.14950,-2.743394209
517.15000,0.6137442762
517.15050,1.834521907
517.15100,0.9189386839
517.15150,0.003355460754
517.15200,0.6137442762
517.15250,2.75010513
517.15300,3.665688353
517.15350,2.139716315
517.15400,0.003355460754
517.15450,-0.3018389469
517.15500,0.9189386839
517.15550,2.444910722
517.15600,3.360493945
517.15650,3.360493945
517.15700,2.139716315
517.15750,-0.3018389469
517.15800,-3.658977432
517.15850,-4.574560655
517.15900,-2.438199801
517.15950,0.003355460754
517.16000,-0.3018389469
517.16050,-2.133005393
517.16100,-1.522616578
517.16150,1.224133092
517.16200,3.665688353
517.16250,3.360493945
517.16300,1.529327499
517.16350,0.003355460754
517.16400,0.003355460754
517.16450,1.834521907
517.16500,3.360493945
517.16550,3.360493945
517.16600,0.9189386839
517.16650,-1.827810985
517.16700,-3.048588616
517.16750,-1.522616578
517.16800,0.3085498685
517.16850,0.3085498685
517.16900,-0.6070333546
517.16950,-1.522616578
517.17000,-1.522616578
517.17050,-1.21742217
517.17100,-1.522616578
517.17150,-1.21742217
517.17200,0.003355460754
517.17250,2.139716315
517.17300,3.665688353
517.17350,3.970882761
517.17400,3.360493945
517.17450,2.75010513
517.17500,2.444910722
517.17550,2.139716315
517.17600,1.834521907
517.17650,1.834521907
517.17700,2.139716315
517.17750,1.529327499
517.17800,0.003355460754
517.17850,-1.522616578
517.17900,-0.9122277624
517.17950,0.3085498685
517.18000,0.9189386839
517.18050,0.6137442762
517.18100,0.6137442762
517.18150,2.139716315
517.18200,3.360493945
517.18250,3.360493945
517.18300,3.055299538
517.18350,3.055299538
517.18400,2.444910722
517.18450,1.224133092
517.18500,0.003355460754
517.18550,-0.3018389469
517.18600,-0.9122277624
517.18650,-1.827810985
517.18700,-2.133005393
517.18750,-1.21742217
517.18800,-0.3018389469
517.18850,-0.9122277624
517.18900,-2.133005393
517.18950,-3.353783024
517.19000,-3.658977432
517.19050,-3.964171839
517.19100,-3.964171839
517.19150,-3.964171839
517.19200,-3.353783024
517.19250,-2.438199801
517.19300,-2.133005393
517.19350,-2.133005393
517.19400,-2.438199801
517.19450,-2.438199801
517.19500,-1.522616578
517.19550,0.3085498685
517.19600,1.834521907
517.19650,1.529327499
517.19700,0.003355460754
517.19750,-1.522616578
517.19800,-0.9122277624
517.19850,0.9189386839
517.19900,2.75010513
517.19950,2.75010513
517.20000,2.139716315
517.20050,2.139716315
517.20100,2.139716315
517.20150,0.6137442762
517.20200,-0.6070333546
517.20250,0.003355460754
517.20300,2.75010513
517.20350,3.665688353
517.20400,1.224133092
517.20450,-1.522616578
517.20500,-2.133005393
517.20550,-1.21742217
517.20600,-1.522616578
517.20650,-1.827810985
517.20700,-1.522616578
517.20750,-1.21742217
517.20800,-2.438199801
517.20850,-3.353783024
517.20900,-1.827810985
517.20950,0.6137442762
517.21000,1.529327499
517.21050,-0.3018389469
517.21100,-3.048588616
517.21150,-3.658977432
517.21200,-2.743394209
517.21250,-1.21742217
517.21300,-0.3018389469
517.21350,-0.6070333546
517.21400,-1.522616578
517.21450,-1.21742217
517.21500,0.003355460754
517.21550,1.224133092
517.21600,1.529327499
517.21650,0.3085498685
517.21700,0.003355460754
517.21750,0.003355460754
517.21800,1.529327499
517.21850,2.444910722
517.21900,2.75010513
517.21950,2.444910722
517.22000,1.834521907
517.22050,2.139716315
517.22100,2.444910722
517.22150,2.444910722
517.22200,1.224133092
517.22250,0.3085498685
517.22300,0.003355460754
517.22350,0.003355460754
517.22400,-0.9122277624
517.22450,-1.827810985
517.22500,-1.522616578
517.22550,-0.6070333546
517.22600,-0.6070333546
517.22650,-0.9122277624
517.22700,-0.3018389469
517.22750,0.3085498685
517.22800,0.6137442762
517.22850,0.3085498685
517.22900,0.003355460754
517.22950,0.003355460754
517.23000,0.6137442762
517.23050,1.529327499
517.23100,2.139716315
517.23150,0.9189386839
517.23200,-0.9122277624
517.23250,-1.827810985
517.23300,-0.9122277624
517.23350,0.3085498685
517.23400,0.9189386839
517.23450,0.6137442762
517.23500,1.224133092
517.23550,2.139716315
517.23600,2.75010513
517.23650,2.139716315
517.23700,1.529327499
517.23750,1.529327499
517.23800,1.224133092
517.23850,0.6137442762
517.23900,0.003355460754
517.23950,0.003355460754
517.24000,1.224133092
517.24050,2.139716315
517.24100,2.139716315
517.24150,1.224133092
517.24200,0.3085498685
517.24250,0.003355460754
517.24300,-1.21742217
517.24350,-2.743394209
517.24400,-3.048588616
517.24450,-1.522616578
517.24500,0.003355460754
517.24550,-0.6070333546
517.24600,-2.743394209
517.24650,-3.964171839
517.24700,-3.048588616
517.24750,-1.827810985
517.24800,-2.438199801
517.24850,-3.658977432
517.24900,-4.269366247
517.24950,-3.353783024
517.25000,-2.133005393
517.25050,-1.21742217
517.25100,-1.21742217
517.25150,-1.827810985
517.25200,-1.827810985
517.25250,-0.6070333546
517.25300,1.224133092
517.25350,2.444910722
517.25400,2.444910722
517.25450,2.444910722
517.25500,2.444910722
517.25550,1.224133092
517.25600,-0.6070333546
517.25650,-2.133005393
517.25700,-0.6070333546
517.25750,1.834521907
517.25800,3.360493945
517.25850,3.055299538
517.25900,3.055299538
517.25950,4.276077169
517.26000,4.276077169
517.26050,1.834521907
517.26100,-0.3018389469
517.26150,-0.3018389469
517.26200,0.9189386839
517.26250,2.139716315
517.26300,1.834521907
517.26350,0.6137442762
517.26400,-0.9122277624
517.26450,-2.743394209
517.26500,-3.658977432
517.26550,-3.353783024
517.26600,-2.438199801
517.26650,-3.048588616
517.26700,-4.574560655
517.26750,-4.574560655
517.26800,-2.743394209
517.26850,-0.9122277624
517.26900,-0.6070333546
517.26950,-0.9122277624
517.27000,-0.6070333546
517.27050,0.3085498685
517.27100,0.9189386839
517.27150,0.9189386839
517.27200,0.6137442762
517.27250,0.3085498685
517.27300,0.003355460754
517.27350,0.6137442762
517.27400,0.9189386839
517.27450,0.3085498685
517.27500,-0.6070333546
517.27550,-0.9122277624
517.27600,0.003355460754
517.27650,0.3085498685
517.27700,0.003355460754
517.27750,-0.3018389469
517.27800,0.3085498685
517.27850,1.529327499
517.27900,1.224133092
517.27950,0.003355460754
517.28000,0.003355460754
517.28050,0.3085498685
517.28100,1.224133092
517.28150,0.9189386839
517.28200,0.3085498685
517.28250,0.3085498685
517.28300,0.3085498685
517.28350,0.003355460754
517.28400,0.003355460754
517.28450,0.6137442762
517.28500,1.529327499
517.28550,1.224133092
517.28600,0.003355460754
517.28650,-1.21742217
517.28700,-0.6070333546
517.28750,0.003355460754
517.28800,-0.3018389469
517.28850,-1.522616578
517.28900,-2.133005393
517.28950,-1.21742217
517.29000,-0.9122277624
517.29050,-0.9122277624
517.29100,-1.21742217
517.29150,-1.21742217
517.29200,-1.522616578
517.29250,-1.827810985
517.29300,-0.9122277624
517.29350,0.3085498685
517.29400,0.9189386839
517.29450,0.003355460754
517.29500,-0.6070333546
517.29550,0.003355460754
517.29600,0.6137442762
517.29650,0.9189386839
517.29700,0.6137442762
517.29750,0.6137442762
517.29800,0.6137442762
517.29850,0.6137442762
517.29900,0.9189386839
517.29950,1.224133092
517.30000,1.529327499
517.30050,1.834521907
517.30100,1.834521907
517.30150,0.9189386839
517.30200,-0.3018389469
517.30250,-1.522616578
517.30300,-0.3018389469
517.30350,2.139716315
517.30400,3.665688353
517.30450,3.055299538
517.30500,1.834521907
517.30550,1.529327499
517.30600,1.224133092
517.30650,0.003355460754
517.30700,-1.522616578
517.30750,-1.827810985
517.30800,-1.522616578
517.30850,-2.438199801
517.30900,-3.048588616
517.30950,-2.743394209
517.31000,-0.9122277624
517.31050,0.3085498685
517.31100,0.9189386839
517.31150,0.6137442762
517.31200,0.003355460754
517.31250,-0.6070333546
517.31300,-1.522616578
517.31350,-1.827810985
517.31400,-0.9122277624
517.31450,0.9189386839
517.31500,3.970882761
517.31550,5.496854799
517.31600,4.276077169
517.31650,1.529327499
517.31700,0.003355460754
517.31750,0.3085498685
517.31800,1.224133092
517.31850,0.9189386839
517.31900,0.003355460754
517.31950,0.003355460754
517.32000,0.3085498685
517.32050,0.003355460754
517.32100,-0.6070333546
517.32150,-0.3018389469
517.32200,0.9189386839
517.32250,1.224133092
517.32300,0.003355460754
517.32350,-1.827810985
517.32400,-0.6070333546
517.32450,0.9189386839
517.32500,0.003355460754
517.32550,-3.964171839
517.32600,-7.321310324
517.32650,-6.405727101
517.32700,-3.048588616
517.32750,-1.522616578
517.32800,-2.438199801
517.32850,-3.964171839
517.32900,-3.964171839
517.32950,-2.438199801
517.33000,-1.522616578
517.33050,-0.9122277624
517.33100,0.003355460754
517.33150,1.529327499
517.33200,2.444910722
517.33250,0.9189386839
517.33300,-1.21742217
517.33350,-1.827810985
517.33400,-0.3018389469
517.33450,0.9189386839
517.33500,0.6137442762
517.33550,0.003355460754
517.33600,1.224133092
517.33650,3.055299538
517.33700,3.360493945
517.33750,1.529327499
517.33800,0.6137442762
517.33850,1.529327499
517.33900,2.139716315
517.33950,1.529327499
517.34000,0.3085498685
517.34050,0.6137442762
517.34100,1.529327499
517.34150,1.529327499
517.34200,1.224133092
517.34250,1.529327499
517.34300,2.75010513
517.34350,3.055299538
517.34400,2.444910722
517.34450,1.529327499
517.34500,0.9189386839
517.34550,0.6137442762
517.34600,-0.3018389469
517.34650,-2.743394209
517.34700,-5.490143878
517.34750,-6.100532693
517.34800,-3.964171839
517.34850,-1.522616578
517.34900,-0.9122277624
517.34950,-1.827810985
517.35000,-2.438199801
517.35050,-2.438199801
517.35100,-2.133005393
517.35150,-2.133005393
517.35200,-2.133005393
517.35250,-1.522616578
517.35300,-1.522616578
517.35350,-2.133005393
517.35400,-3.048588616
517.35450,-2.743394209
517.35500,-0.9122277624
517.35550,0.003355460754
517.35600,0.003355460754
517.35650,-0.9122277624
517.35700,-1.522616578
517.35750,-1.21742217
517.35800,0.003355460754
517.35850,1.529327499
517.35900,2.444910722
517.35950,3.360493945
517.36000,3.360493945
517.36050,2.444910722
517.36100,0.9189386839
517.36150,0.3085498685
517.36200,0.6137442762
517.36250,0.003355460754
517.36300,-0.6070333546
517.36350,0.003355460754
517.36400,1.529327499
517.36450,2.75010513
517.36500,1.834521907
517.36550,0.003355460754
517.36600,0.003355460754
517.36650,1.834521907
517.36700,1.834521907
517.36750,0.003355460754
517.36800,-1.21742217
517.36850,-0.9122277624
517.36900,0.003355460754
517.36950,0.3085498685
517.37000,0.3085498685
517.37050,0.6137442762
517.37100,0.003355460754
517.37150,-1.827810985
517.37200,-3.048588616
517.37250,-2.133005393
517.37300,-0.3018389469
517.37350,0.003355460754
517.37400,0.003355460754
517.37450,0.003355460754
517.37500,0.9189386839
517.37550,2.139716315
517.37600,2.444910722
517.37650,2.139716315
517.37700,1.529327499
517.37750,2.139716315
517.37800,4.276077169
517.37850,5.802049207
517.37900,5.191660392
517.37950,3.055299538
517.38000,2.75010513
517.38050,4.276077169
517.38100,5.496854799
517.38150,4.886465984
517.38200,3.665688353
517.38250,3.360493945
517.38300,3.665688353
517.38350,3.055299538
517.38400,1.224133092
517.38450,-0.3018389469
517.38500,-1.21742217
517.38550,-1.827810985
517.38600,-1.827810985
517.38650,-0.9122277624
517.38700,0.003355460754
517.38750,0.6137442762
517.38800,1.529327499
517.38850,2.139716315
517.38900,1.224133092
517.38950,-0.3018389469
517.39000,-1.21742217
517.39050,-0.6070333546
517.39100,-0.3018389469
517.39150,-1.522616578
517.39200,-3.048588616
517.39250,-2.438199801
517.39300,-0.9122277624
517.39350,-0.6070333546
517.39400,-2.133005393
517.39450,-2.743394209
517.39500,-1.21742217
517.39550,0.3085498685
517.39600,0.6137442762
517.39650,0.6137442762
517.39700,1.224133092
517.39750,2.444910722
517.39800,1.834521907
517.39850,0.6137442762
517.39900,0.003355460754
517.39950,0.6137442762
517.40000,0.3085498685
517.40050,-0.9122277624
517.40100,-2.133005393
517.40150,-1.827810985
517.40200,-0.9122277624
517.40250,-0.9122277624
517.40300,-0.9122277624
517.40350,0.003355460754
517.40400,0.3085498685
517.40450,-0.3018389469
517.40500,-1.522616578
517.40550,-1.522616578
517.40600,-1.21742217
517.40650,-2.743394209
517.40700,-4.574560655
517.40750,-4.574560655
517.40800,-1.827810985
517.40850,0.003355460754
517.40900,-0.6070333546
517.40950,-2.133005393
517.41000,-2.133005393
517.41050,-1.827810985
517.41100,-2.133005393
517.41150,-1.522616578
517.41200,0.3085498685
517.41250,2.444910722
517.41300,1.834521907
517.41350,-0.3018389469
517.41400,-1.21742217
517.41450,0.3085498685
517.41500,1.834521907
517.41550,1.224133092
517.41600,0.003355460754
517.41650,-0.3018389469
517.41700,-0.3018389469
517.41750,-0.6070333546
517.41800,-0.3018389469
517.41850,1.529327499
517.41900,3.360493945
517.41950,3.360493945
517.42000,2.444910722
517.42050,2.139716315
517.42100,2.444910722
517.42150,2.139716315
517.42200,1.529327499
517.42250,1.834521907
517.42300,1.529327499
517.42350,0.3085498685
517.42400,-1.21742217
517.42450,-1.21742217
517.42500,0.003355460754
517.42550,0.003355460754
517.42600,-1.21742217
517.42650,-2.743394209
517.42700,-3.658977432
517.42750,-3.964171839
517.42800,-3.353783024
517.42850,-1.827810985
517.42900,-0.3018389469
517.42950,-0.6070333546
517.43000,-1.827810985
517.43050,-2.133005393
517.43100,-1.522616578
517.43150,-0.9122277624
517.43200,-0.3018389469
517.43250,0.003355460754
517.43300,0.003355460754
517.43350,-0.3018389469
517.43400,-1.522616578
517.43450,-1.21742217
517.43500,-0.6070333546
517.43550,-0.6070333546
517.43600,-1.21742217
517.43650,-1.522616578
517.43700,-1.827810985
517.43750,-2.743394209
517.43800,-3.658977432
517.43850,-3.048588616
517.43900,-0.9122277624
517.43950,0.9189386839
517.44000,1.834521907
517.44050,2.444910722
517.44100,3.055299538
517.44150,2.75010513
517.44200,2.444910722
517.44250,2.139716315
517.44300,2.75010513
517.44350,2.444910722
517.44400,1.224133092
517.44450,-0.6070333546
517.44500,-1.827810985
517.44550,-1.522616578
517.44600,0.003355460754
517.44650,1.224133092
517.44700,0.6137442762
517.44750,-0.6070333546
517.44800,0.003355460754
517.44850,1.224133092
517.44900,0.9189386839
517.44950,-0.6070333546
517.45000,-1.522616578
517.45050,-0.3018389469
517.45100,0.9189386839
517.45150,0.6137442762
517.45200,0.3085498685
517.45250,1.224133092
517.45300,2.139716315
517.45350,1.529327499
517.45400,0.6137442762
517.45450,0.9189386839
517.45500,1.224133092
517.45550,1.224133092
517.45600,1.529327499
517.45650,2.75010513
517.45700,3.055299538
517.45750,2.444910722
517.45800,1.224133092
517.45850,0.9189386839
517.45900,0.9189386839
517.45950,0.6137442762
517.46000,0.3085498685
517.46050,0.6137442762
517.46100,0.3085498685
517.46150,-0.3018389469
517.46200,-1.21742217
517.46250,-0.9122277624
517.46300,-0.9122277624
517.46350,-1.522616578
517.46400,-1.827810985
517.46450,-1.21742217
517.46500,-0.9122277624
517.46550,-1.522616578
517.46600,-2.438199801
517.46650,-2.743394209
517.46700,-2.133005393
517.46750,-0.9122277624
517.46800,0.003355460754
517.46850,0.9189386839
517.46900,0.3085498685
517.46950,-0.9122277624
517.47000,-2.438199801
517.47050,-1.827810985
517.47100,0.003355460754
517.47150,1.529327499
517.47200,2.139716315
517.47250,1.529327499
517.47300,0.003355460754
517.47350,-0.6070333546
517.47400,-0.9122277624
517.47450,-1.522616578
517.47500,-2.438199801
517.47550,-1.827810985
517.47600,0.9189386839
517.47650,4.276077169
517.47700,5.191660392
517.47750,3.665688353
517.47800,1.834521907
517.47850,1.529327499
517.47900,2.139716315
517.47950,3.055299538
517.48000,3.665688353
517.48050,3.055299538
517.48100,0.9189386839
517.48150,0.003355460754
517.48200,0.003355460754
517.48250,0.9189386839
517.48300,0.9189386839
517.48350,0.003355460754
517.48400,-0.9122277624
517.48450,-1.522616578
517.48500,-2.133005393
517.48550,-2.133005393
517.48600,-0.9122277624
517.48650,0.003355460754
517.48700,-0.3018389469
517.48750,-1.827810985
517.48800,-2.133005393
517.48850,-0.9122277624
517.48900,-0.6070333546
517.48950,-1.522616578
517.49000,-2.438199801
517.49050,-2.133005393
517.49100,-1.522616578
517.49150,-1.522616578
517.49200,-1.827810985
517.49250,-1.522616578
517.49300,-0.3018389469
517.49350,0.3085498685
517.49400,0.9189386839
517.49450,0.6137442762
517.49500,0.003355460754
517.49550,0.003355460754
517.49600,0.9189386839
517.49650,2.444910722
517.49700,2.75010513
517.49750,1.834521907
517.49800,1.529327499
517.49850,2.444910722
517.49900,3.360493945
517.49950,2.444910722
517.50000,0.3085498685
517.50050,-0.3018389469
517.50100,0.3085498685
517.50150,0.6137442762
517.50200,0.003355460754
517.50250,-0.9122277624
517.50300,-1.21742217
517.50350,-0.9122277624
517.50400,-2.133005393
517.50450,-4.574560655
517.50500,-6.405727101
517.50550,-5.795338286
517.50600,-3.658977432
517.50650,-2.743394209
517.50700,-3.048588616
517.50750,-3.048588616
517.50800,-2.133005393
517.50850,-0.6070333546
517.50900,0.003355460754
517.50950,-0.3018389469
517.51000,-0.6070333546
517.51050,-0.6070333546
517.51100,0.003355460754
517.51150,0.6137442762
517.51200,1.529327499
517.51250,2.139716315
517.51300,2.444910722
517.51350,3.665688353
517.51400,4.886465984
517.51450,5.191660392
517.51500,4.276077169
517.51550,3.055299538
517.51600,2.444910722
517.51650,1.834521907
517.51700,1.224133092
517.51750,1.224133092
517.51800,2.75010513
517.51850,4.581271576
517.51900,5.191660392
517.51950,3.970882761
517.52000,1.834521907
517.52050,0.6137442762
517.52100,0.003355460754
517.52150,-0.6070333546
517.52200,-1.522616578
517.52250,-2.133005393
517.52300,-3.658977432
517.52350,-5.18494947
517.52400,-5.795338286
517.52450,-5.490143878
517.52500,-4.269366247
517.52550,-3.353783024
517.52600,-2.438199801
517.52650,-1.522616578
517.52700,0.003355460754
517.52750,0.3085498685
517.52800,0.003355460754
517.52850,-1.522616578
517.52900,-3.353783024
517.52950,-3.964171839
517.53000,-3.658977432
517.53050,-2.743394209
517.53100,-2.438199801
517.53150,-3.353783024
517.53200,-4.574560655
517.53250,-4.574560655
517.53300,-1.522616578
517.53350,2.139716315
517.53400,3.970882761
517.53450,1.834521907
517.53500,-0.6070333546
517.53550,-1.21742217
517.53600,0.003355460754
517.53650,1.529327499
517.53700,2.139716315
517.53750,1.834521907
517.53800,1.834521907
517.53850,2.444910722
517.53900,3.055299538
517.53950,3.360493945
517.54000,3.055299538
517.54050,2.444910722
517.54100,2.139716315
517.54150,1.834521907
517.54200,1.529327499
517.54250,1.224133092
517.54300,0.9189386839
517.54350,0.6137442762
517.54400,0.003355460754
517.54450,0.003355460754
517.54500,0.3085498685
517.54550,0.9189386839
517.54600,0.9189386839
517.54650,-0.6070333546
517.54700,-2.133005393
517.54750,-2.743394209
517.54800,-3.048588616
517.54850,-3.658977432
517.54900,-3.658977432
517.54950,-2.438199801
517.55000,-0.3018389469
517.55050,0.003355460754
517.55100,-1.522616578
517.55150,-3.658977432
517.55200,-4.574560655
517.55250,-3.658977432
517.55300,-1.522616578
517.55350,0.003355460754
517.55400,0.6137442762
517.55450,0.9189386839
517.55500,0.9189386839
517.55550,0.003355460754
517.55600,-1.21742217
517.55650,-1.827810985
517.55700,-1.21742217
517.55750,0.003355460754
517.55800,1.529327499
517.55850,2.139716315
517.55900,1.834521907
517.55950,0.003355460754
517.56000,-2.438199801
517.56050,-3.353783024
517.56100,-1.522616578
517.56150,0.9189386839
517.56200,2.139716315
517.56250,1.529327499
517.56300,0.9189386839
517.56350,1.529327499
517.56400,2.139716315
517.56450,1.834521907
517.56500,1.224133092
517.56550,0.003355460754
517.56600,-1.522616578
517.56650,-1.827810985
517.56700,-0.3018389469
517.56750,0.3085498685
517.56800,0.003355460754
517.56850,-0.6070333546
517.56900,-0.6070333546
517.56950,-0.3018389469
517.57000,-0.9122277624
517.57050,-1.21742217
517.57100,-0.6070333546
517.57150,0.3085498685
517.57200,0.3085498685
517.57250,-0.6070333546
517.57300,-0.3018389469
517.57350,1.529327499
517.57400,3.360493945
517.57450,3.055299538
517.57500,1.529327499
517.57550,0.9189386839
517.57600,1.834521907
517.57650,2.444910722
517.57700,2.139716315
517.57750,0.6137442762
517.57800,-0.3018389469
517.57850,-0.3018389469
517.57900,0.9189386839
517.57950,2.139716315
517.58000,1.834521907
517.58050,0.6137442762
517.58100,0.003355460754
517.58150,0.6137442762
517.58200,1.529327499
517.58250,0.6137442762
517.58300,-0.6070333546
517.58350,-0.9122277624
517.58400,0.9189386839
517.58450,3.055299538
517.58500,2.75010513
517.58550,0.3085498685
517.58600,-2.743394209
517.58650,-4.879755062
517.58700,-5.18494947
517.58750,-3.658977432
517.58800,-1.522616578
517.58850,0.6137442762
517.58900,1.834521907
517.58950,1.529327499
517.59000,0.6137442762
517.59050,-0.3018389469
517.59100,-1.522616578
517.59150,-1.21742217
517.59200,0.003355460754
517.59250,1.224133092
517.59300,1.224133092
517.59350,0.3085498685
517.59400,0.6137442762
517.59450,1.529327499
517.59500,1.529327499
517.59550,-0.6070333546
517.59600,-1.827810985
517.59650,0.003355460754
517.59700,4.581271576
517.59750,7.022826838
517.59800,5.802049207
517.59850,2.75010513
517.59900,0.3085498685
517.59950,-0.6070333546
517.60000,-0.6070333546
517.60050,0.3085498685
517.60100,3.055299538
517.60150,4.581271576
517.60200,3.970882761
517.60250,3.055299538
517.60300,2.75010513
517.60350,2.444910722
517.60400,1.529327499
517.60450,0.6137442762
517.60500,0.9189386839
517.60550,1.834521907
517.60600,1.834521907
517.60650,0.9189386839
517.60700,0.6137442762
517.60750,1.224133092
517.60800,1.529327499
517.60850,0.9189386839
517.60900,0.3085498685
517.60950,0.003355460754
517.61000,-0.3018389469
517.61050,-0.9122277624
517.61100,-1.522616578
517.61150,-1.21742217
517.61200,-0.9122277624
517.61250,-0.3018389469
517.61300,0.9189386839
517.61350,2.444910722
517.61400,2.75010513
517.61450,0.6137442762
517.61500,-1.522616578
517.61550,-2.438199801
517.61600,-0.9122277624
517.61650,0.3085498685
517.61700,0.6137442762
517.61750,0.003355460754
517.61800,-0.6070333546
517.61850,-0.9122277624
517.61900,-1.21742217
517.61950,-2.133005393
517.62000,-2.743394209
517.62050,-1.827810985
517.62100,0.003355460754
517.62150,0.6137442762
517.62200,-0.9122277624
517.62250,-2.743394209
517.62300,-1.827810985
517.62350,0.3085498685
517.62400,1.224133092
517.62450,0.003355460754
517.62500,-0.9122277624
517.62550,0.3085498685
517.62600,3.360493945
517.62650,5.496854799
517.62700,5.191660392
517.62750,3.055299538
517.62800,0.3085498685
517.62850,-1.21742217
517.62900,-2.133005393
517.62950,-2.438199801
517.63000,-3.353783024
517.63050,-3.048588616
517.63100,-1.522616578
517.63150,0.3085498685
517.63200,0.6137442762
517.63250,0.003355460754
517.63300,0.003355460754
517.63350,1.224133092
517.63400,2.444910722
517.63450,0.6137442762
517.63500,-1.827810985
517.63550,-2.438199801
517.63600,-0.6070333546
517.63650,0.003355460754
517.63700,-1.21742217
517.63750,-2.438199801
517.63800,-1.827810985
517.63850,-0.6070333546
517.63900,-0.9122277624
517.63950,-1.522616578
517.64000,-1.522616578
517.64050,-1.21742217
517.64100,-2.438199801
517.64150,-3.964171839
517.64200,-4.269366247
517.64250,-2.743394209
517.64300,-1.522616578
517.64350,-0.9122277624
517.64400,-0.3018389469
517.64450,0.6137442762
517.64500,0.6137442762
517.64550,-0.9122277624
517.64600,-2.438199801
517.64650,-2.743394209
517.64700,-2.133005393
517.64750,-1.827810985
517.64800,-0.9122277624
517.64850,-0.3018389469
517.64900,-0.6070333546
517.64950,-1.522616578
517.65000,-2.438199801
517.65050,-2.438199801
517.65100,-2.438199801
517.65150,-2.743394209
517.65200,-2.438199801
517.65250,-0.9122277624
517.65300,0.003355460754
517.65350,-0.3018389469
517.65400,-0.9122277624
517.65450,-0.3018389469
517.65500,0.003355460754
517.65550,0.003355460754
517.65600,0.003355460754
517.65650,1.529327499
517.65700,3.360493945
517.65750,3.360493945
517.65800,1.529327499
517.65850,0.6137442762
517.65900,1.224133092
517.65950,2.139716315
517.66000,2.139716315
517.66050,2.139716315
517.66100,1.224133092
517.66150,-0.3018389469
517.66200,-1.522616578
517.66250,0.003355460754
517.66300,2.75010513
517.66350,3.360493945
517.66400,2.444910722
517.66450,1.529327499
517.66500,1.529327499
517.66550,0.003355460754
517.66600,-3.353783024
517.66650,-4.574560655
517.66700,-2.133005393
517.66750,0.6137442762
517.66800,0.6137442762
517.66850,-0.6070333546
517.66900,-0.3018389469
517.66950,0.6137442762
517.67000,0.9189386839
517.67050,-0.3018389469
517.67100,-1.21742217
517.67150,-0.9122277624
517.67200,-0.6070333546
517.67250,-0.3018389469
517.67300,0.3085498685
517.67350,1.224133092
517.67400,1.224133092
517.67450,0.6137442762
517.67500,0.6137442762
517.67550,0.9189386839
517.67600,0.9189386839
517.67650,0.6137442762
517.67700,2.139716315
517.67750,3.665688353
517.67800,3.360493945
517.67850,0.3085498685
517.67900,-2.133005393
517.67950,-2.133005393
517.68000,-0.3018389469
517.68050,1.224133092
517.68100,2.444910722
517.68150,3.360493945
517.68200,3.360493945
517.68250,3.055299538
517.68300,2.139716315
517.68350,0.9189386839
517.68400,-0.9122277624
517.68450,-3.048588616
517.68500,-3.353783024
517.68550,-2.133005393
517.68600,-1.21742217
517.68650,-1.522616578
517.68700,-1.21742217
517.68750,0.003355460754
517.68800,0.9189386839
517.68850,0.9189386839
517.68900,0.3085498685
517.68950,-0.3018389469
517.69000,-0.6070333546
517.69050,-0.9122277624
517.69100,-1.21742217
517.69150,-1.827810985
517.69200,-2.743394209
517.69250,-2.438199801
517.69300,-1.21742217
517.69350,-1.21742217
517.69400,-4.269366247
517.69450,-7.626504732
517.69500,-7.931699139
517.69550,-5.490143878
517.69600,-3.353783024
517.69650,-1.21742217
517.69700,1.529327499
517.69750,4.276077169
517.69800,3.970882761
517.69850,0.9189386839
517.69900,0.003355460754
517.69950,2.75010513
517.70000,4.581271576
517.70050,2.75010513
517.70100,-0.6070333546
517.70150,-2.133005393
517.70200,-2.133005393
517.70250,-2.133005393
517.70300,-1.827810985
517.70350,-0.6070333546
517.70400,0.6137442762
517.70450,0.6137442762
517.70500,0.003355460754
517.70550,0.003355460754
517.70600,0.003355460754
517.70650,-0.6070333546
517.70700,-0.9122277624
517.70750,0.003355460754
517.70800,1.224133092
517.70850,1.224133092
517.70900,0.3085498685
517.70950,-0.6070333546
517.71000,-0.9122277624
517.71050,-1.21742217
517.71100,-0.9122277624
517.71150,-0.3018389469
517.71200,-0.3018389469
517.71250,-1.522616578
517.71300,-3.353783024
517.71350,-2.743394209
517.71400,-0.6070333546
517.71450,0.003355460754
517.71500,-1.522616578
517.71550,-2.438199801
517.71600,-0.6070333546
517.71650,0.6137442762
517.71700,-0.9122277624
517.71750,-4.574560655
517.71800,-5.18494947
517.71850,-1.827810985
517.71900,2.139716315
517.71950,3.970882761
517.72000,3.360493945
517.72050,2.75010513
517.72100,2.444910722
517.72150,2.139716315
517.72200,1.224133092
517.72250,0.6137442762
517.72300,0.6137442762
517.72350,0.9189386839
517.72400,0.3085498685
517.72450,-0.3018389469
517.72500,-1.21742217
517.72550,-1.21742217
517.72600,-1.21742217
517.72650,-0.9122277624
517.72700,-0.6070333546
517.72750,-0.6070333546
517.72800,-1.21742217
517.72850,-2.133005393
517.72900,-2.133005393
517.72950,-0.9122277624
517.73000,-0.3018389469
517.73050,-0.3018389469
517.73100,-0.6070333546
517.73150,0.003355460754
517.73200,0.3085498685
517.73250,0.3085498685
517.73300,0.6137442762
517.73350,1.834521907
517.73400,3.665688353
517.73450,3.970882761
517.73500,2.75010513
517.73550,1.834521907
517.73600,1.224133092
517.73650,1.224133092
517.73700,0.9189386839
517.73750,0.6137442762
517.73800,0.3085498685
517.73850,0.3085498685
517.73900,0.6137442762
517.73950,1.224133092
517.74000,0.9189386839
517.74050,0.3085498685
517.74100,0.003355460754
517.74150,0.6137442762
517.74200,0.9189386839
517.74250,0.003355460754
517.74300,-0.9122277624
517.74350,-0.3018389469
517.74400,0.6137442762
517.74450,0.3085498685
517.74500,-0.6070333546
517.74550,-1.21742217
517.74600,-1.21742217
517.74650,-1.827810985
517.74700,-3.353783024
517.74750,-3.658977432
517.74800,-2.438199801
517.74850,-1.21742217
517.74900,-0.9122277624
517.74950,-1.21742217
517.75000,-0.9122277624
517.75050,0.3085498685
517.75100,1.834521907
517.75150,1.834521907
517.75200,0.3085498685
517.75250,-0.9122277624
517.75300,-1.522616578
517.75350,-1.21742217
517.75400,-0.9122277624
517.75450,-0.9122277624
517.75500,-0.6070333546
517.75550,0.003355460754
517.75600,0.9189386839
517.75650,1.834521907
517.75700,2.444910722
517.75750,3.360493945
517.75800,3.665688353
517.75850,3.360493945
517.75900,3.055299538
517.75950,2.75010513
517.76000,2.139716315
517.76050,1.529327499
517.76100,1.834521907
517.76150,3.665688353
517.76200,4.886465984
517.76250,3.665688353
517.76300,1.834521907
517.76350,0.9189386839
517.76400,1.834521907
517.76450,3.665688353
517.76500,4.276077169
517.76550,4.276077169
517.76600,3.055299538
517.76650,1.224133092
517.76700,0.003355460754
517.76750,0.6137442762
517.76800,2.139716315
517.76850,2.75010513
517.76900,2.139716315
517.76950,1.224133092
517.77000,0.9189386839
517.77050,0.003355460754
517.77100,-0.9122277624
517.77150,-1.21742217
517.77200,-0.6070333546
517.77250,0.003355460754
517.77300,-0.6070333546
517.77350,-0.9122277624
517.77400,-0.3018389469
517.77450,0.3085498685
517.77500,0.6137442762
517.77550,0.003355460754
517.77600,0.003355460754
517.77650,1.224133092
517.77700,2.444910722
517.77750,2.139716315
517.77800,1.224133092
517.77850,0.6137442762
517.77900,0.9189386839
517.77950,1.834521907
517.78000,1.834521907
517.78050,1.224133092
517.78100,0.6137442762
517.78150,1.834521907
517.78200,3.665688353
517.78250,3.665688353
517.78300,2.444910722
517.78350,0.6137442762
517.78400,-0.9122277624
517.78450,-2.743394209
517.78500,-3.658977432
517.78550,-2.438199801
517.78600,-0.3018389469
517.78650,0.3085498685
517.78700,-0.3018389469
517.78750,-0.9122277624
517.78800,-0.9122277624
517.78850,-1.21742217
517.78900,-2.438199801
517.78950,-2.133005393
517.79000,-0.9122277624
517.79050,-0.6070333546
517.79100,-1.827810985
517.79150,-2.743394209
517.79200,-1.827810985
517.79250,-0.6070333546
517.79300,-0.6070333546
517.79350,0.003355460754
517.79400,1.834521907
517.79450,3.055299538
517.79500,0.6137442762
517.79550,-3.048588616
517.79600,-3.658977432
517.79650,-0.6070333546
517.79700,2.139716315
517.79750,2.75010513
517.79800,2.444910722
517.79850,3.360493945
517.79900,4.276077169
517.79950,4.276077169
517.80000,3.360493945
517.80050,2.444910722
517.80100,1.224133092
517.80150,-0.3018389469
517.80200,-0.9122277624
517.80250,0.003355460754
517.80300,0.6137442762
517.80350,0.003355460754
517.80400,-1.21742217
517.80450,-1.827810985
517.80500,-1.827810985
517.80550,-1.21742217
517.80600,-0.9122277624
517.80650,-1.21742217
517.80700,-2.438199801
517.80750,-3.658977432
517.80800,-3.658977432
517.80850,-2.438199801
517.80900,-1.522616578
517.80950,-1.522616578
517.81000,-1.827810985
517.81050,-1.21742217
517.81100,-0.9122277624
517.81150,-1.522616578
517.81200,-2.743394209
517.81250,-3.964171839
517.81300,-3.964171839
517.81350,-2.438199801
517.81400,-0.3018389469
517.81450,0.9189386839
517.81500,0.9189386839
517.81550,0.3085498685
517.81600,1.224133092
517.81650,2.75010513
517.81700,3.360493945
517.81750,1.529327499
517.81800,0.003355460754
517.81850,-0.6070333546
517.81900,0.003355460754
517.81950,1.224133092
517.82000,1.834521907
517.82050,0.9189386839
517.82100,-0.9122277624
517.82150,-3.048588616
517.82200,-3.353783024
517.82250,-2.438199801
517.82300,-1.522616578
517.82350,-1.21742217
517.82400,-0.3018389469
517.82450,0.9189386839
517.82500,0.9189386839
517.82550,-0.3018389469
517.82600,-1.21742217
517.82650,-0.3018389469
517.82700,0.003355460754
517.82750,-1.21742217
517.82800,-3.048588616
517.82850,-3.048588616
517.82900,-2.438199801
517.82950,-3.048588616
517.83000,-4.269366247
517.83050,-3.658977432
517.83100,-2.133005393
517.83150,-2.438199801
517.83200,-4.574560655
517.83250,-5.795338286
517.83300,-3.964171839
517.83350,-1.21742217
517.83400,0.003355460754
517.83450,0.6137442762
517.83500,1.224133092
517.83550,0.9189386839
517.83600,-0.3018389469
517.83650,-0.9122277624
517.83700,-0.6070333546
517.83750,-0.3018389469
517.83800,-0.9122277624
517.83850,-0.6070333546
517.83900,0.3085498685
517.83950,0.3085498685
517.84000,-0.6070333546
517.84050,-1.827810985
517.84100,-0.6070333546
517.84150,0.6137442762
517.84200,0.3085498685
517.84250,-0.3018389469
517.84300,0.3085498685
517.84350,1.529327499
517.84400,0.9189386839
517.84450,-1.21742217
517.84500,-3.353783024
517.84550,-3.658977432
517.84600,-3.048588616
517.84650,-2.438199801
517.84700,-1.522616578
517.84750,-1.522616578
517.84800,-2.133005393
517.84850,-2.743394209
517.84900,-2.438199801
517.84950,-1.21742217
517.85000,0.003355460754
517.85050,0.3085498685
517.85100,0.3085498685
517.85150,0.003355460754
517.85200,0.003355460754
517.85250,0.9189386839
517.85300,2.444910722
517.85350,2.444910722
517.85400,0.9189386839
517.85450,0.003355460754
517.85500,0.003355460754
517.85550,0.003355460754
517.85600,-0.3018389469
517.85650,-0.6070333546
517.85700,0.9189386839
517.85750,3.055299538
517.85800,3.055299538
517.85850,1.224133092
517.85900,0.003355460754
517.85950,0.003355460754
517.86000,0.3085498685
517.86050,1.224133092
517.86100,2.444910722
517.86150,3.055299538
517.86200,1.834521907
517.86250,-0.6070333546
517.86300,-1.21742217
517.86350,0.3085498685
517.86400,2.444910722
517.86450,2.75010513
517.86500,1.834521907
517.86550,1.224133092
517.86600,1.224133092
517.86650,1.224133092
517.86700,0.6137442762
517.86750,0.003355460754
517.86800,-0.9122277624
517.86850,-1.827810985
517.86900,-1.827810985
517.86950,-0.6070333546
517.87000,0.003355460754
517.87050,0.6137442762
517.87100,1.224133092
517.87150,2.444910722
517.87200,2.444910722
517.87250,0.3085498685
517.87300,-1.522616578
517.87350,-0.9122277624
517.87400,0.3085498685
517.87450,0.9189386839
517.87500,-0.3018389469
517.87550,-1.522616578
517.87600,-1.21742217
517.87650,-0.3018389469
517.87700,0.003355460754
517.87750,0.9189386839
517.87800,2.139716315
517.87850,2.75010513
517.87900,1.834521907
517.87950,0.003355460754
517.88000,-0.6070333546
517.88050,0.003355460754
517.88100,0.3085498685
517.88150,0.6137442762
517.88200,1.224133092
517.88250,1.529327499
517.88300,1.224133092
517.88350,0.003355460754
517.88400,-0.9122277624
517.88450,0.003355460754
517.88500,1.834521907
517.88550,3.360493945
517.88600,3.360493945
517.88650,1.529327499
517.88700,0.003355460754
517.88750,-0.3018389469
517.88800,0.6137442762
517.88850,2.139716315
517.88900,2.139716315
517.88950,1.224133092
517.89000,1.224133092
517.89050,1.834521907
517.89100,1.834521907
517.89150,0.9189386839
517.89200,0.3085498685
517.89250,0.9189386839
517.89300,2.444910722
517.89350,2.75010513
517.89400,1.834521907
517.89450,0.3085498685
517.89500,0.003355460754
517.89550,0.003355460754
517.89600,-0.3018389469
517.89650,-1.827810985
517.89700,-2.438199801
517.89750,-0.6070333546
517.89800,2.139716315
517.89850,3.360493945
517.89900,1.834521907
517.89950,0.003355460754
517.90000,0.003355460754
517.90050,1.224133092
517.90100,2.75010513
517.90150,3.055299538
517.90200,1.834521907
517.90250,0.003355460754
517.90300,-1.522616578
517.90350,-1.827810985
517.90400,0.003355460754
517.90450,1.529327499
517.90500,2.139716315
517.90550,1.224133092
517.90600,0.3085498685
517.90650,-0.3018389469
517.90700,-0.3018389469
517.90750,-0.3018389469
517.90800,-0.3018389469
517.90850,0.003355460754
517.90900,0.003355460754
517.90950,0.003355460754
517.91000,0.3085498685
517.91050,0.6137442762
517.91100,0.003355460754
517.91150,-1.522616578
517.91200,-3.048588616
517.91250,-3.658977432
517.91300,-3.353783024
517.91350,-2.133005393
517.91400,-0.9122277624
517.91450,0.3085498685
517.91500,0.9189386839
517.91550,1.834521907
517.91600,2.444910722
517.91650,2.75010513
517.91700,2.444910722
517.91750,2.444910722
517.91800,2.75010513
517.91850,2.75010513
517.91900,1.224133092
517.91950,-0.6070333546
517.92000,-0.9122277624
517.92050,0.6137442762
517.92100,3.055299538
517.92150,4.581271576
517.92200,4.581271576
517.92250,4.276077169
517.92300,2.75010513
517.92350,0.003355460754
517.92400,-2.133005393
517.92450,-2.743394209
517.92500,-2.133005393
517.92550,-1.522616578
517.92600,-1.522616578
517.92650,-1.827810985
517.92700,-1.21742217
517.92750,-0.6070333546
517.92800,0.003355460754
517.92850,0.003355460754
517.92900,-0.3018389469
517.92950,-0.9122277624
517.93000,-1.522616578
517.93050,-1.827810985
517.93100,-1.522616578
517.93150,-1.21742217
517.93200,-0.6070333546
517.93250,-0.3018389469
517.93300,-0.6070333546
517.93350,-1.21742217
517.93400,-1.522616578
517.93450,-1.21742217
517.93500,0.003355460754
517.93550,0.003355460754
517.93600,0.003355460754
517.93650,-0.3018389469
517.93700,0.003355460754
517.93750,0.9189386839
517.93800,0.9189386839
517.93850,0.6137442762
517.93900,1.224133092
517.93950,2.444910722
517.94000,2.139716315
517.94050,0.6137442762
517.94100,0.003355460754
517.94150,0.003355460754
517.94200,0.6137442762
517.94250,0.3085498685
517.94300,-0.6070333546
517.94350,-1.21742217
517.94400,-0.6070333546
517.94450,0.3085498685
517.94500,0.6137442762
517.94550,-0.6070333546
517.94600,-2.438199801
517.94650,-3.353783024
517.94700,-2.133005393
517.94750,-1.21742217
517.94800,-1.522616578
517.94850,-3.048588616
517.94900,-4.269366247
517.94950,-4.269366247
517.95000,-3.048588616
517.95050,-0.9122277624
517.95100,0.3085498685
517.95150,-0.3018389469
517.95200,-2.438199801
517.95250,-3.048588616
517.95300,-2.743394209
517.95350,-3.048588616
517.95400,-4.269366247
517.95450,-4.879755062
517.95500,-3.353783024
517.95550,-1.827810985
517.95600,-2.438199801
517.95650,-4.269366247
517.95700,-3.658977432
517.95750,-1.522616578
517.95800,0.003355460754
517.95850,0.3085498685
517.95900,0.3085498685
517.95950,0.6137442762
517.96000,1.224133092
517.96050,1.529327499
517.96100,2.139716315
517.96150,2.75010513
517.96200,2.444910722
517.96250,1.224133092
517.96300,0.6137442762
517.96350,0.6137442762
517.96400,1.224133092
517.96450,1.529327499
517.96500,1.224133092
517.96550,0.9189386839
517.96600,0.003355460754
517.96650,-0.6070333546
517.96700,-1.21742217
517.96750,-1.827810985
517.96800,-3.353783024
517.96850,-3.964171839
517.96900,-2.438199801
517.96950,0.003355460754
517.97000,0.9189386839
517.97050,0.003355460754
517.97100,-0.3018389469
517.97150,0.003355460754
517.97200,0.003355460754
517.97250,-0.6070333546
517.97300,-1.522616578
517.97350,-1.21742217
517.97400,-0.3018389469
517.97450,0.003355460754
517.97500,0.3085498685
517.97550,-0.6070333546
517.97600,-3.658977432
517.97650,-6.710921509
517.97700,-6.405727101
517.97750,-1.827810985
517.97800,2.444910722
517.97850,3.055299538
517.97900,1.224133092
517.97950,0.3085498685
517.98000,0.9189386839
517.98050,0.6137442762
517.98100,-0.3018389469
517.98150,-0.6070333546
517.98200,0.6137442762
517.98250,2.444910722
517.98300,3.665688353
517.98350,3.970882761
517.98400,3.360493945
517.98450,2.139716315
517.98500,1.224133092
517.98550,1.224133092
517.98600,1.529327499
517.98650,1.834521907
517.98700,1.834521907
517.98750,1.834521907
517.98800,0.9189386839
517.98850,-0.6070333546
517.98900,-1.522616578
517.98950,-0.6070333546
517.99000,-0.9122277624
517.99050,-4.269366247
517.99100,-7.016115916
517.99150,-4.879755062
517.99200,0.9189386839
517.99250,4.581271576
517.99300,3.055299538
517.99350,0.003355460754
517.99400,-1.21742217
517.99450,-0.3018389469
517.99500,0.9189386839
517.99550,2.444910722
517.99600,3.665688353
517.99650,3.665688353
517.99700,2.139716315
517.99750,1.224133092
517.99800,2.444910722
517.99850,4.581271576
517.99900,4.886465984
517.99950,3.055299538
518.00000,1.529327499
518.00050,1.529327499
518.00100,2.139716315
518.00150,1.529327499
518.00200,-0.9122277624
518.00250,-3.353783024
518.00300,-3.658977432
518.00350,-0.9122277624
518.00400,2.139716315
518.00450,3.665688353
518.00500,3.055299538
518.00550,2.139716315
518.00600,1.529327499
518.00650,0.9189386839
518.00700,-0.3018389469
518.00750,-1.827810985
518.00800,-1.827810985
518.00850,-0.9122277624
518.00900,-0.3018389469
518.00950,-1.21742217
518.01000,-1.522616578
518.01050,-0.3018389469
518.01100,0.9189386839
518.01150,0.9189386839
518.01200,0.003355460754
518.01250,-0.6070333546
518.01300,-0.6070333546
518.01350,0.003355460754
518.01400,0.3085498685
518.01450,0.9189386839
518.01500,0.6137442762
518.01550,-0.3018389469
518.01600,-1.522616578
518.01650,-0.9122277624
518.01700,1.529327499
518.01750,3.970882761
518.01800,3.665688353
518.01850,1.834521907
518.01900,0.9189386839
518.01950,1.224133092
518.02000,1.834521907
518.02050,1.834521907
518.02100,1.834521907
518.02150,2.139716315
518.02200,1.834521907
518.02250,0.3085498685
518.02300,-0.6070333546
518.02350,-1.21742217
518.02400,-1.21742217
518.02450,-1.522616578
518.02500,-2.438199801
518.02550,-3.048588616
518.02600,-2.743394209
518.02650,-1.522616578
518.02700,-1.21742217
518.02750,-2.133005393
518.02800,-2.743394209
518.02850,-2.743394209
518.02900,-2.133005393
518.02950,-1.522616578
518.03000,-0.9122277624
518.03050,-0.6070333546
518.03100,0.003355460754
518.03150,0.3085498685
518.03200,-0.3018389469
518.03250,-1.21742217
518.03300,-0.9122277624
518.03350,0.003355460754
518.03400,0.003355460754
518.03450,-0.9122277624
518.03500,-2.438199801
518.03550,-3.048588616
518.03600,-2.743394209
518.03650,-1.522616578
518.03700,0.003355460754
518.03750,1.834521907
518.03800,1.834521907
518.03850,0.3085498685
518.03900,0.003355460754
518.03950,1.224133092
518.04000,2.444910722
518.04050,1.529327499
518.04100,0.003355460754
518.04150,0.003355460754
518.04200,0.6137442762
518.04250,0.6137442762
518.04300,-0.6070333546
518.04350,-1.827810985
518.04400,-1.827810985
518.04450,-1.827810985
518.04500,-2.743394209
518.04550,-3.658977432
518.04600,-4.269366247
518.04650,-4.269366247
518.04700,-3.658977432
518.04750,-2.133005393
518.04800,-0.9122277624
518.04850,-0.6070333546
518.04900,-1.522616578
518.04950,-2.133005393
518.05000,-1.21742217
518.05050,-0.6070333546
518.05100,-0.9122277624
518.05150,-1.522616578
518.05200,-1.522616578
518.05250,-1.21742217
518.05300,-1.21742217
518.05350,-1.522616578
518.05400,-0.3018389469
518.05450,1.224133092
518.05500,2.139716315
518.05550,1.529327499
518.05600,0.9189386839
518.05650,1.529327499
518.05700,1.834521907
518.05750,0.9189386839
518.05800,0.003355460754
518.05850,-0.3018389469
518.05900,0.003355460754
518.05950,0.003355460754
518.06000,-0.3018389469
518.06050,0.003355460754
518.06100,2.139716315
518.06150,3.360493945
518.06200,3.360493945
518.06250,2.444910722
518.06300,1.834521907
518.06350,1.224133092
518.06400,0.9189386839
518.06450,0.9189386839
518.06500,1.529327499
518.06550,1.529327499
518.06600,0.6137442762
518.06650,-1.21742217
518.06700,-2.743394209
518.06750,-3.048588616
518.06800,-2.743394209
518.06850,-2.438199801
518.06900,-2.133005393
518.06950,-1.827810985
518.07000,-1.827810985
518.07050,-2.133005393
518.07100,-2.743394209
518.07150,-2.743394209
518.07200,-0.9122277624
518.07250,1.224133092
518.07300,3.055299538
518.07350,3.360493945
518.07400,2.444910722
518.07450,1.834521907
518.07500,1.529327499
518.07550,0.9189386839
518.07600,0.003355460754
518.07650,0.003355460754
518.07700,0.6137442762
518.07750,1.224133092
518.07800,0.9189386839
518.07850,0.6137442762
518.07900,1.529327499
518.07950,3.055299538
518.08000,3.970882761
518.08050,3.665688353
518.08100,2.75010513
518.08150,2.139716315
518.08200,2.444910722
518.08250,2.75010513
518.08300,1.834521907
518.08350,0.6137442762
518.08400,0.003355460754
518.08450,0.6137442762
518.08500,1.224133092
518.08550,0.9189386839
518.08600,0.003355460754
518.08650,-0.6070333546
518.08700,-1.21742217
518.08750,-1.522616578
518.08800,-0.9122277624
518.08850,0.003355460754
518.08900,0.6137442762
518.08950,0.003355460754
518.09000,0.003355460754
518.09050,0.003355460754
518.09100,1.224133092
518.09150,1.834521907
518.09200,1.834521907
518.09250,2.139716315
518.09300,2.139716315
518.09350,2.139716315
518.09400,1.529327499
518.09450,0.9189386839
518.09500,0.003355460754
518.09550,-0.6070333546
518.09600,-1.21742217
518.09650,-0.6070333546
518.09700,0.003355460754
518.09750,1.224133092
518.09800,2.444910722
518.09850,3.665688353
518.09900,4.581271576
518.09950,4.276077169
518.10000,3.970882761
518.10050,4.276077169
518.10100,4.581271576
518.10150,4.276077169
518.10200,3.055299538
518.10250,1.834521907
518.10300,1.529327499
518.10350,1.529327499
518.10400,1.834521907
518.10450,0.9189386839
518.10500,-0.6070333546
518.10550,-1.827810985
518.10600,-1.522616578
518.10650,-0.9122277624
518.10700,-0.9122277624
518.10750,-1.827810985
518.10800,-2.133005393
518.10850,-1.827810985
518.10900,-2.133005393
518.10950,-3.353783024
518.11000,-3.048588616
518.11050,-0.9122277624
518.11100,0.6137442762
518.11150,0.003355460754
518.11200,-1.827810985
518.11250,-2.743394209
518.11300,-0.9122277624
518.11350,0.3085498685
518.11400,0.6137442762
518.11450,0.003355460754
518.11500,0.3085498685
518.11550,1.529327499
518.11600,2.139716315
518.11650,1.529327499
518.11700,1.224133092
518.11750,1.529327499
518.11800,1.224133092
518.11850,0.003355460754
518.11900,-1.522616578
518.11950,-2.133005393
518.12000,-0.3018389469
518.12050,1.224133092
518.12100,1.529327499
518.12150,0.9189386839
518.12200,0.3085498685
518.12250,0.003355460754
518.12300,-0.9122277624
518.12350,-2.133005393
518.12400,-2.133005393
518.12450,-1.522616578
518.12500,-0.9122277624
518.12550,-2.133005393
518.12600,-3.353783024
518.12650,-3.353783024
518.12700,-2.133005393
518.12750,-0.9122277624
518.12800,-0.6070333546
518.12850,-1.21742217
518.12900,-1.827810985
518.12950,-2.438199801
518.13000,-2.743394209
518.13050,-3.048588616
518.13100,-3.048588616
518.13150,-2.438199801
518.13200,-2.133005393
518.13250,-2.133005393
518.13300,-2.133005393
518.13350,-2.133005393
518.13400,-2.133005393
518.13450,-2.133005393
518.13500,-1.827810985
518.13550,-0.6070333546
518.13600,0.9189386839
518.13650,2.444910722
518.13700,3.360493945
518.13750,3.665688353
518.13800,3.665688353
518.13850,3.055299538
518.13900,2.75010513
518.13950,3.360493945
518.14000,3.665688353
518.14050,3.360493945
518.14100,2.444910722
518.14150,1.834521907
518.14200,1.834521907
518.14250,2.139716315
518.14300,1.834521907
518.14350,1.224133092
518.14400,0.9189386839
518.14450,0.6137442762
518.14500,0.3085498685
518.14550,0.3085498685
518.14600,0.003355460754
518.14650,0.003355460754
518.14700,-0.9122277624
518.14750,-2.133005393
518.14800,-2.743394209
518.14850,-2.438199801
518.14900,-2.133005393
518.14950,-3.658977432
518.15000,-6.405727101
518.15050,-7.321310324
518.15100,-5.18494947
518.15150,-2.743394209
518.15200,-2.743394209
518.15250,-3.964171839
518.15300,-3.964171839
518.15350,-1.827810985
518.15400,-0.3018389469
518.15450,-0.3018389469
518.15500,0.003355460754
518.15550,1.224133092
518.15600,2.139716315
518.15650,0.3085498685
518.15700,-2.133005393
518.15750,-3.658977432
518.15800,-3.353783024
518.15850,-1.827810985
518.15900,-0.3018389469
518.15950,0.9189386839
518.16000,1.224133092
518.16050,0.003355460754
518.16100,-2.133005393
518.16150,-2.133005393
518.16200,0.3085498685
518.16250,3.055299538
518.16300,3.055299538
518.16350,1.224133092
518.16400,0.003355460754
518.16450,0.6137442762
518.16500,1.224133092
518.16550,0.9189386839
518.16600,0.3085498685
518.16650,0.9189386839
518.16700,0.6137442762
518.16750,-0.9122277624
518.16800,-2.438199801
518.16850,-0.9122277624
518.16900,1.529327499
518.16950,1.834521907
518.17000,0.003355460754
518.17050,-1.21742217
518.17100,-0.6070333546
518.17150,-0.6070333546
518.17200,-2.133005393
518.17250,-3.353783024
518.17300,-1.522616578
518.17350,0.9189386839
518.17400,2.75010513
518.17450,3.360493945
518.17500,3.665688353
518.17550,3.360493945
518.17600,2.139716315
518.17650,0.9189386839
518.17700,0.9189386839
518.17750,0.9189386839
518.17800,1.224133092
518.17850,2.139716315
518.17900,4.276077169
518.17950,5.802049207
518.18000,5.802049207
518.18050,4.276077169
518.18100,3.360493945
518.18150,3.360493945
518.18200,2.75010513
518.18250,1.529327499
518.18300,0.003355460754
518.18350,-1.21742217
518.18400,-1.827810985
518.18450,-0.9122277624
518.18500,0.003355460754
518.18550,0.3085498685
518.18600,-0.3018389469
518.18650,-1.522616578
518.18700,-1.522616578
518.18750,-1.827810985
518.18800,-3.048588616
518.18850,-3.964171839
518.18900,-3.353783024
518.18950,-1.827810985
518.19000,-0.6070333546
518.19050,-0.3018389469
518.19100,0.003355460754
518.19150,0.3085498685
518.19200,0.003355460754
518.19250,-0.3018389469
518.19300,0.003355460754
518.19350,1.224133092
518.19400,2.139716315
518.19450,1.224133092
518.19500,0.3085498685
518.19550,0.3085498685
518.19600,0.9189386839
518.19650,0.9189386839
518.19700,0.003355460754
518.19750,-1.21742217
518.19800,-0.9122277624
518.19850,0.9189386839
518.19900,2.444910722
518.19950,1.529327499
518.20000,0.003355460754
518.20050,-1.522616578
518.20100,-1.522616578
518.20150,-1.522616578
518.20200,-2.133005393
518.20250,-1.827810985
518.20300,-0.3018389469
518.20350,0.6137442762
518.20400,0.3085498685
518.20450,-0.6070333546
518.20500,-0.6070333546
518.20550,0.003355460754
518.20600,-0.6070333546
518.20650,-1.827810985
518.20700,-1.21742217
518.20750,1.224133092
518.20800,2.75010513
518.20850,0.6137442762
518.20900,-3.353783024
518.20950,-6.100532693
518.21000,-5.490143878
518.21050,-3.048588616
518.21100,-0.9122277624
518.21150,0.003355460754
518.21200,0.3085498685
518.21250,0.003355460754
518.21300,-0.9122277624
518.21350,-1.21742217
518.21400,-0.6070333546
518.21450,0.003355460754
518.21500,0.003355460754
518.21550,0.003355460754
518.21600,0.003355460754
518.21650,0.003355460754
518.21700,0.6137442762
518.21750,1.529327499
518.21800,1.834521907
518.21850,0.6137442762
518.21900,-0.6070333546
518.21950,-0.3018389469
518.22000,1.529327499
518.22050,2.139716315
518.22100,-0.9122277624
518.22150,-5.18494947
518.22200,-5.18494947
518.22250,0.003355460754
518.22300,4.276077169
518.22350,4.276077169
518.22400,1.834521907
518.22450,0.6137442762
518.22500,0.6137442762
518.22550,0.003355460754
518.22600,-1.827810985
518.22650,-2.743394209
518.22700,-0.9122277624
518.22750,0.6137442762
518.22800,0.6137442762
518.22850,0.003355460754
518.22900,0.003355460754
518.22950,0.3085498685
518.23000,0.003355460754
518.23050,-1.522616578
518.23100,-3.048588616
518.23150,-3.658977432
518.23200,-2.743394209
518.23250,-0.9122277624
518.23300,0.6137442762
518.23350,0.9189386839
518.23400,0.003355460754
518.23450,-0.9122277624
518.23500,0.003355460754
518.23550,1.529327499
518.23600,1.834521907
518.23650,0.6137442762
518.23700,0.003355460754
518.23750,0.003355460754
518.23800,0.003355460754
518.23850,0.003355460754
518.23900,0.003355460754
518.23950,0.9189386839
518.24000,1.834521907
518.24050,1.834521907
518.24100,0.9189386839
518.24150,0.003355460754
518.24200,-0.9122277624
518.24250,-1.21742217
518.24300,-1.21742217
518.24350,-1.21742217
518.24400,-0.9122277624
518.24450,-0.6070333546
518.24500,-0.6070333546
518.24550,-0.9122277624
518.24600,-2.133005393
518.24650,-2.743394209
518.24700,-2.743394209
518.24750,-2.438199801
518.24800,-2.133005393
518.24850,-1.827810985
518.24900,-1.21742217
518.24950,-1.21742217
518.25000,-2.438199801
518.25050,-3.048588616
518.25100,-1.827810985
518.25150,-0.3018389469
518.25200,-0.3018389469
518.25250,-0.9122277624
518.25300,-0.9122277624
518.25350,-0.3018389469
518.25400,-0.3018389469
518.25450,-0.9122277624
518.25500,0.003355460754
518.25550,1.529327499
518.25600,2.75010513
518.25650,2.444910722
518.25700,0.9189386839
518.25750,0.003355460754
518.25800,-0.6070333546
518.25850,-0.3018389469
518.25900,0.9189386839
518.25950,1.834521907
518.26000,0.9189386839
518.26050,0.003355460754
518.26100,0.003355460754
518.26150,1.224133092
518.26200,1.834521907
518.26250,0.9189386839
518.26300,0.003355460754
518.26350,-0.9122277624
518.26400,-2.438199801
518.26450,-3.353783024
518.26500,-1.827810985
518.26550,1.224133092
518.26600,3.055299538
518.26650,1.834521907
518.26700,0.003355460754
518.26750,0.9189386839
518.26800,3.665688353
518.26850,5.191660392
518.26900,5.191660392
518.26950,5.191660392
518.27000,4.581271576
518.27050,2.444910722
518.27100,-0.6070333546
518.27150,-2.743394209
518.27200,-3.353783024
518.27250,-3.658977432
518.27300,-3.658977432
518.27350,-2.438199801
518.27400,0.003355460754
518.27450,1.834521907
518.27500,1.834521907
518.27550,1.834521907
518.27600,2.444910722
518.27650,2.444910722
518.27700,2.139716315
518.27750,2.139716315
518.27800,2.444910722
518.27850,2.139716315
518.27900,1.529327499
518.27950,1.529327499
518.28000,2.444910722
518.28050,2.444910722
518.28100,0.9189386839
518.28150,0.003355460754
518.28200,0.3085498685
518.28250,0.9189386839
518.28300,1.224133092
518.28350,0.9189386839
518.28400,1.529327499
518.28450,2.139716315
518.28500,1.834521907
518.28550,1.224133092
518.28600,0.003355460754
518.28650,-0.6070333546
518.28700,-0.6070333546
518.28750,0.003355460754
518.28800,0.003355460754
518.28850,0.003355460754
518.28900,-0.6070333546
518.28950,-0.6070333546
518.29000,0.003355460754
518.29050,0.003355460754
518.29100,-0.3018389469
518.29150,-0.6070333546
518.29200,-0.9122277624
518.29250,-1.21742217
518.29300,-1.827810985
518.29350,-1.21742217
518.29400,-0.3018389469
518.29450,-0.6070333546
518.29500,-2.438199801
518.29550,-3.353783024
518.29600,-2.133005393
518.29650,0.003355460754
518.29700,1.529327499
518.29750,1.224133092
518.29800,-0.3018389469
518.29850,-1.522616578
518.29900,-1.21742217
518.29950,0.9189386839
518.30000,3.665688353
518.30050,3.970882761
518.30100,2.444910722
518.30150,0.6137442762
518.30200,0.6137442762
518.30250,1.529327499
518.30300,2.75010513
518.30350,3.360493945
518.30400,3.360493945
518.30450,1.834521907
518.30500,1.224133092
518.30550,2.139716315
518.30600,3.970882761
518.30650,3.665688353
518.30700,1.529327499
518.30750,0.6137442762
518.30800,1.224133092
518.30850,1.834521907
518.30900,0.9189386839
518.30950,-0.6070333546
518.31000,-1.21742217
518.31050,-1.21742217
518.31100,-1.21742217
518.31150,0.003355460754
518.31200,0.9189386839
518.31250,0.9189386839
518.31300,-0.3018389469
518.31350,-1.522616578
518.31400,-0.6070333546
518.31450,0.3085498685
518.31500,0.003355460754
518.31550,-1.21742217
518.31600,-0.9122277624
518.31650,0.9189386839
518.31700,2.139716315
518.31750,1.834521907
518.31800,1.834521907
518.31850,1.834521907
518.31900,1.224133092
518.31950,-0.6070333546
518.32000,-2.133005393
518.32050,-1.522616578
518.32100,0.003355460754
518.32150,1.529327499
518.32200,2.444910722
518.32250,3.055299538
518.32300,2.75010513
518.32350,1.529327499
518.32400,0.003355460754
518.32450,-1.21742217
518.32500,-1.827810985
518.32550,-1.827810985
518.32600,-1.21742217
518.32650,-1.522616578
518.32700,-2.743394209
518.32750,-3.353783024
518.32800,-2.133005393
518.32850,0.003355460754
518.32900,0.9189386839
518.32950,0.003355460754
518.33000,-0.3018389469
518.33050,0.3085498685
518.33100,1.834521907
518.33150,1.834521907
518.33200,1.224133092
518.33250,0.9189386839
518.33300,1.224133092
518.33350,0.3085498685
518.33400,-1.522616578
518.33450,-2.743394209
518.33500,-2.133005393
518.33550,-0.6070333546
518.33600,0.3085498685
518.33650,0.6137442762
518.33700,0.3085498685
518.33750,0.003355460754
518.33800,0.3085498685
518.33850,0.9189386839
518.33900,1.529327499
518.33950,1.224133092
518.34000,0.003355460754
518.34050,-0.9122277624
518.34100,-1.522616578
518.34150,-0.6070333546
518.34200,0.3085498685
518.34250,1.224133092
518.34300,1.834521907
518.34350,1.834521907
518.34400,1.834521907
518.34450,1.529327499
518.34500,0.9189386839
518.34550,0.3085498685
518.34600,0.6137442762
518.34650,1.224133092
518.34700,0.003355460754
518.34750,-2.133005393
518.34800,-3.964171839
518.34850,-3.353783024
518.34900,-1.522616578
518.34950,-0.6070333546
518.35000,-1.522616578
518.35050,-2.133005393
518.35100,-1.522616578
518.35150,-0.9122277624
518.35200,-0.9122277624
518.35250,-1.522616578
518.35300,-2.133005393
518.35350,-2.133005393
518.35400,-1.21742217
518.35450,0.6137442762
518.35500,1.834521907
518.35550,0.9189386839
518.35600,-1.21742217
518.35650,-2.438199801
518.35700,-1.827810985
518.35750,-1.21742217
518.35800,-2.133005393
518.35850,-3.048588616
518.35900,-2.133005393
518.35950,0.3085498685
518.36000,2.75010513
518.36050,3.970882761
518.36100,3.665688353
518.36150,2.139716315
518.36200,-0.3018389469
518.36250,-3.048588616
518.36300,-4.269366247
518.36350,-3.658977432
518.36400,-2.438199801
518.36450,-1.21742217
518.36500,-0.6070333546
518.36550,-1.21742217
518.36600,-3.048588616
518.36650,-5.18494947
518.36700,-5.795338286
518.36750,-4.879755062
518.36800,-3.658977432
518.36850,-3.048588616
518.36900,-3.658977432
518.36950,-3.658977432
518.37000,-2.743394209
518.37050,-1.522616578
518.37100,-1.21742217
518.37150,-2.743394209
518.37200,-3.964171839
518.37250,-3.658977432
518.37300,-1.827810985
518.37350,-0.6070333546
518.37400,-0.9122277624
518.37450,-1.522616578
518.37500,-1.522616578
518.37550,-0.3018389469
518.37600,0.6137442762
518.37650,0.6137442762
518.37700,0.3085498685
518.37750,0.003355460754
518.37800,0.3085498685
518.37850,1.224133092
518.37900,2.75010513
518.37950,3.360493945
518.38000,3.360493945
518.38050,2.444910722
518.38100,1.224133092
518.38150,0.003355460754
518.38200,0.003355460754
518.38250,0.003355460754
518.38300,0.6137442762
518.38350,0.9189386839
518.38400,0.6137442762
518.38450,-0.3018389469
518.38500,-1.827810985
518.38550,-3.353783024
518.38600,-3.964171839
518.38650,-3.964171839
518.38700,-3.353783024
518.38750,-2.438199801
518.38800,-0.9122277624
518.38850,0.003355460754
518.38900,0.3085498685
518.38950,-0.3018389469
518.39000,-0.9122277624
518.39050,-1.21742217
518.39100,-1.21742217
518.39150,-0.9122277624
518.39200,0.3085498685
518.39250,2.139716315
518.39300,3.665688353
518.39350,2.75010513
518.39400,0.3085498685
518.39450,-0.9122277624
518.39500,0.003355460754
518.39550,1.529327499
518.39600,2.444910722
518.39650,1.834521907
518.39700,0.6137442762
518.39750,0.003355460754
518.39800,-0.3018389469
518.39850,-0.9122277624
518.39900,-0.9122277624
518.39950,-0.6070333546
518.40000,0.3085498685
518.40050,1.834521907
518.40100,2.444910722
518.40150,1.529327499
518.40200,0.3085498685
518.40250,0.003355460754
518.40300,1.224133092
518.40350,3.055299538
518.40400,3.360493945
518.40450,1.834521907
518.40500,0.6137442762
518.40550,0.003355460754
518.40600,0.003355460754
518.40650,-0.3018389469
518.40700,-0.6070333546
518.40750,-0.3018389469
518.40800,-0.3018389469
518.40850,-1.21742217
518.40900,-2.133005393
518.40950,-0.6070333546
518.41000,1.834521907
518.41050,3.360493945
518.41100,2.139716315
518.41150,-0.3018389469
518.41200,-2.133005393
518.41250,-2.438199801
518.41300,-1.21742217
518.41350,0.003355460754
518.41400,0.9189386839
518.41450,0.3085498685
518.41500,-0.6070333546
518.41550,-1.21742217
518.41600,-1.21742217
518.41650,-0.9122277624
518.41700,-0.6070333546
518.41750,0.3085498685
518.41800,2.444910722
518.41850,3.360493945
518.41900,2.444910722
518.41950,1.834521907
518.42000,2.139716315
518.42050,2.75010513
518.42100,2.444910722
518.42150,1.529327499
518.42200,1.224133092
518.42250,0.6137442762
518.42300,0.003355460754
518.42350,-0.6070333546
518.42400,-0.3018389469
518.42450,0.003355460754
518.42500,0.003355460754
518.42550,0.003355460754
518.42600,0.6137442762
518.42650,2.444910722
518.42700,3.055299538
518.42750,1.529327499
518.42800,-0.6070333546
518.42850,-2.133005393
518.42900,-1.21742217
518.42950,0.003355460754
518.43000,0.003355460754
518.43050,-0.9122277624
518.43100,-1.827810985
518.43150,-1.21742217
518.43200,0.003355460754
518.43250,0.003355460754
518.43300,-0.6070333546
518.43350,-0.3018389469
518.43400,0.6137442762
518.43450,1.224133092
518.43500,0.9189386839
518.43550,0.9189386839
518.43600,1.529327499
518.43650,1.529327499
518.43700,0.9189386839
518.43750,0.6137442762
518.43800,1.224133092
518.43850,0.9189386839
518.43900,0.003355460754
518.43950,-0.9122277624
518.44000,-0.6070333546
518.44050,0.003355460754
518.44100,-0.9122277624
518.44150,-1.522616578
518.44200,-0.3018389469
518.44250,0.6137442762
518.44300,0.6137442762
518.44350,0.003355460754
518.44400,0.003355460754
518.44450,1.834521907
518.44500,2.139716315
518.44550,0.3085498685
518.44600,-0.9122277624
518.44650,-0.3018389469
518.44700,0.6137442762
518.44750,0.6137442762
518.44800,0.003355460754
518.44850,-0.3018389469
518.44900,-0.3018389469
518.44950,-0.6070333546
518.45000,-1.21742217
518.45050,-0.6070333546
518.45100,0.003355460754
518.45150,0.9189386839
518.45200,1.834521907
518.45250,3.665688353
518.45300,4.581271576
518.45350,3.665688353
518.45400,0.9189386839
518.45450,0.003355460754
518.45500,0.3085498685
518.45550,0.9189386839
518.45600,0.6137442762
518.45650,0.3085498685
518.45700,0.6137442762
518.45750,1.529327499
518.45800,2.444910722
518.45850,3.665688353
518.45900,4.581271576
518.45950,3.360493945
518.46000,0.6137442762
518.46050,0.003355460754
518.46100,1.834521907
518.46150,4.276077169
518.46200,4.276077169
518.46250,1.529327499
518.46300,0.003355460754
518.46350,-0.3018389469
518.46400,0.003355460754
518.46450,0.6137442762
518.46500,0.9189386839
518.46550,0.9189386839
518.46600,0.003355460754
518.46650,-1.522616578
518.46700,-2.133005393
518.46750,-1.21742217
518.46800,0.003355460754
518.46850,0.003355460754
518.46900,0.003355460754
518.46950,0.003355460754
518.47000,-0.6070333546
518.47050,-1.827810985
518.47100,-1.827810985
518.47150,-1.21742217
518.47200,-0.3018389469
518.47250,0.003355460754
518.47300,-0.6070333546
518.47350,-0.6070333546
518.47400,-0.6070333546
518.47450,0.003355460754
518.47500,0.003355460754
518.47550,0.003355460754
518.47600,-0.9122277624
518.47650,-1.827810985
518.47700,-0.9122277624
518.47750,1.224133092
518.47800,3.360493945
518.47850,3.360493945
518.47900,1.224133092
518.47950,-0.3018389469
518.48000,-0.3018389469
518.48050,0.6137442762
518.48100,1.224133092
518.48150,0.6137442762
518.48200,0.3085498685
518.48250,0.6137442762
518.48300,0.6137442762
518.48350,0.3085498685
518.48400,0.3085498685
518.48450,0.003355460754
518.48500,-0.9122277624
518.48550,-3.353783024
518.48600,-4.879755062
518.48650,-4.269366247
518.48700,-2.438199801
518.48750,-1.21742217
518.48800,-0.6070333546
518.48850,-1.21742217
518.48900,-2.438199801
518.48950,-4.574560655
518.49000,-5.795338286
518.49050,-5.18494947
518.49100,-3.658977432
518.49150,-3.353783024
518.49200,-3.048588616
518.49250,-1.522616578
518.49300,0.003355460754
518.49350,0.003355460754
518.49400,-1.522616578
518.49450,-2.133005393
518.49500,-0.6070333546
518.49550,0.003355460754
518.49600,-1.21742217
518.49650,-2.743394209
518.49700,-0.9122277624
518.49750,2.444910722
518.49800,4.276077169
518.49850,3.970882761
518.49900,2.75010513
518.49950,2.139716315
518.50000,1.834521907
518.50050,1.529327499
518.50100,0.6137442762
518.50150,-0.6070333546
518.50200,-2.133005393
518.50250,-1.827810985
518.50300,0.003355460754
518.50350,2.139716315
518.50400,2.139716315
518.50450,0.3085498685
518.50500,-0.9122277624
518.50550,-1.522616578
518.50600,-1.21742217
518.50650,-0.9122277624
518.50700,-1.522616578
518.50750,-2.133005393
518.50800,-2.743394209
518.50850,-2.743394209
518.50900,-3.048588616
518.50950,-3.048588616
518.51000,-3.048588616
518.51050,-3.658977432
518.51100,-3.658977432
518.51150,-3.048588616
518.51200,-1.827810985
518.51250,-0.9122277624
518.51300,-1.827810985
518.51350,-2.743394209
518.51400,-2.133005393
518.51450,0.003355460754
518.51500,1.834521907
518.51550,1.834521907
518.51600,1.529327499
518.51650,2.444910722
518.51700,3.665688353
518.51750,2.444910722
518.51800,0.6137442762
518.51850,0.003355460754
518.51900,1.834521907
518.51950,3.665688353
518.52000,3.970882761
518.52050,3.665688353
518.52100,3.055299538
518.52150,2.139716315
518.52200,0.6137442762
518.52250,0.003355460754
518.52300,0.003355460754
518.52350,-0.3018389469
518.52400,-1.522616578
518.52450,-1.827810985
518.52500,-0.9122277624
518.52550,0.003355460754
518.52600,0.003355460754
518.52650,0.3085498685
518.52700,0.6137442762
518.52750,1.224133092
518.52800,1.529327499
518.52850,1.834521907
518.52900,1.834521907
518.52950,1.834521907
518.53000,0.9189386839
518.53050,-0.6070333546
518.53100,-2.133005393
518.53150,-1.522616578
518.53200,0.3085498685
518.53250,2.444910722
518.53300,1.834521907
518.53350,0.003355460754
518.53400,-0.9122277624
518.53450,0.3085498685
518.53500,1.529327499
518.53550,0.9189386839
518.53600,0.003355460754
518.53650,0.003355460754
518.53700,1.834521907
518.53750,2.139716315
518.53800,0.9189386839
518.53850,0.003355460754
518.53900,-0.6070333546
518.53950,-1.522616578
518.54000,-2.743394209
518.54050,-2.133005393
518.54100,0.003355460754
518.54150,1.834521907
518.54200,1.834521907
518.54250,0.6137442762
518.54300,0.003355460754
518.54350,0.003355460754
518.54400,0.003355460754
518.54450,-0.9122277624
518.54500,-1.522616578
518.54550,-1.522616578
518.54600,-1.522616578
518.54650,-1.827810985
518.54700,-1.827810985
518.54750,-1.21742217
518.54800,0.003355460754
518.54850,0.6137442762
518.54900,1.224133092
518.54950,1.224133092
518.55000,0.3085498685
518.55050,-1.522616578
518.55100,-2.743394209
518.55150,-1.21742217
518.55200,2.139716315
518.55250,3.665688353
518.55300,1.224133092
518.55350,-2.133005393
518.55400,-3.353783024
518.55450,-2.133005393
518.55500,-0.9122277624
518.55550,-1.21742217
518.55600,-1.522616578
518.55650,-1.21742217
518.55700,-0.3018389469
518.55750,-0.9122277624
518.55800,-3.353783024
518.55850,-5.18494947
518.55900,-4.574560655
518.55950,-1.21742217
518.56000,2.139716315
518.56050,4.581271576
518.56100,5.496854799
518.56150,5.496854799
518.56200,4.581271576
518.56250,2.75010513
518.56300,1.529327499
518.56350,2.444910722
518.56400,4.581271576
518.56450,5.496854799
518.56500,3.665688353
518.56550,1.834521907
518.56600,1.224133092
518.56650,1.834521907
518.56700,1.834521907
518.56750,0.6137442762
518.56800,0.003355460754
518.56850,0.3085498685
518.56900,0.9189386839
518.56950,0.3085498685
518.57000,-0.3018389469
518.57050,-0.6070333546
518.57100,-0.6070333546
518.57150,-0.3018389469
518.57200,-0.6070333546
518.57250,-0.9122277624
518.57300,-1.21742217
518.57350,-1.21742217
518.57400,-0.3018389469
518.57450,0.3085498685
518.57500,0.3085498685
518.57550,0.003355460754
518.57600,0.003355460754
518.57650,0.3085498685
518.57700,0.9189386839
518.57750,0.6137442762
518.57800,0.003355460754
518.57850,0.003355460754
518.57900,0.003355460754
518.57950,-0.6070333546
518.58000,-1.21742217
518.58050,-1.21742217
518.58100,0.003355460754
518.58150,0.6137442762
518.58200,0.6137442762
518.58250,-0.3018389469
518.58300,-1.827810985
518.58350,-2.133005393
518.58400,-1.21742217
518.58450,0.003355460754
518.58500,0.9189386839
518.58550,0.9189386839
518.58600,0.9189386839
518.58650,0.6137442762
518.58700,0.003355460754
518.58750,-1.21742217
518.58800,-3.353783024
518.58850,-4.574560655
518.58900,-4.879755062
518.58950,-4.574560655
518.59000,-3.048588616
518.59050,-0.6070333546
518.59100,0.9189386839
518.59150,1.529327499
518.59200,0.9189386839
518.59250,0.9189386839
518.59300,1.224133092
518.59350,1.224133092
518.59400,0.6137442762
518.59450,0.3085498685
518.59500,0.3085498685
518.59550,-0.3018389469
518.59600,-1.21742217
518.59650,-1.21742217
518.59700,0.3085498685
518.59750,1.834521907
518.59800,2.139716315
518.59850,3.055299538
518.59900,5.496854799
518.59950,7.328021246
518.60000,5.802049207
518.60050,3.055299538
518.60100,1.834521907
518.60150,3.360493945
518.60200,4.276077169
518.60250,2.444910722
518.60300,0.003355460754
518.60350,-1.827810985
518.60400,-2.438199801
518.60450,-2.743394209
518.60500,-2.438199801
518.60550,-0.9122277624
518.60600,0.6137442762
518.60650,0.9189386839
518.60700,-0.3018389469
518.60750,-1.522616578
518.60800,-1.21742217
518.60850,0.003355460754
518.60900,0.003355460754
518.60950,-0.9122277624
518.61000,-1.827810985
518.61050,-1.827810985
518.61100,-1.522616578
518.61150,-1.522616578
518.61200,-1.21742217
518.61250,0.003355460754
518.61300,0.9189386839
518.61350,0.9189386839
518.61400,0.003355460754
518.61450,-0.3018389469
518.61500,0.9189386839
518.61550,2.444910722
518.61600,2.444910722
518.61650,1.224133092
518.61700,0.6137442762
518.61750,1.224133092
518.61800,1.529327499
518.61850,1.224133092
518.61900,1.529327499
518.61950,2.75010513
518.62000,4.276077169
518.62050,4.276077169
518.62100,3.055299538
518.62150,2.139716315
518.62200,2.139716315
518.62250,2.139716315
518.62300,2.139716315
518.62350,1.529327499
518.62400,0.6137442762
518.62450,0.003355460754
518.62500,-0.9122277624
518.62550,-2.133005393
518.62600,-3.658977432
518.62650,-4.879755062
518.62700,-4.879755062
518.62750,-4.269366247
518.62800,-3.658977432
518.62850,-3.353783024
518.62900,-2.438199801
518.62950,-1.827810985
518.63000,-2.438199801
518.63050,-4.574560655
518.63100,-5.795338286
518.63150,-4.574560655
518.63200,-1.827810985
518.63250,0.003355460754
518.63300,0.003355460754
518.63350,0.003355460754
518.63400,0.003355460754
518.63450,0.3085498685
518.63500,0.003355460754
518.63550,-0.6070333546
518.63600,-1.522616578
518.63650,-0.6070333546
518.63700,1.224133092
518.63750,2.444910722
518.63800,1.834521907
518.63850,0.3085498685
518.63900,0.003355460754
518.63950,0.3085498685
518.64000,0.003355460754
518.64050,-0.9122277624
518.64100,-0.3018389469
518.64150,0.3085498685
518.64200,0.003355460754
518.64250,-0.9122277624
518.64300,-1.522616578
518.64350,-0.9122277624
518.64400,-0.3018389469
518.64450,-0.9122277624
518.64500,-1.21742217
518.64550,-0.6070333546
518.64600,0.003355460754
518.64650,0.003355460754
518.64700,-0.9122277624
518.64750,-1.21742217
518.64800,-1.522616578
518.64850,-2.133005393
518.64900,-2.133005393
518.64950,-1.21742217
518.65000,0.003355460754
518.65050,0.003355460754
518.65100,-0.6070333546
518.65150,-2.133005393
518.65200,-2.743394209
518.65250,-1.827810985
518.65300,-0.6070333546
518.65350,-0.3018389469
518.65400,-0.3018389469
518.65450,0.003355460754
518.65500,0.3085498685
518.65550,0.003355460754
518.65600,-0.9122277624
518.65650,-1.21742217
518.65700,-0.6070333546
518.65750,-0.6070333546
518.65800,-1.21742217
518.65850,-1.522616578
518.65900,-0.3018389469
518.65950,1.529327499
518.66000,3.360493945
518.66050,3.970882761
518.66100,3.055299538
518.66150,1.224133092
518.66200,-0.3018389469
518.66250,-0.9122277624
518.66300,-1.21742217
518.66350,-1.522616578
518.66400,-0.9122277624
518.66450,-0.3018389469
518.66500,0.003355460754
518.66550,-0.6070333546
518.66600,-0.9122277624
518.66650,0.003355460754
518.66700,1.834521907
518.66750,1.834521907
518.66800,0.3085498685
518.66850,0.3085498685
518.66900,1.224133092
518.66950,1.529327499
518.67000,0.9189386839
518.67050,0.9189386839
518.67100,1.224133092
518.67150,0.9189386839
518.67200,0.003355460754
518.67250,-0.3018389469
518.67300,0.003355460754
518.67350,-0.3018389469
518.67400,-1.827810985
518.67450,-3.658977432
518.67500,-3.658977432
518.67550,-2.133005393
518.67600,-0.3018389469
518.67650,0.6137442762
518.67700,0.9189386839
518.67750,0.3085498685
518.67800,0.003355460754
518.67850,0.003355460754
518.67900,0.3085498685
518.67950,0.003355460754
518.68000,-0.3018389469
518.68050,-0.9122277624
518.68100,-0.9122277624
518.68150,-1.522616578
518.68200,-1.827810985
518.68250,-0.3018389469
518.68300,1.529327499
518.68350,1.529327499
518.68400,-0.3018389469
518.68450,-1.827810985
518.68500,-1.21742217
518.68550,0.3085498685
518.68600,0.6137442762
518.68650,-0.3018389469
518.68700,-1.21742217
518.68750,-2.133005393
518.68800,-2.743394209
518.68850,-2.743394209
518.68900,-1.827810985
518.68950,-0.9122277624
518.69000,-0.9122277624
518.69050,-1.522616578
518.69100,-1.827810985
518.69150,-2.438199801
518.69200,-2.438199801
518.69250,-1.522616578
518.69300,-0.9122277624
518.69350,-1.522616578
518.69400,-3.048588616
518.69450,-3.048588616
518.69500,-0.6070333546
518.69550,1.834521907
518.69600,2.75010513
518.69650,2.139716315
518.69700,1.224133092
518.69750,1.529327499
518.69800,2.75010513
518.69850,3.665688353
518.69900,2.75010513
518.69950,0.9189386839
518.70000,0.003355460754
518.70050,1.224133092
518.70100,3.665688353
518.70150,4.276077169
518.70200,2.444910722
518.70250,1.224133092
518.70300,2.75010513
518.70350,5.496854799
518.70400,5.496854799
518.70450,3.055299538
518.70500,0.3085498685
518.70550,0.003355460754
518.70600,1.224133092
518.70650,3.665688353
518.70700,5.496854799
518.70750,5.496854799
518.70800,3.665688353
518.70850,1.834521907
518.70900,1.529327499
518.70950,1.834521907
518.71000,1.224133092
518.71050,0.003355460754
518.71100,-1.827810985
518.71150,-3.964171839
518.71200,-4.574560655
518.71250,-1.827810985
518.71300,2.444910722
518.71350,4.581271576
518.71400,2.75010513
518.71450,0.003355460754
518.71500,-0.3018389469
518.71550,1.224133092
518.71600,2.444910722
518.71650,1.834521907
518.71700,0.3085498685
518.71750,0.003355460754
518.71800,-0.6070333546
518.71850,-0.9122277624
518.71900,-0.6070333546
518.71950,0.003355460754
518.72000,0.003355460754
518.72050,-0.9122277624
518.72100,-0.9122277624
518.72150,0.3085498685
518.72200,1.529327499
518.72250,1.224133092
518.72300,0.3085498685
518.72350,-0.3018389469
518.72400,-0.6070333546
518.72450,-0.6070333546
518.72500,-0.9122277624
518.72550,-0.9122277624
518.72600,0.003355460754
518.72650,0.3085498685
518.72700,0.003355460754
518.72750,-1.21742217
518.72800,-1.827810985
518.72850,-1.522616578
518.72900,-1.522616578
518.72950,-2.438199801
518.73000,-3.048588616
518.73050,-3.048588616
518.73100,-3.048588616
518.73150,-3.964171839
518.73200,-3.658977432
518.73250,-1.827810985
518.73300,0.003355460754
518.73350,0.6137442762
518.73400,0.6137442762
518.73450,0.6137442762
518.73500,0.9189386839
518.73550,0.003355460754
518.73600,-0.9122277624
518.73650,-1.522616578
518.73700,-1.21742217
518.73750,-0.3018389469
518.73800,0.6137442762
518.73850,2.75010513
518.73900,3.970882761
518.73950,2.75010513
518.74000,0.6137442762
518.74050,0.6137442762
518.74100,2.75010513
518.74150,3.970882761
518.74200,3.055299538
518.74250,1.834521907
518.74300,1.529327499
518.74350,1.529327499
518.74400,0.9189386839
518.74450,0.9189386839
518.74500,1.529327499
518.74550,1.224133092
518.74600,0.6137442762
518.74650,0.003355460754
518.74700,0.003355460754
518.74750,-1.21742217
518.74800,-2.438199801
518.74850,-2.743394209
518.74900,-1.522616578
518.74950,-0.3018389469
518.75000,0.3085498685
518.75050,1.224133092
518.75100,1.834521907
518.75150,0.9189386839
518.75200,0.003355460754
518.75250,0.3085498685
518.75300,2.444910722
518.75350,2.444910722
518.75400,0.003355460754
518.75450,-1.827810985
518.75500,-1.827810985
518.75550,-1.21742217
518.75600,-1.827810985
518.75650,-2.743394209
518.75700,-1.522616578
518.75750,0.003355460754
518.75800,0.003355460754
518.75850,-0.9122277624
518.75900,-1.522616578
518.75950,-1.21742217
518.76000,-1.21742217
518.76050,-1.522616578
518.76100,-1.21742217
518.76150,0.003355460754
518.76200,1.834521907
518.76250,3.665688353
518.76300,4.276077169
518.76350,3.055299538
518.76400,0.003355460754
518.76450,-2.438199801
518.76500,-1.827810985
518.76550,0.003355460754
518.76600,0.6137442762
518.76650,-0.3018389469
518.76700,-0.9122277624
518.76750,-0.9122277624
518.76800,-1.21742217
518.76850,-3.048588616
518.76900,-4.269366247
518.76950,-3.964171839
518.77000,-2.438199801
518.77050,-1.522616578
518.77100,-2.133005393
518.77150,-2.438199801
518.77200,-1.827810985
518.77250,-0.9122277624
518.77300,0.003355460754
518.77350,0.003355460754
518.77400,0.003355460754
518.77450,0.003355460754
518.77500,-0.3018389469
518.77550,-0.3018389469
518.77600,0.003355460754
518.77650,0.9189386839
518.77700,2.139716315
518.77750,2.444910722
518.77800,2.444910722
518.77850,2.444910722
518.77900,2.75010513
518.77950,2.75010513
518.78000,2.75010513
518.78050,3.055299538
518.78100,3.360493945
518.78150,2.75010513
518.78200,1.529327499
518.78250,1.224133092
518.78300,2.139716315
518.78350,2.139716315
518.78400,1.224133092
518.78450,0.3085498685
518.78500,0.6137442762
518.78550,0.9189386839
518.78600,0.003355460754
518.78650,-0.9122277624
518.78700,-1.21742217
518.78750,-1.522616578
518.78800,-2.133005393
518.78850,-2.133005393
518.78900,-0.6070333546
518.78950,1.224133092
518.79000,1.224133092
518.79050,-0.6070333546
518.79100,-2.133005393
518.79150,-2.133005393
518.79200,-1.21742217
518.79250,-0.9122277624
518.79300,-0.6070333546
518.79350,0.003355460754
518.79400,0.003355460754
518.79450,-1.21742217
518.79500,-2.133005393
518.79550,-1.21742217
518.79600,0.9189386839
518.79650,1.834521907
518.79700,0.9189386839
518.79750,0.003355460754
518.79800,-0.3018389469
518.79850,-0.3018389469
518.79900,-0.9122277624
518.79950,-1.522616578
518.80000,-0.6070333546
518.80050,0.9189386839
518.80100,1.834521907
518.80150,1.224133092
518.80200,0.9189386839
518.80250,1.529327499
518.80300,3.055299538
518.80350,3.970882761
518.80400,3.970882761
518.80450,2.444910722
518.80500,0.9189386839
518.80550,0.003355460754
518.80600,-1.21742217
518.80650,-3.048588616
518.80700,-4.879755062
518.80750,-5.795338286
518.80800,-4.879755062
518.80850,-2.743394209
518.80900,0.003355460754
518.80950,1.834521907
518.81000,3.055299538
518.81050,2.75010513
518.81100,2.139716315
518.81150,1.834521907
518.81200,1.529327499
518.81250,0.6137442762
518.81300,-0.9122277624
518.81350,-2.743394209
518.81400,-2.743394209
518.81450,-0.6070333546
518.81500,2.139716315
518.81550,3.970882761
518.81600,3.360493945
518.81650,1.529327499
518.81700,0.3085498685
518.81750,0.3085498685
518.81800,0.6137442762
518.81850,0.6137442762
518.81900,0.003355460754
518.81950,0.003355460754
518.82000,0.6137442762
518.82050,0.9189386839
518.82100,0.6137442762
518.82150,0.003355460754
518.82200,0.003355460754
518.82250,0.003355460754
518.82300,0.3085498685
518.82350,0.3085498685
518.82400,0.003355460754
518.82450,0.003355460754
518.82500,0.3085498685
518.82550,-0.3018389469
518.82600,-1.522616578
518.82650,-2.743394209
518.82700,-1.827810985
518.82750,-0.3018389469
518.82800,0.003355460754
518.82850,-0.9122277624
518.82900,-2.743394209
518.82950,-3.658977432
518.83000,-3.658977432
518.83050,-3.658977432
518.83100,-3.658977432
518.83150,-3.353783024
518.83200,-2.438199801
518.83250,-2.438199801
518.83300,-3.048588616
518.83350,-2.133005393
518.83400,0.003355460754
518.83450,2.139716315
518.83500,2.444910722
518.83550,1.834521907
518.83600,0.9189386839
518.83650,0.003355460754
518.83700,-0.9122277624
518.83750,-0.9122277624
518.83800,0.6137442762
518.83850,2.139716315
518.83900,1.224133092
518.83950,-0.3018389469
518.84000,-0.6070333546
518.84050,1.529327499
518.84100,3.360493945
518.84150,3.055299538
518.84200,1.834521907
518.84250,0.6137442762
518.84300,0.003355460754
518.84350,-0.6070333546
518.84400,-0.3018389469
518.84450,0.003355460754
518.84500,-0.9122277624
518.84550,-2.438199801
518.84600,-3.048588616
518.84650,-2.743394209
518.84700,-2.743394209
518.84750,-3.353783024
518.84800,-2.743394209
518.84850,0.003355460754
518.84900,2.444910722
518.84950,1.529327499
518.85000,-1.522616578
518.85050,-2.743394209
518.85100,-1.21742217
518.85150,0.9189386839
518.85200,1.529327499
518.85250,0.3085498685
518.85300,-0.9122277624
518.85350,-1.21742217
518.85400,-0.6070333546
518.85450,0.003355460754
518.85500,-0.6070333546
518.85550,-0.9122277624
518.85600,-0.3018389469
518.85650,0.6137442762
518.85700,0.6137442762
518.85750,0.003355460754
518.85800,0.003355460754
518.85850,1.224133092
518.85900,2.139716315
518.85950,1.224133092
518.86000,0.003355460754
518.86050,0.003355460754
518.86100,0.9189386839
518.86150,0.6137442762
518.86200,0.3085498685
518.86250,0.9189386839
518.86300,1.834521907
518.86350,1.224133092
518.86400,0.003355460754
518.86450,-0.6070333546
518.86500,-0.6070333546
518.86550,-0.6070333546
518.86600,-0.9122277624
518.86650,-0.3018389469
518.86700,0.003355460754
518.86750,-0.3018389469
518.86800,-1.522616578
518.86850,-1.522616578
518.86900,0.003355460754
518.86950,0.6137442762
518.87000,-0.3018389469
518.87050,-2.133005393
518.87100,-2.743394209
518.87150,-2.438199801
518.87200,-2.438199801
518.87250,-2.438199801
518.87300,-1.522616578
518.87350,-0.3018389469
518.87400,0.003355460754
518.87450,-0.3018389469
518.87500,-0.9122277624
518.87550,-0.9122277624
518.87600,-0.6070333546
518.87650,-0.6070333546
518.87700,0.003355460754
518.87750,1.529327499
518.87800,2.139716315
518.87850,1.834521907
518.87900,1.529327499
518.87950,2.139716315
518.88000,1.834521907
518.88050,-0.3018389469
518.88100,-2.438199801
518.88150,-1.827810985
518.88200,0.9189386839
518.88250,2.139716315
518.88300,0.9189386839
518.88350,-0.3018389469
518.88400,0.003355460754
518.88450,1.529327499
518.88500,1.529327499
518.88550,0.6137442762
518.88600,0.003355460754
518.88650,0.003355460754
518.88700,-0.3018389469
518.88750,-0.9122277624
518.88800,-1.522616578
518.88850,-1.827810985
518.88900,-2.438199801
518.88950,-3.048588616
518.89000,-3.353783024
518.89050,-3.658977432
518.89100,-3.353783024
518.89150,-2.743394209
518.89200,-1.522616578
518.89250,-0.6070333546
518.89300,-0.6070333546
518.89350,-1.522616578
518.89400,-1.21742217
518.89450,0.003355460754
518.89500,1.224133092
518.89550,1.224133092
518.89600,0.3085498685
518.89650,-0.3018389469
518.89700,0.003355460754
518.89750,1.529327499
518.89800,2.75010513
518.89850,3.665688353
518.89900,3.360493945
518.89950,2.444910722
518.90000,0.9189386839
518.90050,0.003355460754
518.90100,0.3085498685
518.90150,1.529327499
518.90200,2.139716315
518.90250,1.529327499
518.90300,0.9189386839
518.90350,1.224133092
518.90400,0.9189386839
518.90450,0.003355460754
518.90500,-0.3018389469
518.90550,0.3085498685
518.90600,0.6137442762
518.90650,-0.3018389469
518.90700,-0.9122277624
518.90750,-0.3018389469
518.90800,0.3085498685
518.90850,-0.3018389469
518.90900,-0.9122277624
518.90950,-0.3018389469
518.91000,0.6137442762
518.91050,0.003355460754
518.91100,-1.21742217
518.91150,-1.21742217
518.91200,-0.6070333546
518.91250,-1.827810985
518.91300,-3.353783024
518.91350,-2.743394209
518.91400,-1.522616578
518.91450,-2.133005393
518.91500,-3.048588616
518.91550,-2.133005393
518.91600,0.3085498685
518.91650,0.3085498685
518.91700,-1.21742217
518.91750,-1.522616578
518.91800,1.224133092
518.91850,3.970882761
518.91900,3.970882761
518.91950,3.970882761
518.92000,5.802049207
518.92050,6.107243615
518.92100,2.139716315
518.92150,-2.133005393
518.92200,-1.522616578
518.92250,3.055299538
518.92300,5.496854799
518.92350,3.360493945
518.92400,0.3085498685
518.92450,0.6137442762
518.92500,2.139716315
518.92550,2.444910722
518.92600,1.224133092
518.92650,0.9189386839
518.92700,2.139716315
518.92750,2.75010513
518.92800,1.224133092
518.92850,-0.3018389469
518.92900,-0.6070333546
518.92950,-0.3018389469
518.93000,-0.9122277624
518.93050,-1.522616578
518.93100,-1.21742217
518.93150,-0.3018389469
518.93200,0.003355460754
518.93250,0.003355460754
518.93300,0.9189386839
518.93350,3.055299538
518.93400,3.665688353
518.93450,1.529327499
518.93500,-1.21742217
518.93550,-2.133005393
518.93600,-0.9122277624
518.93650,0.9189386839
518.93700,2.75010513
518.93750,3.665688353
518.93800,3.360493945
518.93850,0.9189386839
518.93900,-0.9122277624
518.93950,-0.3018389469
518.94000,1.529327499
518.94050,3.360493945
518.94100,3.055299538
518.94150,1.834521907
518.94200,1.224133092
518.94250,0.9189386839
518.94300,0.3085498685
518.94350,-0.3018389469
518.94400,-0.9122277624
518.94450,-0.6070333546
518.94500,0.003355460754
518.94550,1.834521907
518.94600,2.75010513
518.94650,1.834521907
518.94700,0.003355460754
518.94750,-1.21742217
518.94800,-0.6070333546
518.94850,0.6137442762
518.94900,0.9189386839
518.94950,0.003355460754
518.95000,-1.827810985
518.95050,-3.048588616
518.95100,-3.048588616
518.95150,-2.133005393
518.95200,-0.6070333546
518.95250,0.003355460754
518.95300,-0.9122277624
518.95350,-2.133005393
518.95400,-2.438199801
518.95450,-1.522616578
518.95500,-0.3018389469
518.95550,0.003355460754
518.95600,-0.9122277624
518.95650,-1.21742217
518.95700,-0.6070333546
518.95750,0.3085498685
518.95800,1.224133092
518.95850,1.224133092
518.95900,1.224133092
518.95950,1.834521907
518.96000,2.75010513
518.96050,2.75010513
518.96100,2.444910722
518.96150,2.139716315
518.96200,3.055299538
518.96250,4.276077169
518.96300,4.581271576
518.96350,4.276077169
518.96400,3.665688353
518.96450,2.75010513
518.96500,0.9189386839
518.96550,-0.9122277624
518.96600,-2.743394209
518.96650,-3.658977432
518.96700,-4.269366247
518.96750,-4.879755062
518.96800,-5.490143878
518.96850,-6.405727101
518.96900,-7.321310324
518.96950,-8.236893547
518.97000,-7.321310324
518.97050,-4.879755062
518.97100,-1.827810985
518.97150,0.003355460754
518.97200,0.003355460754
518.97250,-0.6070333546
518.97300,-1.21742217
518.97350,-1.21742217
518.97400,-1.21742217
518.97450,-1.21742217
518.97500,-1.827810985
518.97550,-1.827810985
518.97600,-1.21742217
518.97650,-0.9122277624
518.97700,-0.6070333546
518.97750,0.003355460754
518.97800,0.3085498685
518.97850,0.9189386839
518.97900,0.9189386839
518.97950,0.9189386839
518.98000,1.224133092
518.98050,1.529327499
518.98100,1.529327499
518.98150,1.834521907
518.98200,1.834521907
518.98250,1.834521907
518.98300,2.444910722
518.98350,3.360493945
518.98400,3.665688353
518.98450,2.444910722
518.98500,1.224133092
518.98550,0.6137442762
518.98600,0.9189386839
518.98650,0.6137442762
518.98700,0.3085498685
518.98750,0.3085498685
518.98800,0.3085498685
518.98850,-0.6070333546
518.98900,-1.827810985
518.98950,-1.21742217
518.99000,0.9189386839
518.99050,2.139716315
518.99100,0.3085498685
518.99150,-2.133005393
518.99200,-2.743394209
518.99250,-1.827810985
518.99300,-0.9122277624
518.99350,-1.522616578
518.99400,-1.827810985
518.99450,-1.827810985
518.99500,-1.522616578
518.99550,-1.827810985
518.99600,-2.133005393
518.99650,-1.827810985
518.99700,-1.522616578
518.99750,-1.21742217
518.99800,-0.6070333546
518.99850,0.003355460754
518.99900,0.3085498685
518.99950,0.6137442762
519.00000,0.6137442762
519.00050,0.9189386839
519.00100,2.139716315
519.00150,3.360493945
519.00200,3.665688353
519.00250,3.055299538
519.00300,3.055299538
519.00350,3.360493945
519.00400,3.665688353
519.00450,3.055299538
519.00500,2.444910722
519.00550,2.444910722
519.00600,1.834521907
519.00650,0.6137442762
519.00700,0.3085498685
519.00750,1.224133092
519.00800,2.444910722
519.00850,1.529327499
519.00900,-0.9122277624
519.00950,-3.048588616
519.01000,-4.269366247
519.01050,-4.879755062
519.01100,-4.574560655
519.01150,-2.743394209
519.01200,-1.21742217
519.01250,-0.6070333546
519.01300,-0.9122277624
519.01350,-1.21742217
519.01400,-0.6070333546
519.01450,0.003355460754
519.01500,0.003355460754
519.01550,0.003355460754
519.01600,-0.3018389469
519.01650,-1.21742217
519.01700,-1.827810985
519.01750,-1.522616578
519.01800,-0.3018389469
519.01850,0.3085498685
519.01900,0.6137442762
519.01950,0.6137442762
519.02000,0.6137442762
519.02050,1.529327499
519.02100,3.055299538
519.02150,3.665688353
519.02200,3.055299538
519.02250,1.834521907
519.02300,2.444910722
519.02350,3.360493945
519.02400,2.444910722
519.02450,0.003355460754
519.02500,-1.827810985
519.02550,-1.522616578
519.02600,-0.9122277624
519.02650,-0.6070333546
519.02700,-0.6070333546
519.02750,0.003355460754
519.02800,0.003355460754
519.02850,-0.9122277624
519.02900,-0.6070333546
519.02950,0.003355460754
519.03000,0.6137442762
519.03050,0.3085498685
519.03100,0.3085498685
519.03150,0.6137442762
519.03200,0.3085498685
519.03250,-0.9122277624
519.03300,-1.21742217
519.03350,0.003355460754
519.03400,0.6137442762
519.03450,0.003355460754
519.03500,-0.3018389469
519.03550,0.003355460754
519.03600,0.9189386839
519.03650,1.224133092
519.03700,1.224133092
519.03750,1.224133092
519.03800,0.6137442762
519.03850,-0.6070333546
519.03900,-1.522616578
519.03950,-0.6070333546
519.04000,0.003355460754
519.04050,-0.6070333546
519.04100,-2.133005393
519.04150,-2.743394209
519.04200,-0.9122277624
519.04250,1.529327499
519.04300,3.665688353
519.04350,3.360493945
519.04400,1.224133092
519.04450,0.003355460754
519.04500,0.003355460754
519.04550,0.6137442762
519.04600,0.3085498685
519.04650,-0.9122277624
519.04700,-2.133005393
519.04750,-2.438199801
519.04800,-1.827810985
519.04850,-0.9122277624
519.04900,0.3085498685
519.04950,1.834521907
519.05000,2.75010513
519.05050,2.444910722
519.05100,0.9189386839
519.05150,-1.827810985
519.05200,-5.490143878
519.05250,-7.626504732
519.05300,-7.321310324
519.05350,-5.795338286
519.05400,-4.269366247
519.05450,-3.353783024
519.05500,-2.438199801
519.05550,-1.827810985
519.05600,-1.522616578
519.05650,-0.3018389469
519.05700,1.529327499
519.05750,3.665688353
519.05800,3.665688353
519.05850,2.139716315
519.05900,0.6137442762
519.05950,-0.9122277624
519.06000,-2.438199801
519.06050,-3.353783024
519.06100,-2.133005393
519.06150,0.003355460754
519.06200,0.3085498685
519.06250,-1.522616578
519.06300,-3.353783024
519.06350,-3.048588616
519.06400,-1.21742217
519.06450,0.003355460754
519.06500,0.003355460754
519.06550,0.003355460754
519.06600,0.003355460754
519.06650,-0.9122277624
519.06700,-2.438199801
519.06750,-2.133005393
519.06800,0.003355460754
519.06850,0.9189386839
519.06900,0.6137442762
519.06950,0.003355460754
519.07000,0.9189386839
519.07050,1.224133092
519.07100,0.3085498685
519.07150,-0.9122277624
519.07200,-0.9122277624
519.07250,0.003355460754
519.07300,0.003355460754
519.07350,-0.3018389469
519.07400,-0.3018389469
519.07450,-0.3018389469
519.07500,-0.6070333546
519.07550,0.003355460754
519.07600,1.529327499
519.07650,3.360493945
519.07700,3.055299538
519.07750,0.9189386839
519.07800,0.003355460754
519.07850,0.003355460754
519.07900,0.003355460754
519.07950,-0.6070333546
519.08000,-0.6070333546
519.08050,-0.3018389469
519.08100,-0.3018389469
519.08150,-0.9122277624
519.08200,-0.9122277624
519.08250,0.003355460754
519.08300,0.003355460754
519.08350,-0.3018389469
519.08400,-0.9122277624
519.08450,-0.6070333546
519.08500,-0.3018389469
519.08550,-0.6070333546
519.08600,-1.21742217
519.08650,-0.6070333546
519.08700,0.003355460754
519.08750,-0.9122277624
519.08800,-2.133005393
519.08850,-2.438199801
519.08900,-1.827810985
519.08950,-1.21742217
519.09000,-0.9122277624
519.09050,-0.6070333546
519.09100,0.003355460754
519.09150,-0.6070333546
519.09200,-2.438199801
519.09250,-3.048588616
519.09300,-1.522616578
519.09350,0.003355460754
519.09400,0.6137442762
519.09450,0.003355460754
519.09500,0.6137442762
519.09550,2.444910722
519.09600,3.665688353
519.09650,3.055299538
519.09700,3.055299538
519.09750,3.360493945
519.09800,3.360493945
519.09850,2.139716315
519.09900,1.224133092
519.09950,1.529327499
519.10000,2.139716315
519.10050,2.75010513
519.10100,3.360493945
519.10150,3.665688353
519.10200,3.055299538
519.10250,1.529327499
519.10300,0.9189386839
519.10350,2.139716315
519.10400,3.665688353
519.10450,4.886465984
519.10500,5.496854799
519.10550,5.496854799
519.10600,3.360493945
519.10650,0.3085498685
519.10700,-1.21742217
519.10750,-1.21742217
519.10800,-1.522616578
519.10850,-3.048588616
519.10900,-3.964171839
519.10950,-1.827810985
519.11000,0.3085498685
519.11050,0.6137442762
519.11100,-0.6070333546
519.11150,-0.3018389469
519.11200,1.224133092
519.11250,2.139716315
519.11300,1.224133092
519.11350,0.9189386839
519.11400,1.834521907
519.11450,2.139716315
519.11500,0.6137442762
519.11550,-0.9122277624
519.11600,-0.9122277624
519.11650,0.9189386839
519.11700,2.139716315
519.11750,1.834521907
519.11800,0.6137442762
519.11850,0.003355460754
519.11900,0.003355460754
519.11950,0.003355460754
519.12000,0.003355460754
519.12050,0.3085498685
519.12100,1.529327499
519.12150,1.834521907
519.12200,0.9189386839
519.12250,-0.3018389469
519.12300,-0.9122277624
519.12350,-0.3018389469
519.12400,-0.6070333546
519.12450,-3.353783024
519.12500,-7.321310324
519.12550,-8.847282363
519.12600,-7.016115916
519.12650,-4.879755062
519.12700,-4.574560655
519.12750,-5.490143878
519.12800,-4.574560655
519.12850,-2.133005393
519.12900,0.003355460754
519.12950,0.6137442762
519.13000,0.003355460754
519.13050,-0.9122277624
519.13100,-1.827810985
519.13150,-2.133005393
519.13200,-0.9122277624
519.13250,0.3085498685
519.13300,0.6137442762
519.13350,0.6137442762
519.13400,0.6137442762
519.13450,0.9189386839
519.13500,0.9189386839
519.13550,1.529327499
519.13600,3.055299538
519.13650,3.360493945
519.13700,2.139716315
519.13750,0.3085498685
519.13800,0.3085498685
519.13850,1.529327499
519.13900,1.834521907
519.13950,1.224133092
519.14000,1.834521907
519.14050,3.665688353
519.14100,4.581271576
519.14150,3.665688353
519.14200,2.139716315
519.14250,1.529327499
519.14300,0.9189386839
519.14350,-0.3018389469
519.14400,-1.21742217
519.14450,-1.21742217
519.14500,-0.9122277624
519.14550,-1.522616578
519.14600,-2.743394209
519.14650,-3.353783024
519.14700,-3.048588616
519.14750,-2.743394209
519.14800,-2.438199801
519.14850,-1.21742217
519.14900,0.003355460754
519.14950,0.6137442762
519.15000,0.003355460754
519.15050,-0.9122277624
519.15100,-0.9122277624
519.15150,-0.6070333546
519.15200,-0.3018389469
519.15250,0.003355460754
519.15300,0.3085498685
519.15350,0.3085498685
519.15400,-0.6070333546
519.15450,-0.9122277624
519.15500,0.6137442762
519.15550,2.444910722
519.15600,3.055299538
519.15650,1.834521907
519.15700,1.224133092
519.15750,2.139716315
519.15800,3.055299538
519.15850,3.360493945
519.15900,2.444910722
519.15950,1.224133092
519.16000,0.6137442762
519.16050,1.529327499
519.16100,3.665688353
519.16150,5.191660392
519.16200,3.970882761
519.16250,1.834521907
519.16300,0.003355460754
519.16350,-0.3018389469
519.16400,-0.9122277624
519.16450,-1.21742217
519.16500,-0.3018389469
519.16550,1.224133092
519.16600,2.139716315
519.16650,0.6137442762
519.16700,-0.6070333546
519.16750,-0.3018389469
519.16800,0.3085498685
519.16850,0.3085498685
519.16900,-0.3018389469
519.16950,-1.21742217
519.17000,-1.21742217
519.17050,-0.9122277624
519.17100,-1.21742217
519.17150,-2.133005393
519.17200,-2.743394209
519.17250,-3.048588616
519.17300,-2.438199801
519.17350,-1.827810985
519.17400,-1.522616578
519.17450,-2.133005393
519.17500,-2.743394209
519.17550,-2.743394209
519.17600,-2.133005393
519.17650,-0.3018389469
519.17700,0.9189386839
519.17750,2.139716315
519.17800,3.360493945
519.17850,3.665688353
519.17900,3.665688353
519.17950,3.055299538
519.18000,1.834521907
519.18050,0.3085498685
519.18100,-0.6070333546
519.18150,-1.21742217
519.18200,-1.21742217
519.18250,-0.6070333546
519.18300,-0.9122277624
519.18350,-2.438199801
519.18400,-3.658977432
519.18450,-3.353783024
519.18500,-1.827810985
519.18550,-1.827810985
519.18600,-3.353783024
519.18650,-4.269366247
519.18700,-3.048588616
519.18750,-1.21742217
519.18800,-0.9122277624
519.18850,-1.827810985
519.18900,-1.522616578
519.18950,0.9189386839
519.19000,3.360493945
519.19050,3.665688353
519.19100,1.834521907
519.19150,0.6137442762
519.19200,0.3085498685
519.19250,0.003355460754
519.19300,0.003355460754
519.19350,-0.3018389469
519.19400,-0.3018389469
519.19450,0.6137442762
519.19500,2.444910722
519.19550,3.360493945
519.19600,3.055299538
519.19650,1.834521907
519.19700,1.834521907
519.19750,2.75010513
519.19800,3.360493945
519.19850,2.139716315
519.19900,1.224133092
519.19950,2.139716315
519.20000,3.665688353
519.20050,3.970882761
519.20100,2.75010513
519.20150,1.529327499
519.20200,1.224133092
519.20250,0.3085498685
519.20300,-0.6070333546
519.20350,-0.9122277624
519.20400,-0.3018389469
519.20450,0.6137442762
519.20500,0.6137442762
519.20550,-0.3018389469
519.20600,-1.827810985
519.20650,-2.743394209
519.20700,-2.743394209
519.20750,-2.438199801
519.20800,-2.438199801
519.20850,-2.743394209
519.20900,-2.743394209
519.20950,-1.522616578
519.21000,-0.6070333546
519.21050,-0.6070333546
519.21100,-1.522616578
519.21150,-2.133005393
519.21200,-1.522616578
519.21250,-0.3018389469
519.21300,0.003355460754
519.21350,0.003355460754
519.21400,-0.3018389469
519.21450,-0.6070333546
519.21500,-0.6070333546
519.21550,0.003355460754
519.21600,0.6137442762
519.21650,1.834521907
519.21700,3.055299538
519.21750,3.665688353
519.21800,3.055299538
519.21850,2.139716315
519.21900,1.529327499
519.21950,1.529327499
519.22000,1.529327499
519.22050,0.9189386839
519.22100,0.003355460754
519.22150,0.003355460754
519.22200,0.6137442762
519.22250,0.9189386839
519.22300,0.6137442762
519.22350,0.003355460754
519.22400,-0.3018389469
519.22450,0.003355460754
519.22500,1.529327499
519.22550,2.139716315
519.22600,1.224133092
519.22650,-0.3018389469
519.22700,-1.827810985
519.22750,-1.827810985
519.22800,-0.6070333546
519.22850,0.3085498685
519.22900,0.9189386839
519.22950,0.6137442762
519.23000,-0.9122277624
519.23050,-3.353783024
519.23100,-4.269366247
519.23150,-3.048588616
519.23200,0.003355460754
519.23250,1.529327499
519.23300,1.834521907
519.23350,1.834521907
519.23400,2.139716315
519.23450,2.75010513
519.23500,2.444910722
519.23550,1.529327499
519.23600,1.529327499
519.23650,2.139716315
519.23700,2.444910722
519.23750,2.444910722
519.23800,1.834521907
519.23850,1.224133092
519.23900,0.003355460754
519.23950,-0.9122277624
519.24000,-1.522616578
519.24050,-0.9122277624
519.24100,0.003355460754
519.24150,0.6137442762
519.24200,0.9189386839
519.24250,0.3085498685
519.24300,-0.6070333546
519.24350,-2.133005393
519.24400,-2.743394209
519.24450,-1.21742217
519.24500,0.3085498685
519.24550,1.224133092
519.24600,0.3085498685
519.24650,-0.9122277624
519.24700,-1.522616578
519.24750,-1.21742217
519.24800,-0.9122277624
519.24850,-1.522616578
519.24900,-2.743394209
519.24950,-3.353783024
519.25000,-3.353783024
519.25050,-3.048588616
519.25100,-2.133005393
519.25150,-0.6070333546
519.25200,0.003355460754
519.25250,0.3085498685
519.25300,0.6137442762
519.25350,1.224133092
519.25400,0.9189386839
519.25450,-0.3018389469
519.25500,-2.133005393
519.25550,-2.133005393
519.25600,-0.3018389469
519.25650,0.9189386839
519.25700,0.9189386839
519.25750,0.3085498685
519.25800,0.6137442762
519.25850,1.224133092
519.25900,1.224133092
519.25950,0.003355460754
519.26000,-0.3018389469
519.26050,0.3085498685
519.26100,2.444910722
519.26150,3.970882761
519.26200,4.276077169
519.26250,3.360493945
519.26300,1.224133092
519.26350,-0.6070333546
519.26400,-1.21742217
519.26450,-0.6070333546
519.26500,0.003355460754
519.26550,-0.9122277624
519.26600,-1.827810985
519.26650,-1.21742217
519.26700,0.003355460754
519.26750,-0.3018389469
519.26800,-2.133005393
519.26850,-3.353783024
519.26900,-2.438199801
519.26950,-1.522616578
519.27000,-2.133005393
519.27050,-2.743394209
519.27100,-1.522616578
519.27150,0.003355460754
519.27200,0.003355460754
519.27250,-0.6070333546
519.27300,-0.3018389469
519.27350,0.003355460754
519.27400,-0.6070333546
519.27450,-2.133005393
519.27500,-2.743394209
519.27550,-1.827810985
519.27600,-1.522616578
519.27650,-2.438199801
519.27700,-2.743394209
519.27750,-1.522616578
519.27800,0.3085498685
519.27850,1.834521907
519.27900,1.529327499
519.27950,0.3085498685
519.28000,-0.6070333546
519.28050,0.003355460754
519.28100,1.224133092
519.28150,1.834521907
519.28200,0.6137442762
519.28250,-1.522616578
519.28300,-3.048588616
519.28350,-3.658977432
519.28400,-2.438199801
519.28450,-0.6070333546
519.28500,0.9189386839
519.28550,1.529327499
519.28600,0.003355460754
519.28650,-1.827810985
519.28700,-3.048588616
519.28750,-2.438199801
519.28800,-1.21742217
519.28850,-0.6070333546
519.28900,-0.3018389469
519.28950,-0.3018389469
519.29000,-0.3018389469
519.29050,-0.6070333546
519.29100,-1.827810985
519.29150,-2.743394209
519.29200,-2.438199801
519.29250,-1.21742217
519.29300,-0.6070333546
519.29350,-1.21742217
519.29400,-1.827810985
519.29450,-1.21742217
519.29500,0.3085498685
519.29550,0.9189386839
519.29600,0.003355460754
519.29650,-1.21742217
519.29700,-1.827810985
519.29750,-0.9122277624
519.29800,0.6137442762
519.29850,1.834521907
519.29900,2.444910722
519.29950,3.055299538
519.30000,3.360493945
519.30050,3.055299538
519.30100,2.139716315
519.30150,1.224133092
519.30200,1.224133092
519.30250,0.9189386839
519.30300,0.003355460754
519.30350,-1.522616578
519.30400,-1.21742217
519.30450,0.003355460754
519.30500,0.6137442762
519.30550,0.3085498685
519.30600,0.003355460754
519.30650,0.003355460754
519.30700,0.003355460754
519.30750,-0.9122277624
519.30800,-1.522616578
519.30850,-1.522616578
519.30900,-1.522616578
519.30950,-1.522616578
519.31000,-1.21742217
519.31050,-0.9122277624
519.31100,-0.6070333546
519.31150,-1.21742217
519.31200,-1.522616578
519.31250,-0.9122277624
519.31300,-0.6070333546
519.31350,-1.522616578
519.31400,-2.743394209
519.31450,-2.743394209
519.31500,-1.522616578
519.31550,-0.6070333546
519.31600,-0.6070333546
519.31650,-0.6070333546
519.31700,0.003355460754
519.31750,1.834521907
519.31800,2.444910722
519.31850,2.139716315
519.31900,0.3085498685
519.31950,-1.21742217
519.32000,-1.522616578
519.32050,0.003355460754
519.32100,2.139716315
519.32150,3.970882761
519.32200,3.970882761
519.32250,3.360493945
519.32300,2.444910722
519.32350,1.224133092
519.32400,0.3085498685
519.32450,0.3085498685
519.32500,0.6137442762
519.32550,0.003355460754
519.32600,-0.9122277624
519.32650,-1.21742217
519.32700,0.3085498685
519.32750,2.444910722
519.32800,2.139716315
519.32850,0.003355460754
519.32900,-1.21742217
519.32950,-0.6070333546
519.33000,0.003355460754
519.33050,0.003355460754
519.33100,-0.6070333546
519.33150,-0.9122277624
519.33200,-0.3018389469
519.33250,0.003355460754
519.33300,0.003355460754
519.33350,-0.3018389469
519.33400,0.003355460754
519.33450,0.6137442762
519.33500,1.529327499
519.33550,1.834521907
519.33600,2.75010513
519.33650,3.055299538
519.33700,3.055299538
519.33750,2.139716315
519.33800,2.139716315
519.33850,3.055299538
519.33900,3.970882761
519.33950,3.055299538
519.34000,1.529327499
519.34050,1.224133092
519.34100,2.139716315
519.34150,3.360493945
519.34200,4.581271576
519.34250,4.886465984
519.34300,4.276077169
519.34350,2.75010513
519.34400,0.9189386839
519.34450,0.3085498685
519.34500,0.3085498685
519.34550,-0.6070333546
519.34600,-2.743394209
519.34650,-4.574560655
519.34700,-4.574560655
519.34750,-3.964171839
519.34800,-3.964171839
519.34850,-3.658977432
519.34900,-3.353783024
519.34950,-3.353783024
519.35000,-4.269366247
519.35050,-4.879755062
519.35100,-3.658977432
519.35150,-2.133005393
519.35200,-2.743394209
519.35250,-3.964171839
519.35300,-3.964171839
519.35350,-2.133005393
519.35400,-1.522616578
519.35450,-2.438199801
519.35500,-2.133005393
519.35550,0.6137442762
519.35600,3.970882761
519.35650,4.886465984
519.35700,3.665688353
519.35750,2.75010513
519.35800,2.75010513
519.35850,2.444910722
519.35900,0.9189386839
519.35950,-0.3018389469
519.36000,-1.21742217
519.36050,-1.21742217
519.36100,-0.6070333546
519.36150,0.003355460754
519.36200,0.3085498685
519.36250,0.9189386839
519.36300,1.224133092
519.36350,1.224133092
519.36400,0.6137442762
519.36450,0.9189386839
519.36500,1.529327499
519.36550,2.444910722
519.36600,2.139716315
519.36650,0.6137442762
519.36700,0.003355460754
519.36750,0.003355460754
519.36800,1.529327499
519.36850,1.529327499
519.36900,0.003355460754
519.36950,-1.522616578
519.37000,-1.522616578
519.37050,0.003355460754
519.37100,2.139716315
519.37150,3.055299538
519.37200,2.139716315
519.37250,0.6137442762
519.37300,-0.6070333546
519.37350,-1.21742217
519.37400,-1.522616578
519.37450,-1.21742217
519.37500,-0.9122277624
519.37550,-0.3018389469
519.37600,0.3085498685
519.37650,0.003355460754
519.37700,-0.3018389469
519.37750,0.003355460754
519.37800,1.834521907
519.37850,3.055299538
519.37900,2.139716315
519.37950,0.003355460754
519.38000,-0.3018389469
519.38050,0.003355460754
519.38100,0.9189386839
519.38150,1.834521907
519.38200,2.444910722
519.38250,3.055299538
519.38300,2.75010513
519.38350,1.529327499
519.38400,1.529327499
519.38450,2.444910722
519.38500,3.360493945
519.38550,3.055299538
519.38600,2.139716315
519.38650,0.6137442762
519.38700,0.003355460754
519.38750,0.003355460754
519.38800,1.224133092
519.38850,1.834521907
519.38900,0.3085498685
519.38950,-1.21742217
519.39000,-0.9122277624
519.39050,0.003355460754
519.39100,-0.6070333546
519.39150,-2.743394209
519.39200,-3.964171839
519.39250,-3.048588616
519.39300,-1.21742217
519.39350,0.003355460754
519.39400,0.003355460754
519.39450,0.003355460754
519.39500,0.003355460754
519.39550,0.003355460754
519.39600,0.9189386839
519.39650,1.224133092
519.39700,0.3085498685
519.39750,-0.3018389469
519.39800,-0.3018389469
519.39850,0.003355460754
519.39900,0.003355460754
519.39950,0.3085498685
519.40000,1.834521907
519.40050,3.665688353
519.40100,3.970882761
519.40150,3.055299538
519.40200,2.139716315
519.40250,1.834521907
519.40300,0.6137442762
519.40350,-0.6070333546
519.40400,-1.21742217
519.40450,-1.21742217
519.40500,-0.6070333546
519.40550,-0.3018389469
519.40600,0.3085498685
519.40650,0.9189386839
519.40700,0.003355460754
519.40750,-1.827810985
519.40800,-1.827810985
519.40850,-0.9122277624
519.40900,-0.6070333546
519.40950,-2.438199801
519.41000,-3.048588616
519.41050,-1.21742217
519.41100,1.224133092
519.41150,1.834521907
519.41200,0.3085498685
519.41250,-0.3018389469
519.41300,0.003355460754
519.41350,0.3085498685
519.41400,0.3085498685
519.41450,0.3085498685
519.41500,1.529327499
519.41550,2.139716315
519.41600,1.224133092
519.41650,0.003355460754
519.41700,-0.6070333546
519.41750,-0.3018389469
519.41800,0.003355460754
519.41850,0.003355460754
519.41900,0.3085498685
519.41950,1.834521907
519.42000,3.055299538
519.42050,3.055299538
519.42100,2.139716315
519.42150,0.9189386839
519.42200,0.6137442762
519.42250,0.9189386839
519.42300,0.9189386839
519.42350,0.9189386839
519.42400,0.6137442762
519.42450,0.6137442762
519.42500,1.224133092
519.42550,1.834521907
519.42600,0.9189386839
519.42650,-1.21742217
519.42700,-4.879755062
519.42750,-7.016115916
519.42800,-6.710921509
519.42850,-4.269366247
519.42900,-1.21742217
519.42950,0.003355460754
519.43000,-0.3018389469
519.43050,-1.522616578
519.43100,-1.827810985
519.43150,-1.827810985
519.43200,-1.827810985
519.43250,-1.827810985
519.43300,-1.827810985
519.43350,-1.827810985
519.43400,-1.522616578
519.43450,-0.3018389469
519.43500,1.529327499
519.43550,2.444910722
519.43600,0.9189386839
519.43650,-0.3018389469
519.43700,0.003355460754
519.43750,0.003355460754
519.43800,-0.9122277624
519.43850,-2.743394209
519.43900,-2.438199801
519.43950,0.003355460754
519.44000,2.139716315
519.44050,3.360493945
519.44100,3.360493945
519.44150,2.444910722
519.44200,0.6137442762
519.44250,-0.6070333546
519.44300,0.003355460754
519.44350,0.9189386839
519.44400,0.6137442762
519.44450,-0.6070333546
519.44500,-0.9122277624
519.44550,0.003355460754
519.44600,0.003355460754
519.44650,-1.522616578
519.44700,-2.743394209
519.44750,-2.438199801
519.44800,-1.827810985
519.44850,-2.743394209
519.44900,-3.048588616
519.44950,-1.522616578
519.45000,-0.3018389469
519.45050,-0.9122277624
519.45100,-2.133005393
519.45150,-1.827810985
519.45200,-0.9122277624
519.45250,-0.9122277624
519.45300,-2.133005393
519.45350,-1.827810985
519.45400,-0.6070333546
519.45450,0.003355460754
519.45500,-1.522616578
519.45550,-3.658977432
519.45600,-4.574560655
519.45650,-3.964171839
519.45700,-2.133005393
519.45750,-0.6070333546
519.45800,0.003355460754
519.45850,-0.6070333546
519.45900,-1.522616578
519.45950,-1.21742217
519.46000,-0.3018389469
519.46050,0.003355460754
519.46100,0.6137442762
519.46150,0.9189386839
519.46200,0.9189386839
519.46250,0.003355460754
519.46300,-0.3018389469
519.46350,0.003355460754
519.46400,0.6137442762
519.46450,0.9189386839
519.46500,0.003355460754
519.46550,-0.9122277624
519.46600,-2.743394209
519.46650,-4.574560655
519.46700,-6.405727101
519.46750,-6.405727101
519.46800,-4.574560655
519.46850,-2.438199801
519.46900,-0.9122277624
519.46950,-0.3018389469
519.47000,-0.3018389469
519.47050,-0.6070333546
519.47100,-0.6070333546
519.47150,-0.9122277624
519.47200,-1.21742217
519.47250,-0.6070333546
519.47300,0.3085498685
519.47350,0.6137442762
519.47400,0.003355460754
519.47450,-0.6070333546
519.47500,0.6137442762
519.47550,3.665688353
519.47600,5.496854799
519.47650,4.886465984
519.47700,3.665688353
519.47750,3.665688353
519.47800,4.276077169
519.47850,3.970882761
519.47900,2.75010513
519.47950,1.529327499
519.48000,1.834521907
519.48050,3.055299538
519.48100,4.886465984
519.48150,5.191660392
519.48200,2.75010513
519.48250,-1.21742217
519.48300,-3.658977432
519.48350,-3.048588616
519.48400,-0.6070333546
519.48450,0.6137442762
519.48500,1.224133092
519.48550,1.529327499
519.48600,0.9189386839
519.48650,0.3085498685
519.48700,0.9189386839
519.48750,2.444910722
519.48800,2.75010513
519.48850,0.9189386839
519.48900,-1.21742217
519.48950,-1.827810985
519.49000,-1.21742217
519.49050,-1.522616578
519.49100,-2.133005393
519.49150,-2.438199801
519.49200,-1.21742217
519.49250,0.003355460754
519.49300,0.9189386839
519.49350,2.139716315
519.49400,2.75010513
519.49450,3.360493945
519.49500,3.970882761
519.49550,4.886465984
519.49600,4.581271576
519.49650,2.444910722
519.49700,0.003355460754
519.49750,-0.6070333546
519.49800,1.224133092
519.49850,3.360493945
519.49900,3.055299538
519.49950,1.224133092
519.50000,0.003355460754
519.50050,-0.3018389469
519.50100,0.003355460754
519.50150,0.3085498685
519.50200,0.3085498685
519.50250,0.6137442762
519.50300,1.224133092
519.50350,1.224133092
519.50400,0.3085498685
519.50450,0.003355460754
519.50500,0.3085498685
519.50550,0.9189386839
519.50600,0.003355460754
519.50650,-1.827810985
519.50700,-2.438199801
519.50750,-0.3018389469
519.50800,0.6137442762
519.50850,-0.6070333546
519.50900,-2.438199801
519.50950,-1.21742217
519.51000,1.224133092
519.51050,1.224133092
519.51100,-0.9122277624
519.51150,-2.743394209
519.51200,-1.827810985
519.51250,-0.6070333546
519.51300,-1.21742217
519.51350,-2.133005393
519.51400,-1.522616578
519.51450,0.003355460754
519.51500,1.224133092
519.51550,1.529327499
519.51600,2.139716315
519.51650,2.75010513
519.51700,3.360493945
519.51750,3.360493945
519.51800,2.75010513
519.51850,1.224133092
519.51900,-0.3018389469
519.51950,-0.9122277624
519.52000,-0.6070333546
519.52050,0.003355460754
519.52100,0.003355460754
519.52150,0.6137442762
519.52200,1.529327499
519.52250,1.224133092
519.52300,0.003355460754
519.52350,-0.9122277624
519.52400,0.003355460754
519.52450,1.224133092
519.52500,0.6137442762
519.52550,-0.3018389469
519.52600,-0.3018389469
519.52650,0.003355460754
519.52700,-0.9122277624
519.52750,-3.353783024
519.52800,-4.574560655
519.52850,-3.353783024
519.52900,-1.827810985
519.52950,-1.827810985
519.53000,-3.048588616
519.53050,-3.658977432
519.53100,-3.964171839
519.53150,-3.658977432
519.53200,-3.353783024
519.53250,-2.133005393
519.53300,-1.21742217
519.53350,-1.21742217
519.53400,-1.522616578
519.53450,-1.522616578
519.53500,-1.522616578
519.53550,-1.522616578
519.53600,-0.6070333546
519.53650,1.224133092
519.53700,3.055299538
519.53750,2.75010513
519.53800,1.529327499
519.53850,0.6137442762
519.53900,0.6137442762
519.53950,0.3085498685
519.54000,0.6137442762
519.54050,1.834521907
519.54100,2.444910722
519.54150,1.834521907
519.54200,1.224133092
519.54250,2.444910722
519.54300,3.970882761
519.54350,2.75010513
519.54400,0.003355460754
519.54450,-1.21742217
519.54500,0.003355460754
519.54550,0.6137442762
519.54600,0.003355460754
519.54650,-0.3018389469
519.54700,0.6137442762
519.54750,0.9189386839
519.54800,-0.6070333546
519.54850,-1.827810985
519.54900,-0.9122277624
519.54950,-0.6070333546
519.55000,-2.743394209
519.55050,-4.879755062
519.55100,-4.574560655
519.55150,-2.743394209
519.55200,-2.133005393
519.55250,-2.743394209
519.55300,-3.048588616
519.55350,-3.353783024
519.55400,-5.18494947
519.55450,-6.100532693
519.55500,-3.353783024
519.55550,0.6137442762
519.55600,2.444910722
519.55650,1.224133092
519.55700,0.3085498685
519.55750,1.224133092
519.55800,2.139716315
519.55850,2.139716315
519.55900,1.224133092
519.55950,0.3085498685
519.56000,-0.3018389469
519.56050,-0.3018389469
519.56100,0.9189386839
519.56150,2.75010513
519.56200,2.444910722
519.56250,0.9189386839
519.56300,0.003355460754
519.56350,0.6137442762
519.56400,0.6137442762
519.56450,0.003355460754
519.56500,-0.3018389469
519.56550,-0.6070333546
519.56600,-0.9122277624
519.56650,-1.21742217
519.56700,-0.6070333546
519.56750,0.003355460754
519.56800,-1.827810985
519.56850,-4.269366247
519.56900,-3.964171839
519.56950,-0.3018389469
519.57000,2.444910722
519.57050,1.834521907
519.57100,0.003355460754
519.57150,-0.3018389469
519.57200,0.3085498685
519.57250,-1.21742217
519.57300,-3.658977432
519.57350,-3.964171839
519.57400,-1.21742217
519.57450,0.3085498685
519.57500,-0.3018389469
519.57550,-1.21742217
519.57600,0.003355460754
519.57650,1.529327499
519.57700,1.224133092
519.57750,0.6137442762
519.57800,1.529327499
519.57850,3.055299538
519.57900,3.360493945
519.57950,2.139716315
519.58000,1.834521907
