time,Brachiarod, EXt Carp,EXT DIG,Flex CarpU,Flex Carp R
516.98,-0.9074996131,-9.087197807,-1.507517004,1.261958286,2.139716315
516.9805,-1.212694021,-8.782003399,-3.033489043,2.482735916,3.970882761
516.981,-0.2971107977,-7.561225768,-4.559461081,4.008707955,4.276077169
516.9815,0.008083609999,-6.645642545,-4.559461081,4.61909677,3.360493945
516.982,-0.9074996131,-6.03525373,-3.643877858,4.008707955,2.139716315
516.9825,-2.433471652,-5.119670506,-3.033489043,2.482735916,1.529327499
516.983,-3.349054875,-3.593698468,-1.507517004,0.3463750624,0.6137442762
516.9835,-3.349054875,-2.678115245,-0.5919337813,-0.264013753,-0.6070333546
516.984,-2.738666059,-2.678115245,-0.2867393736,-0.264013753,-1.21742217
516.9845,-2.433471652,-2.372920837,-0.897128189,-0.264013753,-0.3018389469
516.985,-3.043860467,-0.8469487986,0.01845503415,-0.264013753,0.9189386839
516.9855,-3.654249282,0.9842176476,2.154815888,0.04118065471,1.224133092
516.986,-3.654249282,2.815384094,3.985982334,0.04118065471,0.3085498685
516.9865,-3.043860467,3.425772909,3.985982334,-1.179596976,-0.6070333546
516.987,-2.738666059,3.120578502,3.070399111,-3.31595783,-1.522616578
516.9875,-2.433471652,2.510189686,3.070399111,-4.231541053,-1.21742217
516.988,-1.212694021,2.510189686,3.680787927,-2.095180199,-0.3018389469
516.9885,0.6184724254,4.64655054,3.985982334,0.6515694701,0.3085498685
516.989,1.534055649,7.088105802,3.375593519,1.261958286,0.9189386839
516.9895,0.9236668331,8.61407784,2.460010296,-0.264013753,0.3085498685
516.99,0.008083609999,9.529661063,1.239232665,-2.095180199,-1.21742217
516.9905,1.228861241,11.0556331,0.01845503415,-1.179596976,-2.438199801
516.991,3.365222095,11.66602192,-0.5919337813,1.261958286,-1.522616578
516.9915,3.97561091,9.529661063,0.01845503415,2.482735916,-0.3018389469
516.992,2.754833279,6.172522579,0.6288438496,1.261958286,-0.6070333546
516.9925,1.839250056,4.036161725,1.239232665,-1.179596976,-2.743394209
516.993,2.144444464,4.64655054,1.239232665,-2.400374607,-3.658977432
516.9935,3.060027687,4.951744948,1.544427073,-0.8744025684,-1.827810985
516.994,2.754833279,4.036161725,2.154815888,0.3463750624,0.003355460754
516.9945,1.534055649,1.899800871,1.544427073,0.04118065471,0.3085498685
516.995,0.008083609999,0.06863442452,0.01845503415,-2.400374607,-0.6070333546
516.9955,-1.212694021,-0.8469487986,-1.202322597,-3.621152238,-0.6070333546
516.996,-2.433471652,-2.372920837,-1.812711412,-2.095180199,0.9189386839
516.9965,-2.433471652,-3.898892876,-2.11790582,0.04118065471,3.055299538
516.997,-1.517888429,-5.119670506,-2.423100227,0.6515694701,3.665688353
516.9975,-0.9074996131,-6.340448137,-2.728294635,0.3463750624,3.360493945
516.998,-1.517888429,-7.866420176,-3.338683451,0.3463750624,3.665688353
516.9985,-2.128277244,-9.087197807,-3.643877858,0.6515694701,3.970882761
516.999,-2.433471652,-9.392392214,-3.033489043,0.3463750624,3.360493945
516.9995,-2.738666059,-8.476808991,-1.812711412,-0.5692081607,1.529327499
517.0,-3.95944369,-7.25603136,-1.202322597,-0.5692081607,0.6137442762
517.0005,-4.264638098,-6.645642545,-1.812711412,0.04118065471,0.6137442762
517.001,-3.654249282,-6.950836953,-1.812711412,0.6515694701,1.224133092
517.0015,-2.128277244,-6.950836953,-0.2867393736,0.04118065471,0.3085498685
517.002,-1.823082836,-6.340448137,2.154815888,-0.5692081607,-0.9122277624
517.0025,-2.738666059,-4.509281691,3.985982334,0.04118065471,-1.21742217
517.003,-3.654249282,-2.983309652,4.291176742,1.261958286,-0.6070333546
517.0035,-3.95944369,-2.067726429,3.680787927,1.261958286,-1.21742217
517.004,-3.95944369,-0.5417543909,2.460010296,0.04118065471,-2.438199801
517.0045,-3.349054875,0.9842176476,1.239232665,-1.179596976,-3.048588616
517.005,-2.128277244,2.204995278,0.9340382573,-0.5692081607,-1.827810985
517.0055,-0.9074996131,1.289412055,1.544427073,0.3463750624,-0.6070333546
517.006,0.008083609999,0.6790232399,2.154815888,1.261958286,-0.9122277624
517.0065,1.228861241,2.510189686,1.544427073,2.177541509,-1.21742217
517.007,1.534055649,6.782911394,-0.2867393736,2.787930324,-0.9122277624
517.0075,0.008083609999,10.44524429,-2.728294635,1.872347101,-0.9122277624
517.008,-3.349054875,10.75043869,-5.169849897,-0.5692081607,-2.133005393
517.0085,-4.569832506,8.003689025,-6.390627528,-3.010763422,-3.048588616
517.009,-0.9074996131,4.951744948,-5.475044304,-1.789985791,-2.133005393
517.0095,3.365222095,4.64655054,-2.423100227,0.6515694701,-0.6070333546
517.01,4.891194133,5.867328171,0.01845503415,1.261958286,-0.9122277624
517.0105,3.060027687,6.477716986,0.01845503415,0.04118065471,-2.133005393
517.011,0.9236668331,5.867328171,-1.507517004,-0.8744025684,-1.827810985
517.0115,1.228861241,4.951744948,-2.11790582,0.04118065471,0.003355460754
517.012,3.060027687,4.036161725,-0.897128189,0.6515694701,0.9189386839
517.0125,4.585999726,2.815384094,-0.5919337813,0.04118065471,0.3085498685
517.013,4.280805318,1.594606463,-0.897128189,-1.484791384,-0.6070333546
517.0135,2.449638872,0.9842176476,-0.5919337813,-1.484791384,-0.9122277624
517.014,-0.2971107977,0.9842176476,0.6288438496,-1.179596976,-1.21742217
517.0145,-2.128277244,0.6790232399,1.239232665,-2.095180199,-1.522616578
517.015,-2.433471652,0.06863442452,0.9340382573,-3.31595783,-1.827810985
517.0155,-1.823082836,0.06863442452,2.460010296,-2.705569015,-1.827810985
517.016,-0.9074996131,0.6790232399,6.732732004,-0.5692081607,-2.743394209
517.0165,0.008083609999,0.06863442452,10.08987049,0.9567638778,-3.353783024
517.017,0.9236668331,-1.152143206,9.784676081,1.261958286,-2.743394209
517.0175,0.008083609999,-2.372920837,6.732732004,0.3463750624,-0.9122277624
517.018,-2.433471652,-2.372920837,4.59637115,0.3463750624,0.003355460754
517.0185,-4.569832506,-2.678115245,3.680787927,1.261958286,0.003355460754
517.019,-5.485415729,-2.983309652,3.375593519,1.872347101,-0.9122277624
517.0195,-7.316582175,-2.372920837,3.375593519,0.9567638778,-3.048588616
517.02,-10.36852625,-0.5417543909,3.985982334,-0.264013753,-4.879755062
517.0205,-10.67372066,-0.5417543909,4.59637115,-0.5692081607,-4.269366247
517.021,-5.790610136,-4.204087283,3.070399111,0.04118065471,-1.522616578
517.0215,0.3132780177,-8.782003399,0.01845503415,0.6515694701,0.9189386839
517.022,2.754833279,-10.91836425,-2.11790582,0.6515694701,1.834521907
517.0225,3.060027687,-10.91836425,-3.033489043,1.567152693,1.224133092
517.023,6.111971764,-10.30797544,-3.338683451,4.008707955,1.529327499
517.0235,10.99508229,-10.30797544,-3.338683451,6.145068809,2.75010513
517.024,11.91066551,-8.782003399,-2.728294635,6.450263216,3.665688353
517.0245,7.332749395,-4.814476099,-2.11790582,4.61909677,3.055299538
517.025,3.365222095,-0.2365599832,-1.812711412,2.177541509,2.444910722
517.0255,3.365222095,1.594606463,-2.11790582,0.3463750624,1.224133092
517.026,4.585999726,2.204995278,-1.507517004,-0.264013753,0.003355460754
517.0265,4.280805318,3.120578502,-0.5919337813,0.04118065471,-0.6070333546
517.027,2.754833279,4.951744948,0.01845503415,0.3463750624,0.003355460754
517.0275,2.754833279,6.477716986,0.6288438496,-0.5692081607,1.224133092
517.028,3.670416502,6.782911394,1.84962148,-2.705569015,1.529327499
517.0285,4.585999726,6.782911394,2.460010296,-4.231541053,0.3085498685
517.029,4.891194133,7.698494617,2.154815888,-3.621152238,-1.21742217
517.0295,4.585999726,9.529661063,1.544427073,-2.400374607,-1.827810985
517.03,3.365222095,9.834855471,0.9340382573,-1.484791384,-1.21742217
517.0305,1.534055649,8.919272248,0.6288438496,-1.789985791,0.003355460754
517.031,1.534055649,8.61407784,0.6288438496,-3.010763422,0.9189386839
517.0315,2.144444464,8.919272248,1.544427073,-4.536735461,0.9189386839
517.032,0.9236668331,7.698494617,1.84962148,-4.841929869,0.6137442762
517.0325,-1.823082836,3.425772909,0.01845503415,-1.789985791,1.224133092
517.033,-3.349054875,-0.8469487986,-2.11790582,3.398319139,2.444910722
517.0335,-0.9074996131,-1.762532022,-3.338683451,7.671040847,2.75010513
517.034,2.144444464,0.6790232399,-2.423100227,7.060652032,1.224133092
517.0345,2.144444464,2.204995278,-1.812711412,2.787930324,0.003355460754
517.035,-0.2971107977,0.9842176476,-2.728294635,-0.5692081607,0.6137442762
517.0355,-2.433471652,-0.8469487986,-3.643877858,-2.095180199,2.444910722
517.036,-2.433471652,-1.762532022,-2.728294635,-2.705569015,2.139716315
517.0365,-2.738666059,-0.8469487986,-2.11790582,-3.621152238,0.3085498685
517.037,-3.95944369,0.06863442452,-3.949072266,-3.31595783,-0.6070333546
517.0375,-5.180221321,-0.2365599832,-6.08543312,-1.789985791,0.003355460754
517.038,-4.875026913,-2.067726429,-6.390627528,0.04118065471,0.9189386839
517.0385,-3.043860467,-5.730059322,-4.254266674,-0.264013753,1.529327499
517.039,-1.823082836,-9.392392214,-3.033489043,-1.179596976,1.529327499
517.0395,-2.128277244,-10.30797544,-3.033489043,-1.789985791,0.9189386839
517.04,-4.264638098,-6.645642545,-1.507517004,-1.484791384,-0.6070333546
517.0405,-5.485415729,-2.067726429,0.9340382573,-0.8744025684,-1.522616578
517.041,-3.95944369,-2.372920837,1.84962148,0.04118065471,0.003355460754
517.0415,0.008083609999,-7.25603136,-1.202322597,1.567152693,2.75010513
517.042,2.754833279,-10.30797544,-5.475044304,3.398319139,2.75010513
517.0425,2.144444464,-5.730059322,-5.780238712,3.703513547,-0.3018389469
517.043,0.9236668331,1.289412055,-1.812711412,3.398319139,-3.964171839
517.0435,2.449638872,3.730967317,1.84962148,4.008707955,-4.879755062
517.044,6.111971764,-0.8469487986,1.84962148,5.229485586,-3.048588616
517.0445,7.94313821,-6.03525373,-0.897128189,5.534679993,-0.6070333546
517.045,7.332749395,-6.03525373,-2.423100227,4.313902363,0.9189386839
517.0455,6.722360579,-2.678115245,-0.897128189,2.177541509,0.9189386839
517.046,6.722360579,-0.2365599832,0.6288438496,0.3463750624,-0.6070333546
517.0465,5.806777356,0.9842176476,0.6288438496,-1.484791384,-2.133005393
517.047,3.670416502,3.425772909,0.3236494419,-3.010763422,-1.522616578
517.0475,3.060027687,6.172522579,1.544427073,-3.621152238,0.003355460754
517.048,3.97561091,7.088105802,2.765204703,-2.705569015,0.003355460754
517.0485,3.670416502,6.477716986,2.765204703,-1.484791384,-1.522616578
517.049,1.228861241,6.782911394,1.84962148,-1.484791384,-2.133005393
517.0495,-0.9074996131,8.308883432,1.84962148,-2.400374607,0.003355460754
517.05,-1.517888429,9.529661063,3.375593519,-3.926346645,1.529327499
517.0505,-1.823082836,9.834855471,3.985982334,-5.147124276,0.3085498685
517.051,-3.043860467,10.14004988,3.070399111,-5.452318684,-1.21742217
517.0515,-2.738666059,10.44524429,1.84962148,-3.926346645,-1.522616578
517.052,0.008083609999,10.75043869,1.544427073,-1.484791384,0.003355460754
517.0525,2.449638872,9.834855471,1.544427073,0.04118065471,0.6137442762
517.053,1.534055649,8.308883432,1.84962148,-0.264013753,0.3085498685
517.0535,0.008083609999,5.867328171,2.154815888,-1.484791384,0.003355460754
517.054,0.008083609999,3.120578502,3.070399111,-2.705569015,-0.6070333546
517.0545,2.449638872,0.3738288322,3.985982334,-2.705569015,-1.827810985
517.055,3.365222095,-1.152143206,4.901565557,-1.789985791,-2.438199801
517.0555,2.144444464,-2.678115245,5.511954373,-0.264013753,-0.9122277624
517.056,0.6184724254,-3.898892876,4.291176742,0.04118065471,1.224133092
517.0565,0.008083609999,-5.119670506,1.84962148,-0.5692081607,1.834521907
517.057,-2.433471652,-6.03525373,-0.897128189,-2.095180199,0.3085498685
517.0575,-5.180221321,-6.950836953,-2.11790582,-2.400374607,-0.3018389469
517.058,-4.875026913,-7.25603136,-2.11790582,-0.264013753,0.3085498685
517.0585,-1.517888429,-7.561225768,-1.812711412,1.261958286,1.224133092
517.059,1.534055649,-8.782003399,-2.11790582,0.6515694701,1.224133092
517.0595,1.534055649,-10.30797544,-3.033489043,0.04118065471,1.224133092
517.06,-0.2971107977,-10.91836425,-4.254266674,1.261958286,1.834521907
517.0605,-1.823082836,-9.697586622,-4.559461081,4.313902363,2.139716315
517.061,-0.9074996131,-8.476808991,-3.338683451,5.534679993,0.6137442762
517.0615,0.008083609999,-8.171614583,-1.812711412,3.398319139,-0.6070333546
517.062,-1.517888429,-7.561225768,-2.11790582,0.04118065471,-0.6070333546
517.0625,-5.790610136,-4.814476099,-4.254266674,-1.484791384,0.3085498685
517.063,-9.452943029,-1.152143206,-6.08543312,-0.264013753,0.6137442762
517.0635,-9.147748621,0.3738288322,-5.169849897,1.872347101,-0.3018389469
517.064,-6.095804544,0.6790232399,-2.11790582,4.008707955,-2.133005393
517.0645,-4.264638098,1.289412055,0.01845503415,4.008707955,-3.048588616
517.065,-4.264638098,1.594606463,0.9340382573,2.177541509,-1.827810985
517.0655,-3.654249282,0.6790232399,0.6288438496,0.6515694701,0.3085498685
517.066,-3.043860467,0.3738288322,0.01845503415,0.3463750624,1.224133092
517.0665,-3.654249282,3.730967317,-0.897128189,0.04118065471,0.003355460754
517.067,-5.790610136,9.529661063,0.01845503415,-1.179596976,-3.353783024
517.0675,-4.569832506,11.97121632,3.070399111,-2.400374607,-5.490143878
517.068,2.144444464,7.698494617,5.81714878,-1.789985791,-4.574560655
517.0685,10.38469347,0.3738288322,6.122343188,0.04118065471,-1.522616578
517.069,12.52105433,-2.678115245,4.901565557,1.567152693,0.9189386839
517.0695,8.858721433,0.06863442452,3.375593519,2.482735916,2.139716315
517.07,4.280805318,4.64655054,2.765204703,2.177541509,1.529327499
517.0705,3.060027687,7.088105802,2.460010296,1.261958286,0.9189386839
517.071,3.365222095,5.867328171,3.375593519,0.04118065471,0.3085498685
517.0715,2.144444464,4.341356132,3.985982334,-0.8744025684,0.3085498685
517.072,0.008083609999,3.730967317,3.375593519,0.04118065471,-0.6070333546
517.0725,-0.6023052054,3.425772909,1.84962148,1.872347101,-2.133005393
517.073,0.008083609999,2.510189686,0.9340382573,2.787930324,-2.743394209
517.0735,0.008083609999,1.899800871,0.9340382573,1.872347101,-1.21742217
517.074,-0.9074996131,1.899800871,0.01845503415,0.04118065471,0.3085498685
517.0745,-1.212694021,1.594606463,-2.728294635,-1.179596976,1.529327499
517.075,-0.6023052054,0.06863442452,-4.864655489,-1.484791384,1.834521907
517.0755,0.008083609999,-2.372920837,-4.254266674,-1.484791384,1.529327499
517.076,-0.2971107977,-4.204087283,-2.11790582,-1.484791384,1.224133092
517.0765,-0.6023052054,-6.340448137,-1.507517004,-1.484791384,0.9189386839
517.077,-0.6023052054,-8.171614583,-2.11790582,-2.095180199,1.529327499
517.0775,-0.6023052054,-8.171614583,-1.812711412,-2.400374607,1.834521907
517.078,-0.9074996131,-5.119670506,-0.897128189,-2.095180199,1.529327499
517.0785,-1.212694021,-2.067726429,-0.2867393736,-1.484791384,0.003355460754
517.079,-0.6023052054,-2.372920837,-0.5919337813,-1.789985791,-0.9122277624
517.0795,0.008083609999,-4.814476099,-1.507517004,-1.789985791,-0.6070333546
517.08,-1.823082836,-6.03525373,-1.507517004,-1.179596976,-0.3018389469
517.0805,-5.180221321,-4.509281691,-1.202322597,0.9567638778,-0.3018389469
517.081,-6.400998952,-2.372920837,-0.897128189,3.398319139,-0.6070333546
517.0815,-3.95944369,-2.067726429,-0.5919337813,4.924291178,-0.3018389469
517.082,-0.6023052054,-4.204087283,-1.202322597,4.61909677,0.3085498685
517.0825,0.3132780177,-7.561225768,-2.728294635,3.703513547,2.139716315
517.083,-0.9074996131,-9.697586622,-3.033489043,2.482735916,3.665688353
517.0835,-3.654249282,-8.782003399,-1.202322597,0.6515694701,4.276077169
517.084,-5.180221321,-4.814476099,1.239232665,-1.179596976,2.75010513
517.0845,-4.569832506,-2.067726429,2.154815888,-2.095180199,0.6137442762
517.085,-1.212694021,-0.8469487986,2.460010296,-0.5692081607,-0.6070333546
517.0855,1.534055649,0.6790232399,3.375593519,1.872347101,-1.522616578
517.086,2.144444464,5.256939355,5.511954373,3.703513547,-3.048588616
517.0865,1.534055649,8.919272248,7.343120819,3.093124732,-4.269366247
517.087,2.754833279,8.003689025,7.037926411,1.872347101,-3.353783024
517.0875,5.806777356,4.341356132,5.81714878,1.872347101,-1.21742217
517.088,8.248332618,2.815384094,4.291176742,1.872347101,-0.3018389469
517.0885,7.637943803,4.341356132,3.680787927,1.261958286,-0.9122277624
517.089,5.196388541,6.477716986,3.375593519,0.04118065471,-0.9122277624
517.0895,4.280805318,8.003689025,3.070399111,-0.5692081607,0.3085498685
517.09,4.280805318,8.919272248,2.154815888,-0.8744025684,0.9189386839
517.0905,3.365222095,9.834855471,1.239232665,-0.5692081607,-0.6070333546
517.091,1.839250056,9.224466656,0.9340382573,0.04118065471,-2.438199801
517.0915,1.839250056,8.003689025,1.84962148,0.3463750624,-1.827810985
517.092,2.449638872,7.393300209,2.765204703,0.04118065471,0.003355460754
517.0925,2.144444464,7.698494617,1.239232665,-1.179596976,0.6137442762
517.093,0.008083609999,6.172522579,-0.897128189,-2.095180199,0.9189386839
517.0935,-2.128277244,1.899800871,-2.423100227,-1.484791384,0.9189386839
517.094,-3.043860467,-2.067726429,-2.11790582,0.04118065471,1.834521907
517.0945,-2.738666059,-3.898892876,-2.11790582,0.3463750624,1.834521907
517.095,-2.433471652,-4.204087283,-3.033489043,-0.264013753,1.529327499
517.0955,-2.128277244,-4.204087283,-3.033489043,-1.789985791,0.6137442762
517.096,-2.128277244,-4.509281691,-2.11790582,-2.400374607,0.003355460754
517.0965,-1.823082836,-4.509281691,-1.202322597,-1.484791384,-0.3018389469
517.097,-2.128277244,-4.814476099,-1.202322597,-0.5692081607,-0.3018389469
517.0975,-3.349054875,-5.730059322,-0.5919337813,-0.5692081607,0.003355460754
517.098,-4.875026913,-6.950836953,0.3236494419,-1.789985791,0.3085498685
517.0985,-5.180221321,-7.25603136,0.6288438496,-3.010763422,0.6137442762
517.099,-4.569832506,-6.03525373,0.01845503415,-3.31595783,0.3085498685
517.0995,-3.349054875,-4.204087283,-0.2867393736,-3.010763422,-0.3018389469
517.1,-2.738666059,-2.983309652,0.6288438496,-2.095180199,-0.6070333546
517.1005,-1.823082836,-3.593698468,1.544427073,-0.264013753,0.003355460754
517.101,0.3132780177,-4.204087283,0.9340382573,1.567152693,0.9189386839
517.1015,3.365222095,-3.898892876,-0.2867393736,2.177541509,1.224133092
517.102,5.501582949,-2.983309652,0.01845503415,1.567152693,0.3085498685
517.1025,4.891194133,-2.678115245,1.239232665,0.3463750624,-0.3018389469
517.103,1.839250056,-2.067726429,2.460010296,0.04118065471,-0.9122277624
517.1035,-0.2971107977,-0.2365599832,3.070399111,-0.264013753,-1.522616578
517.104,-0.2971107977,1.899800871,3.375593519,-1.179596976,-1.827810985
517.1045,0.3132780177,3.120578502,3.070399111,-0.264013753,-0.6070333546
517.105,0.6184724254,1.899800871,2.765204703,2.177541509,0.9189386839
517.1055,-0.2971107977,-0.5417543909,3.070399111,4.008707955,1.224133092
517.106,-1.517888429,-2.983309652,4.291176742,2.482735916,-0.6070333546
517.1065,-2.128277244,-4.509281691,3.985982334,0.04118065471,-2.133005393
517.107,-1.823082836,-3.898892876,1.84962148,-1.179596976,-1.522616578
517.1075,-1.517888429,-0.5417543909,-0.2867393736,-0.5692081607,0.003355460754
517.108,-1.517888429,3.730967317,-0.897128189,-0.5692081607,0.3085498685
517.1085,0.008083609999,6.172522579,-0.5919337813,-1.179596976,0.003355460754
517.109,1.534055649,5.562133763,-0.2867393736,-1.179596976,-0.3018389469
517.1095,2.449638872,4.951744948,-0.5919337813,-1.179596976,-0.9122277624
517.11,1.228861241,6.477716986,-1.507517004,-2.095180199,-1.827810985
517.1105,0.008083609999,8.919272248,-2.423100227,-3.621152238,-2.743394209
517.111,-0.2971107977,10.14004988,-3.338683451,-3.621152238,-2.438199801
517.1115,0.008083609999,9.529661063,-3.643877858,-3.621152238,-2.133005393
517.112,0.008083609999,8.61407784,-2.728294635,-5.452318684,-2.743394209
517.1125,-0.2971107977,8.003689025,-1.202322597,-6.673096315,-3.048588616
517.113,0.3132780177,8.003689025,-0.2867393736,-5.452318684,-2.133005393
517.1135,2.144444464,9.224466656,0.3236494419,-3.31595783,-0.9122277624
517.114,2.754833279,10.75043869,0.3236494419,-3.621152238,-0.3018389469
517.1145,0.6184724254,9.529661063,-0.897128189,-5.452318684,0.003355460754
517.115,-2.128277244,3.425772909,-3.338683451,-3.621152238,1.224133092
517.1155,-3.654249282,-3.593698468,-3.643877858,2.787930324,2.75010513
517.116,-3.043860467,-5.730059322,-1.812711412,7.976235255,2.75010513
517.1165,-1.517888429,-2.678115245,-0.5919337813,7.36584644,1.529327499
517.117,0.6184724254,0.06863442452,-1.202322597,3.398319139,0.3085498685
517.1175,3.365222095,-1.762532022,-2.728294635,1.872347101,0.6137442762
517.118,4.891194133,-6.645642545,-3.643877858,3.398319139,1.834521907
517.1185,3.060027687,-10.00278103,-4.559461081,4.61909677,3.970882761
517.119,-0.6023052054,-11.83394748,-5.475044304,4.313902363,6.107243615
517.1195,-3.654249282,-13.35991951,-5.475044304,3.398319139,6.71763243
517.12,-3.043860467,-14.58069715,-3.338683451,3.093124732,5.496854799
517.1205,0.008083609999,-13.66511392,-1.507517004,4.008707955,4.276077169
517.121,3.060027687,-11.52875307,-1.812711412,4.313902363,4.276077169
517.1215,3.060027687,-10.00278103,-3.033489043,4.313902363,4.581271576
517.122,0.3132780177,-9.087197807,-3.949072266,3.398319139,4.886465984
517.1225,-1.823082836,-7.866420176,-3.949072266,2.787930324,5.191660392
517.123,-2.128277244,-7.25603136,-4.559461081,3.398319139,5.191660392
517.1235,-1.823082836,-6.645642545,-4.559461081,4.008707955,4.276077169
517.124,-3.043860467,-4.814476099,-3.949072266,3.398319139,1.834521907
517.1245,-5.790610136,0.06863442452,-3.338683451,1.567152693,-1.21742217
517.125,-4.875026913,4.341356132,-3.338683451,0.6515694701,-2.438199801
517.1255,1.228861241,3.730967317,-1.812711412,1.872347101,-0.9122277624
517.126,7.637943803,-0.2365599832,1.544427073,3.093124732,0.9189386839
517.1265,8.858721433,-2.678115245,4.291176742,2.482735916,1.834521907
517.127,5.806777356,0.06863442452,3.985982334,0.6515694701,0.3085498685
517.1275,3.365222095,4.036161725,2.460010296,0.04118065471,-1.522616578
517.128,3.670416502,6.477716986,2.765204703,0.6515694701,-2.743394209
517.1285,4.280805318,8.003689025,5.511954373,1.567152693,-2.743394209
517.129,3.060027687,11.0556331,6.427537596,1.567152693,-2.133005393
517.1295,1.228861241,14.41277159,4.59637115,1.567152693,-1.522616578
517.13,0.3132780177,14.71796599,2.765204703,1.872347101,-0.9122277624
517.1305,0.008083609999,12.58160514,3.070399111,1.872347101,-1.21742217
517.131,-1.823082836,11.66602192,4.291176742,1.261958286,-3.353783024
517.1315,-2.738666059,13.19199396,3.985982334,0.9567638778,-5.795338286
517.132,0.008083609999,14.10757718,2.765204703,0.9567638778,-5.490143878
517.1325,4.891194133,9.529661063,1.544427073,0.6515694701,-1.827810985
517.133,7.94313821,1.289412055,0.3236494419,-1.179596976,0.9189386839
517.1335,7.027554987,-3.593698468,-0.897128189,-3.621152238,0.6137442762
517.134,3.670416502,-2.983309652,-1.812711412,-4.841929869,-0.6070333546
517.1345,0.9236668331,0.3738288322,-1.202322597,-5.147124276,-0.3018389469
517.135,-0.6023052054,1.594606463,-0.5919337813,-5.757513092,0.9189386839
517.1355,-2.128277244,0.06863442452,-1.507517004,-6.978290722,0.9189386839
517.136,-2.738666059,-0.2365599832,-2.728294635,-6.673096315,-0.3018389469
517.1365,-1.823082836,-0.2365599832,-2.11790582,-5.147124276,0.003355460754
517.137,-0.6023052054,-1.457337614,-0.2867393736,-3.926346645,2.444910722
517.1375,0.008083609999,-4.204087283,-0.2867393736,-3.621152238,3.360493945
517.138,-0.9074996131,-5.119670506,-1.202322597,-3.31595783,1.224133092
517.1385,-1.823082836,-3.28850406,-0.897128189,-2.705569015,-0.6070333546
517.139,-1.212694021,-1.762532022,0.9340382573,-1.789985791,-0.3018389469
517.1395,0.3132780177,-2.983309652,3.070399111,-0.5692081607,1.529327499
517.14,1.228861241,-6.03525373,2.765204703,2.177541509,2.75010513
517.1405,0.6184724254,-7.561225768,1.544427073,5.534679993,3.055299538
517.141,0.008083609999,-6.950836953,0.9340382573,6.145068809,1.834521907
517.1415,-0.2971107977,-6.340448137,1.544427073,2.787930324,0.003355460754
517.142,0.008083609999,-6.03525373,2.765204703,-1.179596976,0.003355460754
517.1425,-0.9074996131,-5.730059322,3.985982334,-2.705569015,0.9189386839
517.143,-1.823082836,-4.814476099,4.59637115,-1.484791384,1.529327499
517.1435,-1.517888429,-3.28850406,3.985982334,-0.264013753,0.003355460754
517.144,0.3132780177,-0.8469487986,1.84962148,0.04118065471,-2.133005393
517.1445,1.534055649,0.9842176476,-0.5919337813,1.261958286,-2.438199801
517.145,0.6184724254,1.594606463,-3.338683451,1.567152693,-0.9122277624
517.1455,-1.823082836,1.594606463,-5.475044304,0.6515694701,-0.3018389469
517.146,-3.95944369,2.815384094,-4.864655489,0.04118065471,-2.133005393
517.1465,-4.875026913,5.867328171,-2.11790582,0.04118065471,-3.964171839
517.147,-5.485415729,8.61407784,0.3236494419,0.04118065471,-4.269366247
517.1475,-6.400998952,9.529661063,1.84962148,-2.095180199,-4.879755062
517.148,-6.095804544,9.834855471,3.070399111,-4.536735461,-6.710921509
517.1485,-3.654249282,11.0556331,3.985982334,-4.231541053,-8.236893547
517.149,0.9236668331,11.0556331,4.291176742,-1.179596976,-6.710921509
517.1495,5.196388541,7.393300209,2.460010296,0.04118065471,-2.743394209
517.15,6.111971764,1.899800871,-0.5919337813,-1.484791384,0.6137442762
517.1505,2.754833279,-0.5417543909,-3.338683451,-4.536735461,1.834521907
517.151,-1.823082836,0.3738288322,-4.559461081,-5.147124276,0.9189386839
517.1515,-4.569832506,3.120578502,-5.169849897,-3.010763422,0.003355460754
517.152,-4.264638098,4.64655054,-5.169849897,-0.8744025684,0.6137442762
517.1525,-2.738666059,5.256939355,-4.559461081,0.04118065471,2.75010513
517.153,-1.517888429,5.256939355,-3.949072266,0.6515694701,3.665688353
517.1535,-1.517888429,4.64655054,-4.864655489,0.6515694701,2.139716315
517.154,-1.823082836,3.425772909,-5.475044304,0.04118065471,0.003355460754
517.1545,-2.128277244,2.815384094,-4.559461081,-0.8744025684,-0.3018389469
517.155,-2.738666059,1.899800871,-2.423100227,-0.5692081607,0.9189386839
517.1555,-2.738666059,0.6790232399,-1.507517004,0.04118065471,2.444910722
517.156,-2.433471652,-1.152143206,-2.11790582,-0.5692081607,3.360493945
517.1565,-2.738666059,-2.678115245,-2.11790582,-2.095180199,3.360493945
517.157,-3.654249282,-2.678115245,-0.2867393736,-2.400374607,2.139716315
517.1575,-4.264638098,-1.152143206,1.84962148,-0.8744025684,-0.3018389469
517.158,-4.264638098,1.289412055,3.680787927,0.3463750624,-3.658977432
517.1585,-3.95944369,2.815384094,4.59637115,-0.5692081607,-4.574560655
517.159,-3.95944369,0.3738288322,3.680787927,-3.010763422,-2.438199801
517.1595,-3.654249282,-5.730059322,1.239232665,-4.231541053,0.003355460754
517.16,-2.738666059,-10.30797544,0.01845503415,-2.705569015,-0.3018389469
517.1605,0.3132780177,-10.61316985,0.9340382573,0.04118065471,-2.133005393
517.161,5.806777356,-9.392392214,3.985982334,2.482735916,-1.522616578
517.1615,10.38469347,-11.22355866,5.206759965,4.61909677,1.224133092
517.162,11.30027669,-14.88589155,3.375593519,4.924291178,3.665688353
517.1625,8.248332618,-15.19108596,0.01845503415,3.398319139,3.360493945
517.163,5.501582949,-11.83394748,-1.202322597,1.261958286,1.529327499
517.1635,4.280805318,-8.782003399,-0.2867393736,0.9567638778,0.003355460754
517.164,2.144444464,-6.645642545,1.239232665,2.177541509,0.003355460754
517.1645,-0.6023052054,-3.593698468,2.154815888,2.177541509,1.834521907
517.165,-0.2971107977,0.3738288322,1.544427073,1.567152693,3.360493945
517.1655,4.891194133,2.204995278,0.3236494419,1.872347101,3.360493945
517.166,10.07949906,0.9842176476,1.544427073,3.398319139,0.9189386839
517.1665,8.858721433,0.06863442452,4.901565557,3.398319139,-1.827810985
517.167,3.060027687,1.899800871,7.953509634,0.6515694701,-3.048588616
517.1675,-0.2971107977,3.425772909,7.037926411,-1.484791384,-1.522616578
517.168,0.9236668331,3.425772909,4.291176742,-0.8744025684,0.3085498685
517.1685,3.670416502,4.64655054,3.070399111,1.261958286,0.3085498685
517.169,3.97561091,7.698494617,3.375593519,2.177541509,-0.6070333546
517.1695,3.060027687,9.834855471,3.680787927,2.177541509,-1.522616578
517.17,2.754833279,8.61407784,3.070399111,2.787930324,-1.522616578
517.1705,2.449638872,6.782911394,2.460010296,4.008707955,-1.21742217
517.171,1.839250056,7.698494617,1.84962148,3.703513547,-1.522616578
517.1715,1.839250056,9.834855471,0.01845503415,1.261958286,-1.21742217
517.172,2.754833279,9.529661063,-3.949072266,-0.8744025684,0.003355460754
517.1725,2.754833279,6.172522579,-8.526988381,-1.179596976,2.139716315
517.173,1.839250056,3.120578502,-11.88412687,-0.5692081607,3.665688353
517.1735,0.9236668331,1.594606463,-13.71529331,0.04118065471,3.970882761
517.174,1.228861241,0.3738288322,-12.79971009,0.04118065471,3.360493945
517.1745,1.228861241,-0.2365599832,-10.05296042,-0.264013753,2.75010513
517.175,0.008083609999,-0.8469487986,-7.306210751,-0.264013753,2.444910722
517.1755,-2.433471652,-0.5417543909,-6.695821935,0.04118065471,2.139716315
517.176,-4.875026913,-1.457337614,-7.306210751,0.6515694701,1.834521907
517.1765,-7.011387767,-3.593698468,-6.695821935,0.3463750624,1.834521907
517.177,-8.232165398,-5.424864914,-4.559461081,-0.5692081607,2.139716315
517.1775,-6.400998952,-6.03525373,-1.812711412,-0.8744025684,1.529327499
517.178,-2.738666059,-6.340448137,1.544427073,0.04118065471,0.003355460754
517.1785,0.6184724254,-6.03525373,6.427537596,2.482735916,-1.522616578
517.179,1.228861241,-5.424864914,11.00545371,4.008707955,-0.9122277624
517.1795,-0.9074996131,-5.424864914,11.00545371,4.008707955,0.3085498685
517.18,-3.349054875,-6.340448137,6.732732004,2.787930324,0.9189386839
517.1805,-4.264638098,-7.866420176,2.460010296,1.567152693,0.6137442762
517.181,-3.95944369,-8.476808991,1.239232665,0.9567638778,0.6137442762
517.1815,-2.738666059,-8.171614583,2.765204703,1.261958286,2.139716315
517.182,-1.823082836,-7.561225768,3.680787927,2.482735916,3.360493945
517.1825,-1.517888429,-7.561225768,3.375593519,2.482735916,3.360493945
517.183,-2.128277244,-7.25603136,2.460010296,0.6515694701,3.055299538
517.1835,-3.654249282,-6.340448137,0.3236494419,-1.179596976,3.055299538
517.184,-4.264638098,-4.509281691,-2.423100227,-2.095180199,2.444910722
517.1845,-3.654249282,-2.983309652,-5.169849897,-1.789985791,1.224133092
517.185,-1.823082836,-1.762532022,-5.475044304,-2.095180199,0.003355460754
517.1855,0.3132780177,-0.2365599832,-3.949072266,-2.400374607,-0.3018389469
517.186,2.754833279,1.899800871,-2.11790582,-1.179596976,-0.9122277624
517.1865,4.280805318,4.341356132,-0.5919337813,1.872347101,-1.827810985
517.187,3.670416502,5.562133763,0.01845503415,3.703513547,-2.133005393
517.1875,1.839250056,5.562133763,0.01845503415,1.872347101,-1.21742217
517.188,0.008083609999,5.562133763,-0.897128189,-0.8744025684,-0.3018389469
517.1885,-0.6023052054,6.782911394,-0.897128189,-1.484791384,-0.9122277624
517.189,-0.6023052054,8.308883432,0.01845503415,-0.5692081607,-2.133005393
517.1895,-1.823082836,8.61407784,1.239232665,-0.8744025684,-3.353783024
517.19,-3.95944369,8.003689025,1.84962148,-3.010763422,-3.658977432
517.1905,-6.095804544,7.088105802,0.9340382573,-4.841929869,-3.964171839
517.191,-7.011387767,6.782911394,0.01845503415,-5.452318684,-3.964171839
517.1915,-6.400998952,5.562133763,0.01845503415,-5.147124276,-3.964171839
517.192,-3.95944369,3.730967317,0.9340382573,-4.841929869,-3.353783024
517.1925,-1.212694021,1.899800871,1.544427073,-4.536735461,-2.438199801
517.193,0.3132780177,1.289412055,2.154815888,-3.926346645,-2.133005393
517.1935,0.3132780177,0.9842176476,2.765204703,-3.31595783,-2.133005393
517.194,0.008083609999,0.06863442452,3.375593519,-2.705569015,-2.438199801
517.1945,0.9236668331,-0.8469487986,4.901565557,-1.179596976,-2.438199801
517.195,2.449638872,-0.5417543909,5.81714878,0.3463750624,-1.522616578
517.1955,2.449638872,0.06863442452,5.206759965,1.261958286,0.3085498685
517.196,0.3132780177,-1.152143206,2.460010296,0.3463750624,1.834521907
517.1965,-1.517888429,-4.509281691,-1.202322597,-0.264013753,1.529327499
517.197,-1.823082836,-6.645642545,-4.254266674,-0.5692081607,0.003355460754
517.1975,-1.212694021,-5.424864914,-5.780238712,-0.264013753,-1.522616578
517.198,-1.517888429,-3.898892876,-5.475044304,-0.264013753,-0.9122277624
517.1985,-2.738666059,-5.119670506,-3.949072266,0.04118065471,0.9189386839
517.199,-3.043860467,-8.476808991,-2.728294635,-0.264013753,2.75010513
517.1995,-3.043860467,-10.00278103,-2.423100227,-0.8744025684,2.75010513
517.2,-3.043860467,-9.087197807,-3.338683451,-1.789985791,2.139716315
517.2005,-2.738666059,-8.171614583,-3.643877858,-2.095180199,2.139716315
517.201,-0.9074996131,-8.476808991,-2.728294635,-1.789985791,2.139716315
517.2015,1.228861241,-7.561225768,-0.2867393736,-1.789985791,0.6137442762
517.202,2.449638872,-4.509281691,1.239232665,-0.8744025684,-0.6070333546
517.2025,1.228861241,-2.372920837,1.544427073,0.6515694701,0.003355460754
517.203,-0.2971107977,-3.593698468,0.6288438496,2.177541509,2.75010513
517.2035,-1.517888429,-5.730059322,-0.2867393736,2.787930324,3.665688353
517.204,-2.738666059,-5.424864914,-0.5919337813,2.482735916,1.224133092
517.2045,-4.264638098,-2.372920837,0.01845503415,4.008707955,-1.522616578
517.205,-3.95944369,0.3738288322,1.239232665,6.755457624,-2.133005393
517.2055,-1.212694021,1.899800871,3.070399111,8.281429663,-1.21742217
517.206,1.534055649,3.425772909,5.511954373,7.671040847,-1.522616578
517.2065,1.839250056,6.172522579,7.648315227,6.145068809,-1.827810985
517.207,0.008083609999,8.61407784,7.037926411,5.229485586,-1.522616578
517.2075,0.008083609999,9.529661063,4.59637115,4.313902363,-1.21742217
517.208,2.754833279,8.919272248,3.070399111,3.703513547,-2.438199801
517.2085,7.332749395,8.003689025,4.291176742,4.313902363,-3.353783024
517.209,10.38469347,6.477716986,5.511954373,5.534679993,-1.827810985
517.2095,10.38469347,4.036161725,3.680787927,4.313902363,0.6137442762
517.21,8.248332618,2.815384094,0.9340382573,0.9567638778,1.529327499
517.2105,5.501582949,4.036161725,0.9340382573,-1.179596976,-0.3018389469
517.211,4.280805318,7.088105802,3.985982334,-0.5692081607,-3.048588616
517.2115,4.280805318,8.308883432,5.511954373,0.04118065471,-3.658977432
517.212,4.585999726,6.477716986,3.680787927,-1.789985791,-2.743394209
517.2125,3.97561091,3.120578502,0.9340382573,-5.757513092,-1.21742217
517.213,3.060027687,0.3738288322,-0.2867393736,-7.588679538,-0.3018389469
517.2135,1.839250056,0.06863442452,0.01845503415,-6.367901907,-0.6070333546
517.214,0.9236668331,0.9842176476,1.239232665,-3.926346645,-1.522616578
517.2145,0.6184724254,1.899800871,2.460010296,-1.789985791,-1.21742217
517.215,1.534055649,1.594606463,3.070399111,0.04118065471,0.003355460754
517.2155,1.534055649,0.06863442452,1.84962148,1.261958286,1.224133092
517.216,-1.212694021,-1.457337614,-1.202322597,0.9567638778,1.529327499
517.2165,-5.180221321,-2.067726429,-4.559461081,-0.5692081607,0.3085498685
517.217,-5.180221321,-1.762532022,-6.390627528,-1.179596976,0.003355460754
517.2175,-1.517888429,-2.983309652,-6.390627528,-0.5692081607,0.003355460754
517.218,0.9236668331,-5.730059322,-6.695821935,0.04118065471,1.529327499
517.2185,0.3132780177,-8.476808991,-6.695821935,0.04118065471,2.444910722
517.219,-0.9074996131,-9.087197807,-5.780238712,-0.264013753,2.75010513
517.2195,-0.2971107977,-8.782003399,-4.864655489,-0.8744025684,2.444910722
517.22,0.008083609999,-8.171614583,-4.254266674,-2.705569015,1.834521907
517.2205,-1.823082836,-8.171614583,-3.643877858,-5.452318684,2.139716315
517.221,-3.95944369,-7.25603136,-2.423100227,-6.062707499,2.444910722
517.2215,-1.823082836,-6.03525373,-0.5919337813,-2.705569015,2.444910722
517.222,2.449638872,-4.204087283,0.6288438496,2.482735916,1.224133092
517.2225,4.280805318,-1.762532022,1.84962148,4.924291178,0.3085498685
517.223,2.449638872,0.06863442452,2.765204703,3.398319139,0.003355460754
517.2235,0.008083609999,0.9842176476,2.460010296,0.6515694701,0.003355460754
517.224,-0.9074996131,0.06863442452,0.3236494419,0.04118065471,-0.9122277624
517.2245,-1.517888429,-0.5417543909,-1.812711412,0.3463750624,-1.827810985
517.225,-1.517888429,0.06863442452,-2.423100227,0.9567638778,-1.522616578
517.2255,-0.6023052054,2.204995278,-0.897128189,1.261958286,-0.6070333546
517.226,0.6184724254,4.341356132,0.3236494419,1.261958286,-0.6070333546
517.2265,1.228861241,6.172522579,0.01845503415,1.872347101,-0.9122277624
517.227,0.9236668331,7.698494617,-0.2867393736,2.482735916,-0.3018389469
517.2275,1.534055649,8.308883432,0.01845503415,3.398319139,0.3085498685
517.228,3.060027687,7.698494617,0.3236494419,4.008707955,0.6137442762
517.2285,3.670416502,7.088105802,0.6288438496,3.093124732,0.3085498685
517.229,3.365222095,7.088105802,0.9340382573,0.6515694701,0.003355460754
517.2295,3.060027687,7.698494617,1.239232665,-1.179596976,0.003355460754
517.23,2.449638872,7.698494617,1.84962148,-1.484791384,0.6137442762
517.2305,0.6184724254,7.393300209,1.544427073,-0.8744025684,1.529327499
517.231,-1.517888429,8.308883432,0.6288438496,-0.8744025684,2.139716315
517.2315,-2.128277244,8.919272248,0.01845503415,-2.095180199,0.9189386839
517.232,-1.823082836,8.61407784,-0.2867393736,-2.400374607,-0.9122277624
517.2325,-2.738666059,7.393300209,-1.507517004,-1.789985791,-1.827810985
517.233,-4.569832506,6.782911394,-3.033489043,-1.484791384,-0.9122277624
517.2335,-4.569832506,6.477716986,-3.033489043,-1.484791384,0.3085498685
517.234,-0.9074996131,6.172522579,-2.11790582,-0.5692081607,0.9189386839
517.2345,3.060027687,4.64655054,-1.812711412,0.3463750624,0.6137442762
517.235,3.670416502,2.204995278,-2.423100227,0.9567638778,1.224133092
517.2355,1.839250056,-0.2365599832,-2.728294635,0.6515694701,2.139716315
517.236,0.9236668331,-2.067726429,-2.423100227,0.04118065471,2.75010513
517.2365,2.449638872,-2.678115245,-2.423100227,0.3463750624,2.139716315
517.237,3.365222095,-3.593698468,-4.254266674,0.3463750624,1.529327499
517.2375,1.228861241,-5.119670506,-6.390627528,0.04118065471,1.529327499
517.238,-2.128277244,-6.03525373,-7.001016343,-0.5692081607,1.224133092
517.2385,-3.95944369,-5.730059322,-5.475044304,-0.5692081607,0.6137442762
517.239,-2.128277244,-5.424864914,-3.033489043,-0.8744025684,0.003355460754
517.2395,0.008083609999,-7.25603136,-2.11790582,-1.179596976,0.003355460754
517.24,0.008083609999,-10.30797544,-3.338683451,0.04118065471,1.224133092
517.2405,-2.128277244,-10.91836425,-6.08543312,2.177541509,2.139716315
517.241,-4.569832506,-8.171614583,-8.221793974,3.093124732,2.139716315
517.2415,-5.485415729,-5.424864914,-7.611405158,1.567152693,1.224133092
517.242,-3.95944369,-5.119670506,-4.559461081,0.3463750624,0.3085498685
517.2425,-1.212694021,-4.814476099,-1.202322597,0.9567638778,0.003355460754
517.243,0.6184724254,-3.28850406,-0.2867393736,2.177541509,-1.21742217
517.2435,1.228861241,-2.372920837,-0.5919337813,1.567152693,-2.743394209
517.244,1.534055649,-4.814476099,0.01845503415,-0.264013753,-3.048588616
517.2445,2.449638872,-7.25603136,1.239232665,-1.179596976,-1.522616578
517.245,3.365222095,-5.424864914,1.239232665,0.04118065471,0.003355460754
517.2455,2.449638872,-0.8469487986,-0.897128189,1.567152693,-0.6070333546
517.246,-0.2971107977,3.120578502,-2.728294635,2.177541509,-2.743394209
517.2465,-2.128277244,4.64655054,-2.11790582,1.872347101,-3.964171839
517.247,-0.9074996131,5.867328171,-0.2867393736,0.3463750624,-3.048588616
517.2475,0.008083609999,7.698494617,1.544427073,-2.400374607,-1.827810985
517.248,-1.517888429,9.224466656,3.375593519,-5.147124276,-2.438199801
517.2485,-3.043860467,10.44524429,5.206759965,-6.367901907,-3.658977432
517.249,-1.212694021,11.0556331,5.511954373,-5.147124276,-4.269366247
517.2495,2.449638872,9.834855471,3.985982334,-3.010763422,-3.353783024
517.25,5.501582949,7.088105802,2.765204703,-1.179596976,-2.133005393
517.2505,5.806777356,4.951744948,3.375593519,-0.8744025684,-1.21742217
517.251,4.280805318,5.562133763,5.206759965,-2.705569015,-1.21742217
517.2515,1.534055649,7.088105802,5.81714878,-5.147124276,-1.827810985
517.252,-0.9074996131,5.867328171,3.985982334,-4.536735461,-1.827810985
517.2525,-1.517888429,2.815384094,0.3236494419,1.872347101,-0.6070333546
517.253,0.9236668331,1.594606463,-2.728294635,10.72298492,1.224133092
517.2535,3.97561091,2.815384094,-4.254266674,15.91128986,2.444910722
517.254,3.670416502,2.510189686,-3.033489043,13.774929,2.444910722
517.2545,0.6184724254,-0.2365599832,-0.5919337813,6.755457624,2.444910722
517.255,-1.517888429,-2.678115245,0.3236494419,-0.8744025684,2.444910722
517.2555,-3.349054875,-2.372920837,-0.2867393736,-7.588679538,1.224133092
517.256,-4.875026913,-2.067726429,-2.11790582,-10.64062361,-0.6070333546
517.2565,-5.180221321,-5.730059322,-2.728294635,-9.114651576,-2.133005393
517.257,-2.433471652,-12.44433629,-3.033489043,-4.231541053,-0.6070333546
517.2575,2.144444464,-15.19108596,-3.033489043,0.3463750624,1.834521907
517.258,4.891194133,-11.22355866,-1.812711412,3.398319139,3.360493945
517.2585,3.670416502,-5.119670506,0.01845503415,4.924291178,3.055299538
517.259,1.228861241,-2.372920837,-0.5919337813,7.36584644,3.055299538
517.2595,0.3132780177,-3.898892876,-2.728294635,8.281429663,4.276077169
517.26,0.3132780177,-5.424864914,-3.033489043,5.839874401,4.276077169
517.2605,-0.9074996131,-4.814476099,0.01845503415,1.261958286,1.834521907
517.261,-3.654249282,-3.593698468,3.070399111,-1.179596976,-0.3018389469
517.2615,-5.485415729,-4.204087283,3.070399111,-0.5692081607,-0.3018389469
517.262,-6.095804544,-6.645642545,1.239232665,0.6515694701,0.9189386839
517.2625,-6.095804544,-7.561225768,1.544427073,0.9567638778,2.139716315
517.263,-5.485415729,-5.119670506,3.985982334,0.6515694701,1.834521907
517.2635,-4.569832506,-0.8469487986,5.206759965,1.261958286,0.6137442762
517.264,-4.875026913,2.510189686,3.985982334,1.261958286,-0.9122277624
517.2645,-7.316582175,2.815384094,2.765204703,-0.8744025684,-2.743394209
517.265,-10.06333184,1.289412055,2.460010296,-3.621152238,-3.658977432
517.2655,-9.758137436,1.594606463,2.460010296,-3.31595783,-3.353783024
517.266,-5.790610136,4.64655054,2.154815888,-1.484791384,-2.438199801
517.2665,-1.517888429,7.698494617,2.765204703,-1.484791384,-3.048588616
517.267,-0.2971107977,7.698494617,4.291176742,-3.621152238,-4.574560655
517.2675,-1.517888429,5.867328171,4.291176742,-4.536735461,-4.574560655
517.268,-1.823082836,4.951744948,2.765204703,-2.095180199,-2.743394209
517.2685,0.3132780177,5.256939355,0.9340382573,0.6515694701,-0.9122277624
517.269,3.365222095,4.951744948,0.9340382573,1.261958286,-0.6070333546
517.2695,4.585999726,4.036161725,2.460010296,0.6515694701,-0.9122277624
517.27,4.280805318,3.730967317,4.59637115,0.3463750624,-0.6070333546
517.2705,3.670416502,4.64655054,5.206759965,0.3463750624,0.3085498685
517.271,3.670416502,5.562133763,4.291176742,0.04118065471,0.9189386839
517.2715,3.97561091,5.867328171,2.765204703,0.04118065471,0.9189386839
517.272,4.280805318,4.951744948,1.84962148,0.3463750624,0.6137442762
517.2725,3.97561091,3.730967317,1.544427073,0.6515694701,0.3085498685
517.273,3.060027687,2.815384094,0.9340382573,0.04118065471,0.003355460754
517.2735,1.228861241,2.815384094,-0.2867393736,-0.264013753,0.6137442762
517.274,-0.2971107977,3.425772909,-0.5919337813,0.04118065471,0.9189386839
517.2745,-0.2971107977,2.815384094,0.3236494419,0.6515694701,0.3085498685
517.275,0.9236668331,0.06863442452,1.239232665,0.3463750624,-0.6070333546
517.2755,2.144444464,-2.983309652,-0.2867393736,0.04118065471,-0.9122277624
517.276,1.534055649,-3.593698468,-3.033489043,0.04118065471,0.003355460754
517.2765,-0.2971107977,-2.678115245,-4.864655489,0.04118065471,0.3085498685
517.277,-1.823082836,-2.983309652,-3.949072266,-1.179596976,0.003355460754
517.2775,-2.433471652,-6.03525373,-2.728294635,-2.705569015,-0.3018389469
517.278,-2.128277244,-8.476808991,-1.507517004,-2.095180199,0.3085498685
517.2785,-1.823082836,-9.392392214,-0.2867393736,-0.5692081607,1.529327499
517.279,-1.823082836,-8.476808991,0.9340382573,0.04118065471,1.224133092
517.2795,-0.9074996131,-7.561225768,2.154815888,-1.179596976,0.003355460754
517.28,0.6184724254,-7.25603136,2.460010296,-1.484791384,0.003355460754
517.2805,0.9236668331,-6.950836953,1.84962148,-0.5692081607,0.3085498685
517.281,-0.9074996131,-7.25603136,0.6288438496,0.04118065471,1.224133092
517.2815,-2.738666059,-7.25603136,0.6288438496,0.3463750624,0.9189386839
517.282,-2.433471652,-6.645642545,1.84962148,0.3463750624,0.3085498685
517.2825,0.008083609999,-6.03525373,3.375593519,0.6515694701,0.3085498685
517.283,1.228861241,-5.424864914,3.680787927,0.9567638778,0.3085498685
517.2835,0.6184724254,-5.119670506,2.765204703,0.6515694701,0.003355460754
517.284,0.008083609999,-4.204087283,1.239232665,0.04118065471,0.003355460754
517.2845,0.3132780177,-2.983309652,0.01845503415,-0.264013753,0.6137442762
517.285,0.3132780177,-1.457337614,-0.2867393736,-0.5692081607,1.529327499
517.2855,0.008083609999,0.3738288322,-0.5919337813,-0.264013753,1.224133092
517.286,0.008083609999,2.815384094,-1.507517004,0.3463750624,0.003355460754
517.2865,0.6184724254,4.341356132,-2.728294635,0.6515694701,-1.21742217
517.287,1.228861241,4.64655054,-4.254266674,0.04118065471,-0.6070333546
517.2875,0.008083609999,4.951744948,-3.949072266,-0.8744025684,0.003355460754
517.288,-2.128277244,5.562133763,-1.507517004,-1.789985791,-0.3018389469
517.2885,-3.349054875,5.256939355,1.239232665,-2.095180199,-1.522616578
517.289,-3.654249282,3.730967317,2.460010296,-3.010763422,-2.133005393
517.2895,-2.738666059,4.036161725,2.460010296,-3.31595783,-1.21742217
517.29,-0.9074996131,6.782911394,3.070399111,-1.789985791,-0.9122277624
517.2905,1.839250056,9.529661063,6.122343188,1.567152693,-0.9122277624
517.291,4.280805318,9.224466656,9.479481673,4.008707955,-1.21742217
517.2915,4.891194133,7.088105802,9.479481673,3.093124732,-1.21742217
517.292,3.060027687,6.172522579,6.122343188,0.3463750624,-1.522616578
517.2925,1.228861241,6.172522579,1.84962148,-0.8744025684,-1.827810985
517.293,0.6184724254,4.951744948,0.3236494419,-0.8744025684,-0.9122277624
517.2935,0.008083609999,2.815384094,1.239232665,-1.179596976,0.3085498685
517.294,-0.2971107977,0.9842176476,2.460010296,-2.095180199,0.9189386839
517.2945,-0.6023052054,0.06863442452,2.460010296,-1.484791384,0.003355460754
517.295,0.008083609999,-1.457337614,1.544427073,0.3463750624,-0.6070333546
517.2955,1.228861241,-2.983309652,1.544427073,1.261958286,0.003355460754
517.296,1.534055649,-3.593698468,1.84962148,-0.264013753,0.6137442762
517.2965,1.228861241,-3.898892876,1.239232665,-2.095180199,0.9189386839
517.297,2.449638872,-5.119670506,0.01845503415,-1.789985791,0.6137442762
517.2975,5.501582949,-6.645642545,-0.5919337813,0.04118065471,0.6137442762
517.298,8.248332618,-6.950836953,-0.897128189,0.3463750624,0.6137442762
517.2985,8.553527026,-6.340448137,-0.897128189,0.04118065471,0.6137442762
517.299,6.722360579,-6.03525373,-0.5919337813,0.04118065471,0.9189386839
517.2995,4.280805318,-5.424864914,-0.2867393736,1.872347101,1.224133092
517.3,2.449638872,-2.983309652,0.01845503415,4.008707955,1.529327499
517.3005,0.9236668331,-1.762532022,0.3236494419,4.008707955,1.834521907
517.301,0.008083609999,-2.983309652,0.9340382573,1.872347101,1.834521907
517.3015,0.008083609999,-4.509281691,1.84962148,0.04118065471,0.9189386839
517.302,0.3132780177,-2.983309652,2.154815888,0.04118065471,-0.3018389469
517.3025,1.228861241,0.06863442452,1.84962148,1.567152693,-1.522616578
517.303,1.228861241,0.3738288322,1.239232665,3.093124732,-0.3018389469
517.3035,0.008083609999,-1.762532022,1.239232665,3.703513547,2.139716315
517.304,-1.517888429,-4.204087283,1.239232665,4.008707955,3.665688353
517.3045,-2.433471652,-6.03525373,0.9340382573,4.924291178,3.055299538
517.305,-1.212694021,-7.866420176,0.3236494419,5.839874401,1.834521907
517.3055,0.6184724254,-8.476808991,0.01845503415,5.839874401,1.529327499
517.306,1.228861241,-5.119670506,-0.5919337813,3.703513547,1.224133092
517.3065,-0.2971107977,0.9842176476,-1.507517004,0.04118065471,0.003355460754
517.307,-3.349054875,5.562133763,-2.11790582,-3.010763422,-1.522616578
517.3075,-4.875026913,5.562133763,-2.423100227,-5.147124276,-1.827810985
517.308,-4.264638098,4.036161725,-2.11790582,-6.062707499,-1.522616578
517.3085,-2.128277244,3.425772909,-1.812711412,-6.367901907,-2.438199801
517.309,1.839250056,3.425772909,-0.5919337813,-6.062707499,-3.048588616
517.3095,5.806777356,4.036161725,0.3236494419,-4.841929869,-2.743394209
517.31,7.94313821,5.256939355,0.01845503415,-3.621152238,-0.9122277624
517.3105,7.027554987,6.782911394,-2.423100227,-2.705569015,0.3085498685
517.311,5.196388541,8.308883432,-4.559461081,-2.705569015,0.9189386839
517.3115,4.280805318,9.224466656,-3.643877858,-1.789985791,0.6137442762
517.312,4.585999726,10.14004988,-0.5919337813,-1.179596976,0.003355460754
517.3125,4.891194133,9.834855471,1.239232665,-1.789985791,-0.6070333546
517.313,4.891194133,8.003689025,1.544427073,-4.231541053,-1.522616578
517.3135,4.891194133,4.64655054,1.239232665,-5.147124276,-1.827810985
517.314,4.280805318,1.899800871,1.239232665,-1.789985791,-0.9122277624
517.3145,2.144444464,0.6790232399,0.3236494419,3.093124732,0.9189386839
517.315,0.6184724254,-0.2365599832,-0.5919337813,6.145068809,3.970882761
517.3155,0.008083609999,-1.762532022,0.01845503415,5.534679993,5.496854799
517.316,0.3132780177,-3.28850406,0.9340382573,3.398319139,4.276077169
517.3165,-0.6023052054,-4.204087283,1.239232665,2.177541509,1.529327499
517.317,-2.128277244,-5.119670506,0.3236494419,1.872347101,0.003355460754
517.3175,-2.738666059,-6.340448137,0.01845503415,1.261958286,0.3085498685
517.318,-2.433471652,-6.340448137,0.6288438496,0.04118065471,1.224133092
517.3185,-1.823082836,-5.730059322,1.544427073,-0.5692081607,0.9189386839
517.319,-1.212694021,-6.03525373,0.9340382573,-0.264013753,0.003355460754
517.3195,0.008083609999,-7.25603136,0.01845503415,0.04118065471,0.003355460754
517.32,0.9236668331,-7.561225768,0.01845503415,0.3463750624,0.3085498685
517.3205,-0.2971107977,-6.645642545,0.6288438496,0.04118065471,0.003355460754
517.321,-3.043860467,-5.119670506,0.3236494419,0.04118065471,-0.6070333546
517.3215,-4.264638098,-4.509281691,-1.202322597,0.3463750624,-0.3018389469
517.322,-3.95944369,-3.898892876,-2.423100227,0.9567638778,0.9189386839
517.3225,-3.95944369,-2.067726429,-2.423100227,0.9567638778,1.224133092
517.323,-5.180221321,-0.2365599832,-1.202322597,0.04118065471,0.003355460754
517.3235,-7.011387767,0.3738288322,0.01845503415,-1.789985791,-1.827810985
517.324,-8.537359806,1.594606463,0.01845503415,-2.705569015,-0.6070333546
517.3245,-10.67372066,4.951744948,-0.2867393736,-3.010763422,0.9189386839
517.325,-12.50488711,10.44524429,-0.2867393736,-2.705569015,0.003355460754
517.3255,-11.28410947,13.80238277,0.6288438496,-2.095180199,-3.964171839
517.326,-6.400998952,12.27641073,1.544427073,0.04118065471,-7.321310324
517.3265,0.3132780177,7.088105802,0.01845503415,2.482735916,-6.405727101
517.327,5.501582949,2.815384094,-3.949072266,2.787930324,-3.048588616
517.3275,6.417166172,2.204995278,-7.306210751,-0.264013753,-1.522616578
517.328,3.060027687,4.64655054,-7.001016343,-4.841929869,-2.438199801
517.3285,-1.517888429,5.867328171,-3.643877858,-6.367901907,-3.964171839
517.329,-1.823082836,4.64655054,-1.202322597,-3.010763422,-3.964171839
517.3295,3.670416502,3.120578502,-1.812711412,0.9567638778,-2.438199801
517.33,9.774304656,3.730967317,-3.643877858,2.177541509,-1.522616578
517.3305,9.774304656,5.256939355,-3.643877858,-0.5692081607,-0.9122277624
517.331,4.585999726,4.951744948,-2.423100227,-3.621152238,0.003355460754
517.3315,1.228861241,3.120578502,-3.033489043,-3.31595783,1.529327499
517.332,2.144444464,1.899800871,-6.08543312,0.04118065471,2.444910722
517.3325,3.365222095,3.425772909,-6.695821935,2.177541509,0.9189386839
517.333,2.754833279,4.64655054,-2.423100227,1.872347101,-1.21742217
517.3335,1.839250056,4.64655054,2.765204703,0.6515694701,-1.827810985
517.334,2.754833279,3.425772909,3.375593519,1.261958286,-0.3018389469
517.3345,3.060027687,1.899800871,-0.5919337813,3.093124732,0.9189386839
517.335,1.839250056,0.6790232399,-5.475044304,3.398319139,0.6137442762
517.3355,1.228861241,-0.5417543909,-7.611405158,1.872347101,0.003355460754
517.336,3.060027687,-1.152143206,-8.221793974,0.3463750624,1.224133092
517.3365,4.585999726,-0.2365599832,-8.526988381,0.3463750624,3.055299538
517.337,2.754833279,-0.5417543909,-7.916599566,0.04118065471,3.360493945
517.3375,0.008083609999,-2.678115245,-7.001016343,-1.179596976,1.529327499
517.338,-2.128277244,-5.119670506,-6.390627528,-3.621152238,0.6137442762
517.3385,-2.738666059,-6.03525373,-6.390627528,-3.926346645,1.529327499
517.339,-3.349054875,-6.340448137,-5.169849897,-0.8744025684,2.139716315
517.3395,-3.654249282,-7.25603136,-3.643877858,3.398319139,1.529327499
517.34,-2.128277244,-8.782003399,-2.423100227,5.839874401,0.3085498685
517.3405,-0.6023052054,-8.782003399,-1.202322597,5.839874401,0.6137442762
517.341,-1.212694021,-6.645642545,2.765204703,5.534679993,1.529327499
517.3415,-3.349054875,-3.898892876,8.56389845,5.839874401,1.529327499
517.342,-4.569832506,-3.28850406,11.00545371,4.924291178,1.224133092
517.3425,-5.485415729,-4.509281691,7.648315227,2.482735916,1.529327499
517.343,-5.485415729,-6.03525373,2.154815888,1.567152693,2.75010513
517.3435,-4.875026913,-6.645642545,0.01845503415,2.482735916,3.055299538
517.344,-3.043860467,-5.119670506,-0.2867393736,2.177541509,2.444910722
517.3445,-2.738666059,-2.372920837,-0.5919337813,-3.010763422,1.529327499
517.345,-5.180221321,0.06863442452,-1.202322597,-11.55620684,0.9189386839
517.3455,-8.232165398,1.594606463,-0.2867393736,-15.52373414,0.6137442762
517.346,-8.537359806,2.815384094,1.84962148,-11.86140125,-0.3018389469
517.3465,-4.569832506,5.256939355,4.291176742,-3.926346645,-2.743394209
517.347,1.534055649,8.919272248,7.648315227,3.093124732,-5.490143878
517.3475,7.637943803,11.66602192,11.31064812,7.976235255,-6.100532693
517.348,10.99508229,11.36082751,12.53142575,8.891818478,-3.964171839
517.3485,9.163915841,9.529661063,9.784676081,5.839874401,-1.522616578
517.349,3.97561091,8.003689025,6.122343188,0.6515694701,-0.9122277624
517.3495,-0.9074996131,8.003689025,6.122343188,-2.400374607,-1.827810985
517.35,-1.823082836,8.919272248,9.784676081,-1.179596976,-2.438199801
517.3505,0.008083609999,9.224466656,12.22623134,1.567152693,-2.438199801
517.351,0.6184724254,10.14004988,11.61584253,2.787930324,-2.133005393
517.3515,-0.2971107977,11.36082751,9.174287265,1.872347101,-2.133005393
517.352,-1.823082836,11.0556331,6.732732004,0.6515694701,-2.133005393
517.3525,-1.517888429,8.61407784,5.511954373,0.9567638778,-1.522616578
517.353,0.3132780177,6.477716986,5.206759965,1.872347101,-1.522616578
517.3535,2.449638872,6.172522579,6.427537596,1.567152693,-2.133005393
517.354,3.365222095,5.562133763,6.732732004,-0.264013753,-3.048588616
517.3545,3.060027687,1.899800871,3.985982334,-2.400374607,-2.743394209
517.355,1.534055649,-3.28850406,0.3236494419,-3.010763422,-0.9122277624
517.3555,-0.6023052054,-6.340448137,-0.897128189,-2.705569015,0.003355460754
517.356,-3.043860467,-5.424864914,-0.2867393736,-2.705569015,0.003355460754
517.3565,-3.95944369,-3.593698468,-0.2867393736,-3.010763422,-0.9122277624
517.357,-3.043860467,-3.898892876,-1.507517004,-1.789985791,-1.522616578
517.3575,-2.128277244,-4.509281691,-3.033489043,0.6515694701,-1.21742217
517.358,-1.823082836,-4.204087283,-3.643877858,3.398319139,0.003355460754
517.3585,-2.738666059,-4.204087283,-4.254266674,3.703513547,1.529327499
517.359,-2.128277244,-6.03525373,-5.780238712,1.567152693,2.444910722
517.3595,-0.6023052054,-7.561225768,-6.695821935,0.04118065471,3.360493945
517.36,0.3132780177,-7.25603136,-6.08543312,0.04118065471,3.360493945
517.3605,-0.2971107977,-6.03525373,-5.169849897,0.3463750624,2.444910722
517.361,-1.823082836,-6.03525373,-5.169849897,0.9567638778,0.9189386839
517.3615,-2.433471652,-7.25603136,-5.169849897,1.567152693,0.3085498685
517.362,-2.128277244,-7.25603136,-4.559461081,2.482735916,0.6137442762
517.3625,-1.823082836,-6.03525373,-3.338683451,3.093124732,0.003355460754
517.363,-0.9074996131,-5.424864914,-3.338683451,3.093124732,-0.6070333546
517.3635,0.3132780177,-5.730059322,-3.643877858,2.177541509,0.003355460754
517.364,2.144444464,-6.03525373,-3.643877858,1.261958286,1.529327499
517.3645,2.449638872,-5.119670506,-3.033489043,0.9567638778,2.75010513
517.365,1.839250056,-2.983309652,-2.423100227,2.177541509,1.834521907
517.3655,1.228861241,-0.8469487986,-2.423100227,3.093124732,0.003355460754
517.366,1.228861241,0.6790232399,-2.728294635,2.787930324,0.003355460754
517.3665,0.6184724254,1.899800871,-2.423100227,1.567152693,1.834521907
517.367,0.008083609999,2.815384094,-1.202322597,0.9567638778,1.834521907
517.3675,-0.2971107977,4.036161725,-0.5919337813,0.3463750624,0.003355460754
517.368,-0.6023052054,5.562133763,-2.11790582,-0.5692081607,-1.21742217
517.3685,-1.517888429,7.088105802,-4.864655489,-1.789985791,-0.9122277624
517.369,-2.433471652,8.003689025,-7.001016343,-1.484791384,0.003355460754
517.3695,-2.128277244,8.919272248,-7.306210751,-0.5692081607,0.3085498685
517.37,-0.9074996131,8.919272248,-6.390627528,-0.5692081607,0.3085498685
517.3705,0.008083609999,7.698494617,-4.864655489,-2.095180199,0.6137442762
517.371,0.008083609999,5.562133763,-2.728294635,-4.231541053,0.003355460754
517.3715,-0.2971107977,4.64655054,-0.897128189,-5.147124276,-1.827810985
517.372,-0.2971107977,4.951744948,-0.2867393736,-4.536735461,-3.048588616
517.3725,0.3132780177,4.64655054,-1.812711412,-3.010763422,-2.133005393
517.373,1.228861241,3.120578502,-2.728294635,-1.789985791,-0.3018389469
517.3735,2.144444464,0.9842176476,-1.812711412,-1.789985791,0.003355460754
517.374,1.839250056,0.06863442452,-0.5919337813,-3.010763422,0.003355460754
517.3745,0.3132780177,-0.5417543909,-1.507517004,-4.841929869,0.003355460754
517.375,-1.823082836,-1.457337614,-3.643877858,-4.841929869,0.9189386839
517.3755,-2.433471652,-2.678115245,-3.643877858,-2.705569015,2.139716315
517.376,-1.517888429,-2.983309652,-1.507517004,-0.5692081607,2.444910722
517.3765,0.3132780177,-2.983309652,-0.2867393736,0.04118065471,2.139716315
517.377,0.9236668331,-3.898892876,-1.202322597,-0.8744025684,1.529327499
517.3775,0.3132780177,-6.340448137,-3.643877858,-1.179596976,2.139716315
517.378,-0.6023052054,-8.782003399,-5.169849897,-0.8744025684,4.276077169
517.3785,-1.212694021,-8.782003399,-6.390627528,-0.5692081607,5.802049207
517.379,-1.517888429,-6.950836953,-6.390627528,-0.264013753,5.191660392
517.3795,-2.128277244,-4.814476099,-5.169849897,0.3463750624,3.055299538
517.38,-2.433471652,-4.814476099,-3.033489043,1.261958286,2.75010513
517.3805,-1.212694021,-6.340448137,-1.507517004,1.261958286,4.276077169
517.381,0.9236668331,-7.866420176,-1.812711412,0.9567638778,5.496854799
517.3815,3.060027687,-8.171614583,-1.202322597,0.9567638778,4.886465984
517.382,3.365222095,-6.950836953,0.01845503415,1.872347101,3.665688353
517.3825,1.839250056,-5.730059322,1.239232665,1.567152693,3.360493945
517.383,0.008083609999,-5.424864914,1.544427073,0.04118065471,3.665688353
517.3835,-1.212694021,-4.204087283,2.154815888,-1.789985791,3.055299538
517.384,-1.823082836,-0.8469487986,4.59637115,-1.789985791,1.224133092
517.3845,-1.517888429,2.510189686,6.427537596,-0.5692081607,-0.3018389469
517.385,-0.6023052054,3.730967317,5.81714878,-0.5692081607,-1.21742217
517.3855,0.6184724254,3.120578502,3.375593519,-1.484791384,-1.827810985
517.386,2.144444464,3.120578502,2.765204703,-1.179596976,-1.827810985
517.3865,3.97561091,4.64655054,3.680787927,0.04118065471,-0.9122277624
517.387,4.585999726,4.64655054,3.375593519,0.04118065471,0.003355460754
517.3875,3.97561091,1.289412055,0.9340382573,-1.179596976,0.6137442762
517.388,1.534055649,-2.372920837,-0.897128189,0.3463750624,1.529327499
517.3885,-0.9074996131,-2.067726429,-0.5919337813,5.229485586,2.139716315
517.389,-2.433471652,2.204995278,1.239232665,8.281429663,1.224133092
517.3895,-1.823082836,7.088105802,2.460010296,6.755457624,-0.3018389469
517.39,-0.2971107977,8.61407784,2.154815888,3.703513547,-1.21742217
517.3905,0.6184724254,7.393300209,2.154815888,2.177541509,-0.6070333546
517.391,0.6184724254,6.477716986,2.765204703,1.872347101,-0.3018389469
517.3915,0.3132780177,7.393300209,3.375593519,0.6515694701,-1.522616578
517.392,-0.2971107977,8.308883432,2.460010296,-0.5692081607,-3.048588616
517.3925,-1.823082836,7.393300209,1.239232665,-0.5692081607,-2.438199801
517.393,-3.654249282,5.256939355,1.544427073,0.04118065471,-0.9122277624
517.3935,-4.264638098,3.425772909,2.765204703,-0.8744025684,-0.6070333546
517.394,-3.95944369,3.120578502,2.154815888,-2.705569015,-2.133005393
517.3945,-3.043860467,1.899800871,-0.5919337813,-3.31595783,-2.743394209
517.395,-2.738666059,-1.457337614,-3.643877858,-3.31595783,-1.21742217
517.3955,-2.433471652,-5.424864914,-3.949072266,-3.621152238,0.3085498685
517.396,-1.823082836,-6.645642545,-1.812711412,-4.231541053,0.6137442762
517.3965,-0.9074996131,-5.730059322,-0.2867393736,-3.31595783,0.6137442762
517.397,0.008083609999,-5.730059322,-0.897128189,-1.789985791,1.224133092
517.3975,0.6184724254,-8.171614583,-2.423100227,-0.8744025684,2.444910722
517.398,0.9236668331,-9.697586622,-2.423100227,-0.264013753,1.834521907
517.3985,0.9236668331,-8.476808991,-1.507517004,0.04118065471,0.6137442762
517.399,0.6184724254,-6.645642545,-1.202322597,0.6515694701,0.003355460754
517.3995,0.008083609999,-7.25603136,-2.11790582,0.3463750624,0.6137442762
517.4,-0.9074996131,-9.087197807,-2.423100227,0.04118065471,0.3085498685
517.4005,-2.128277244,-8.476808991,-1.507517004,0.3463750624,-0.9122277624
517.401,-2.433471652,-6.340448137,-0.5919337813,0.3463750624,-2.133005393
517.4015,-1.823082836,-4.509281691,-0.897128189,-0.264013753,-1.827810985
517.402,-1.517888429,-4.509281691,-2.423100227,-1.484791384,-0.9122277624
517.4025,-1.517888429,-3.898892876,-2.423100227,-1.179596976,-0.9122277624
517.403,-1.823082836,-1.762532022,-0.897128189,0.04118065471,-0.9122277624
517.4035,-0.9074996131,0.06863442452,0.6288438496,0.3463750624,0.003355460754
517.404,0.3132780177,0.3738288322,1.544427073,0.04118065471,0.3085498685
517.4045,0.9236668331,0.9842176476,2.154815888,0.04118065471,-0.3018389469
517.405,1.228861241,1.899800871,3.375593519,0.6515694701,-1.522616578
517.4055,1.228861241,3.120578502,4.901565557,0.3463750624,-1.522616578
517.406,1.534055649,3.425772909,5.511954373,-0.8744025684,-1.21742217
517.4065,0.9236668331,4.341356132,4.291176742,-1.789985791,-2.743394209
517.407,0.008083609999,6.477716986,2.765204703,-0.8744025684,-4.574560655
517.4075,-0.2971107977,8.61407784,2.154815888,0.3463750624,-4.574560655
517.408,-0.2971107977,8.308883432,1.84962148,1.261958286,-1.827810985
517.4085,-0.6023052054,7.393300209,0.9340382573,0.9567638778,0.003355460754
517.409,-1.212694021,8.003689025,0.01845503415,0.3463750624,-0.6070333546
517.4095,0.008083609999,10.44524429,-0.5919337813,0.3463750624,-2.133005393
517.41,3.060027687,11.66602192,0.01845503415,1.872347101,-2.133005393
517.4105,7.637943803,10.44524429,0.9340382573,3.703513547,-1.827810985
517.411,10.07949906,7.698494617,0.3236494419,4.61909677,-2.133005393
517.4115,10.38469347,4.951744948,-0.897128189,3.093124732,-1.522616578
517.412,8.858721433,2.510189686,-1.202322597,0.6515694701,0.3085498685
517.4125,7.332749395,0.06863442452,0.3236494419,-0.264013753,2.444910722
517.413,6.417166172,-1.152143206,2.154815888,0.04118065471,1.834521907
517.4135,5.806777356,-1.152143206,2.765204703,0.04118065471,-0.3018389469
517.414,5.196388541,-0.8469487986,1.84962148,0.04118065471,-1.21742217
517.4145,3.97561091,-1.457337614,1.239232665,0.04118065471,0.3085498685
517.415,3.060027687,-2.372920837,1.239232665,0.3463750624,1.834521907
517.4155,2.754833279,-2.678115245,0.9340382573,0.9567638778,1.224133092
517.416,2.144444464,-2.372920837,0.01845503415,0.3463750624,0.003355460754
517.4165,0.3132780177,-2.983309652,-0.897128189,-0.8744025684,-0.3018389469
517.417,-1.212694021,-4.204087283,-1.202322597,-1.484791384,-0.3018389469
517.4175,-1.212694021,-5.119670506,-0.897128189,-0.5692081607,-0.6070333546
517.418,0.008083609999,-4.814476099,-0.897128189,0.9567638778,-0.3018389469
517.4185,0.008083609999,-4.814476099,-0.897128189,2.177541509,1.529327499
517.419,-1.212694021,-5.730059322,-0.2867393736,2.482735916,3.360493945
517.4195,-1.517888429,-6.950836953,0.01845503415,2.177541509,3.360493945
517.42,0.008083609999,-7.561225768,0.3236494419,2.482735916,2.444910722
517.4205,0.9236668331,-7.561225768,0.6288438496,3.093124732,2.139716315
517.421,0.3132780177,-6.950836953,0.9340382573,3.093124732,2.444910722
517.4215,-0.6023052054,-6.950836953,0.9340382573,2.787930324,2.139716315
517.422,-0.6023052054,-6.645642545,0.3236494419,3.093124732,1.529327499
517.4225,1.228861241,-7.25603136,0.01845503415,5.229485586,1.834521907
517.423,3.670416502,-7.561225768,0.3236494419,7.36584644,1.529327499
517.4235,3.365222095,-6.340448137,1.544427073,6.450263216,0.3085498685
517.424,0.008083609999,-2.983309652,3.070399111,1.872347101,-1.21742217
517.4245,-4.569832506,0.06863442452,3.680787927,-2.400374607,-1.21742217
517.425,-5.790610136,1.594606463,3.375593519,-2.705569015,0.003355460754
517.4255,-3.043860467,1.899800871,3.070399111,0.6515694701,0.003355460754
517.426,-0.6023052054,3.425772909,2.765204703,3.703513547,-1.21742217
517.4265,-1.823082836,6.477716986,3.375593519,1.872347101,-2.743394209
517.427,-4.264638098,8.919272248,3.985982334,-1.179596976,-3.658977432
517.4275,-2.738666059,8.003689025,3.680787927,-1.789985791,-3.964171839
517.428,2.754833279,4.951744948,2.765204703,0.3463750624,-3.353783024
517.4285,7.94313821,1.899800871,1.544427073,2.177541509,-1.827810985
517.429,8.858721433,1.289412055,1.239232665,1.261958286,-0.3018389469
517.4295,7.027554987,2.815384094,2.154815888,-0.264013753,-0.6070333546
517.43,5.501582949,4.036161725,2.765204703,-0.5692081607,-1.827810985
517.4305,5.196388541,3.730967317,2.154815888,-0.264013753,-2.133005393
517.431,4.280805318,2.815384094,1.239232665,-1.179596976,-1.522616578
517.4315,3.670416502,2.204995278,1.239232665,-2.095180199,-0.9122277624
517.432,3.365222095,2.815384094,1.84962148,-2.095180199,-0.3018389469
517.4325,3.060027687,2.510189686,2.765204703,-1.179596976,0.003355460754
517.433,1.534055649,0.9842176476,3.985982334,-0.8744025684,0.003355460754
517.4335,0.008083609999,-0.2365599832,4.901565557,-1.179596976,-0.3018389469
517.434,-0.9074996131,0.06863442452,5.206759965,-1.484791384,-1.522616578
517.4345,-1.212694021,1.899800871,4.291176742,-1.484791384,-1.21742217
517.435,-1.212694021,2.510189686,3.680787927,-2.095180199,-0.6070333546
517.4355,-0.2971107977,0.3738288322,3.375593519,-2.095180199,-0.6070333546
517.436,0.008083609999,-1.457337614,3.070399111,-0.8744025684,-1.21742217
517.4365,-1.212694021,0.06863442452,2.154815888,0.04118065471,-1.522616578
517.437,-3.349054875,3.120578502,0.6288438496,-0.8744025684,-1.827810985
517.4375,-3.95944369,4.036161725,0.3236494419,-3.010763422,-2.743394209
517.438,-3.043860467,0.9842176476,0.6288438496,-3.31595783,-3.658977432
517.4385,-2.738666059,-1.762532022,0.9340382573,-2.095180199,-3.048588616
517.439,-4.569832506,-0.8469487986,0.01845503415,-1.179596976,-0.9122277624
517.4395,-6.095804544,2.204995278,-1.507517004,-1.179596976,0.9189386839
517.44,-4.264638098,3.730967317,-3.033489043,0.04118065471,1.834521907
517.4405,-1.212694021,0.6790232399,-3.643877858,3.093124732,2.444910722
517.441,-0.6023052054,-5.119670506,-3.338683451,5.229485586,3.055299538
517.4415,-3.349054875,-11.83394748,-2.423100227,4.313902363,2.75010513
517.442,-5.790610136,-17.02225241,-1.202322597,2.482735916,2.444910722
517.4425,-5.485415729,-19.46380767,-0.5919337813,2.177541509,2.139716315
517.443,-3.654249282,-17.93783563,-1.202322597,2.787930324,2.75010513
517.4435,-3.043860467,-13.97030833,-2.11790582,1.567152693,2.444910722
517.444,-3.654249282,-10.00278103,-1.812711412,-1.484791384,1.224133092
517.4445,-3.654249282,-6.340448137,-0.897128189,-3.926346645,-0.6070333546
517.445,-2.433471652,-2.983309652,-0.2867393736,-3.31595783,-1.827810985
517.4455,-2.128277244,-0.5417543909,-1.202322597,-0.5692081607,-1.522616578
517.446,-2.433471652,0.6790232399,-2.728294635,0.9567638778,0.003355460754
517.4465,-2.738666059,1.289412055,-3.033489043,0.6515694701,1.224133092
517.447,-2.128277244,2.815384094,-2.11790582,-0.264013753,0.6137442762
517.4475,-1.212694021,4.64655054,-1.507517004,-1.484791384,-0.6070333546
517.448,-0.6023052054,5.867328171,-0.897128189,-2.705569015,0.003355460754
517.4485,-0.2971107977,6.477716986,-0.2867393736,-3.31595783,1.224133092
517.449,0.3132780177,7.698494617,0.6288438496,-2.400374607,0.9189386839
517.4495,1.839250056,9.224466656,1.239232665,-0.8744025684,-0.6070333546
517.45,2.449638872,9.529661063,0.6288438496,-0.5692081607,-1.522616578
517.4505,2.449638872,7.698494617,0.3236494419,-0.8744025684,-0.3018389469
517.451,3.060027687,6.172522579,1.239232665,-1.484791384,0.9189386839
517.4515,3.97561091,6.172522579,2.154815888,-0.8744025684,0.6137442762
517.452,3.97561091,6.782911394,2.154815888,-0.5692081607,0.3085498685
517.4525,2.449638872,5.867328171,1.544427073,-0.5692081607,1.224133092
517.453,0.9236668331,4.036161725,1.239232665,-1.484791384,2.139716315
517.4535,0.3132780177,3.120578502,0.9340382573,-1.789985791,1.529327499
517.454,0.6184724254,2.815384094,0.3236494419,-2.095180199,0.6137442762
517.4545,0.3132780177,2.204995278,-0.897128189,-2.095180199,0.9189386839
517.455,0.3132780177,1.594606463,-2.423100227,-1.789985791,1.224133092
517.4555,0.9236668331,0.9842176476,-3.338683451,-1.179596976,1.224133092
517.456,1.228861241,0.06863442452,-3.033489043,-1.179596976,1.529327499
517.4565,0.6184724254,-1.762532022,-2.728294635,-1.789985791,2.75010513
517.457,-0.6023052054,-2.678115245,-3.033489043,-2.400374607,3.055299538
517.4575,-2.738666059,-2.372920837,-4.559461081,-2.400374607,2.444910722
517.458,-4.875026913,-2.372920837,-6.08543312,-2.400374607,1.224133092
517.4585,-6.706193359,-3.593698468,-5.169849897,-2.705569015,0.9189386839
517.459,-6.095804544,-4.204087283,-2.423100227,-2.095180199,0.9189386839
517.4595,-3.654249282,-2.678115245,0.01845503415,0.04118065471,0.6137442762
517.46,-1.212694021,-0.5417543909,0.6288438496,2.482735916,0.3085498685
517.4605,-1.212694021,-0.5417543909,1.84962148,2.482735916,0.6137442762
517.461,-1.823082836,-2.372920837,3.985982334,1.567152693,0.3085498685
517.4615,-1.212694021,-2.983309652,4.59637115,0.9567638778,-0.3018389469
517.462,0.008083609999,-2.372920837,2.460010296,1.567152693,-1.21742217
517.4625,0.3132780177,-2.678115245,0.3236494419,1.872347101,-0.9122277624
517.463,-0.9074996131,-4.204087283,1.544427073,0.9567638778,-0.9122277624
517.4635,-2.128277244,-4.204087283,3.375593519,0.04118065471,-1.522616578
517.464,-1.212694021,-2.067726429,2.154815888,0.04118065471,-1.827810985
517.4645,0.008083609999,0.06863442452,-0.897128189,0.3463750624,-1.21742217
517.465,-0.2971107977,0.06863442452,-2.423100227,0.04118065471,-0.9122277624
517.4655,-2.433471652,0.06863442452,-2.11790582,-1.179596976,-1.522616578
517.466,-3.95944369,1.289412055,-2.11790582,-3.926346645,-2.438199801
517.4665,-3.654249282,3.730967317,-3.643877858,-6.673096315,-2.743394209
517.467,-1.517888429,5.867328171,-3.643877858,-7.893873946,-2.133005393
517.4675,0.008083609999,7.088105802,-1.812711412,-6.062707499,-0.9122277624
517.468,-0.6023052054,8.003689025,-0.897128189,-0.8744025684,0.003355460754
517.4685,-2.128277244,9.224466656,-1.507517004,4.313902363,0.9189386839
517.469,-1.517888429,10.75043869,-1.202322597,5.839874401,0.3085498685
517.4695,1.228861241,11.66602192,0.9340382573,2.787930324,-0.9122277624
517.47,3.060027687,10.44524429,2.460010296,-1.179596976,-2.438199801
517.4705,0.6184724254,7.088105802,1.239232665,-2.400374607,-1.827810985
517.471,-3.349054875,3.425772909,-0.2867393736,0.6515694701,0.003355460754
517.4715,-4.875026913,2.204995278,0.01845503415,5.534679993,1.529327499
517.472,-4.264638098,3.730967317,1.239232665,7.671040847,2.139716315
517.4725,-3.95944369,5.867328171,1.239232665,5.839874401,1.529327499
517.473,-4.264638098,6.172522579,0.3236494419,3.398319139,0.003355460754
517.4735,-2.738666059,4.951744948,0.9340382573,2.482735916,-0.6070333546
517.474,-1.212694021,3.425772909,2.460010296,1.261958286,-0.9122277624
517.4745,-2.738666059,1.899800871,2.154815888,-1.789985791,-1.522616578
517.475,-5.485415729,-0.8469487986,0.01845503415,-5.452318684,-2.438199801
517.4755,-3.654249282,-5.424864914,-2.11790582,-6.062707499,-1.827810985
517.476,2.144444464,-8.476808991,-3.338683451,-3.010763422,0.9189386839
517.4765,5.501582949,-8.171614583,-3.338683451,0.3463750624,4.276077169
517.477,3.060027687,-6.645642545,-2.728294635,2.177541509,5.191660392
517.4775,0.008083609999,-6.03525373,-2.11790582,2.482735916,3.665688353
517.478,0.9236668331,-6.645642545,-1.202322597,3.093124732,1.834521907
517.4785,3.97561091,-6.950836953,-0.2867393736,3.703513547,1.529327499
517.479,3.365222095,-6.340448137,0.01845503415,4.008707955,2.139716315
517.4795,0.6184724254,-6.340448137,-0.2867393736,4.61909677,3.055299538
517.48,0.008083609999,-7.866420176,-0.897128189,5.229485586,3.665688353
517.4805,1.228861241,-8.476808991,-0.897128189,4.313902363,3.055299538
517.481,2.144444464,-7.866420176,-0.2867393736,2.177541509,0.9189386839
517.4815,1.228861241,-6.645642545,0.3236494419,1.261958286,0.003355460754
517.482,1.228861241,-6.645642545,0.9340382573,2.787930324,0.003355460754
517.4825,1.839250056,-7.25603136,0.9340382573,4.924291178,0.9189386839
517.483,1.839250056,-7.25603136,0.01845503415,4.008707955,0.9189386839
517.4835,0.3132780177,-6.645642545,-1.812711412,0.04118065471,0.003355460754
517.484,-1.212694021,-6.03525373,-3.949072266,-3.926346645,-0.9122277624
517.4845,-2.738666059,-5.119670506,-4.864655489,-4.841929869,-1.522616578
517.485,-3.95944369,-2.678115245,-4.254266674,-3.621152238,-2.133005393
517.4855,-4.569832506,-0.2365599832,-2.728294635,-2.705569015,-2.133005393
517.486,-4.264638098,0.9842176476,-1.202322597,-3.010763422,-0.9122277624
517.4865,-4.875026913,2.815384094,0.9340382573,-3.621152238,0.003355460754
517.487,-6.095804544,5.562133763,3.680787927,-3.31595783,-0.3018389469
517.4875,-5.180221321,7.393300209,4.291176742,-1.484791384,-1.827810985
517.488,0.3132780177,6.172522579,2.765204703,0.6515694701,-2.133005393
517.4885,6.722360579,3.425772909,0.3236494419,2.177541509,-0.9122277624
517.489,9.163915841,2.204995278,0.01845503415,2.787930324,-0.6070333546
517.4895,6.722360579,3.730967317,0.9340382573,1.872347101,-1.522616578
517.49,2.754833279,5.867328171,0.6288438496,0.04118065471,-2.438199801
517.4905,0.008083609999,6.477716986,-0.2867393736,-2.400374607,-2.133005393
517.491,-1.212694021,5.562133763,-0.897128189,-4.536735461,-1.522616578
517.4915,-1.212694021,5.256939355,-0.2867393736,-3.926346645,-1.522616578
517.492,1.228861241,5.562133763,0.01845503415,-1.179596976,-1.827810985
517.4925,4.585999726,6.172522579,-0.897128189,1.261958286,-1.522616578
517.493,6.722360579,6.172522579,-0.897128189,2.482735916,-0.3018389469
517.4935,6.417166172,5.562133763,0.01845503415,2.787930324,0.3085498685
517.494,5.196388541,4.64655054,0.3236494419,3.398319139,0.9189386839
517.4945,4.280805318,4.036161725,0.01845503415,4.008707955,0.6137442762
517.495,3.365222095,4.036161725,-0.897128189,3.093124732,0.003355460754
517.4955,3.060027687,4.036161725,-0.897128189,1.567152693,0.003355460754
517.496,3.060027687,2.204995278,-0.897128189,1.261958286,0.9189386839
517.4965,2.144444464,0.06863442452,-0.897128189,3.093124732,2.444910722
517.497,0.008083609999,-0.8469487986,-1.202322597,4.008707955,2.75010513
517.4975,-1.517888429,-0.2365599832,-0.897128189,3.703513547,1.834521907
517.498,0.008083609999,-1.457337614,-0.5919337813,3.093124732,1.529327499
517.4985,3.060027687,-6.03525373,-0.5919337813,3.398319139,2.444910722
517.499,3.670416502,-9.392392214,-0.5919337813,3.398319139,3.360493945
517.4995,0.6184724254,-8.171614583,-0.2867393736,1.567152693,2.444910722
517.5,-1.517888429,-5.119670506,0.01845503415,-0.264013753,0.3085498685
517.5005,-1.212694021,-5.119670506,0.9340382573,-0.8744025684,-0.3018389469
517.501,-1.212694021,-8.171614583,1.544427073,-1.179596976,0.3085498685
517.5015,-3.654249282,-9.087197807,1.84962148,-2.705569015,0.6137442762
517.502,-6.095804544,-5.424864914,2.154815888,-4.841929869,0.003355460754
517.5025,-4.875026913,-1.457337614,2.154815888,-4.536735461,-0.9122277624
517.503,-0.6023052054,-0.5417543909,2.154815888,-1.484791384,-1.21742217
517.5035,2.754833279,-0.8469487986,2.460010296,1.567152693,-0.9122277624
517.504,3.060027687,0.3738288322,1.84962148,2.177541509,-2.133005393
517.5045,1.228861241,2.815384094,0.9340382573,0.6515694701,-4.574560655
517.505,-0.9074996131,3.425772909,0.3236494419,-1.179596976,-6.405727101
517.5055,-2.433471652,3.730967317,1.239232665,-1.179596976,-5.795338286
517.506,-1.517888429,5.562133763,3.680787927,0.04118065471,-3.658977432
517.5065,0.6184724254,7.393300209,5.511954373,1.567152693,-2.743394209
517.507,1.839250056,6.172522579,5.511954373,0.6515694701,-3.048588616
517.5075,-0.2971107977,3.730967317,3.680787927,-1.484791384,-3.048588616
517.508,-3.349054875,3.425772909,1.544427073,-2.705569015,-2.133005393
517.5085,-3.349054875,6.477716986,-0.2867393736,-2.095180199,-0.6070333546
517.509,-1.823082836,10.14004988,-2.423100227,-0.8744025684,0.003355460754
517.5095,-2.128277244,12.27641073,-3.643877858,-0.264013753,-0.3018389469
517.51,-3.043860467,11.97121632,-3.338683451,0.04118065471,-0.6070333546
517.5105,-1.212694021,10.44524429,-3.033489043,1.567152693,-0.6070333546
517.511,3.060027687,6.782911394,-4.254266674,1.567152693,0.003355460754
517.5115,7.637943803,3.120578502,-7.306210751,0.04118065471,0.6137442762
517.512,10.68988788,1.289412055,-9.137377197,-1.179596976,1.529327499
517.5125,13.43663755,0.9842176476,-8.832182789,0.04118065471,2.139716315
517.513,14.96260959,0.3738288322,-7.916599566,1.872347101,2.444910722
517.5135,12.21585992,-1.457337614,-7.611405158,1.567152693,3.665688353
517.514,6.722360579,-3.593698468,-7.306210751,-0.5692081607,4.886465984
517.5145,2.754833279,-4.814476099,-5.780238712,-2.095180199,5.191660392
517.515,2.449638872,-4.814476099,-4.254266674,-2.095180199,4.276077169
517.5155,2.144444464,-4.814476099,-3.338683451,-3.010763422,3.055299538
517.516,0.6184724254,-5.424864914,-2.11790582,-4.231541053,2.444910722
517.5165,0.6184724254,-6.03525373,0.6288438496,-3.621152238,1.834521907
517.517,2.754833279,-6.950836953,3.375593519,-1.179596976,1.224133092
517.5175,3.060027687,-6.645642545,2.154815888,0.04118065471,1.224133092
517.518,0.6184724254,-5.119670506,-0.897128189,0.04118065471,2.75010513
517.5185,-1.212694021,-4.204087283,-3.643877858,0.04118065471,4.581271576
517.519,-0.6023052054,-4.814476099,-3.949072266,0.6515694701,5.191660392
517.5195,-0.6023052054,-6.340448137,-4.254266674,0.9567638778,3.970882761
517.52,-3.95944369,-7.25603136,-3.949072266,-0.264013753,1.834521907
517.5205,-7.621776583,-7.866420176,-2.728294635,-1.789985791,0.6137442762
517.521,-7.92697099,-8.171614583,0.01845503415,-1.789985791,0.003355460754
517.5215,-4.875026913,-7.561225768,3.070399111,0.04118065471,-0.6070333546
517.522,-1.517888429,-4.509281691,7.037926411,2.177541509,-1.522616578
517.5225,0.008083609999,-0.5417543909,10.7002593,4.61909677,-2.133005393
517.523,0.008083609999,2.204995278,11.61584253,3.703513547,-3.658977432
517.5235,-3.043860467,3.120578502,8.869092857,-0.8744025684,-5.18494947
517.524,-7.011387767,3.120578502,5.81714878,-5.757513092,-5.795338286
517.5245,-6.706193359,3.730967317,6.427537596,-4.841929869,-5.490143878
517.525,0.3132780177,4.036161725,8.56389845,1.261958286,-4.269366247
517.5255,9.163915841,2.510189686,8.258704042,7.060652032,-3.353783024
517.526,12.82624873,0.3738288322,4.291176742,7.36584644,-2.438199801
517.5265,10.68988788,-0.2365599832,1.239232665,4.313902363,-1.522616578
517.527,6.111971764,0.9842176476,0.6288438496,1.261958286,0.003355460754
517.5275,1.839250056,4.64655054,0.6288438496,-1.484791384,0.3085498685
517.528,-2.128277244,8.308883432,-0.2867393736,-4.536735461,0.003355460754
517.5285,-4.875026913,10.14004988,-0.2867393736,-7.588679538,-1.522616578
517.529,-4.875026913,11.36082751,1.239232665,-7.893873946,-3.353783024
517.5295,-2.433471652,12.27641073,2.765204703,-6.062707499,-3.964171839
517.53,-0.2971107977,11.97121632,1.544427073,-3.926346645,-3.658977432
517.5305,0.6184724254,10.44524429,0.01845503415,-3.31595783,-2.743394209
517.531,0.9236668331,9.834855471,0.6288438496,-4.231541053,-2.438199801
517.5315,0.9236668331,11.0556331,2.154815888,-5.452318684,-3.353783024
517.532,0.008083609999,12.58160514,2.154815888,-5.147124276,-4.574560655
517.5325,-0.6023052054,11.0556331,0.3236494419,-2.400374607,-4.574560655
517.533,-0.2971107977,6.172522579,-1.202322597,0.9567638778,-1.522616578
517.5335,0.3132780177,0.06863442452,-2.11790582,2.787930324,2.139716315
517.534,0.3132780177,-4.204087283,-2.728294635,2.177541509,3.970882761
517.5345,-1.212694021,-6.03525373,-2.728294635,0.9567638778,1.834521907
517.535,-3.654249282,-5.424864914,-2.423100227,0.3463750624,-0.6070333546
517.5355,-4.875026913,-3.28850406,-1.812711412,0.3463750624,-1.21742217
517.536,-3.654249282,-1.457337614,-2.11790582,0.9567638778,0.003355460754
517.5365,-1.212694021,-2.372920837,-2.11790582,1.567152693,1.529327499
517.537,0.008083609999,-6.03525373,-1.202322597,1.567152693,2.139716315
517.5375,0.008083609999,-9.392392214,-0.2867393736,0.6515694701,1.834521907
517.538,-0.6023052054,-10.61316985,-1.507517004,-0.264013753,1.834521907
517.5385,-0.6023052054,-10.00278103,-3.338683451,-0.264013753,2.444910722
517.539,0.008083609999,-10.00278103,-3.033489043,-0.5692081607,3.055299538
517.5395,0.008083609999,-10.91836425,-0.5919337813,-0.8744025684,3.360493945
517.54,-0.2971107977,-11.52875307,0.9340382573,-0.5692081607,3.055299538
517.5405,0.008083609999,-10.30797544,0.3236494419,0.3463750624,2.444910722
517.541,0.6184724254,-7.866420176,-0.5919337813,1.567152693,2.139716315
517.5415,0.3132780177,-5.424864914,0.01845503415,0.9567638778,1.834521907
517.542,-0.9074996131,-4.204087283,0.6288438496,0.04118065471,1.529327499
517.5425,-2.738666059,-3.28850406,-0.2867393736,0.9567638778,1.224133092
517.543,-3.95944369,-1.762532022,-3.338683451,2.482735916,0.9189386839
517.5435,-4.264638098,0.06863442452,-4.559461081,1.872347101,0.6137442762
517.544,-3.349054875,0.06863442452,-2.728294635,-0.264013753,0.003355460754
517.5445,-2.128277244,-1.457337614,-0.5919337813,-1.179596976,0.003355460754
517.545,-0.2971107977,-2.372920837,-0.5919337813,0.3463750624,0.3085498685
517.5455,0.6184724254,-0.8469487986,-1.507517004,1.567152693,0.9189386839
517.546,1.228861241,2.510189686,-0.2867393736,0.6515694701,0.9189386839
517.5465,1.534055649,6.172522579,2.460010296,-0.8744025684,-0.6070333546
517.547,1.839250056,8.308883432,4.291176742,-0.5692081607,-2.133005393
517.5475,2.144444464,9.224466656,3.680787927,0.9567638778,-2.743394209
517.548,2.449638872,9.224466656,2.460010296,1.872347101,-3.048588616
517.5485,3.365222095,8.919272248,1.84962148,1.567152693,-3.658977432
517.549,4.280805318,8.61407784,1.84962148,0.3463750624,-3.658977432
517.5495,3.670416502,8.61407784,1.239232665,0.04118065471,-2.438199801
517.55,1.839250056,7.393300209,0.01845503415,0.9567638778,-0.3018389469
517.5505,0.008083609999,4.951744948,-0.897128189,2.177541509,0.003355460754
517.551,-0.6023052054,2.510189686,-0.5919337813,1.872347101,-1.522616578
517.5515,-0.9074996131,1.899800871,0.6288438496,0.04118065471,-3.658977432
517.552,-0.6023052054,2.815384094,1.544427073,-2.095180199,-4.574560655
517.5525,0.008083609999,3.425772909,0.9340382573,-2.095180199,-3.658977432
517.553,0.3132780177,2.510189686,-0.5919337813,-0.5692081607,-1.522616578
517.5535,0.6184724254,1.289412055,-2.11790582,0.04118065471,0.003355460754
517.554,0.008083609999,0.6790232399,-1.812711412,0.04118065471,0.6137442762
517.5545,-1.517888429,0.06863442452,-0.897128189,-0.8744025684,0.9189386839
517.555,-3.349054875,0.06863442452,-0.2867393736,-1.484791384,0.9189386839
517.5555,-4.264638098,0.6790232399,-0.5919337813,-1.179596976,0.003355460754
517.556,-3.349054875,0.6790232399,-0.897128189,-0.5692081607,-1.21742217
517.5565,-1.823082836,-0.8469487986,-0.897128189,0.6515694701,-1.827810985
517.557,-0.9074996131,-3.28850406,-1.202322597,2.177541509,-1.21742217
517.5575,-0.6023052054,-3.898892876,-1.507517004,2.787930324,0.003355460754
517.558,-0.6023052054,-3.28850406,-2.11790582,2.787930324,1.529327499
517.5585,-0.6023052054,-3.28850406,-2.728294635,3.093124732,2.139716315
517.559,-0.9074996131,-5.119670506,-2.423100227,3.398319139,1.834521907
517.5595,-1.517888429,-5.730059322,-0.897128189,2.787930324,0.003355460754
517.56,-1.517888429,-4.204087283,0.6288438496,0.3463750624,-2.438199801
517.5605,-0.9074996131,-3.593698468,1.239232665,-1.179596976,-3.353783024
517.561,-1.517888429,-5.424864914,0.3236494419,-1.179596976,-1.522616578
517.5615,-2.433471652,-8.782003399,-0.5919337813,-0.8744025684,0.9189386839
517.562,-2.433471652,-10.30797544,-1.202322597,-1.484791384,2.139716315
517.5625,-2.128277244,-9.697586622,-1.812711412,-2.705569015,1.529327499
517.563,-2.433471652,-9.087197807,-1.812711412,-1.789985791,0.9189386839
517.5635,-3.043860467,-8.782003399,-1.202322597,0.6515694701,1.529327499
517.564,-2.433471652,-7.25603136,0.01845503415,2.482735916,2.139716315
517.5645,-0.2971107977,-4.204087283,0.01845503415,1.872347101,1.834521907
517.565,1.839250056,-1.762532022,-0.5919337813,0.04118065471,1.224133092
517.5655,3.97561091,0.06863442452,-1.202322597,0.04118065471,0.003355460754
517.566,5.806777356,0.6790232399,-0.2867393736,1.261958286,-1.522616578
517.5665,6.417166172,1.899800871,0.9340382573,1.567152693,-1.827810985
517.567,4.280805318,2.815384094,1.84962148,0.3463750624,-0.3018389469
517.5675,1.534055649,4.64655054,1.84962148,0.04118065471,0.3085498685
517.568,0.6184724254,7.088105802,1.544427073,0.04118065471,0.003355460754
517.5685,0.6184724254,8.919272248,1.544427073,-0.264013753,-0.6070333546
517.569,0.008083609999,9.224466656,1.84962148,-1.484791384,-0.6070333546
517.5695,-0.9074996131,9.224466656,2.765204703,-0.8744025684,-0.3018389469
517.57,-0.2971107977,10.14004988,3.375593519,0.9567638778,-0.9122277624
517.5705,1.228861241,11.0556331,3.070399111,1.567152693,-1.21742217
517.571,1.228861241,9.529661063,2.154815888,-1.789985791,-0.6070333546
517.5715,-0.9074996131,5.256939355,1.239232665,-6.062707499,0.3085498685
517.572,-1.517888429,1.594606463,0.9340382573,-5.757513092,0.3085498685
517.5725,0.6184724254,0.9842176476,0.01845503415,-1.484791384,-0.6070333546
517.573,2.449638872,1.594606463,-1.202322597,0.9567638778,-0.3018389469
517.5735,1.534055649,0.9842176476,-2.11790582,-0.264013753,1.529327499
517.574,-0.9074996131,-1.457337614,-2.11790582,-2.705569015,3.360493945
517.5745,-3.349054875,-3.593698468,-1.812711412,-3.010763422,3.055299538
517.575,-4.569832506,-2.372920837,-1.202322597,-1.789985791,1.529327499
517.5755,-3.654249282,0.3738288322,-0.897128189,-0.5692081607,0.9189386839
517.576,0.008083609999,0.9842176476,-0.2867393736,0.04118065471,1.834521907
517.5765,3.365222095,-2.067726429,-0.5919337813,0.9567638778,2.444910722
517.577,2.754833279,-6.03525373,-1.507517004,1.567152693,2.139716315
517.5775,-1.212694021,-6.950836953,-1.507517004,2.177541509,0.6137442762
517.578,-2.128277244,-5.730059322,-0.2867393736,3.093124732,-0.3018389469
517.5785,2.144444464,-6.03525373,0.01845503415,3.703513547,-0.3018389469
517.579,6.722360579,-7.25603136,-0.5919337813,3.093124732,0.9189386839
517.5795,6.111971764,-7.561225768,-2.11790582,0.6515694701,2.139716315
517.58,1.534055649,-6.645642545,-2.423100227,-1.484791384,1.834521907
517.5805,-1.212694021,-6.340448137,-2.11790582,-2.095180199,0.6137442762
517.581,-1.823082836,-6.950836953,-1.202322597,-2.705569015,0.003355460754
517.5815,-3.349054875,-6.340448137,-0.2867393736,-3.926346645,0.6137442762
517.582,-5.485415729,-4.509281691,0.6288438496,-4.536735461,1.529327499
517.5825,-4.569832506,-2.678115245,1.84962148,-3.010763422,0.6137442762
517.583,-0.2971107977,-1.152143206,3.375593519,-1.484791384,-0.6070333546
517.5835,3.365222095,0.06863442452,4.59637115,-0.8744025684,-0.9122277624
517.584,3.365222095,-0.5417543909,5.206759965,0.04118065471,0.9189386839
517.5845,0.3132780177,-3.898892876,4.291176742,3.398319139,3.055299538
517.585,-3.349054875,-6.03525373,2.765204703,6.755457624,2.75010513
517.5855,-5.485415729,-2.372920837,2.154815888,6.755457624,0.3085498685
517.586,-5.485415729,4.341356132,2.765204703,4.924291178,-2.743394209
517.5865,-3.95944369,8.919272248,3.680787927,4.008707955,-4.879755062
517.587,-3.043860467,8.003689025,4.291176742,4.008707955,-5.18494947
517.5875,-1.823082836,6.172522579,5.206759965,3.093124732,-3.658977432
517.588,0.9236668331,5.256939355,5.511954373,1.567152693,-1.522616578
517.5885,5.806777356,3.425772909,3.985982334,1.567152693,0.6137442762
517.589,9.469110249,0.3738288322,0.9340382573,3.093124732,1.834521907
517.5895,8.553527026,-0.8469487986,-1.202322597,3.093124732,1.529327499
517.59,4.891194133,1.289412055,-2.728294635,0.3463750624,0.6137442762
517.5905,2.449638872,4.64655054,-3.643877858,-1.484791384,-0.3018389469
517.591,1.534055649,6.477716986,-3.949072266,-1.484791384,-1.522616578
517.5915,0.3132780177,7.088105802,-3.033489043,-0.8744025684,-1.21742217
517.592,0.008083609999,7.698494617,-1.507517004,-0.8744025684,0.003355460754
517.5925,1.534055649,6.782911394,-2.11790582,-1.179596976,1.224133092
517.593,2.754833279,3.730967317,-3.949072266,-0.5692081607,1.224133092
517.5935,0.9236668331,1.594606463,-4.254266674,0.04118065471,0.3085498685
517.594,-2.738666059,2.510189686,-2.423100227,0.04118065471,0.6137442762
517.5945,-4.569832506,4.036161725,-0.897128189,-0.8744025684,1.529327499
517.595,-4.264638098,4.036161725,-0.897128189,-1.179596976,1.529327499
517.5955,-4.264638098,3.730967317,-0.5919337813,-1.484791384,-0.6070333546
517.596,-4.875026913,4.341356132,1.239232665,-1.789985791,-1.827810985
517.5965,-1.823082836,3.425772909,3.070399111,-1.179596976,0.003355460754
517.597,4.280805318,-0.8469487986,2.460010296,0.6515694701,4.581271576
517.5975,7.94313821,-5.730059322,0.9340382573,2.787930324,7.022826838
517.598,5.501582949,-6.340448137,0.01845503415,3.093124732,5.802049207
517.5985,0.008083609999,-3.898892876,-0.897128189,1.567152693,2.75010513
517.599,-2.738666059,-2.983309652,-2.423100227,-0.8744025684,0.3085498685
517.5995,-2.128277244,-5.119670506,-2.11790582,-3.31595783,-0.6070333546
517.6,0.008083609999,-6.950836953,0.6288438496,-3.31595783,-0.6070333546
517.6005,1.839250056,-7.25603136,2.765204703,0.04118065471,0.3085498685
517.601,3.670416502,-6.950836953,0.3236494419,4.924291178,3.055299538
517.6015,3.97561091,-6.645642545,-4.864655489,6.755457624,4.581271576
517.602,2.449638872,-5.730059322,-8.221793974,4.924291178,3.970882761
517.6025,0.008083609999,-4.204087283,-7.001016343,2.482735916,3.055299538
517.603,-0.6023052054,-2.983309652,-3.949072266,2.177541509,2.75010513
517.6035,-0.6023052054,-2.678115245,-2.728294635,2.787930324,2.444910722
517.604,-0.9074996131,-2.067726429,-3.033489043,2.482735916,1.529327499
517.6045,-1.212694021,-0.8469487986,-2.11790582,1.261958286,0.6137442762
517.605,-0.9074996131,0.06863442452,-0.2867393736,1.261958286,0.9189386839
517.6055,-0.2971107977,0.6790232399,0.6288438496,2.177541509,1.834521907
517.606,-0.9074996131,0.6790232399,0.3236494419,1.872347101,1.834521907
517.6065,-3.043860467,0.9842176476,0.01845503415,0.04118065471,0.9189386839
517.607,-4.264638098,2.204995278,1.84962148,-1.179596976,0.6137442762
517.6075,-3.654249282,4.036161725,4.901565557,-1.484791384,1.224133092
517.608,-0.9074996131,4.951744948,6.427537596,-1.179596976,1.529327499
517.6085,1.534055649,4.64655054,5.511954373,-1.179596976,0.9189386839
517.609,2.449638872,4.036161725,4.59637115,-1.179596976,0.3085498685
517.6095,1.839250056,4.64655054,4.59637115,-0.5692081607,0.003355460754
517.61,0.3132780177,6.782911394,4.901565557,0.04118065471,-0.3018389469
517.6105,-0.2971107977,9.224466656,3.985982334,0.3463750624,-0.9122277624
517.611,0.008083609999,10.14004988,3.070399111,-0.264013753,-1.522616578
517.6115,0.008083609999,9.529661063,3.375593519,-1.179596976,-1.21742217
517.612,-0.6023052054,8.61407784,4.291176742,-1.179596976,-0.9122277624
517.6125,-1.212694021,8.003689025,4.291176742,-0.264013753,-0.3018389469
517.613,-0.6023052054,6.477716986,2.765204703,0.04118065471,0.9189386839
517.6135,1.228861241,3.730967317,1.544427073,-0.5692081607,2.444910722
517.614,2.754833279,0.06863442452,1.239232665,-1.179596976,2.75010513
517.6145,3.060027687,-1.457337614,0.9340382573,-0.5692081607,0.6137442762
517.615,1.534055649,-0.8469487986,0.6288438496,0.04118065471,-1.522616578
517.6155,-0.2971107977,0.6790232399,0.01845503415,0.04118065471,-2.438199801
517.616,-1.823082836,0.6790232399,-0.5919337813,-0.5692081607,-0.9122277624
517.6165,-2.738666059,-2.372920837,-1.507517004,-1.179596976,0.3085498685
517.617,-3.349054875,-6.03525373,-2.423100227,-2.095180199,0.6137442762
517.6175,-3.654249282,-7.561225768,-2.11790582,-4.231541053,0.003355460754
517.618,-4.875026913,-7.866420176,-0.897128189,-6.062707499,-0.6070333546
517.6185,-6.400998952,-7.866420176,0.01845503415,-6.062707499,-0.9122277624
517.619,-7.92697099,-7.25603136,1.239232665,-3.926346645,-1.21742217
517.6195,-8.842554213,-5.119670506,3.070399111,-1.484791384,-2.133005393
517.62,-7.316582175,-3.898892876,4.901565557,0.04118065471,-2.743394209
517.6205,-4.569832506,-6.340448137,5.511954373,0.9567638778,-1.827810985
517.621,-1.517888429,-9.697586622,4.59637115,3.093124732,0.003355460754
517.6215,0.008083609999,-10.00278103,4.901565557,5.534679993,0.6137442762
517.622,0.3132780177,-6.340448137,6.122343188,7.36584644,-0.9122277624
517.6225,0.3132780177,-3.593698468,5.81714878,7.060652032,-2.743394209
517.623,1.534055649,-4.204087283,3.680787927,5.534679993,-1.827810985
517.6235,2.449638872,-6.03525373,2.154815888,2.787930324,0.3085498685
517.624,1.228861241,-6.03525373,1.544427073,0.04118065471,1.224133092
517.6245,-1.823082836,-4.509281691,0.3236494419,-2.400374607,0.003355460754
517.625,-4.569832506,-2.678115245,-2.423100227,-3.926346645,-0.9122277624
517.6255,-4.875026913,-0.2365599832,-5.475044304,-3.621152238,0.3085498685
517.626,-3.349054875,2.204995278,-6.08543312,-2.095180199,3.360493945
517.6265,-2.433471652,3.425772909,-5.169849897,-0.5692081607,5.496854799
517.627,-2.433471652,3.425772909,-4.254266674,-0.264013753,5.191660392
517.6275,-2.128277244,4.341356132,-3.033489043,-0.5692081607,3.055299538
517.628,-0.2971107977,7.088105802,-0.897128189,-0.5692081607,0.3085498685
517.6285,2.144444464,9.224466656,1.544427073,0.04118065471,-1.21742217
517.629,3.670416502,8.61407784,1.84962148,0.04118065471,-2.133005393
517.6295,3.670416502,6.172522579,0.9340382573,0.04118065471,-2.438199801
517.63,3.670416502,5.562133763,0.6288438496,-0.5692081607,-3.353783024
517.6305,3.365222095,5.256939355,0.6288438496,-1.789985791,-3.048588616
517.631,3.060027687,3.730967317,0.01845503415,-3.010763422,-1.522616578
517.6315,1.839250056,1.594606463,-1.507517004,-3.31595783,0.3085498685
517.632,0.008083609999,1.594606463,-1.812711412,-2.095180199,0.6137442762
517.6325,-0.2971107977,3.120578502,-1.507517004,0.04118065471,0.003355460754
517.633,0.3132780177,3.730967317,-1.507517004,1.261958286,0.003355460754
517.6335,1.534055649,2.510189686,-2.728294635,1.261958286,1.224133092
517.634,2.449638872,1.899800871,-2.11790582,0.6515694701,2.444910722
517.6345,3.97561091,2.510189686,0.9340382573,0.04118065471,0.6137442762
517.635,5.501582949,0.9842176476,3.985982334,0.04118065471,-1.827810985
517.6355,5.806777356,-3.28850406,3.985982334,-0.5692081607,-2.438199801
517.636,2.449638872,-6.950836953,1.239232665,-1.179596976,-0.6070333546
517.6365,-2.433471652,-6.950836953,-0.5919337813,-2.400374607,0.003355460754
517.637,-5.485415729,-5.424864914,0.01845503415,-3.31595783,-1.21742217
517.6375,-4.875026913,-5.424864914,1.239232665,-3.926346645,-2.438199801
517.638,-2.738666059,-7.25603136,1.84962148,-4.231541053,-1.827810985
517.6385,-2.433471652,-8.782003399,2.154815888,-4.841929869,-0.6070333546
517.639,-3.349054875,-8.782003399,2.460010296,-5.452318684,-0.9122277624
517.6395,-3.654249282,-8.171614583,2.460010296,-4.841929869,-1.522616578
517.64,-2.433471652,-7.866420176,1.84962148,-3.31595783,-1.522616578
517.6405,-1.517888429,-6.950836953,0.9340382573,-1.484791384,-1.21742217
517.641,-1.212694021,-5.424864914,0.9340382573,-0.8744025684,-2.438199801
517.6415,-1.517888429,-4.204087283,1.544427073,-1.179596976,-3.964171839
517.642,-1.823082836,-4.204087283,1.544427073,-0.8744025684,-4.269366247
517.6425,-1.823082836,-4.509281691,0.6288438496,0.3463750624,-2.743394209
517.643,-1.823082836,-4.204087283,0.3236494419,2.177541509,-1.522616578
517.6435,-1.212694021,-2.983309652,0.3236494419,3.703513547,-0.9122277624
517.644,-0.6023052054,-1.762532022,-0.5919337813,4.008707955,-0.3018389469
517.6445,-0.2971107977,-1.762532022,-2.728294635,3.398319139,0.6137442762
517.645,-1.823082836,-1.762532022,-4.254266674,1.261958286,0.6137442762
517.6455,-3.95944369,-0.2365599832,-3.643877858,-0.264013753,-0.9122277624
517.646,-4.875026913,2.510189686,-1.507517004,-0.264013753,-2.438199801
517.6465,-1.212694021,5.867328171,0.3236494419,0.6515694701,-2.743394209
517.647,4.585999726,6.782911394,1.239232665,0.9567638778,-2.133005393
517.6475,8.858721433,5.867328171,0.9340382573,0.3463750624,-1.827810985
517.648,8.553527026,5.256939355,0.01845503415,0.04118065471,-0.9122277624
517.6485,5.196388541,5.562133763,-0.2867393736,0.3463750624,-0.3018389469
517.649,3.060027687,7.088105802,0.01845503415,1.261958286,-0.6070333546
517.6495,2.144444464,8.003689025,0.3236494419,0.6515694701,-1.522616578
517.65,0.9236668331,8.919272248,0.3236494419,-0.8744025684,-2.438199801
517.6505,-0.6023052054,10.14004988,0.01845503415,-2.095180199,-2.438199801
517.651,-0.6023052054,11.0556331,0.3236494419,-1.484791384,-2.438199801
517.6515,1.228861241,9.834855471,0.9340382573,-1.179596976,-2.743394209
517.652,3.060027687,7.698494617,0.6288438496,-1.789985791,-2.438199801
517.6525,2.449638872,6.477716986,0.01845503415,-3.010763422,-0.9122277624
517.653,1.534055649,7.393300209,-0.2867393736,-3.31595783,0.003355460754
517.6535,1.839250056,7.698494617,-0.2867393736,-3.31595783,-0.3018389469
517.654,2.144444464,6.172522579,-0.5919337813,-3.31595783,-0.9122277624
517.6545,1.228861241,4.341356132,-0.5919337813,-3.31595783,-0.3018389469
517.655,-0.2971107977,4.036161725,0.01845503415,-1.484791384,0.003355460754
517.6555,-0.6023052054,5.256939355,0.6288438496,0.6515694701,0.003355460754
517.656,0.008083609999,4.951744948,-0.2867393736,2.787930324,0.003355460754
517.6565,0.008083609999,1.289412055,-2.423100227,3.703513547,1.529327499
517.657,-1.212694021,-4.509281691,-3.338683451,3.703513547,3.360493945
517.6575,-1.823082836,-10.91836425,-2.423100227,3.703513547,3.360493945
517.658,-1.212694021,-14.58069715,-1.812711412,3.398319139,1.529327499
517.6585,-0.2971107977,-14.58069715,-2.728294635,2.482735916,0.6137442762
517.659,-0.9074996131,-11.52875307,-3.033489043,1.872347101,1.224133092
517.6595,-1.823082836,-7.866420176,-1.812711412,1.872347101,2.139716315
517.66,-2.128277244,-6.340448137,-1.507517004,2.482735916,2.139716315
517.6605,-2.433471652,-6.340448137,-2.728294635,2.482735916,2.139716315
517.661,-2.433471652,-6.03525373,-3.033489043,0.6515694701,1.224133092
517.6615,-1.517888429,-5.424864914,-1.202322597,-1.179596976,-0.3018389469
517.662,0.3132780177,-6.03525373,0.01845503415,-0.8744025684,-1.522616578
517.6625,1.839250056,-7.561225768,-0.897128189,0.6515694701,0.003355460754
517.663,1.534055649,-7.866420176,-3.338683451,2.177541509,2.75010513
517.6635,0.008083609999,-5.424864914,-4.559461081,2.177541509,3.360493945
517.664,0.008083609999,-2.372920837,-4.559461081,2.787930324,2.444910722
517.6645,0.3132780177,0.06863442452,-4.864655489,4.313902363,1.529327499
517.665,0.008083609999,1.594606463,-5.169849897,4.61909677,1.529327499
517.6655,-1.517888429,4.036161725,-2.728294635,1.567152693,0.003355460754
517.666,-1.212694021,5.256939355,0.6288438496,-1.484791384,-3.353783024
517.6665,1.534055649,4.64655054,2.765204703,-1.789985791,-4.574560655
517.667,4.585999726,2.204995278,1.544427073,0.04118065471,-2.133005393
517.6675,4.585999726,1.289412055,-0.5919337813,1.567152693,0.6137442762
517.668,2.144444464,2.815384094,-2.11790582,1.567152693,0.6137442762
517.6685,1.839250056,4.341356132,-2.423100227,0.9567638778,-0.6070333546
517.669,5.196388541,4.64655054,-2.423100227,0.9567638778,-0.3018389469
517.6695,9.469110249,3.730967317,-1.507517004,0.6515694701,0.6137442762
517.67,9.469110249,4.341356132,-0.5919337813,0.3463750624,0.9189386839
517.6705,4.891194133,6.172522579,-1.202322597,0.9567638778,-0.3018389469
517.671,0.6184724254,8.61407784,-2.728294635,1.567152693,-1.21742217
517.6715,-0.2971107977,9.529661063,-3.949072266,0.6515694701,-0.9122277624
517.672,0.9236668331,9.224466656,-3.338683451,-0.8744025684,-0.6070333546
517.6725,1.534055649,8.61407784,-2.423100227,-1.789985791,-0.3018389469
517.673,0.008083609999,8.308883432,-2.728294635,-1.484791384,0.3085498685
517.6735,-1.517888429,7.393300209,-3.643877858,-1.484791384,1.224133092
517.674,-1.517888429,5.256939355,-3.643877858,-2.705569015,1.224133092
517.6745,-0.6023052054,2.510189686,-3.033489043,-3.010763422,0.6137442762
517.675,-1.212694021,0.6790232399,-2.11790582,-2.095180199,0.6137442762
517.6755,-4.264638098,0.9842176476,-1.812711412,-1.789985791,0.9189386839
517.676,-7.011387767,1.594606463,-1.812711412,-3.010763422,0.9189386839
517.6765,-6.706193359,0.6790232399,-1.507517004,-4.231541053,0.6137442762
517.677,-4.569832506,-2.372920837,-1.507517004,-3.621152238,2.139716315
517.6775,-0.9074996131,-5.119670506,-1.507517004,-1.789985791,3.665688353
517.678,2.144444464,-5.119670506,0.01845503415,0.04118065471,3.360493945
517.6785,4.585999726,-2.983309652,2.765204703,1.261958286,0.3085498685
517.679,4.280805318,-2.067726429,5.511954373,2.787930324,-2.133005393
517.6795,2.449638872,-2.983309652,6.732732004,3.398319139,-2.133005393
517.68,2.144444464,-4.509281691,6.122343188,3.398319139,-0.3018389469
517.6805,4.280805318,-5.730059322,4.59637115,4.008707955,1.224133092
517.681,6.111971764,-8.171614583,2.765204703,4.61909677,2.444910722
517.6815,4.585999726,-11.22355866,0.9340382573,3.398319139,3.360493945
517.682,0.008083609999,-13.35991951,0.01845503415,-0.264013753,3.360493945
517.6825,-2.738666059,-11.52875307,0.01845503415,-2.705569015,3.055299538
517.683,-3.043860467,-6.950836953,0.3236494419,-1.179596976,2.139716315
517.6835,-3.043860467,-2.067726429,0.01845503415,1.872347101,0.9189386839
517.684,-3.95944369,0.06863442452,0.01845503415,2.482735916,-0.9122277624
517.6845,-4.875026913,0.06863442452,0.6288438496,0.04118065471,-3.048588616
517.685,-3.349054875,0.06863442452,1.544427073,-2.095180199,-3.353783024
517.6855,-0.9074996131,0.6790232399,1.544427073,-2.095180199,-2.133005393
517.686,0.6184724254,1.594606463,0.6288438496,-0.8744025684,-1.21742217
517.6865,1.534055649,0.6790232399,0.01845503415,-0.5692081607,-1.522616578
517.687,1.839250056,0.06863442452,0.01845503415,-0.5692081607,-1.21742217
517.6875,2.449638872,0.06863442452,0.01845503415,0.04118065471,0.003355460754
517.688,2.449638872,2.204995278,0.01845503415,0.3463750624,0.9189386839
517.6885,2.449638872,4.341356132,0.01845503415,0.04118065471,0.9189386839
517.689,1.839250056,5.562133763,0.01845503415,-0.264013753,0.3085498685
517.6895,0.9236668331,6.782911394,-0.5919337813,0.04118065471,-0.3018389469
517.69,0.008083609999,8.308883432,-0.897128189,0.04118065471,-0.6070333546
517.6905,-0.9074996131,8.919272248,-1.202322597,-0.264013753,-0.9122277624
517.691,-1.823082836,8.308883432,-1.507517004,-1.179596976,-1.21742217
517.6915,-3.043860467,7.698494617,-1.812711412,-1.789985791,-1.827810985
517.692,-3.654249282,7.698494617,-1.507517004,-3.010763422,-2.743394209
517.6925,-3.349054875,8.003689025,-1.202322597,-4.536735461,-2.438199801
517.693,-2.433471652,8.61407784,-1.507517004,-4.841929869,-1.21742217
517.6935,-1.823082836,9.834855471,-1.202322597,-3.621152238,-1.21742217
517.694,-2.433471652,11.0556331,0.01845503415,-3.010763422,-4.269366247
517.6945,-2.433471652,10.14004988,1.544427073,-4.231541053,-7.626504732
517.695,-1.212694021,8.003689025,1.239232665,-6.062707499,-7.931699139
517.6955,0.9236668331,7.393300209,0.01845503415,-5.757513092,-5.490143878
517.696,3.365222095,7.698494617,-0.5919337813,-3.926346645,-3.353783024
517.6965,4.891194133,4.341356132,-0.5919337813,-2.705569015,-1.21742217
517.697,3.97561091,-4.509281691,-1.812711412,-1.789985791,1.529327499
517.6975,0.6184724254,-13.97030833,-4.254266674,1.872347101,4.276077169
517.698,-2.738666059,-16.41186359,-5.780238712,7.671040847,3.970882761
517.6985,-3.043860467,-12.7495307,-4.559461081,10.11259611,0.9189386839
517.699,0.008083609999,-10.30797544,-2.11790582,7.36584644,0.003355460754
517.6995,2.754833279,-12.44433629,-0.897128189,4.008707955,2.75010513
517.7,0.6184724254,-14.27550274,-0.897128189,3.398319139,4.581271576
517.7005,-4.875026913,-11.22355866,-0.2867393736,4.61909677,2.75010513
517.701,-8.232165398,-5.730059322,0.9340382573,5.229485586,-0.6070333546
517.7015,-6.400998952,-3.28850406,2.154815888,4.313902363,-2.133005393
517.702,-2.433471652,-4.509281691,1.84962148,3.703513547,-2.133005393
517.7025,-0.2971107977,-5.730059322,1.84962148,3.398319139,-2.133005393
517.703,0.6184724254,-4.814476099,1.544427073,3.398319139,-1.827810985
517.7035,2.449638872,-2.678115245,1.239232665,3.703513547,-0.6070333546
517.704,4.891194133,-2.067726429,0.9340382573,5.229485586,0.6137442762
517.7045,5.501582949,-2.067726429,1.84962148,5.839874401,0.6137442762
517.705,4.280805318,-1.457337614,2.765204703,4.61909677,0.003355460754
517.7055,3.365222095,-0.5417543909,2.460010296,3.093124732,0.003355460754
517.706,3.670416502,0.06863442452,1.544427073,3.703513547,0.003355460754
517.7065,4.891194133,0.9842176476,1.544427073,4.61909677,-0.6070333546
517.707,5.501582949,2.815384094,3.070399111,3.703513547,-0.9122277624
517.7075,5.501582949,4.341356132,3.985982334,1.567152693,0.003355460754
517.708,4.280805318,5.256939355,3.375593519,0.6515694701,1.224133092
517.7085,2.449638872,5.867328171,2.154815888,0.9567638778,1.224133092
517.709,1.534055649,8.003689025,2.154815888,0.9567638778,0.3085498685
517.7095,2.144444464,10.75043869,2.460010296,0.04118065471,-0.6070333546
517.71,2.144444464,12.58160514,2.765204703,0.04118065471,-0.9122277624
517.7105,1.228861241,12.27641073,2.460010296,0.6515694701,-1.21742217
517.711,0.6184724254,10.44524429,2.460010296,1.261958286,-0.9122277624
517.7115,1.839250056,8.919272248,1.84962148,0.9567638778,-0.3018389469
517.712,3.060027687,7.393300209,0.9340382573,0.3463750624,-0.3018389469
517.7125,2.754833279,6.477716986,0.9340382573,0.04118065471,-1.522616578
517.713,2.144444464,5.256939355,1.544427073,0.04118065471,-3.353783024
517.7135,3.060027687,3.425772909,1.544427073,-0.5692081607,-2.743394209
517.714,3.365222095,1.594606463,0.01845503415,-1.179596976,-0.6070333546
517.7145,0.9236668331,1.289412055,-0.897128189,-1.789985791,0.003355460754
517.715,-2.128277244,2.815384094,-0.897128189,-1.789985791,-1.522616578
517.7155,-3.349054875,3.730967317,-0.2867393736,-1.179596976,-2.438199801
517.716,-2.738666059,2.204995278,-0.5919337813,0.04118065471,-0.6070333546
517.7165,-3.043860467,0.3738288322,-1.202322597,-0.264013753,0.6137442762
517.717,-4.875026913,0.06863442452,-0.2867393736,-2.400374607,-0.9122277624
517.7175,-5.180221321,0.3738288322,1.84962148,-5.757513092,-4.574560655
517.718,-3.043860467,-2.678115245,2.765204703,-7.588679538,-5.18494947
517.7185,-0.6023052054,-9.697586622,0.9340382573,-6.367901907,-1.827810985
517.719,0.008083609999,-15.49628037,-1.202322597,-3.621152238,2.139716315
517.7195,0.3132780177,-15.80147478,-2.11790582,-2.095180199,3.970882761
517.72,1.228861241,-13.35991951,-2.423100227,-2.095180199,3.360493945
517.7205,0.6184724254,-11.83394748,-2.728294635,-2.095180199,2.75010513
517.721,-0.9074996131,-11.22355866,-2.728294635,-0.8744025684,2.444910722
517.7215,-2.433471652,-9.697586622,-1.202322597,0.3463750624,2.139716315
517.722,-1.517888429,-6.950836953,0.3236494419,0.6515694701,1.224133092
517.7225,-0.6023052054,-5.730059322,1.239232665,0.04118065471,0.6137442762
517.723,-1.823082836,-5.730059322,0.9340382573,0.04118065471,0.6137442762
517.7235,-3.95944369,-4.814476099,0.9340382573,0.04118065471,0.9189386839
517.724,-3.654249282,-1.762532022,1.239232665,-0.8744025684,0.3085498685
517.7245,-0.6023052054,-0.2365599832,0.9340382573,-1.179596976,-0.3018389469
517.725,1.839250056,-1.762532022,0.6288438496,0.04118065471,-1.21742217
517.7255,3.060027687,-3.898892876,1.84962148,1.567152693,-1.21742217
517.726,2.449638872,-2.983309652,3.375593519,2.482735916,-1.21742217
517.7265,1.228861241,0.3738288322,3.680787927,1.872347101,-0.9122277624
517.727,0.3132780177,3.120578502,2.154815888,1.567152693,-0.6070333546
517.7275,0.3132780177,4.341356132,0.9340382573,1.567152693,-0.6070333546
517.728,0.9236668331,4.951744948,1.84962148,0.6515694701,-1.21742217
517.7285,1.228861241,5.256939355,3.070399111,-1.484791384,-2.133005393
517.729,0.008083609999,4.951744948,2.460010296,-3.010763422,-2.133005393
517.7295,-0.9074996131,5.562133763,1.544427073,-2.705569015,-0.9122277624
517.73,-1.212694021,7.393300209,1.239232665,-1.789985791,-0.3018389469
517.7305,-0.6023052054,9.224466656,2.154815888,-1.484791384,-0.3018389469
517.731,-0.2971107977,8.919272248,1.84962148,-1.484791384,-0.6070333546
517.7315,0.6184724254,7.393300209,0.6288438496,-0.264013753,0.003355460754
517.732,2.754833279,6.782911394,0.3236494419,0.9567638778,0.3085498685
517.7325,4.585999726,7.393300209,0.9340382573,1.567152693,0.3085498685
517.733,4.280805318,6.172522579,1.239232665,1.261958286,0.6137442762
517.7335,2.754833279,3.730967317,0.6288438496,1.567152693,1.834521907
517.734,1.534055649,1.594606463,0.01845503415,1.872347101,3.665688353
517.7345,1.839250056,0.9842176476,0.01845503415,0.6515694701,3.970882761
517.735,1.839250056,0.06863442452,0.01845503415,-1.789985791,2.75010513
517.7355,0.6184724254,-0.5417543909,-0.897128189,-4.536735461,1.834521907
517.736,-1.212694021,-0.5417543909,-1.202322597,-5.757513092,1.224133092
517.7365,-2.433471652,0.3738288322,-0.2867393736,-4.841929869,1.224133092
517.737,-2.128277244,-0.5417543909,1.239232665,-2.400374607,0.9189386839
517.7375,0.008083609999,-4.509281691,2.154815888,0.3463750624,0.6137442762
517.738,2.449638872,-8.476808991,1.544427073,2.177541509,0.3085498685
517.7385,3.670416502,-9.392392214,-0.2867393736,1.261958286,0.3085498685
517.739,1.839250056,-8.171614583,-2.423100227,0.04118065471,0.6137442762
517.7395,-0.6023052054,-7.561225768,-4.254266674,-0.5692081607,1.224133092
517.74,-1.823082836,-7.561225768,-5.475044304,0.04118065471,0.9189386839
517.7405,-2.128277244,-7.561225768,-5.780238712,0.04118065471,0.3085498685
517.741,-2.738666059,-7.866420176,-5.169849897,-0.264013753,0.003355460754
517.7415,-4.569832506,-7.561225768,-3.949072266,-0.264013753,0.6137442762
517.742,-6.095804544,-6.645642545,-2.728294635,0.3463750624,0.9189386839
517.7425,-6.706193359,-5.119670506,-2.11790582,0.3463750624,0.003355460754
517.743,-6.095804544,-4.204087283,-1.507517004,-0.8744025684,-0.9122277624
517.7435,-4.569832506,-3.898892876,-1.202322597,-1.484791384,-0.3018389469
517.744,-2.433471652,-3.593698468,-0.5919337813,0.04118065471,0.6137442762
517.7445,-1.517888429,-2.678115245,0.01845503415,1.872347101,0.3085498685
517.745,-2.738666059,-2.678115245,1.239232665,0.3463750624,-0.6070333546
517.7455,-3.043860467,-2.983309652,2.460010296,-1.179596976,-1.21742217
517.746,-0.2971107977,-1.457337614,3.375593519,0.04118065471,-1.21742217
517.7465,3.365222095,2.204995278,3.985982334,4.313902363,-1.827810985
517.747,3.670416502,5.562133763,4.59637115,5.839874401,-3.353783024
517.7475,0.9236668331,6.172522579,4.59637115,3.093124732,-3.658977432
517.748,-0.9074996131,5.256939355,3.680787927,0.04118065471,-2.438199801
517.7485,-0.6023052054,6.172522579,2.154815888,-0.5692081607,-1.21742217
517.749,0.3132780177,8.308883432,0.9340382573,0.04118065471,-0.9122277624
517.7495,0.6184724254,9.224466656,0.6288438496,0.04118065471,-1.21742217
517.75,1.228861241,8.003689025,0.01845503415,-0.8744025684,-0.9122277624
517.7505,1.534055649,6.782911394,-1.812711412,-1.179596976,0.3085498685
517.751,0.9236668331,6.477716986,-3.338683451,-0.8744025684,1.834521907
517.7515,0.008083609999,6.782911394,-3.338683451,-1.179596976,1.834521907
517.752,0.008083609999,6.172522579,-2.11790582,-1.789985791,0.3085498685
517.7525,0.6184724254,5.256939355,-1.507517004,-1.484791384,-0.9122277624
517.753,0.6184724254,5.256939355,-1.812711412,-1.484791384,-1.522616578
517.7535,-0.2971107977,4.951744948,-2.11790582,-2.095180199,-1.21742217
517.754,-0.6023052054,3.120578502,-0.897128189,-2.400374607,-0.9122277624
517.7545,0.6184724254,0.6790232399,0.01845503415,-2.095180199,-0.9122277624
517.755,0.9236668331,-0.2365599832,-0.2867393736,-1.789985791,-0.6070333546
517.7555,-0.6023052054,0.3738288322,-1.507517004,-2.400374607,0.003355460754
517.756,-2.128277244,0.9842176476,-1.812711412,-3.31595783,0.9189386839
517.7565,-1.517888429,-0.2365599832,-0.897128189,-3.010763422,1.834521907
517.757,-0.6023052054,-2.983309652,0.01845503415,-1.484791384,2.444910722
517.7575,-1.823082836,-4.509281691,0.01845503415,0.04118065471,3.360493945
517.758,-3.654249282,-4.814476099,-1.202322597,0.6515694701,3.665688353
517.7585,-4.569832506,-5.119670506,-2.11790582,0.6515694701,3.360493945
517.759,-5.485415729,-4.814476099,-2.11790582,0.04118065471,3.055299538
517.7595,-8.232165398,-3.898892876,-1.507517004,-0.8744025684,2.75010513
517.76,-9.452943029,-3.28850406,-1.202322597,-1.789985791,2.139716315
517.7605,-7.011387767,-5.424864914,-1.202322597,-1.484791384,1.529327499
517.761,-2.128277244,-9.087197807,-1.507517004,-0.264013753,1.834521907
517.7615,0.3132780177,-10.61316985,-1.812711412,0.6515694701,3.665688353
517.762,0.008083609999,-9.697586622,-1.507517004,1.567152693,4.886465984
517.7625,-1.212694021,-7.866420176,0.01845503415,2.787930324,3.665688353
517.763,-0.9074996131,-7.25603136,1.544427073,3.398319139,1.834521907
517.7635,0.3132780177,-5.424864914,1.84962148,3.703513547,0.9189386839
517.764,2.754833279,-2.983309652,0.3236494419,3.703513547,1.834521907
517.7645,6.111971764,-2.067726429,-0.897128189,4.61909677,3.665688353
517.765,9.163915841,-4.509281691,-1.202322597,5.229485586,4.276077169
517.7655,8.858721433,-6.03525373,-0.5919337813,3.703513547,4.276077169
517.766,4.891194133,-3.593698468,0.01845503415,0.3463750624,3.055299538
517.7665,1.228861241,0.6790232399,0.6288438496,-1.789985791,1.224133092
517.767,0.6184724254,3.120578502,1.544427073,-1.484791384,0.003355460754
517.7675,1.839250056,3.120578502,2.154815888,0.3463750624,0.6137442762
517.768,2.449638872,3.425772909,1.239232665,1.872347101,2.139716315
517.7685,2.144444464,4.341356132,0.01845503415,1.872347101,2.75010513
517.769,2.449638872,4.951744948,0.01845503415,1.261958286,2.139716315
517.7695,3.060027687,4.341356132,1.239232665,0.6515694701,1.224133092
517.77,2.449638872,4.341356132,2.765204703,0.04118065471,0.9189386839
517.7705,0.9236668331,5.562133763,2.765204703,-0.8744025684,0.003355460754
517.771,-0.6023052054,6.782911394,1.544427073,-1.179596976,-0.9122277624
517.7715,-1.212694021,7.088105802,0.9340382573,-0.8744025684,-1.21742217
517.772,0.3132780177,7.088105802,0.9340382573,-0.8744025684,-0.6070333546
517.7725,3.670416502,6.477716986,0.6288438496,-0.8744025684,0.003355460754
517.773,5.806777356,5.562133763,-0.5919337813,-1.179596976,-0.6070333546
517.7735,4.891194133,4.036161725,-1.812711412,-1.789985791,-0.9122277624
517.774,1.534055649,2.815384094,-2.11790582,-2.095180199,-0.3018389469
517.7745,-0.9074996131,1.899800871,-0.897128189,-1.484791384,0.3085498685
517.775,-0.2971107977,0.9842176476,0.3236494419,-0.5692081607,0.6137442762
517.7755,0.6184724254,0.06863442452,1.239232665,-0.264013753,0.003355460754
517.776,0.6184724254,0.06863442452,0.9340382573,-0.5692081607,0.003355460754
517.7765,-0.2971107977,-0.2365599832,0.01845503415,-0.8744025684,1.224133092
517.777,-1.212694021,-1.457337614,-0.897128189,-0.264013753,2.444910722
517.7775,-2.128277244,-3.28850406,-0.897128189,0.3463750624,2.139716315
517.778,-3.654249282,-4.204087283,-0.897128189,0.04118065471,1.224133092
517.7785,-4.264638098,-4.204087283,-0.897128189,-0.5692081607,0.6137442762
517.779,-2.433471652,-4.204087283,-0.897128189,-0.8744025684,0.9189386839
517.7795,0.008083609999,-5.730059322,-0.897128189,0.04118065471,1.834521907
517.78,1.534055649,-7.25603136,-0.897128189,1.261958286,1.834521907
517.7805,0.6184724254,-7.25603136,-0.897128189,1.567152693,1.224133092
517.781,0.008083609999,-6.645642545,-0.897128189,2.177541509,0.6137442762
517.7815,0.9236668331,-6.340448137,-1.202322597,4.008707955,1.834521907
517.782,1.228861241,-6.340448137,-1.202322597,6.145068809,3.665688353
517.7825,0.008083609999,-4.814476099,-1.202322597,7.060652032,3.665688353
517.783,-2.433471652,-2.372920837,-0.5919337813,5.839874401,2.444910722
517.7835,-3.654249282,-1.457337614,0.01845503415,4.61909677,0.6137442762
517.784,-3.95944369,-1.457337614,0.01845503415,3.398319139,-0.9122277624
517.7845,-3.95944369,-0.5417543909,0.3236494419,2.482735916,-2.743394209
517.785,-4.264638098,2.510189686,0.9340382573,1.567152693,-3.658977432
517.7855,-3.349054875,4.64655054,1.544427073,0.6515694701,-2.438199801
517.786,-0.6023052054,2.815384094,0.9340382573,-0.5692081607,-0.3018389469
517.7865,2.144444464,-0.8469487986,0.01845503415,-1.789985791,0.3085498685
517.787,3.060027687,-2.067726429,-0.2867393736,-2.400374607,-0.3018389469
517.7875,1.534055649,0.6790232399,0.01845503415,-1.484791384,-0.9122277624
517.788,0.008083609999,4.951744948,0.9340382573,-0.5692081607,-0.9122277624
517.7885,-1.212694021,8.003689025,2.154815888,-1.484791384,-1.21742217
517.789,-1.517888429,9.529661063,3.985982334,-3.621152238,-2.438199801
517.7895,-0.6023052054,10.44524429,4.291176742,-4.536735461,-2.133005393
517.79,0.6184724254,10.44524429,2.460010296,-2.705569015,-0.9122277624
517.7905,0.9236668331,9.834855471,0.01845503415,-0.264013753,-0.6070333546
517.791,0.008083609999,9.834855471,-0.5919337813,0.04118065471,-1.827810985
517.7915,-0.9074996131,10.44524429,0.01845503415,-1.179596976,-2.743394209
517.792,-0.9074996131,10.75043869,-0.5919337813,-1.789985791,-1.827810985
517.7925,-0.6023052054,10.14004988,-3.643877858,-1.484791384,-0.6070333546
517.793,-0.6023052054,9.834855471,-6.08543312,-1.484791384,-0.6070333546
517.7935,-1.212694021,9.224466656,-6.390627528,-2.400374607,0.003355460754
517.794,-1.517888429,7.088105802,-4.864655489,-2.705569015,1.834521907
517.7945,-2.128277244,4.951744948,-3.033489043,-2.400374607,3.055299538
517.795,-3.043860467,4.341356132,-1.507517004,-2.095180199,0.6137442762
517.7955,-3.349054875,5.256939355,-0.2867393736,-2.400374607,-3.048588616
517.796,-1.517888429,4.64655054,0.01845503415,-3.010763422,-3.658977432
517.7965,0.9236668331,2.204995278,0.01845503415,-3.010763422,-0.6070333546
517.797,2.754833279,0.06863442452,0.01845503415,-2.095180199,2.139716315
517.7975,2.754833279,-1.457337614,0.01845503415,-0.8744025684,2.75010513
517.798,1.534055649,-2.678115245,-0.2867393736,-0.264013753,2.444910722
517.7985,0.008083609999,-3.898892876,-2.423100227,0.6515694701,3.360493945
517.799,-0.9074996131,-5.730059322,-3.643877858,1.567152693,4.276077169
517.7995,-0.6023052054,-9.392392214,-3.338683451,2.787930324,4.276077169
517.8,0.008083609999,-14.88589155,-2.423100227,2.482735916,3.360493945
517.8005,-1.212694021,-18.54822445,-1.507517004,0.9567638778,2.444910722
517.801,-3.95944369,-17.32744681,-0.5919337813,-0.5692081607,1.224133092
517.8015,-4.875026913,-12.7495307,0.01845503415,-0.8744025684,-0.3018389469
517.802,-3.349054875,-10.00278103,0.01845503415,0.04118065471,-0.9122277624
517.8025,-2.433471652,-9.392392214,-1.202322597,1.261958286,0.003355460754
517.803,-4.264638098,-6.950836953,-0.5919337813,0.9567638778,0.6137442762
517.8035,-5.790610136,-2.678115245,2.154815888,-1.179596976,0.003355460754
517.804,-4.264638098,0.06863442452,4.59637115,-3.010763422,-1.21742217
517.8045,-3.654249282,-2.372920837,4.291176742,-3.31595783,-1.827810985
517.805,-7.011387767,-6.645642545,2.765204703,-1.179596976,-1.827810985
517.8055,-10.36852625,-7.866420176,2.154815888,1.567152693,-1.21742217
517.806,-8.537359806,-5.424864914,2.460010296,3.398319139,-0.9122277624
517.8065,-3.654249282,-0.8469487986,0.9340382573,2.787930324,-1.21742217
517.807,-0.6023052054,3.425772909,0.01845503415,0.04118065471,-2.438199801
