"type","name","time_units","begin_time","frequency","count","units"
"signal","Ultium EMG-EXT.DIG. RT","s",505.92000,2000,22000,"uV"

"time","value"
505.92000,-4.702678247
505.92050,1.401209907
505.92100,12.38820858
505.92150,31.92065068
505.92200,49.01153751
505.92250,53.58945362
505.92300,53.28425922
505.92350,58.16736974
505.92400,61.82970263
505.92450,50.84270395
505.92500,28.8687066
505.92550,10.86223655
505.92600,3.842765168
505.92650,2.621987538
505.92700,1.706404315
505.92750,1.706404315
505.92800,1.401209907
505.92850,-3.481900616
505.92900,-12.33253844
505.92950,-19.04681541
505.93000,-22.7091483
505.93050,-25.45589797
505.93100,-27.59225882
505.93150,-25.45589797
505.93200,-21.79356508
505.93250,-20.26759304
505.93300,-18.13123219
505.93350,-8.36501114
505.93400,7.199903653
505.93450,19.40767996
505.93500,24.29079048
505.93550,26.12195693
505.93600,27.95312338
505.93650,24.59598489
505.93700,14.21937503
505.93750,2.927181945
505.93800,-2.566317393
505.93850,-3.481900616
505.93900,-3.787095024
505.93950,-4.39748384
505.94000,-3.481900616
505.94050,-1.955928578
505.94100,-1.345539762
505.94150,-0.7351509471
505.94200,-0.1247621317
505.94250,-0.1247621317
505.94300,-1.955928578
505.94350,-5.61826147
505.94400,-10.50137199
505.94450,-16.60526015
505.94500,-22.7091483
505.94550,-26.06628679
505.94600,-25.15070356
505.94650,-20.87798186
505.94700,-15.07928811
505.94750,-9.58578877
505.94800,-6.839039101
505.94850,-7.754622324
505.94900,-10.8065664
505.94950,-12.63773285
505.95000,-11.11176081
505.95050,-8.059816732
505.95100,-5.923455878
505.95150,-5.007872655
505.95200,-3.481900616
505.95250,-2.871511801
505.95300,-4.39748384
505.95350,-7.754622324
505.95400,-10.19617759
505.95450,-9.280594363
505.95500,-5.923455878
505.95550,-2.871511801
505.95600,-2.261122986
505.95650,-3.176706209
505.95700,-4.39748384
505.95750,-5.007872655
505.95800,-4.39748384
505.95850,-1.040345355
505.95900,4.758348392
505.95950,9.641458915
505.96000,10.55704214
505.96050,7.199903653
505.96100,3.537570761
505.96150,1.096015499
505.96200,-0.4299565394
505.96250,-2.871511801
505.96300,-4.092289432
505.96350,-2.871511801
505.96400,-0.7351509471
505.96450,-0.1247621317
505.96500,-0.1247621317
505.96550,-0.7351509471
505.96600,-0.4299565394
505.96650,0.180432276
505.96700,0.4856266837
505.96750,0.7908210914
505.96800,1.096015499
505.96850,1.096015499
505.96900,1.096015499
505.96950,1.096015499
505.97000,2.011598722
505.97050,2.927181945
505.97100,2.621987538
505.97150,2.011598722
505.97200,2.31679313
505.97250,4.147959576
505.97300,5.673931615
505.97350,4.758348392
505.97400,1.401209907
505.97450,-2.566317393
505.97500,-7.754622324
505.97550,-13.55331607
505.97600,-17.52084337
505.97650,-17.21564896
505.97700,-12.33253844
505.97750,-6.839039101
505.97800,-3.787095024
505.97850,-3.176706209
505.97900,-2.566317393
505.97950,-0.1247621317
505.98000,4.147959576
505.98050,8.420681284
505.98100,10.55704214
505.98150,10.86223655
505.98200,11.47262536
505.98250,11.77781977
505.98300,7.505098061
505.98350,-2.871511801
505.98400,-14.46889929
505.98450,-17.21564896
505.98500,-10.8065664
505.98550,-3.787095024
505.98600,-2.261122986
505.98650,-4.39748384
505.98700,-5.923455878
505.98750,-6.533844693
505.98800,-7.144233509
505.98850,-6.228650286
505.98900,-2.566317393
505.98950,-0.7351509471
505.99000,-2.566317393
505.99050,-5.61826147
505.99100,-4.702678247
505.99150,-1.955928578
505.99200,-1.955928578
505.99250,-3.787095024
505.99300,-3.176706209
505.99350,-0.1247621317
505.99400,1.706404315
505.99450,0.180432276
505.99500,-0.7351509471
505.99550,0.4856266837
505.99600,3.232376353
505.99650,6.589514838
505.99700,10.25184773
505.99750,12.9985974
505.99800,11.77781977
505.99850,7.199903653
505.99900,3.232376353
505.99950,1.401209907
506.00000,-1.345539762
506.00050,-7.754622324
506.00100,-14.7740937
506.00150,-17.82603778
506.00200,-14.46889929
506.00250,-5.61826147
506.00300,6.28432043
506.00350,16.05054148
506.00400,19.71287437
506.00450,20.01806878
506.00500,23.68040167
506.00550,29.78428982
506.00600,29.17390101
506.00650,15.74534707
506.00700,-1.040345355
506.00750,-9.890983178
506.00800,-9.280594363
506.00850,-6.228650286
506.00900,-5.007872655
506.00950,-4.39748384
506.01000,-5.007872655
506.01050,-9.280594363
506.01100,-15.68967692
506.01150,-16.30006574
506.01200,-9.890983178
506.01250,-2.261122986
506.01300,0.180432276
506.01350,0.180432276
506.01400,1.706404315
506.01450,2.621987538
506.01500,0.180432276
506.01550,-2.566317393
506.01600,-2.261122986
506.01650,-0.1247621317
506.01700,0.4856266837
506.01750,-1.955928578
506.01800,-4.092289432
506.01850,-3.481900616
506.01900,-0.7351509471
506.01950,1.401209907
506.02000,2.621987538
506.02050,2.011598722
506.02100,0.7908210914
506.02150,1.706404315
506.02200,4.758348392
506.02250,7.810292469
506.02300,9.031070099
506.02350,8.725875692
506.02400,8.420681284
506.02450,8.115486876
506.02500,8.115486876
506.02550,9.336264507
506.02600,11.16743095
506.02650,9.946653322
506.02700,4.147959576
506.02750,-2.566317393
506.02800,-5.923455878
506.02850,-5.61826147
506.02900,-4.092289432
506.02950,-2.871511801
506.03000,-1.345539762
506.03050,-0.7351509471
506.03100,-1.65073417
506.03150,-2.566317393
506.03200,-1.040345355
506.03250,1.096015499
506.03300,0.4856266837
506.03350,-2.261122986
506.03400,-4.092289432
506.03450,-2.871511801
506.03500,-0.4299565394
506.03550,0.7908210914
506.03600,0.7908210914
506.03650,0.4856266837
506.03700,-0.4299565394
506.03750,-1.345539762
506.03800,-1.040345355
506.03850,0.4856266837
506.03900,1.401209907
506.03950,1.706404315
506.04000,2.621987538
506.04050,3.842765168
506.04100,3.842765168
506.04150,2.621987538
506.04200,2.011598722
506.04250,2.927181945
506.04300,4.147959576
506.04350,4.758348392
506.04400,5.063542799
506.04450,6.894709245
506.04500,9.031070099
506.04550,10.25184773
506.04600,9.946653322
506.04650,9.336264507
506.04700,9.641458915
506.04750,11.16743095
506.04800,11.77781977
506.04850,10.55704214
506.04900,6.894709245
506.04950,1.401209907
506.05000,-3.787095024
506.05050,-7.449427917
506.05100,-7.144233509
506.05150,-2.566317393
506.05200,2.011598722
506.05250,2.31679313
506.05300,-2.261122986
506.05350,-7.449427917
506.05400,-7.754622324
506.05450,-3.787095024
506.05500,-0.7351509471
506.05550,-0.4299565394
506.05600,-0.1247621317
506.05650,2.011598722
506.05700,5.979126022
506.05750,8.420681284
506.05800,8.420681284
506.05850,6.589514838
506.05900,3.537570761
506.05950,0.4856266837
506.06000,-1.345539762
506.06050,-1.345539762
506.06100,-0.1247621317
506.06150,1.096015499
506.06200,0.7908210914
506.06250,-2.871511801
506.06300,-9.280594363
506.06350,-14.46889929
506.06400,-14.7740937
506.06450,-11.72214962
506.06500,-9.890983178
506.06550,-9.58578877
506.06600,-8.059816732
506.06650,-4.702678247
506.06700,-3.176706209
506.06750,-6.839039101
506.06800,-11.41695522
506.06850,-12.33253844
506.06900,-10.19617759
506.06950,-8.670205547
506.07000,-8.975399955
506.07050,-9.280594363
506.07100,-8.975399955
506.07150,-9.280594363
506.07200,-8.975399955
506.07250,-5.007872655
506.07300,3.537570761
506.07350,11.77781977
506.07400,15.74534707
506.07450,18.18690233
506.07500,22.76481845
506.07550,26.42715134
506.07600,23.68040167
506.07650,16.35573588
506.07700,11.16743095
506.07750,9.031070099
506.07800,5.368737207
506.07850,-0.1247621317
506.07900,-1.65073417
506.07950,1.401209907
506.08000,-0.4299565394
506.08050,-13.85851048
506.08100,-29.11823086
506.08150,-35.22211902
506.08200,-34.00134139
506.08250,-34.6117302
506.08300,-35.83250783
506.08350,-31.25459172
506.08400,-24.84550916
506.08450,-23.62473152
506.08500,-21.79356508
506.08550,-4.702678247
506.08600,23.07001285
506.08650,41.07648291
506.08700,38.63492765
506.08750,30.39467864
506.08800,31.61545627
506.08850,35.27778916
506.08900,26.42715134
506.08950,9.031070099
506.09000,0.180432276
506.09050,5.673931615
506.09100,14.52456944
506.09150,18.18690233
506.09200,19.10248555
506.09250,19.71287437
506.09300,16.9661247
506.09350,9.336264507
506.09400,3.232376353
506.09450,1.706404315
506.09500,1.401209907
506.09550,-2.566317393
506.09600,-6.839039101
506.09650,-7.144233509
506.09700,-5.313067063
506.09750,-5.61826147
506.09800,-5.923455878
506.09850,-2.566317393
506.09900,1.096015499
506.09950,0.180432276
506.10000,-1.955928578
506.10050,2.011598722
506.10100,14.21937503
506.10150,27.64792897
506.10200,36.8037612
506.10250,41.68687172
506.10300,43.21284376
506.10350,39.24531646
506.10400,31.92065068
506.10450,23.98559608
506.10500,13.91418062
506.10550,-1.345539762
506.10600,-17.21564896
506.10650,-26.06628679
506.10700,-30.6442029
506.10750,-43.15717362
506.10800,-65.13117097
506.10850,-81.00128017
506.10900,-78.2545305
506.10950,-63.91039334
506.11000,-53.53378348
506.11050,-50.4818394
506.11100,-47.42989533
506.11150,-39.49484073
506.11200,-29.42342527
506.11250,-21.18317626
506.11300,-14.46889929
506.11350,-9.58578877
506.11400,-6.533844693
506.11450,-5.313067063
506.11500,-5.007872655
506.11550,-4.39748384
506.11600,-2.871511801
506.11650,-0.1247621317
506.11700,3.232376353
506.11750,4.758348392
506.11800,4.758348392
506.11850,5.979126022
506.11900,7.810292469
506.11950,7.810292469
506.12000,5.673931615
506.12050,4.453153984
506.12100,5.063542799
506.12150,5.063542799
506.12200,3.232376353
506.12250,2.011598722
506.12300,4.147959576
506.12350,8.115486876
506.12400,10.25184773
506.12450,10.55704214
506.12500,9.031070099
506.12550,7.199903653
506.12600,6.28432043
506.12650,6.28432043
506.12700,7.199903653
506.12750,7.505098061
506.12800,8.115486876
506.12850,10.55704214
506.12900,14.82976385
506.12950,16.66093029
506.13000,14.52456944
506.13050,9.946653322
506.13100,6.589514838
506.13150,5.979126022
506.13200,6.28432043
506.13250,6.589514838
506.13300,7.199903653
506.13350,8.420681284
506.13400,8.420681284
506.13450,5.673931615
506.13500,-0.1247621317
506.13550,-6.533844693
506.13600,-8.975399955
506.13650,-6.533844693
506.13700,-2.261122986
506.13750,-0.1247621317
506.13800,-0.7351509471
506.13850,-1.345539762
506.13900,-0.1247621317
506.13950,1.401209907
506.14000,2.31679313
506.14050,1.401209907
506.14100,0.7908210914
506.14150,1.401209907
506.14200,3.232376353
506.14250,4.758348392
506.14300,4.758348392
506.14350,2.621987538
506.14400,-0.1247621317
506.14450,-1.955928578
506.14500,-2.566317393
506.14550,-2.566317393
506.14600,-1.955928578
506.14650,-1.345539762
506.14700,-1.345539762
506.14750,-2.261122986
506.14800,-2.566317393
506.14850,-0.7351509471
506.14900,1.706404315
506.14950,2.31679313
506.15000,-0.4299565394
506.15050,-4.39748384
506.15100,-6.228650286
506.15150,-5.007872655
506.15200,-1.65073417
506.15250,2.621987538
506.15300,6.28432043
506.15350,6.589514838
506.15400,4.758348392
506.15450,6.28432043
506.15500,14.21937503
506.15550,23.98559608
506.15600,26.42715134
506.15650,19.10248555
506.15700,8.725875692
506.15750,4.453153984
506.15800,5.979126022
506.15850,5.673931615
506.15900,-1.345539762
506.15950,-12.33253844
506.16000,-19.96239863
506.16050,-19.65720422
506.16100,-14.46889929
506.16150,-9.58578877
506.16200,-7.449427917
506.16250,-7.144233509
506.16300,-6.228650286
506.16350,-3.787095024
506.16400,0.7908210914
506.16450,7.199903653
506.16500,12.9985974
506.16550,15.13495825
506.16600,12.9985974
506.16650,7.505098061
506.16700,2.621987538
506.16750,0.4856266837
506.16800,0.4856266837
506.16850,-0.1247621317
506.16900,-0.4299565394
506.16950,-0.1247621317
506.17000,1.706404315
506.17050,1.706404315
506.17100,-2.261122986
506.17150,-8.670205547
506.17200,-12.33253844
506.17250,-11.72214962
506.17300,-9.280594363
506.17350,-8.059816732
506.17400,-7.144233509
506.17450,-5.007872655
506.17500,-1.955928578
506.17550,0.180432276
506.17600,1.401209907
506.17650,0.7908210914
506.17700,-0.1247621317
506.17750,-1.040345355
506.17800,-0.4299565394
506.17850,0.4856266837
506.17900,0.7908210914
506.17950,-0.1247621317
506.18000,-0.4299565394
506.18050,-0.1247621317
506.18100,0.180432276
506.18150,0.4856266837
506.18200,1.401209907
506.18250,1.706404315
506.18300,0.4856266837
506.18350,-0.4299565394
506.18400,0.7908210914
506.18450,4.758348392
506.18500,7.505098061
506.18550,8.725875692
506.18600,10.55704214
506.18650,12.9985974
506.18700,12.9985974
506.18750,9.946653322
506.18800,6.589514838
506.18850,4.453153984
506.18900,-0.4299565394
506.18950,-10.19617759
506.19000,-19.04681541
506.19050,-20.26759304
506.19100,-15.68967692
506.19150,-10.50137199
506.19200,-6.839039101
506.19250,-4.39748384
506.19300,-2.566317393
506.19350,-2.261122986
506.19400,-1.345539762
506.19450,2.011598722
506.19500,5.673931615
506.19550,5.979126022
506.19600,3.537570761
506.19650,2.621987538
506.19700,3.537570761
506.19750,4.147959576
506.19800,4.453153984
506.19850,4.147959576
506.19900,1.401209907
506.19950,-2.261122986
506.20000,-3.176706209
506.20050,-0.1247621317
506.20100,0.7908210914
506.20150,-5.923455878
506.20200,-16.30006574
506.20250,-17.82603778
506.20300,-7.754622324
506.20350,5.673931615
506.20400,15.44015266
506.20450,19.10248555
506.20500,17.27131911
506.20550,11.16743095
506.20600,4.453153984
506.20650,2.621987538
506.20700,4.758348392
506.20750,5.063542799
506.20800,1.096015499
506.20850,-2.871511801
506.20900,-3.481900616
506.20950,-1.955928578
506.21000,-3.176706209
506.21050,-6.228650286
506.21100,-7.449427917
506.21150,-5.61826147
506.21200,-1.955928578
506.21250,0.4856266837
506.21300,3.232376353
506.21350,6.28432043
506.21400,8.115486876
506.21450,5.979126022
506.21500,0.7908210914
506.21550,-2.871511801
506.21600,-3.481900616
506.21650,-4.092289432
506.21700,-6.839039101
506.21750,-10.50137199
506.21800,-12.94292726
506.21850,-15.07928811
506.21900,-16.91045456
506.21950,-13.55331607
506.22000,-3.176706209
506.22050,7.199903653
506.22100,10.86223655
506.22150,11.77781977
506.22200,20.01806878
506.22250,34.97259475
506.22300,43.82323258
506.22350,39.24531646
506.22400,28.56351219
506.22450,20.01806878
506.22500,13.91418062
506.22550,6.894709245
506.22600,0.180432276
506.22650,-2.261122986
506.22700,-1.955928578
506.22750,-0.7351509471
506.22800,0.4856266837
506.22850,2.011598722
506.22900,1.096015499
506.22950,-1.65073417
506.23000,-3.481900616
506.23050,-2.871511801
506.23100,-3.787095024
506.23150,-8.059816732
506.23200,-11.11176081
506.23250,-9.58578877
506.23300,-7.449427917
506.23350,-9.280594363
506.23400,-12.63773285
506.23450,-11.41695522
506.23500,-6.533844693
506.23550,-4.39748384
506.23600,-5.923455878
506.23650,-6.533844693
506.23700,-4.39748384
506.23750,-1.955928578
506.23800,-2.261122986
506.23850,-4.39748384
506.23900,-6.839039101
506.23950,-8.975399955
506.24000,-11.41695522
506.24050,-12.94292726
506.24100,-13.85851048
506.24150,-14.7740937
506.24200,-14.7740937
506.24250,-13.24812166
506.24300,-11.72214962
506.24350,-11.72214962
506.24400,-12.02734403
506.24450,-8.059816732
506.24500,1.096015499
506.24550,10.86223655
506.24600,15.13495825
506.24650,12.69340299
506.24700,7.810292469
506.24750,4.453153984
506.24800,1.706404315
506.24850,-1.345539762
506.24900,-3.787095024
506.24950,-3.787095024
506.25000,-2.566317393
506.25050,-2.871511801
506.25100,-5.007872655
506.25150,-5.61826147
506.25200,-2.566317393
506.25250,1.096015499
506.25300,2.927181945
506.25350,5.368737207
506.25400,12.38820858
506.25450,23.68040167
506.25500,32.22584508
506.25550,33.75181712
506.25600,31.31026186
506.25650,28.25831778
506.25700,21.84923522
506.25750,9.336264507
506.25800,-5.007872655
506.25850,-16.30006574
506.25900,-25.45589797
506.25950,-38.88445191
506.26000,-56.58572756
506.26050,-72.45583676
506.26100,-83.74802984
506.26150,-91.07269563
506.26200,-90.46230681
506.26250,-77.03375287
506.26300,-55.67014433
506.26350,-38.5792575
506.26400,-30.03381409
506.26450,-19.35200982
506.26500,0.7908210914
506.26550,23.37520726
506.26600,38.02453883
506.26650,45.65439902
506.26700,53.89464803
506.26750,59.38814737
506.26800,53.89464803
506.26850,38.02453883
506.26900,23.68040167
506.26950,18.49209674
506.27000,17.27131911
506.27050,14.21937503
506.27100,10.55704214
506.27150,9.641458915
506.27200,10.86223655
506.27250,10.86223655
506.27300,9.641458915
506.27350,8.420681284
506.27400,7.505098061
506.27450,7.199903653
506.27500,7.199903653
506.27550,7.505098061
506.27600,7.199903653
506.27650,4.758348392
506.27700,0.180432276
506.27750,-4.092289432
506.27800,-6.533844693
506.27850,-5.923455878
506.27900,-3.481900616
506.27950,-0.1247621317
506.28000,2.011598722
506.28050,3.842765168
506.28100,5.673931615
506.28150,6.894709245
506.28200,7.810292469
506.28250,8.115486876
506.28300,8.115486876
506.28350,5.979126022
506.28400,1.096015499
506.28450,-5.313067063
506.28500,-11.41695522
506.28550,-15.07928811
506.28600,-14.7740937
506.28650,-12.33253844
506.28700,-10.19617759
506.28750,-9.58578877
506.28800,-8.670205547
506.28850,-5.61826147
506.28900,-1.65073417
506.28950,0.7908210914
506.29000,2.31679313
506.29050,4.147959576
506.29100,6.28432043
506.29150,7.505098061
506.29200,7.505098061
506.29250,8.115486876
506.29300,9.031070099
506.29350,9.336264507
506.29400,7.505098061
506.29450,5.063542799
506.29500,2.621987538
506.29550,-0.1247621317
506.29600,-3.176706209
506.29650,-6.228650286
506.29700,-7.449427917
506.29750,-7.144233509
506.29800,-5.923455878
506.29850,-5.007872655
506.29900,-5.007872655
506.29950,-3.481900616
506.30000,2.31679313
506.30050,12.69340299
506.30100,22.45962404
506.30150,24.59598489
506.30200,18.49209674
506.30250,10.25184773
506.30300,5.063542799
506.30350,3.232376353
506.30400,2.011598722
506.30450,0.4856266837
506.30500,-0.1247621317
506.30550,-0.1247621317
506.30600,-0.1247621317
506.30650,-0.7351509471
506.30700,-1.345539762
506.30750,-0.7351509471
506.30800,1.706404315
506.30850,5.368737207
506.30900,7.810292469
506.30950,7.505098061
506.31000,6.28432043
506.31050,5.063542799
506.31100,3.537570761
506.31150,-0.1247621317
506.31200,-5.007872655
506.31250,-6.839039101
506.31300,-5.007872655
506.31350,-2.566317393
506.31400,-1.65073417
506.31450,-1.040345355
506.31500,0.4856266837
506.31550,2.011598722
506.31600,2.621987538
506.31650,3.232376353
506.31700,4.147959576
506.31750,3.842765168
506.31800,1.706404315
506.31850,-0.4299565394
506.31900,-0.1247621317
506.31950,0.7908210914
506.32000,0.4856266837
506.32050,-1.345539762
506.32100,-3.481900616
506.32150,-3.481900616
506.32200,-1.65073417
506.32250,0.180432276
506.32300,0.180432276
506.32350,-2.871511801
506.32400,-7.754622324
506.32450,-11.11176081
506.32500,-13.55331607
506.32550,-17.52084337
506.32600,-23.01434271
506.32650,-24.54031475
506.32700,-19.35200982
506.32750,-12.63773285
506.32800,-7.144233509
506.32850,-1.040345355
506.32900,8.115486876
506.32950,16.66093029
506.33000,19.71287437
506.33050,20.01806878
506.33100,23.37520726
506.33150,27.34273456
506.33200,24.29079048
506.33250,13.30379181
506.33300,3.842765168
506.33350,0.180432276
506.33400,-1.040345355
506.33450,-5.007872655
506.33500,-7.449427917
506.33550,-4.39748384
506.33600,1.706404315
506.33650,4.453153984
506.33700,2.31679313
506.33750,-0.1247621317
506.33800,-1.040345355
506.33850,-1.345539762
506.33900,-1.65073417
506.33950,-1.955928578
506.34000,-2.566317393
506.34050,-4.092289432
506.34100,-4.39748384
506.34150,-2.566317393
506.34200,-0.7351509471
506.34250,-2.261122986
506.34300,-6.228650286
506.34350,-8.36501114
506.34400,-6.228650286
506.34450,-2.566317393
506.34500,-0.7351509471
506.34550,-1.65073417
506.34600,-4.092289432
506.34650,-6.839039101
506.34700,-7.144233509
506.34750,-4.702678247
506.34800,-0.7351509471
506.34850,-0.1247621317
506.34900,-4.092289432
506.34950,-9.890983178
506.35000,-13.24812166
506.35050,-13.85851048
506.35100,-12.94292726
506.35150,-11.72214962
506.35200,-9.58578877
506.35250,-8.36501114
506.35300,-8.059816732
506.35350,-6.228650286
506.35400,-0.1247621317
506.35450,10.25184773
506.35500,19.40767996
506.35550,23.98559608
506.35600,23.07001285
506.35650,18.49209674
506.35700,13.30379181
506.35750,9.641458915
506.35800,7.810292469
506.35850,6.28432043
506.35900,3.842765168
506.35950,3.232376353
506.36000,5.063542799
506.36050,5.063542799
506.36100,0.180432276
506.36150,-7.449427917
506.36200,-12.94292726
506.36250,-15.38448252
506.36300,-17.21564896
506.36350,-18.43642659
506.36400,-15.68967692
506.36450,-10.19617759
506.36500,-6.533844693
506.36550,-6.839039101
506.36600,-7.144233509
506.36650,-5.007872655
506.36700,-2.871511801
506.36750,-3.787095024
506.36800,-5.61826147
506.36850,-4.702678247
506.36900,-0.1247621317
506.36950,4.758348392
506.37000,7.199903653
506.37050,6.589514838
506.37100,4.758348392
506.37150,3.537570761
506.37200,4.758348392
506.37250,6.894709245
506.37300,7.199903653
506.37350,5.368737207
506.37400,3.842765168
506.37450,3.842765168
506.37500,5.063542799
506.37550,4.453153984
506.37600,0.180432276
506.37650,-5.923455878
506.37700,-12.02734403
506.37750,-14.7740937
506.37800,-14.46889929
506.37850,-14.7740937
506.37900,-17.82603778
506.37950,-20.87798186
506.38000,-19.65720422
506.38050,-14.7740937
506.38100,-8.36501114
506.38150,-0.4299565394
506.38200,9.031070099
506.38250,19.40767996
506.38300,25.51156812
506.38350,27.03754015
506.38400,26.12195693
506.38450,23.37520726
506.38500,17.88170792
506.38550,11.16743095
506.38600,6.894709245
506.38650,5.979126022
506.38700,4.758348392
506.38750,0.7908210914
506.38800,-3.176706209
506.38850,-4.702678247
506.38900,-5.007872655
506.38950,-5.007872655
506.39000,-4.092289432
506.39050,-2.261122986
506.39100,-1.65073417
506.39150,-1.345539762
506.39200,4.147959576
506.39250,15.13495825
506.39300,22.76481845
506.39350,20.933652
506.39400,13.30379181
506.39450,8.420681284
506.39500,7.810292469
506.39550,8.115486876
506.39600,8.115486876
506.39650,9.336264507
506.39700,10.25184773
506.39750,8.725875692
506.39800,5.979126022
506.39850,4.758348392
506.39900,1.401209907
506.39950,-8.059816732
506.40000,-20.26759304
506.40050,-25.45589797
506.40100,-20.26759304
506.40150,-12.94292726
506.40200,-9.58578877
506.40250,-9.280594363
506.40300,-6.839039101
506.40350,-3.176706209
506.40400,-1.955928578
506.40450,-2.871511801
506.40500,-2.871511801
506.40550,-1.955928578
506.40600,-1.955928578
506.40650,-2.566317393
506.40700,-2.871511801
506.40750,-2.566317393
506.40800,-3.176706209
506.40850,-3.481900616
506.40900,-2.261122986
506.40950,-0.1247621317
506.41000,1.096015499
506.41050,0.4856266837
506.41100,0.180432276
506.41150,1.096015499
506.41200,2.927181945
506.41250,4.147959576
506.41300,4.147959576
506.41350,3.232376353
506.41400,2.927181945
506.41450,2.927181945
506.41500,2.011598722
506.41550,-1.040345355
506.41600,-6.533844693
506.41650,-12.02734403
506.41700,-13.85851048
506.41750,-11.72214962
506.41800,-7.449427917
506.41850,-4.702678247
506.41900,-3.787095024
506.41950,-2.871511801
506.42000,-1.040345355
506.42050,0.4856266837
506.42100,0.7908210914
506.42150,0.4856266837
506.42200,0.7908210914
506.42250,2.31679313
506.42300,3.537570761
506.42350,3.842765168
506.42400,3.537570761
506.42450,3.537570761
506.42500,3.537570761
506.42550,3.537570761
506.42600,3.232376353
506.42650,2.927181945
506.42700,2.621987538
506.42750,2.31679313
506.42800,1.401209907
506.42850,0.7908210914
506.42900,0.7908210914
506.42950,2.011598722
506.43000,3.537570761
506.43050,3.537570761
506.43100,2.31679313
506.43150,1.401209907
506.43200,1.706404315
506.43250,2.31679313
506.43300,2.31679313
506.43350,1.096015499
506.43400,0.7908210914
506.43450,1.401209907
506.43500,2.927181945
506.43550,3.842765168
506.43600,3.842765168
506.43650,3.842765168
506.43700,3.842765168
506.43750,3.232376353
506.43800,1.706404315
506.43850,0.4856266837
506.43900,-0.1247621317
506.43950,-1.040345355
506.44000,-2.566317393
506.44050,-4.092289432
506.44100,-4.092289432
506.44150,-3.176706209
506.44200,-3.176706209
506.44250,-3.787095024
506.44300,-3.787095024
506.44350,-2.566317393
506.44400,-1.65073417
506.44450,-1.65073417
506.44500,-1.65073417
506.44550,-0.7351509471
506.44600,0.180432276
506.44650,-0.1247621317
506.44700,-0.4299565394
506.44750,-1.040345355
506.44800,-0.7351509471
506.44850,-0.7351509471
506.44900,-0.7351509471
506.44950,-0.7351509471
506.45000,-0.7351509471
506.45050,-0.1247621317
506.45100,0.7908210914
506.45150,1.706404315
506.45200,1.401209907
506.45250,0.7908210914
506.45300,1.096015499
506.45350,2.31679313
506.45400,2.31679313
506.45450,0.4856266837
506.45500,-0.7351509471
506.45550,-0.4299565394
506.45600,-0.1247621317
506.45650,-1.040345355
506.45700,-1.955928578
506.45750,-1.955928578
506.45800,-1.65073417
506.45850,-1.65073417
506.45900,-1.345539762
506.45950,-0.7351509471
506.46000,-0.7351509471
506.46050,-1.65073417
506.46100,-1.65073417
506.46150,-0.4299565394
506.46200,-0.1247621317
506.46250,-1.955928578
506.46300,-3.481900616
506.46350,-3.176706209
506.46400,-2.261122986
506.46450,-3.176706209
506.46500,-4.39748384
506.46550,-4.092289432
506.46600,-2.261122986
506.46650,-1.65073417
506.46700,-1.955928578
506.46750,-1.955928578
506.46800,-1.040345355
506.46850,-0.1247621317
506.46900,-0.4299565394
506.46950,-1.040345355
506.47000,-1.345539762
506.47050,-1.345539762
506.47100,-1.65073417
506.47150,-1.65073417
506.47200,-0.7351509471
506.47250,-0.1247621317
506.47300,-0.4299565394
506.47350,-1.040345355
506.47400,-1.040345355
506.47450,-0.4299565394
506.47500,-0.1247621317
506.47550,-0.4299565394
506.47600,-0.4299565394
506.47650,-0.1247621317
506.47700,0.180432276
506.47750,-0.1247621317
506.47800,-1.040345355
506.47850,-1.040345355
506.47900,-0.7351509471
506.47950,-1.345539762
506.48000,-2.261122986
506.48050,-1.955928578
506.48100,-1.040345355
506.48150,-1.040345355
506.48200,-1.65073417
506.48250,-1.65073417
506.48300,-1.345539762
506.48350,-2.261122986
506.48400,-4.092289432
506.48450,-4.39748384
506.48500,-2.566317393
506.48550,-1.040345355
506.48600,-0.4299565394
506.48650,-0.1247621317
506.48700,0.4856266837
506.48750,1.096015499
506.48800,0.7908210914
506.48850,0.7908210914
506.48900,1.401209907
506.48950,1.401209907
506.49000,-0.1247621317
506.49050,-1.040345355
506.49100,-1.345539762
506.49150,-1.65073417
506.49200,-1.955928578
506.49250,-1.955928578
506.49300,-0.7351509471
506.49350,0.180432276
506.49400,-0.1247621317
506.49450,-0.1247621317
506.49500,-0.1247621317
506.49550,0.7908210914
506.49600,0.7908210914
506.49650,0.4856266837
506.49700,0.4856266837
506.49750,1.706404315
506.49800,2.621987538
506.49850,2.621987538
506.49900,2.31679313
506.49950,2.011598722
506.50000,1.706404315
506.50050,1.401209907
506.50100,0.180432276
506.50150,-0.7351509471
506.50200,-1.040345355
506.50250,-1.040345355
506.50300,-0.7351509471
506.50350,-0.7351509471
506.50400,-1.040345355
506.50450,-1.040345355
506.50500,-1.955928578
506.50550,-2.566317393
506.50600,-2.566317393
506.50650,-1.65073417
506.50700,-1.040345355
506.50750,-1.955928578
506.50800,-2.261122986
506.50850,-1.65073417
506.50900,-0.4299565394
506.50950,-0.4299565394
506.51000,-1.040345355
506.51050,-0.4299565394
506.51100,0.7908210914
506.51150,2.011598722
506.51200,2.011598722
506.51250,1.401209907
506.51300,0.4856266837
506.51350,-0.1247621317
506.51400,-0.1247621317
506.51450,0.7908210914
506.51500,1.401209907
506.51550,0.7908210914
506.51600,0.180432276
506.51650,0.180432276
506.51700,0.7908210914
506.51750,0.4856266837
506.51800,-0.1247621317
506.51850,-0.1247621317
506.51900,0.180432276
506.51950,0.4856266837
506.52000,0.4856266837
506.52050,0.4856266837
506.52100,0.7908210914
506.52150,0.7908210914
506.52200,-0.1247621317
506.52250,-0.7351509471
506.52300,-1.65073417
506.52350,-2.261122986
506.52400,-2.261122986
506.52450,-1.65073417
506.52500,-0.7351509471
506.52550,-0.4299565394
506.52600,-0.4299565394
506.52650,-0.4299565394
506.52700,-0.1247621317
506.52750,-0.7351509471
506.52800,-1.345539762
506.52850,-1.65073417
506.52900,-1.345539762
506.52950,-0.7351509471
506.53000,-1.040345355
506.53050,-2.566317393
506.53100,-3.787095024
506.53150,-3.787095024
506.53200,-2.261122986
506.53250,-0.4299565394
506.53300,0.4856266837
506.53350,1.096015499
506.53400,1.096015499
506.53450,1.401209907
506.53500,1.706404315
506.53550,2.31679313
506.53600,3.232376353
506.53650,3.537570761
506.53700,2.621987538
506.53750,1.706404315
506.53800,1.706404315
506.53850,2.621987538
506.53900,2.927181945
506.53950,2.31679313
506.54000,1.096015499
506.54050,0.180432276
506.54100,0.4856266837
506.54150,1.401209907
506.54200,2.011598722
506.54250,2.31679313
506.54300,1.401209907
506.54350,0.180432276
506.54400,-0.1247621317
506.54450,0.4856266837
506.54500,0.4856266837
506.54550,0.180432276
506.54600,-0.1247621317
506.54650,-0.1247621317
506.54700,-0.1247621317
506.54750,0.180432276
506.54800,0.7908210914
506.54850,1.096015499
506.54900,0.7908210914
506.54950,0.180432276
506.55000,-0.4299565394
506.55050,-0.7351509471
506.55100,-0.4299565394
506.55150,-0.4299565394
506.55200,-0.4299565394
506.55250,-1.040345355
506.55300,-1.345539762
506.55350,-1.65073417
506.55400,-1.955928578
506.55450,-1.65073417
506.55500,-0.7351509471
506.55550,0.4856266837
506.55600,1.706404315
506.55650,2.621987538
506.55700,2.621987538
506.55750,2.31679313
506.55800,1.706404315
506.55850,1.706404315
506.55900,2.31679313
506.55950,3.232376353
506.56000,3.537570761
506.56050,3.537570761
506.56100,3.232376353
506.56150,3.232376353
506.56200,3.537570761
506.56250,4.147959576
506.56300,3.232376353
506.56350,2.011598722
506.56400,0.7908210914
506.56450,1.096015499
506.56500,1.096015499
506.56550,0.180432276
506.56600,-0.7351509471
506.56650,-1.345539762
506.56700,-0.7351509471
506.56750,-0.1247621317
506.56800,-0.7351509471
506.56850,-2.261122986
506.56900,-2.871511801
506.56950,-2.566317393
506.57000,-1.040345355
506.57050,-0.1247621317
506.57100,-0.1247621317
506.57150,-1.345539762
506.57200,-1.955928578
506.57250,-1.040345355
506.57300,0.180432276
506.57350,0.4856266837
506.57400,-0.1247621317
506.57450,-0.1247621317
506.57500,0.4856266837
506.57550,1.096015499
506.57600,0.180432276
506.57650,-1.040345355
506.57700,-0.4299565394
506.57750,0.4856266837
506.57800,0.7908210914
506.57850,-0.1247621317
506.57900,-0.4299565394
506.57950,1.401209907
506.58000,3.842765168
506.58050,4.758348392
506.58100,5.063542799
506.58150,5.979126022
506.58200,6.894709245
506.58250,6.589514838
506.58300,5.063542799
506.58350,4.758348392
506.58400,5.063542799
506.58450,4.453153984
506.58500,0.180432276
506.58550,-5.923455878
506.58600,-11.11176081
506.58650,-11.41695522
506.58700,-8.059816732
506.58750,-5.313067063
506.58800,-5.923455878
506.58850,-8.059816732
506.58900,-7.144233509
506.58950,-3.481900616
506.59000,-0.4299565394
506.59050,-0.1247621317
506.59100,-0.1247621317
506.59150,1.706404315
506.59200,3.537570761
506.59250,2.31679313
506.59300,-0.4299565394
506.59350,-1.040345355
506.59400,0.4856266837
506.59450,1.706404315
506.59500,-0.1247621317
506.59550,-1.955928578
506.59600,-1.345539762
506.59650,0.4856266837
506.59700,0.7908210914
506.59750,-0.4299565394
506.59800,-1.345539762
506.59850,-0.1247621317
506.59900,2.011598722
506.59950,2.927181945
506.60000,2.31679313
506.60050,1.096015499
506.60100,0.180432276
506.60150,-0.1247621317
506.60200,-0.4299565394
506.60250,-0.1247621317
506.60300,0.7908210914
506.60350,-0.1247621317
506.60400,-2.261122986
506.60450,-4.702678247
506.60500,-4.702678247
506.60550,-3.481900616
506.60600,-1.955928578
506.60650,-1.65073417
506.60700,-1.040345355
506.60750,-0.4299565394
506.60800,-0.1247621317
506.60850,-0.1247621317
506.60900,0.7908210914
506.60950,2.011598722
506.61000,2.621987538
506.61050,2.31679313
506.61100,1.706404315
506.61150,1.706404315
506.61200,2.621987538
506.61250,3.232376353
506.61300,3.232376353
506.61350,0.7908210914
506.61400,-2.261122986
506.61450,-4.092289432
506.61500,-4.092289432
506.61550,-2.871511801
506.61600,-2.261122986
506.61650,-1.65073417
506.61700,-0.1247621317
506.61750,0.180432276
506.61800,0.180432276
506.61850,2.31679313
506.61900,9.641458915
506.61950,18.79729115
506.62000,23.07001285
506.62050,19.40767996
506.62100,13.30379181
506.62150,9.336264507
506.62200,8.115486876
506.62250,6.589514838
506.62300,4.453153984
506.62350,3.232376353
506.62400,2.621987538
506.62450,1.401209907
506.62500,-0.1247621317
506.62550,-1.040345355
506.62600,-0.7351509471
506.62650,-0.1247621317
506.62700,-0.1247621317
506.62750,-0.1247621317
506.62800,-0.4299565394
506.62850,-0.1247621317
506.62900,-0.4299565394
506.62950,-0.7351509471
506.63000,-1.345539762
506.63050,-1.955928578
506.63100,-2.566317393
506.63150,-3.176706209
506.63200,-3.481900616
506.63250,-3.481900616
506.63300,-3.176706209
506.63350,-2.871511801
506.63400,-2.261122986
506.63450,-1.955928578
506.63500,-1.65073417
506.63550,-1.955928578
506.63600,-1.65073417
506.63650,-0.4299565394
506.63700,-0.1247621317
506.63750,-0.7351509471
506.63800,-2.871511801
506.63850,-4.092289432
506.63900,-2.261122986
506.63950,-0.4299565394
506.64000,-1.65073417
506.64050,-6.533844693
506.64100,-10.50137199
506.64150,-10.50137199
506.64200,-8.670205547
506.64250,-7.144233509
506.64300,-7.449427917
506.64350,-9.58578877
506.64400,-12.63773285
506.64450,-14.16370489
506.64500,-10.19617759
506.64550,-0.7351509471
506.64600,7.505098061
506.64650,9.641458915
506.64700,6.28432043
506.64750,2.927181945
506.64800,1.096015499
506.64850,-0.1247621317
506.64900,-3.481900616
506.64950,-5.923455878
506.65000,-7.144233509
506.65050,-8.059816732
506.65100,-8.975399955
506.65150,-8.670205547
506.65200,-7.144233509
506.65250,-7.144233509
506.65300,-8.36501114
506.65350,-6.228650286
506.65400,2.927181945
506.65450,15.13495825
506.65500,21.23884641
506.65550,17.57651352
506.65600,8.115486876
506.65650,-0.1247621317
506.65700,-6.228650286
506.65750,-12.33253844
506.65800,-18.741621
506.65850,-22.40395389
506.65900,-21.48837067
506.65950,-19.04681541
506.66000,-19.04681541
506.66050,-21.18317626
506.66100,-20.57278745
506.66150,-14.7740937
506.66200,-5.007872655
506.66250,5.368737207
506.66300,14.21937503
506.66350,18.49209674
506.66400,16.9661247
506.66450,11.16743095
506.66500,5.673931615
506.66550,3.842765168
506.66600,3.537570761
506.66650,2.621987538
506.66700,1.706404315
506.66750,2.621987538
506.66800,4.453153984
506.66850,4.758348392
506.66900,3.537570761
506.66950,2.621987538
506.67000,2.927181945
506.67050,2.621987538
506.67100,2.011598722
506.67150,1.096015499
506.67200,0.180432276
506.67250,-1.040345355
506.67300,-2.261122986
506.67350,-1.65073417
506.67400,-0.7351509471
506.67450,-1.345539762
506.67500,-2.566317393
506.67550,-2.261122986
506.67600,-0.1247621317
506.67650,1.096015499
506.67700,-0.1247621317
506.67750,-1.345539762
506.67800,-1.65073417
506.67850,-0.4299565394
506.67900,0.4856266837
506.67950,2.31679313
506.68000,5.063542799
506.68050,6.894709245
506.68100,6.28432043
506.68150,3.842765168
506.68200,1.401209907
506.68250,-0.1247621317
506.68300,-1.955928578
506.68350,-5.61826147
506.68400,-9.280594363
506.68450,-10.8065664
506.68500,-10.50137199
506.68550,-9.890983178
506.68600,-9.280594363
506.68650,-7.449427917
506.68700,-4.092289432
506.68750,-0.4299565394
506.68800,1.096015499
506.68850,0.7908210914
506.68900,-0.1247621317
506.68950,-0.7351509471
506.69000,-0.1247621317
506.69050,0.180432276
506.69100,-0.4299565394
506.69150,-2.871511801
506.69200,-5.007872655
506.69250,-5.923455878
506.69300,-5.313067063
506.69350,-4.092289432
506.69400,-2.566317393
506.69450,-0.1247621317
506.69500,1.401209907
506.69550,1.706404315
506.69600,3.537570761
506.69650,10.55704214
506.69700,20.01806878
506.69750,24.59598489
506.69800,21.54404082
506.69850,14.21937503
506.69900,9.336264507
506.69950,7.810292469
506.70000,7.199903653
506.70050,6.28432043
506.70100,5.063542799
506.70150,3.842765168
506.70200,2.011598722
506.70250,0.7908210914
506.70300,0.7908210914
506.70350,0.4856266837
506.70400,-0.7351509471
506.70450,-2.261122986
506.70500,-2.261122986
506.70550,-1.65073417
506.70600,-2.261122986
506.70650,-3.481900616
506.70700,-3.787095024
506.70750,-3.176706209
506.70800,-2.871511801
506.70850,-2.871511801
506.70900,-2.261122986
506.70950,-1.345539762
506.71000,-0.7351509471
506.71050,-0.1247621317
506.71100,1.096015499
506.71150,1.401209907
506.71200,0.4856266837
506.71250,0.180432276
506.71300,2.011598722
506.71350,4.147959576
506.71400,3.842765168
506.71450,2.927181945
506.71500,4.147959576
506.71550,5.979126022
506.71600,5.063542799
506.71650,1.706404315
506.71700,-1.040345355
506.71750,-1.65073417
506.71800,-1.345539762
506.71850,-1.955928578
506.71900,-4.39748384
506.71950,-6.839039101
506.72000,-5.61826147
506.72050,-2.566317393
506.72100,-4.39748384
506.72150,-14.16370489
506.72200,-23.01434271
506.72250,-17.52084337
506.72300,1.706404315
506.72350,20.62845759
506.72400,28.56351219
506.72450,29.17390101
506.72500,27.34273456
506.72550,22.76481845
506.72600,16.66093029
506.72650,18.49209674
506.72700,30.39467864
506.72750,40.16089968
506.72800,35.58298357
506.72850,23.68040167
506.72900,16.9661247
506.72950,10.55704214
506.73000,-8.36501114
506.73050,-35.83250783
506.73100,-50.78703381
506.73150,-43.46236803
506.73200,-27.28706442
506.73250,-16.60526015
506.73300,-12.02734403
506.73350,-7.754622324
506.73400,-4.39748384
506.73450,-4.092289432
506.73500,-4.39748384
506.73550,-1.955928578
506.73600,0.180432276
506.73650,-0.7351509471
506.73700,-2.566317393
506.73750,-1.955928578
506.73800,-0.4299565394
506.73850,-0.7351509471
506.73900,-1.955928578
506.73950,-1.345539762
506.74000,-0.1247621317
506.74050,-0.4299565394
506.74100,-1.345539762
506.74150,-1.345539762
506.74200,-0.7351509471
506.74250,-1.040345355
506.74300,-1.955928578
506.74350,-3.481900616
506.74400,-5.007872655
506.74450,-6.839039101
506.74500,-7.449427917
506.74550,-6.839039101
506.74600,-5.007872655
506.74650,-3.787095024
506.74700,-3.787095024
506.74750,-4.092289432
506.74800,-2.871511801
506.74850,1.401209907
506.74900,8.725875692
506.74950,14.52456944
506.75000,15.74534707
506.75050,12.08301418
506.75100,7.505098061
506.75150,5.063542799
506.75200,3.537570761
506.75250,1.401209907
506.75300,-0.1247621317
506.75350,-0.7351509471
506.75400,-0.1247621317
506.75450,-0.1247621317
506.75500,-0.1247621317
506.75550,-0.1247621317
506.75600,0.180432276
506.75650,0.4856266837
506.75700,0.180432276
506.75750,0.4856266837
506.75800,1.096015499
506.75850,1.706404315
506.75900,1.096015499
506.75950,0.180432276
506.76000,-0.4299565394
506.76050,-0.4299565394
506.76100,-0.1247621317
506.76150,-0.4299565394
506.76200,-1.65073417
506.76250,-2.871511801
506.76300,-2.871511801
506.76350,-2.261122986
506.76400,-1.955928578
506.76450,-1.955928578
506.76500,-1.345539762
506.76550,-0.1247621317
506.76600,1.401209907
506.76650,1.401209907
506.76700,-0.4299565394
506.76750,-2.566317393
506.76800,-3.176706209
506.76850,-2.261122986
506.76900,-1.65073417
506.76950,-1.955928578
506.77000,-2.261122986
506.77050,-1.65073417
506.77100,-0.1247621317
506.77150,1.401209907
506.77200,1.401209907
506.77250,-0.4299565394
506.77300,-4.39748384
506.77350,-7.754622324
506.77400,-8.975399955
506.77450,-8.36501114
506.77500,-7.449427917
506.77550,-8.059816732
506.77600,-8.975399955
506.77650,-8.670205547
506.77700,-7.754622324
506.77750,-7.144233509
506.77800,-7.144233509
506.77850,-6.839039101
506.77900,-4.39748384
506.77950,-1.345539762
506.78000,1.706404315
506.78050,4.147959576
506.78100,4.453153984
506.78150,2.927181945
506.78200,0.7908210914
506.78250,0.180432276
506.78300,0.4856266837
506.78350,-0.1247621317
506.78400,-2.566317393
506.78450,-5.313067063
506.78500,-5.313067063
506.78550,-3.481900616
506.78600,-0.4299565394
506.78650,2.31679313
506.78700,4.758348392
506.78750,5.673931615
506.78800,5.368737207
506.78850,4.758348392
506.78900,4.453153984
506.78950,4.147959576
506.79000,3.232376353
506.79050,2.621987538
506.79100,2.621987538
506.79150,2.621987538
506.79200,2.31679313
506.79250,2.31679313
506.79300,3.537570761
506.79350,5.063542799
506.79400,5.673931615
506.79450,5.368737207
506.79500,4.453153984
506.79550,2.927181945
506.79600,1.096015499
506.79650,-0.1247621317
506.79700,-0.7351509471
506.79750,-1.955928578
506.79800,-4.092289432
506.79850,-5.923455878
506.79900,-5.61826147
506.79950,-2.871511801
506.80000,-0.1247621317
506.80050,0.4856266837
506.80100,-0.1247621317
506.80150,-0.7351509471
506.80200,-1.040345355
506.80250,-1.040345355
506.80300,-1.65073417
506.80350,-2.871511801
506.80400,-4.702678247
506.80450,-5.923455878
506.80500,-5.923455878
506.80550,-5.007872655
506.80600,-4.092289432
506.80650,-4.092289432
506.80700,-4.702678247
506.80750,-5.923455878
506.80800,-6.839039101
506.80850,-5.61826147
506.80900,-2.566317393
506.80950,0.4856266837
506.81000,1.401209907
506.81050,0.180432276
506.81100,-0.7351509471
506.81150,-0.1247621317
506.81200,1.706404315
506.81250,2.011598722
506.81300,1.096015499
506.81350,0.7908210914
506.81400,2.31679313
506.81450,3.537570761
506.81500,3.232376353
506.81550,1.096015499
506.81600,-0.1247621317
506.81650,-0.4299565394
506.81700,-0.1247621317
506.81750,-0.4299565394
506.81800,-1.345539762
506.81850,-1.65073417
506.81900,-1.040345355
506.81950,-0.1247621317
506.82000,-0.1247621317
506.82050,-0.7351509471
506.82100,-1.955928578
506.82150,-2.566317393
506.82200,-2.871511801
506.82250,-3.176706209
506.82300,-3.176706209
506.82350,-1.955928578
506.82400,-0.4299565394
506.82450,-0.1247621317
506.82500,-0.1247621317
506.82550,1.096015499
506.82600,3.537570761
506.82650,4.758348392
506.82700,4.758348392
506.82750,5.979126022
506.82800,9.641458915
506.82850,13.60898621
506.82900,14.52456944
506.82950,13.30379181
506.83000,12.9985974
506.83050,13.91418062
506.83100,13.91418062
506.83150,11.16743095
506.83200,7.199903653
506.83250,4.453153984
506.83300,5.673931615
506.83350,10.55704214
506.83400,13.91418062
506.83450,8.725875692
506.83500,-4.39748384
506.83550,-19.35200982
506.83600,-26.98187001
506.83650,-25.76109238
506.83700,-19.65720422
506.83750,-13.55331607
506.83800,-8.670205547
506.83850,-5.61826147
506.83900,-4.092289432
506.83950,-2.871511801
506.84000,-1.65073417
506.84050,-0.7351509471
506.84100,-1.040345355
506.84150,-1.955928578
506.84200,-1.65073417
506.84250,-0.4299565394
506.84300,0.180432276
506.84350,-0.1247621317
506.84400,-0.1247621317
506.84450,0.180432276
506.84500,0.4856266837
506.84550,0.4856266837
506.84600,0.180432276
506.84650,0.180432276
506.84700,0.180432276
506.84750,-0.1247621317
506.84800,-0.1247621317
506.84850,0.4856266837
506.84900,1.401209907
506.84950,2.31679313
506.85000,2.927181945
506.85050,2.927181945
506.85100,2.927181945
506.85150,2.927181945
506.85200,2.621987538
506.85250,2.927181945
506.85300,3.842765168
506.85350,5.368737207
506.85400,6.28432043
506.85450,6.894709245
506.85500,7.199903653
506.85550,7.199903653
506.85600,5.979126022
506.85650,3.232376353
506.85700,0.7908210914
506.85750,-0.1247621317
506.85800,-1.040345355
506.85850,-4.092289432
506.85900,-8.059816732
506.85950,-10.8065664
506.86000,-11.41695522
506.86050,-10.19617759
506.86100,-8.059816732
506.86150,-5.61826147
506.86200,-5.007872655
506.86250,-6.533844693
506.86300,-5.923455878
506.86350,-0.1247621317
506.86400,8.115486876
506.86450,12.9985974
506.86500,10.55704214
506.86550,5.063542799
506.86600,0.4856266837
506.86650,-1.040345355
506.86700,-0.4299565394
506.86750,3.232376353
506.86800,11.16743095
506.86850,19.71287437
506.86900,23.68040167
506.86950,21.23884641
506.87000,16.05054148
506.87050,12.69340299
506.87100,11.47262536
506.87150,10.55704214
506.87200,9.336264507
506.87250,9.031070099
506.87300,10.86223655
506.87350,12.08301418
506.87400,10.86223655
506.87450,9.031070099
506.87500,8.420681284
506.87550,5.063542799
506.87600,-4.702678247
506.87650,-18.13123219
506.87700,-24.84550916
506.87750,-21.48837067
506.87800,-13.85851048
506.87850,-9.58578877
506.87900,-8.975399955
506.87950,-8.059816732
506.88000,-6.533844693
506.88050,-6.533844693
506.88100,-6.533844693
506.88150,-4.092289432
506.88200,-1.040345355
506.88250,-1.955928578
506.88300,-5.61826147
506.88350,-7.754622324
506.88400,-7.144233509
506.88450,-6.839039101
506.88500,-8.670205547
506.88550,-9.58578877
506.88600,-7.754622324
506.88650,-5.923455878
506.88700,-6.839039101
506.88750,-8.975399955
506.88800,-8.975399955
506.88850,-6.839039101
506.88900,-5.007872655
506.88950,-2.566317393
506.89000,0.4856266837
506.89050,3.232376353
506.89100,3.842765168
506.89150,2.31679313
506.89200,0.4856266837
506.89250,-0.4299565394
506.89300,-1.955928578
506.89350,-2.261122986
506.89400,-1.040345355
506.89450,0.7908210914
506.89500,1.401209907
506.89550,0.4856266837
506.89600,-0.1247621317
506.89650,0.7908210914
506.89700,1.706404315
506.89750,1.096015499
506.89800,0.180432276
506.89850,0.4856266837
506.89900,1.096015499
506.89950,0.180432276
506.90000,-1.040345355
506.90050,-1.65073417
506.90100,-1.040345355
506.90150,0.180432276
506.90200,1.096015499
506.90250,1.401209907
506.90300,1.401209907
506.90350,1.096015499
506.90400,0.7908210914
506.90450,0.180432276
506.90500,0.180432276
506.90550,0.7908210914
506.90600,0.4856266837
506.90650,-0.4299565394
506.90700,-1.345539762
506.90750,-0.4299565394
506.90800,2.621987538
506.90850,5.368737207
506.90900,6.28432043
506.90950,6.28432043
506.91000,6.894709245
506.91050,8.115486876
506.91100,8.115486876
506.91150,6.589514838
506.91200,4.147959576
506.91250,1.096015499
506.91300,-2.566317393
506.91350,-6.839039101
506.91400,-9.890983178
506.91450,-10.50137199
506.91500,-9.890983178
506.91550,-11.72214962
506.91600,-16.30006574
506.91650,-19.65720422
506.91700,-17.82603778
506.91750,-11.11176081
506.91800,-2.261122986
506.91850,5.673931615
506.91900,11.47262536
506.91950,12.69340299
506.92000,8.420681284
506.92050,2.927181945
506.92100,1.096015499
506.92150,2.621987538
506.92200,3.842765168
506.92250,2.011598722
506.92300,-1.040345355
506.92350,-2.261122986
506.92400,-2.261122986
506.92450,-2.566317393
506.92500,-3.481900616
506.92550,-4.092289432
506.92600,-4.092289432
506.92650,-3.787095024
506.92700,-3.176706209
506.92750,-2.261122986
506.92800,-1.345539762
506.92850,-1.040345355
506.92900,-0.7351509471
506.92950,-0.1247621317
506.93000,0.180432276
506.93050,0.180432276
506.93100,0.7908210914
506.93150,1.401209907
506.93200,1.401209907
506.93250,-0.1247621317
506.93300,-1.040345355
506.93350,-0.4299565394
506.93400,0.7908210914
506.93450,1.401209907
506.93500,0.7908210914
506.93550,1.096015499
506.93600,2.011598722
506.93650,1.401209907
506.93700,-0.1247621317
506.93750,-1.65073417
506.93800,-1.65073417
506.93850,-1.345539762
506.93900,-1.345539762
506.93950,-1.345539762
506.94000,-0.7351509471
506.94050,-0.7351509471
506.94100,-2.261122986
506.94150,-4.092289432
506.94200,-4.702678247
506.94250,-2.871511801
506.94300,-0.7351509471
506.94350,-0.4299565394
506.94400,-2.261122986
506.94450,-5.007872655
506.94500,-7.144233509
506.94550,-6.839039101
506.94600,-5.007872655
506.94650,-3.176706209
506.94700,-2.566317393
506.94750,-2.261122986
506.94800,-1.345539762
506.94850,-0.1247621317
506.94900,0.180432276
506.94950,-0.1247621317
506.95000,0.4856266837
506.95050,2.621987538
506.95100,3.232376353
506.95150,0.180432276
506.95200,-4.39748384
506.95250,-8.36501114
506.95300,-10.50137199
506.95350,-11.72214962
506.95400,-12.63773285
506.95450,-11.11176081
506.95500,-8.36501114
506.95550,-6.533844693
506.95600,-6.533844693
506.95650,-4.39748384
506.95700,2.621987538
506.95750,13.91418062
506.95800,23.68040167
506.95850,27.95312338
506.95900,26.73234575
506.95950,22.45962404
506.96000,17.57651352
506.96050,13.60898621
506.96100,10.86223655
506.96150,9.946653322
506.96200,9.031070099
506.96250,7.810292469
506.96300,6.589514838
506.96350,5.979126022
506.96400,5.063542799
506.96450,3.842765168
506.96500,2.621987538
506.96550,1.706404315
506.96600,1.401209907
506.96650,0.7908210914
506.96700,0.4856266837
506.96750,-0.1247621317
506.96800,-0.4299565394
506.96850,-1.040345355
506.96900,-1.345539762
506.96950,-2.566317393
506.97000,-5.313067063
506.97050,-8.975399955
506.97100,-10.8065664
506.97150,-9.58578877
506.97200,-7.144233509
506.97250,-5.61826147
506.97300,-5.313067063
506.97350,-5.313067063
506.97400,-5.007872655
506.97450,-5.313067063
506.97500,-5.007872655
506.97550,-3.787095024
506.97600,-2.261122986
506.97650,-1.65073417
506.97700,-1.65073417
506.97750,-1.345539762
506.97800,-1.65073417
506.97850,-1.955928578
506.97900,-1.955928578
506.97950,-0.7351509471
506.98000,0.180432276
506.98050,0.4856266837
506.98100,0.4856266837
506.98150,1.096015499
506.98200,2.011598722
506.98250,1.096015499
506.98300,-0.1247621317
506.98350,-0.1247621317
506.98400,0.4856266837
506.98450,0.4856266837
506.98500,-0.1247621317
506.98550,-0.1247621317
506.98600,0.4856266837
506.98650,0.4856266837
506.98700,-0.1247621317
506.98750,-0.7351509471
506.98800,-0.4299565394
506.98850,-0.1247621317
506.98900,-0.4299565394
506.98950,-0.4299565394
506.99000,-0.1247621317
506.99050,0.180432276
506.99100,-0.4299565394
506.99150,-0.7351509471
506.99200,-0.1247621317
506.99250,0.4856266837
506.99300,0.180432276
506.99350,-0.1247621317
506.99400,-0.1247621317
506.99450,0.180432276
506.99500,0.4856266837
506.99550,0.180432276
506.99600,0.180432276
506.99650,-0.1247621317
506.99700,-0.4299565394
506.99750,-0.4299565394
506.99800,0.7908210914
506.99850,1.401209907
506.99900,0.7908210914
506.99950,0.4856266837
507.00000,1.401209907
507.00050,2.927181945
507.00100,3.537570761
507.00150,3.232376353
507.00200,3.537570761
507.00250,4.758348392
507.00300,5.063542799
507.00350,3.232376353
507.00400,2.011598722
507.00450,2.011598722
507.00500,2.927181945
507.00550,2.621987538
507.00600,1.401209907
507.00650,0.7908210914
507.00700,1.096015499
507.00750,1.401209907
507.00800,-0.1247621317
507.00850,-3.481900616
507.00900,-5.61826147
507.00950,-4.39748384
507.01000,-0.7351509471
507.01050,1.706404315
507.01100,2.621987538
507.01150,2.011598722
507.01200,1.401209907
507.01250,1.401209907
507.01300,2.31679313
507.01350,3.537570761
507.01400,4.758348392
507.01450,5.063542799
507.01500,4.758348392
507.01550,5.063542799
507.01600,5.368737207
507.01650,4.453153984
507.01700,3.537570761
507.01750,5.368737207
507.01800,9.031070099
507.01850,11.47262536
507.01900,9.946653322
507.01950,8.420681284
507.02000,8.115486876
507.02050,5.673931615
507.02100,-3.176706209
507.02150,-15.07928811
507.02200,-21.18317626
507.02250,-17.82603778
507.02300,-10.50137199
507.02350,-4.092289432
507.02400,-0.7351509471
507.02450,-1.65073417
507.02500,-6.839039101
507.02550,-13.24812166
507.02600,-16.91045456
507.02650,-18.13123219
507.02700,-19.04681541
507.02750,-19.04681541
507.02800,-15.68967692
507.02850,-11.41695522
507.02900,-10.19617759
507.02950,-8.36501114
507.03000,1.401209907
507.03050,20.01806878
507.03100,36.49856679
507.03150,42.29726054
507.03200,39.55051087
507.03250,34.05701153
507.03300,25.20637371
507.03350,12.08301418
507.03400,0.180432276
507.03450,-4.092289432
507.03500,-3.481900616
507.03550,-4.092289432
507.03600,-6.228650286
507.03650,-6.533844693
507.03700,-5.007872655
507.03750,-4.702678247
507.03800,-6.839039101
507.03850,-7.449427917
507.03900,-5.61826147
507.03950,-3.481900616
507.04000,-3.176706209
507.04050,-3.176706209
507.04100,-2.261122986
507.04150,-1.955928578
507.04200,-2.871511801
507.04250,-1.65073417
507.04300,1.706404315
507.04350,4.758348392
507.04400,3.537570761
507.04450,-0.1247621317
507.04500,-0.7351509471
507.04550,2.011598722
507.04600,4.758348392
507.04650,3.842765168
507.04700,1.096015499
507.04750,-0.1247621317
507.04800,-1.040345355
507.04850,-6.533844693
507.04900,-15.68967692
507.04950,-22.09875949
507.05000,-21.48837067
507.05050,-16.30006574
507.05100,-12.02734403
507.05150,-10.19617759
507.05200,-7.144233509
507.05250,-1.955928578
507.05300,3.537570761
507.05350,8.115486876
507.05400,12.08301418
507.05450,15.13495825
507.05500,14.82976385
507.05550,9.946653322
507.05600,2.31679313
507.05650,-3.481900616
507.05700,-5.313067063
507.05750,-4.092289432
507.05800,-1.65073417
507.05850,0.180432276
507.05900,2.621987538
507.05950,4.147959576
507.06000,3.537570761
507.06050,0.180432276
507.06100,-3.176706209
507.06150,-3.787095024
507.06200,-1.955928578
507.06250,-0.1247621317
507.06300,-0.4299565394
507.06350,-1.65073417
507.06400,-1.345539762
507.06450,-0.4299565394
507.06500,-0.7351509471
507.06550,-1.955928578
507.06600,-2.566317393
507.06650,-2.261122986
507.06700,-2.261122986
507.06750,-3.176706209
507.06800,-3.176706209
507.06850,-1.65073417
507.06900,-0.1247621317
507.06950,0.180432276
507.07000,0.180432276
507.07050,0.4856266837
507.07100,0.7908210914
507.07150,0.4856266837
507.07200,-0.1247621317
507.07250,-0.1247621317
507.07300,0.7908210914
507.07350,1.706404315
507.07400,1.706404315
507.07450,1.401209907
507.07500,1.096015499
507.07550,1.096015499
507.07600,1.096015499
507.07650,1.401209907
507.07700,2.011598722
507.07750,2.011598722
507.07800,1.401209907
507.07850,0.4856266837
507.07900,-0.1247621317
507.07950,-0.1247621317
507.08000,-0.1247621317
507.08050,-1.345539762
507.08100,-3.481900616
507.08150,-5.313067063
507.08200,-5.61826147
507.08250,-5.61826147
507.08300,-5.61826147
507.08350,-5.61826147
507.08400,-4.702678247
507.08450,-3.481900616
507.08500,-2.261122986
507.08550,-1.345539762
507.08600,-0.7351509471
507.08650,0.180432276
507.08700,1.096015499
507.08750,1.096015499
507.08800,1.096015499
507.08850,1.401209907
507.08900,1.401209907
507.08950,0.4856266837
507.09000,-0.1247621317
507.09050,1.401209907
507.09100,2.927181945
507.09150,2.011598722
507.09200,-0.4299565394
507.09250,-1.65073417
507.09300,-0.1247621317
507.09350,2.011598722
507.09400,3.232376353
507.09450,3.232376353
507.09500,3.232376353
507.09550,3.842765168
507.09600,4.147959576
507.09650,4.453153984
507.09700,4.453153984
507.09750,3.842765168
507.09800,2.621987538
507.09850,0.7908210914
507.09900,-0.1247621317
507.09950,-0.1247621317
507.10000,-0.1247621317
507.10050,-0.7351509471
507.10100,-1.040345355
507.10150,-0.7351509471
507.10200,0.7908210914
507.10250,2.011598722
507.10300,2.011598722
507.10350,1.096015499
507.10400,-0.1247621317
507.10450,-0.7351509471
507.10500,-2.261122986
507.10550,-3.481900616
507.10600,-3.481900616
507.10650,-2.566317393
507.10700,-1.65073417
507.10750,-1.345539762
507.10800,-0.7351509471
507.10850,-0.1247621317
507.10900,-0.4299565394
507.10950,-1.345539762
507.11000,-1.345539762
507.11050,-0.4299565394
507.11100,-1.65073417
507.11150,-5.007872655
507.11200,-8.36501114
507.11250,-8.670205547
507.11300,-7.144233509
507.11350,-6.228650286
507.11400,-5.923455878
507.11450,-4.702678247
507.11500,-4.092289432
507.11550,-5.61826147
507.11600,-5.61826147
507.11650,0.180432276
507.11700,10.25184773
507.11750,17.27131911
507.11800,15.74534707
507.11850,8.725875692
507.11900,4.758348392
507.11950,6.894709245
507.12000,13.91418062
507.12050,21.84923522
507.12100,27.95312338
507.12150,28.8687066
507.12200,21.84923522
507.12250,7.199903653
507.12300,-8.36501114
507.12350,-17.21564896
507.12400,-16.30006574
507.12450,-10.19617759
507.12500,-6.533844693
507.12550,-6.839039101
507.12600,-8.059816732
507.12650,-7.144233509
507.12700,-5.313067063
507.12750,-5.007872655
507.12800,-5.923455878
507.12850,-6.533844693
507.12900,-6.533844693
507.12950,-7.754622324
507.13000,-10.19617759
507.13050,-12.63773285
507.13100,-13.24812166
507.13150,-11.41695522
507.13200,-8.36501114
507.13250,-5.313067063
507.13300,-2.871511801
507.13350,-2.261122986
507.13400,-2.261122986
507.13450,-1.040345355
507.13500,1.401209907
507.13550,5.063542799
507.13600,6.589514838
507.13650,5.673931615
507.13700,5.063542799
507.13750,5.368737207
507.13800,5.673931615
507.13850,3.842765168
507.13900,0.4856266837
507.13950,-0.4299565394
507.14000,1.401209907
507.14050,4.147959576
507.14100,5.063542799
507.14150,4.453153984
507.14200,4.758348392
507.14250,5.673931615
507.14300,6.28432043
507.14350,5.673931615
507.14400,5.063542799
507.14450,3.842765168
507.14500,1.706404315
507.14550,-1.345539762
507.14600,-4.702678247
507.14650,-9.58578877
507.14700,-16.91045456
507.14750,-25.15070356
507.14800,-27.89745323
507.14850,-21.18317626
507.14900,-8.059816732
507.14950,1.706404315
507.15000,3.842765168
507.15050,0.7908210914
507.15100,-1.955928578
507.15150,-2.261122986
507.15200,-1.040345355
507.15250,-0.7351509471
507.15300,-1.040345355
507.15350,-1.040345355
507.15400,-0.1247621317
507.15450,1.096015499
507.15500,2.31679313
507.15550,2.621987538
507.15600,2.621987538
507.15650,2.31679313
507.15700,2.31679313
507.15750,2.011598722
507.15800,2.011598722
507.15850,2.621987538
507.15900,2.927181945
507.15950,2.927181945
507.16000,2.31679313
507.16050,1.706404315
507.16100,1.706404315
507.16150,1.706404315
507.16200,1.096015499
507.16250,-0.1247621317
507.16300,-0.1247621317
507.16350,0.180432276
507.16400,1.096015499
507.16450,1.706404315
507.16500,1.706404315
507.16550,2.011598722
507.16600,2.31679313
507.16650,1.706404315
507.16700,0.7908210914
507.16750,0.4856266837
507.16800,1.401209907
507.16850,2.011598722
507.16900,2.011598722
507.16950,2.31679313
507.17000,2.927181945
507.17050,2.31679313
507.17100,1.096015499
507.17150,0.4856266837
507.17200,0.4856266837
507.17250,-0.1247621317
507.17300,-0.7351509471
507.17350,-0.1247621317
507.17400,1.401209907
507.17450,2.31679313
507.17500,1.401209907
507.17550,0.7908210914
507.17600,1.401209907
507.17650,1.096015499
507.17700,-1.65073417
507.17750,-5.61826147
507.17800,-6.839039101
507.17850,-6.533844693
507.17900,-7.449427917
507.17950,-9.280594363
507.18000,-8.36501114
507.18050,-4.39748384
507.18100,-1.955928578
507.18150,-1.65073417
507.18200,1.401209907
507.18250,10.86223655
507.18300,19.71287437
507.18350,20.01806878
507.18400,11.47262536
507.18450,2.927181945
507.18500,-0.7351509471
507.18550,-2.261122986
507.18600,-5.007872655
507.18650,-8.36501114
507.18700,-9.280594363
507.18750,-8.36501114
507.18800,-6.839039101
507.18850,-5.313067063
507.18900,-3.787095024
507.18950,-3.787095024
507.19000,-5.313067063
507.19050,-5.007872655
507.19100,-0.1247621317
507.19150,8.115486876
507.19200,14.82976385
507.19250,16.35573588
507.19300,13.60898621
507.19350,9.946653322
507.19400,6.894709245
507.19450,4.147959576
507.19500,2.621987538
507.19550,2.31679313
507.19600,2.011598722
507.19650,1.096015499
507.19700,-0.1247621317
507.19750,-0.7351509471
507.19800,-1.65073417
507.19850,-2.566317393
507.19900,-3.176706209
507.19950,-2.566317393
507.20000,-1.955928578
507.20050,-1.955928578
507.20100,-2.566317393
507.20150,-2.871511801
507.20200,-2.566317393
507.20250,-3.176706209
507.20300,-4.092289432
507.20350,-4.092289432
507.20400,-3.176706209
507.20450,-3.176706209
507.20500,-4.702678247
507.20550,-5.923455878
507.20600,-4.702678247
507.20650,-2.566317393
507.20700,-1.955928578
507.20750,-2.261122986
507.20800,-1.040345355
507.20850,1.401209907
507.20900,2.927181945
507.20950,3.232376353
507.21000,4.147959576
507.21050,7.505098061
507.21100,9.641458915
507.21150,9.336264507
507.21200,8.420681284
507.21250,7.810292469
507.21300,3.232376353
507.21350,-7.144233509
507.21400,-17.52084337
507.21450,-18.43642659
507.21500,-10.50137199
507.21550,-2.566317393
507.21600,-0.7351509471
507.21650,-1.65073417
507.21700,-0.1247621317
507.21750,2.621987538
507.21800,3.842765168
507.21850,2.31679313
507.21900,1.401209907
507.21950,2.31679313
507.22000,2.31679313
507.22050,1.401209907
507.22100,1.096015499
507.22150,2.31679313
507.22200,2.927181945
507.22250,1.401209907
507.22300,-1.65073417
507.22350,-4.092289432
507.22400,-4.702678247
507.22450,-3.787095024
507.22500,-2.871511801
507.22550,-1.955928578
507.22600,-1.040345355
507.22650,-0.1247621317
507.22700,0.7908210914
507.22750,1.096015499
507.22800,-0.1247621317
507.22850,-1.955928578
507.22900,-2.566317393
507.22950,-1.345539762
507.23000,-0.1247621317
507.23050,-0.1247621317
507.23100,-0.1247621317
507.23150,0.180432276
507.23200,1.706404315
507.23250,2.621987538
507.23300,3.537570761
507.23350,4.453153984
507.23400,4.453153984
507.23450,3.842765168
507.23500,3.537570761
507.23550,4.453153984
507.23600,5.979126022
507.23650,6.28432043
507.23700,6.28432043
507.23750,7.199903653
507.23800,8.115486876
507.23850,7.810292469
507.23900,6.589514838
507.23950,6.28432043
507.24000,6.28432043
507.24050,4.453153984
507.24100,1.706404315
507.24150,1.401209907
507.24200,3.842765168
507.24250,6.28432043
507.24300,6.589514838
507.24350,5.368737207
507.24400,3.537570761
507.24450,1.096015499
507.24500,-1.65073417
507.24550,-3.176706209
507.24600,-2.566317393
507.24650,-2.566317393
507.24700,-5.007872655
507.24750,-8.36501114
507.24800,-10.19617759
507.24850,-10.19617759
507.24900,-9.280594363
507.24950,-8.36501114
507.25000,-6.533844693
507.25050,-4.092289432
507.25100,-2.261122986
507.25150,-2.261122986
507.25200,-2.261122986
507.25250,-1.345539762
507.25300,0.180432276
507.25350,1.401209907
507.25400,0.7908210914
507.25450,-1.040345355
507.25500,-3.176706209
507.25550,-5.313067063
507.25600,-7.754622324
507.25650,-10.50137199
507.25700,-12.94292726
507.25750,-15.68967692
507.25800,-17.82603778
507.25850,-17.82603778
507.25900,-13.85851048
507.25950,-7.449427917
507.26000,-2.871511801
507.26050,-0.4299565394
507.26100,3.842765168
507.26150,12.69340299
507.26200,21.23884641
507.26250,22.15442963
507.26300,15.44015266
507.26350,8.115486876
507.26400,5.063542799
507.26450,4.453153984
507.26500,3.842765168
507.26550,3.537570761
507.26600,2.621987538
507.26650,1.096015499
507.26700,-0.1247621317
507.26750,0.180432276
507.26800,2.31679313
507.26850,2.621987538
507.26900,0.7908210914
507.26950,0.180432276
507.27000,1.706404315
507.27050,2.31679313
507.27100,-0.1247621317
507.27150,-3.787095024
507.27200,-7.144233509
507.27250,-10.8065664
507.27300,-12.94292726
507.27350,-8.975399955
507.27400,0.7908210914
507.27450,8.725875692
507.27500,6.894709245
507.27550,1.401209907
507.27600,2.621987538
507.27650,12.38820858
507.27700,21.54404082
507.27750,22.76481845
507.27800,17.88170792
507.27850,12.9985974
507.27900,10.25184773
507.27950,7.810292469
507.28000,4.453153984
507.28050,-0.4299565394
507.28100,-6.228650286
507.28150,-10.50137199
507.28200,-10.8065664
507.28250,-8.670205547
507.28300,-6.839039101
507.28350,-6.839039101
507.28400,-6.839039101
507.28450,-6.839039101
507.28500,-6.533844693
507.28550,-6.533844693
507.28600,-6.533844693
507.28650,-6.533844693
507.28700,-6.839039101
507.28750,-6.228650286
507.28800,-4.092289432
507.28850,-2.566317393
507.28900,-3.176706209
507.28950,-4.092289432
507.29000,-3.176706209
507.29050,-1.040345355
507.29100,-1.040345355
507.29150,-2.871511801
507.29200,-3.481900616
507.29250,-3.176706209
507.29300,-4.092289432
507.29350,-5.313067063
507.29400,-4.092289432
507.29450,-0.4299565394
507.29500,2.31679313
507.29550,2.31679313
507.29600,1.401209907
507.29650,2.31679313
507.29700,3.842765168
507.29750,4.147959576
507.29800,2.31679313
507.29850,1.096015499
507.29900,1.706404315
507.29950,2.927181945
507.30000,3.232376353
507.30050,1.401209907
507.30100,-2.261122986
507.30150,-6.228650286
507.30200,-7.754622324
507.30250,-6.533844693
507.30300,-5.007872655
507.30350,-4.702678247
507.30400,-4.39748384
507.30450,-3.176706209
507.30500,-1.040345355
507.30550,-0.4299565394
507.30600,-1.345539762
507.30650,-1.65073417
507.30700,-0.4299565394
507.30750,1.706404315
507.30800,2.621987538
507.30850,2.011598722
507.30900,1.401209907
507.30950,1.096015499
507.31000,0.4856266837
507.31050,-1.040345355
507.31100,-3.481900616
507.31150,-4.39748384
507.31200,-3.787095024
507.31250,-3.176706209
507.31300,-2.566317393
507.31350,-1.65073417
507.31400,-0.1247621317
507.31450,-0.1247621317
507.31500,-1.040345355
507.31550,-1.955928578
507.31600,-1.040345355
507.31650,0.4856266837
507.31700,1.096015499
507.31750,0.180432276
507.31800,0.180432276
507.31850,1.706404315
507.31900,2.621987538
507.31950,2.621987538
507.32000,2.011598722
507.32050,2.011598722
507.32100,2.621987538
507.32150,1.706404315
507.32200,0.4856266837
507.32250,0.7908210914
507.32300,2.011598722
507.32350,2.927181945
507.32400,2.31679313
507.32450,1.096015499
507.32500,0.4856266837
507.32550,0.7908210914
507.32600,0.7908210914
507.32650,-0.1247621317
507.32700,-0.1247621317
507.32750,-0.1247621317
507.32800,-0.1247621317
507.32850,-0.4299565394
507.32900,-1.345539762
507.32950,-1.955928578
507.33000,-1.65073417
507.33050,-1.040345355
507.33100,-0.7351509471
507.33150,-0.1247621317
507.33200,0.7908210914
507.33250,0.4856266837
507.33300,-1.040345355
507.33350,-2.871511801
507.33400,-1.955928578
507.33450,0.180432276
507.33500,0.4856266837
507.33550,-0.7351509471
507.33600,-1.040345355
507.33650,0.4856266837
507.33700,0.4856266837
507.33750,-2.261122986
507.33800,-5.923455878
507.33850,-7.449427917
507.33900,-7.754622324
507.33950,-7.144233509
507.34000,-5.313067063
507.34050,-2.871511801
507.34100,-2.261122986
507.34150,-2.871511801
507.34200,0.180432276
507.34250,9.946653322
507.34300,19.10248555
507.34350,20.32326318
507.34400,13.60898621
507.34450,7.505098061
507.34500,5.673931615
507.34550,5.673931615
507.34600,5.673931615
507.34650,5.673931615
507.34700,5.979126022
507.34750,5.368737207
507.34800,3.537570761
507.34850,2.31679313
507.34900,1.706404315
507.34950,1.401209907
507.35000,1.401209907
507.35050,2.927181945
507.35100,5.063542799
507.35150,4.453153984
507.35200,2.621987538
507.35250,2.927181945
507.35300,6.28432043
507.35350,9.641458915
507.35400,11.16743095
507.35450,11.47262536
507.35500,10.55704214
507.35550,7.810292469
507.35600,3.537570761
507.35650,2.011598722
507.35700,3.232376353
507.35750,2.31679313
507.35800,-5.923455878
507.35850,-17.21564896
507.35900,-23.01434271
507.35950,-19.35200982
507.36000,-12.33253844
507.36050,-7.449427917
507.36100,-6.228650286
507.36150,-5.61826147
507.36200,-3.481900616
507.36250,-1.955928578
507.36300,-1.955928578
507.36350,-3.787095024
507.36400,-6.228650286
507.36450,-7.144233509
507.36500,-5.313067063
507.36550,-3.176706209
507.36600,-2.871511801
507.36650,-4.092289432
507.36700,-4.39748384
507.36750,-2.871511801
507.36800,-2.566317393
507.36850,-3.481900616
507.36900,-4.39748384
507.36950,-3.481900616
507.37000,-2.261122986
507.37050,-2.261122986
507.37100,-4.092289432
507.37150,-6.839039101
507.37200,-9.280594363
507.37250,-10.8065664
507.37300,-10.50137199
507.37350,-8.975399955
507.37400,-8.36501114
507.37450,-10.19617759
507.37500,-12.02734403
507.37550,-10.8065664
507.37600,-6.228650286
507.37650,1.096015499
507.37700,9.946653322
507.37750,16.9661247
507.37800,19.40767996
507.37850,16.9661247
507.37900,12.9985974
507.37950,9.946653322
507.38000,8.420681284
507.38050,7.199903653
507.38100,6.28432043
507.38150,5.673931615
507.38200,4.758348392
507.38250,3.537570761
507.38300,2.927181945
507.38350,3.842765168
507.38400,5.063542799
507.38450,5.063542799
507.38500,3.842765168
507.38550,2.927181945
507.38600,2.927181945
507.38650,2.927181945
507.38700,2.011598722
507.38750,0.7908210914
507.38800,-0.4299565394
507.38850,-1.65073417
507.38900,-1.345539762
507.38950,-0.1247621317
507.39000,1.401209907
507.39050,2.621987538
507.39100,2.011598722
507.39150,0.7908210914
507.39200,0.4856266837
507.39250,2.011598722
507.39300,4.453153984
507.39350,6.589514838
507.39400,7.810292469
507.39450,8.420681284
507.39500,8.115486876
507.39550,6.894709245
507.39600,4.453153984
507.39650,1.706404315
507.39700,-0.1247621317
507.39750,-1.955928578
507.39800,-4.702678247
507.39850,-8.670205547
507.39900,-12.94292726
507.39950,-14.7740937
507.40000,-12.02734403
507.40050,-7.144233509
507.40100,-3.787095024
507.40150,-2.871511801
507.40200,-3.176706209
507.40250,-2.871511801
507.40300,-2.871511801
507.40350,-4.092289432
507.40400,-5.007872655
507.40450,-5.313067063
507.40500,-5.61826147
507.40550,-5.923455878
507.40600,-5.007872655
507.40650,-2.566317393
507.40700,0.180432276
507.40750,1.401209907
507.40800,1.401209907
507.40850,0.7908210914
507.40900,-0.4299565394
507.40950,-2.261122986
507.41000,-3.176706209
507.41050,-3.787095024
507.41100,-5.61826147
507.41150,-8.36501114
507.41200,-8.975399955
507.41250,-7.449427917
507.41300,-5.61826147
507.41350,-4.39748384
507.41400,-3.176706209
507.41450,-1.65073417
507.41500,-1.955928578
507.41550,-1.955928578
507.41600,2.621987538
507.41650,12.69340299
507.41700,20.01806878
507.41750,18.49209674
507.41800,11.16743095
507.41850,5.673931615
507.41900,3.842765168
507.41950,2.927181945
507.42000,1.401209907
507.42050,0.7908210914
507.42100,1.706404315
507.42150,2.011598722
507.42200,0.4856266837
507.42250,-0.1247621317
507.42300,0.7908210914
507.42350,1.401209907
507.42400,0.180432276
507.42450,-1.345539762
507.42500,-1.955928578
507.42550,-1.955928578
507.42600,-2.261122986
507.42650,-2.261122986
507.42700,-1.955928578
507.42750,-1.955928578
507.42800,-1.65073417
507.42850,-1.65073417
507.42900,-1.345539762
507.42950,-1.345539762
507.43000,-1.040345355
507.43050,0.180432276
507.43100,1.096015499
507.43150,0.4856266837
507.43200,-0.4299565394
507.43250,-0.1247621317
507.43300,2.31679313
507.43350,3.842765168
507.43400,3.232376353
507.43450,2.31679313
507.43500,2.31679313
507.43550,4.147959576
507.43600,5.979126022
507.43650,7.505098061
507.43700,8.725875692
507.43750,8.725875692
507.43800,8.115486876
507.43850,7.199903653
507.43900,5.368737207
507.43950,1.706404315
507.44000,-3.176706209
507.44050,-5.923455878
507.44100,-5.61826147
507.44150,-3.787095024
507.44200,-3.481900616
507.44250,-4.092289432
507.44300,-4.39748384
507.44350,-4.39748384
507.44400,-5.007872655
507.44450,-5.61826147
507.44500,-5.007872655
507.44550,-3.481900616
507.44600,-3.176706209
507.44650,-4.092289432
507.44700,-4.39748384
507.44750,-3.787095024
507.44800,-2.566317393
507.44850,-2.566317393
507.44900,-2.871511801
507.44950,-2.871511801
507.45000,-3.176706209
507.45050,-3.481900616
507.45100,-3.481900616
507.45150,-3.176706209
507.45200,-3.176706209
507.45250,-3.176706209
507.45300,-2.871511801
507.45350,-2.566317393
507.45400,-2.261122986
507.45450,-2.566317393
507.45500,-2.566317393
507.45550,-2.566317393
507.45600,-3.176706209
507.45650,-3.787095024
507.45700,-2.871511801
507.45750,-1.040345355
507.45800,-0.1247621317
507.45850,-1.65073417
507.45900,-3.481900616
507.45950,-4.39748384
507.46000,-3.481900616
507.46050,-2.261122986
507.46100,-0.7351509471
507.46150,0.4856266837
507.46200,0.7908210914
507.46250,0.180432276
507.46300,-0.1247621317
507.46350,0.180432276
507.46400,0.4856266837
507.46450,0.4856266837
507.46500,0.7908210914
507.46550,2.31679313
507.46600,3.842765168
507.46650,4.147959576
507.46700,4.147959576
507.46750,4.758348392
507.46800,4.758348392
507.46850,3.537570761
507.46900,2.011598722
507.46950,2.011598722
507.47000,2.621987538
507.47050,2.011598722
507.47100,1.096015499
507.47150,0.7908210914
507.47200,0.7908210914
507.47250,0.4856266837
507.47300,-0.1247621317
507.47350,-0.1247621317
507.47400,1.096015499
507.47450,2.31679313
507.47500,2.31679313
507.47550,1.706404315
507.47600,0.7908210914
507.47650,0.4856266837
507.47700,0.4856266837
507.47750,0.180432276
507.47800,-0.4299565394
507.47850,-1.345539762
507.47900,-1.345539762
507.47950,-0.7351509471
507.48000,-1.65073417
507.48050,-4.092289432
507.48100,-5.61826147
507.48150,-4.092289432
507.48200,-1.345539762
507.48250,-0.4299565394
507.48300,-2.261122986
507.48350,-5.61826147
507.48400,-8.059816732
507.48450,-7.144233509
507.48500,-0.7351509471
507.48550,9.336264507
507.48600,17.88170792
507.48650,19.10248555
507.48700,14.52456944
507.48750,9.336264507
507.48800,5.979126022
507.48850,4.147959576
507.48900,2.621987538
507.48950,2.621987538
507.49000,2.927181945
507.49050,2.621987538
507.49100,2.011598722
507.49150,2.621987538
507.49200,4.147959576
507.49250,5.368737207
507.49300,6.28432043
507.49350,8.420681284
507.49400,11.47262536
507.49450,12.38820858
507.49500,12.08301418
507.49550,12.9985974
507.49600,13.30379181
507.49650,6.589514838
507.49700,-7.144233509
507.49750,-18.43642659
507.49800,-19.65720422
507.49850,-13.55331607
507.49900,-8.36501114
507.49950,-6.228650286
507.50000,-5.313067063
507.50050,-6.533844693
507.50100,-11.41695522
507.50150,-17.21564896
507.50200,-18.13123219
507.50250,-15.07928811
507.50300,-12.02734403
507.50350,-10.50137199
507.50400,-7.449427917
507.50450,-2.261122986
507.50500,1.096015499
507.50550,1.401209907
507.50600,1.401209907
507.50650,2.31679313
507.50700,2.621987538
507.50750,1.401209907
507.50800,0.7908210914
507.50850,1.401209907
507.50900,1.401209907
507.50950,-0.1247621317
507.51000,-1.65073417
507.51050,-2.566317393
507.51100,-3.481900616
507.51150,-5.61826147
507.51200,-7.449427917
507.51250,-8.059816732
507.51300,-8.36501114
507.51350,-9.280594363
507.51400,-9.58578877
507.51450,-7.754622324
507.51500,-5.007872655
507.51550,-2.871511801
507.51600,-1.040345355
507.51650,0.7908210914
507.51700,2.011598722
507.51750,1.706404315
507.51800,1.401209907
507.51850,1.706404315
507.51900,2.011598722
507.51950,1.401209907
507.52000,-0.1247621317
507.52050,-0.1247621317
507.52100,0.4856266837
507.52150,1.096015499
507.52200,1.096015499
507.52250,0.180432276
507.52300,0.180432276
507.52350,0.7908210914
507.52400,1.706404315
507.52450,1.706404315
507.52500,0.4856266837
507.52550,-0.7351509471
507.52600,-0.7351509471
507.52650,-0.1247621317
507.52700,-0.1247621317
507.52750,-0.4299565394
507.52800,-0.7351509471
507.52850,-0.1247621317
507.52900,0.180432276
507.52950,0.180432276
507.53000,0.4856266837
507.53050,1.401209907
507.53100,1.706404315
507.53150,0.7908210914
507.53200,-0.1247621317
507.53250,0.4856266837
507.53300,1.706404315
507.53350,2.621987538
507.53400,2.927181945
507.53450,3.537570761
507.53500,3.537570761
507.53550,2.927181945
507.53600,2.621987538
507.53650,2.927181945
507.53700,3.537570761
507.53750,3.842765168
507.53800,4.147959576
507.53850,4.147959576
507.53900,2.011598722
507.53950,-2.261122986
507.54000,-5.313067063
507.54050,-5.007872655
507.54100,-3.176706209
507.54150,-3.481900616
507.54200,-4.092289432
507.54250,-1.65073417
507.54300,1.401209907
507.54350,2.31679313
507.54400,2.621987538
507.54450,8.115486876
507.54500,17.88170792
507.54550,22.76481845
507.54600,18.49209674
507.54650,10.25184773
507.54700,6.28432043
507.54750,5.368737207
507.54800,3.842765168
507.54850,1.096015499
507.54900,-0.1247621317
507.54950,0.7908210914
507.55000,0.7908210914
507.55050,0.180432276
507.55100,-0.1247621317
507.55150,0.180432276
507.55200,-0.1247621317
507.55250,-0.7351509471
507.55300,-0.4299565394
507.55350,1.096015499
507.55400,2.927181945
507.55450,2.621987538
507.55500,0.7908210914
507.55550,-1.65073417
507.55600,-3.787095024
507.55650,-4.702678247
507.55700,-3.481900616
507.55750,-1.65073417
507.55800,-0.1247621317
507.55850,1.401209907
507.55900,2.31679313
507.55950,3.232376353
507.56000,3.842765168
507.56050,4.147959576
507.56100,3.537570761
507.56150,1.401209907
507.56200,-0.1247621317
507.56250,-0.1247621317
507.56300,0.4856266837
507.56350,0.4856266837
507.56400,-0.1247621317
507.56450,0.180432276
507.56500,1.096015499
507.56550,0.7908210914
507.56600,-1.65073417
507.56650,-4.092289432
507.56700,-4.092289432
507.56750,-2.566317393
507.56800,-2.261122986
507.56850,-2.261122986
507.56900,-1.345539762
507.56950,0.4856266837
507.57000,1.706404315
507.57050,1.401209907
507.57100,-0.1247621317
507.57150,-1.65073417
507.57200,-3.481900616
507.57250,-4.092289432
507.57300,-3.787095024
507.57350,-2.261122986
507.57400,-1.040345355
507.57450,-0.1247621317
507.57500,-0.1247621317
507.57550,-0.1247621317
507.57600,-0.4299565394
507.57650,-0.1247621317
507.57700,0.4856266837
507.57750,0.7908210914
507.57800,0.4856266837
507.57850,0.7908210914
507.57900,2.31679313
507.57950,2.621987538
507.58000,0.7908210914
507.58050,-1.345539762
507.58100,-2.261122986
507.58150,-2.566317393
507.58200,-2.871511801
507.58250,-3.481900616
507.58300,-3.787095024
507.58350,-4.092289432
507.58400,-4.702678247
507.58450,-4.702678247
507.58500,-3.176706209
507.58550,-1.955928578
507.58600,-2.261122986
507.58650,-3.481900616
507.58700,-2.871511801
507.58750,-0.7351509471
507.58800,-0.1247621317
507.58850,-1.040345355
507.58900,-1.955928578
507.58950,-1.345539762
507.59000,-0.1247621317
507.59050,-0.4299565394
507.59100,-1.040345355
507.59150,-0.4299565394
507.59200,-0.1247621317
507.59250,-0.4299565394
507.59300,-1.65073417
507.59350,-1.345539762
507.59400,-0.4299565394
507.59450,-0.7351509471
507.59500,-1.65073417
507.59550,-1.345539762
507.59600,0.180432276
507.59650,1.706404315
507.59700,1.401209907
507.59750,-0.1247621317
507.59800,-1.65073417
507.59850,-1.955928578
507.59900,-1.040345355
507.59950,0.4856266837
507.60000,1.096015499
507.60050,-0.4299565394
507.60100,-3.481900616
507.60150,-6.228650286
507.60200,-8.059816732
507.60250,-9.280594363
507.60300,-9.58578877
507.60350,-8.670205547
507.60400,-8.059816732
507.60450,-8.36501114
507.60500,-6.533844693
507.60550,0.180432276
507.60600,9.641458915
507.60650,15.44015266
507.60700,14.82976385
507.60750,10.86223655
507.60800,7.810292469
507.60850,5.979126022
507.60900,3.842765168
507.60950,1.706404315
507.61000,1.096015499
507.61050,1.096015499
507.61100,0.7908210914
507.61150,0.180432276
507.61200,-0.1247621317
507.61250,-0.4299565394
507.61300,-0.7351509471
507.61350,-1.040345355
507.61400,-1.040345355
507.61450,-1.040345355
507.61500,-1.040345355
507.61550,-1.345539762
507.61600,-1.955928578
507.61650,-2.566317393
507.61700,-3.176706209
507.61750,-2.871511801
507.61800,-2.261122986
507.61850,-1.65073417
507.61900,-1.65073417
507.61950,-1.955928578
507.62000,-2.566317393
507.62050,-2.566317393
507.62100,-2.566317393
507.62150,-2.566317393
507.62200,-1.955928578
507.62250,-1.65073417
507.62300,-1.955928578
507.62350,-2.871511801
507.62400,-3.787095024
507.62450,-3.481900616
507.62500,-2.871511801
507.62550,-4.092289432
507.62600,-7.754622324
507.62650,-11.11176081
507.62700,-11.72214962
507.62750,-10.19617759
507.62800,-7.754622324
507.62850,-5.61826147
507.62900,-3.787095024
507.62950,-2.566317393
507.63000,-1.65073417
507.63050,1.401209907
507.63100,8.725875692
507.63150,17.57651352
507.63200,20.933652
507.63250,16.66093029
507.63300,10.25184773
507.63350,6.589514838
507.63400,6.28432043
507.63450,5.673931615
507.63500,4.147959576
507.63550,3.232376353
507.63600,3.537570761
507.63650,2.927181945
507.63700,1.401209907
507.63750,0.180432276
507.63800,1.096015499
507.63850,2.011598722
507.63900,2.011598722
507.63950,2.621987538
507.64000,5.063542799
507.64050,7.505098061
507.64100,7.810292469
507.64150,6.894709245
507.64200,7.199903653
507.64250,8.420681284
507.64300,7.810292469
507.64350,5.979126022
507.64400,5.063542799
507.64450,4.453153984
507.64500,-0.4299565394
507.64550,-10.8065664
507.64600,-20.26759304
507.64650,-22.40395389
507.64700,-19.35200982
507.64750,-16.30006574
507.64800,-13.55331607
507.64850,-9.58578877
507.64900,-5.923455878
507.64950,-5.61826147
507.65000,-7.449427917
507.65050,-7.754622324
507.65100,-5.007872655
507.65150,-2.566317393
507.65200,-1.040345355
507.65250,1.401209907
507.65300,5.063542799
507.65350,6.28432043
507.65400,4.758348392
507.65450,3.537570761
507.65500,4.147959576
507.65550,4.758348392
507.65600,3.842765168
507.65650,3.232376353
507.65700,3.842765168
507.65750,4.147959576
507.65800,2.927181945
507.65850,1.706404315
507.65900,1.401209907
507.65950,1.401209907
507.66000,0.7908210914
507.66050,0.180432276
507.66100,0.4856266837
507.66150,1.096015499
507.66200,0.7908210914
507.66250,-0.1247621317
507.66300,-0.4299565394
507.66350,-1.040345355
507.66400,-0.7351509471
507.66450,-0.1247621317
507.66500,0.7908210914
507.66550,0.7908210914
507.66600,0.4856266837
507.66650,0.180432276
507.66700,0.180432276
507.66750,0.4856266837
507.66800,0.7908210914
507.66850,1.096015499
507.66900,1.096015499
507.66950,0.180432276
507.67000,-0.1247621317
507.67050,-0.1247621317
507.67100,-0.1247621317
507.67150,-0.1247621317
507.67200,-0.1247621317
507.67250,0.7908210914
507.67300,2.011598722
507.67350,2.31679313
507.67400,2.011598722
507.67450,2.31679313
507.67500,3.537570761
507.67550,3.537570761
507.67600,1.096015499
507.67650,-0.4299565394
507.67700,-0.1247621317
507.67750,1.706404315
507.67800,2.011598722
507.67850,1.096015499
507.67900,0.180432276
507.67950,0.180432276
507.68000,0.7908210914
507.68050,0.7908210914
507.68100,-0.7351509471
507.68150,-4.702678247
507.68200,-9.280594363
507.68250,-11.11176081
507.68300,-9.58578877
507.68350,-6.533844693
507.68400,-4.702678247
507.68450,-4.702678247
507.68500,-4.702678247
507.68550,-3.176706209
507.68600,-1.65073417
507.68650,-0.4299565394
507.68700,-0.1247621317
507.68750,-0.1247621317
507.68800,0.180432276
507.68850,1.096015499
507.68900,2.011598722
507.68950,2.31679313
507.69000,2.011598722
507.69050,1.706404315
507.69100,2.011598722
507.69150,2.011598722
507.69200,2.011598722
507.69250,1.401209907
507.69300,0.7908210914
507.69350,-0.1247621317
507.69400,-0.4299565394
507.69450,-0.1247621317
507.69500,1.096015499
507.69550,1.706404315
507.69600,1.401209907
507.69650,1.096015499
507.69700,0.7908210914
507.69750,0.180432276
507.69800,-0.1247621317
507.69850,-0.1247621317
507.69900,-0.7351509471
507.69950,-1.345539762
507.70000,-1.345539762
507.70050,-0.1247621317
507.70100,0.180432276
507.70150,-0.1247621317
507.70200,-0.7351509471
507.70250,-1.040345355
507.70300,-1.040345355
507.70350,-0.4299565394
507.70400,-0.1247621317
507.70450,-0.1247621317
507.70500,-3.176706209
507.70550,-9.280594363
507.70600,-15.07928811
507.70650,-16.60526015
507.70700,-15.38448252
507.70750,-14.46889929
507.70800,-12.94292726
507.70850,-10.50137199
507.70900,-8.975399955
507.70950,-8.670205547
507.71000,-3.787095024
507.71050,10.55704214
507.71100,29.17390101
507.71150,39.55051087
507.71200,36.19337238
507.71250,26.42715134
507.71300,18.49209674
507.71350,13.91418062
507.71400,9.946653322
507.71450,7.199903653
507.71500,6.28432043
507.71550,5.368737207
507.71600,3.232376353
507.71650,1.706404315
507.71700,1.706404315
507.71750,2.31679313
507.71800,1.401209907
507.71850,0.180432276
507.71900,0.180432276
507.71950,1.096015499
507.72000,0.4856266837
507.72050,-0.7351509471
507.72100,-1.65073417
507.72150,-1.345539762
507.72200,-0.7351509471
507.72250,-0.4299565394
507.72300,-0.7351509471
507.72350,-1.955928578
507.72400,-3.481900616
507.72450,-3.787095024
507.72500,-3.481900616
507.72550,-3.481900616
507.72600,-3.176706209
507.72650,-2.566317393
507.72700,-1.955928578
507.72750,-2.871511801
507.72800,-4.702678247
507.72850,-5.61826147
507.72900,-4.702678247
507.72950,-3.787095024
507.73000,-2.871511801
507.73050,-1.65073417
507.73100,-0.4299565394
507.73150,-0.7351509471
507.73200,-1.955928578
507.73250,-1.955928578
507.73300,-1.345539762
507.73350,-1.345539762
507.73400,-2.261122986
507.73450,-1.65073417
507.73500,-0.1247621317
507.73550,-0.1247621317
507.73600,-2.261122986
507.73650,-3.176706209
507.73700,-1.345539762
507.73750,-0.1247621317
507.73800,-0.1247621317
507.73850,-0.1247621317
507.73900,1.401209907
507.73950,3.232376353
507.74000,3.842765168
507.74050,4.758348392
507.74100,6.589514838
507.74150,7.505098061
507.74200,7.199903653
507.74250,6.894709245
507.74300,4.453153984
507.74350,-3.481900616
507.74400,-16.30006574
507.74450,-23.92992593
507.74500,-20.87798186
507.74550,-12.02734403
507.74600,-5.61826147
507.74650,-3.176706209
507.74700,-2.261122986
507.74750,-2.566317393
507.74800,-4.702678247
507.74850,-6.533844693
507.74900,-4.39748384
507.74950,-0.4299565394
507.75000,1.096015499
507.75050,0.7908210914
507.75100,1.401209907
507.75150,2.927181945
507.75200,2.927181945
507.75250,0.7908210914
507.75300,-0.4299565394
507.75350,-0.1247621317
507.75400,1.096015499
507.75450,1.401209907
507.75500,1.096015499
507.75550,0.7908210914
507.75600,-0.1247621317
507.75650,-0.4299565394
507.75700,-0.7351509471
507.75750,-0.4299565394
507.75800,-0.4299565394
507.75850,-0.7351509471
507.75900,-0.1247621317
507.75950,0.180432276
507.76000,0.4856266837
507.76050,-0.1247621317
507.76100,-0.1247621317
507.76150,0.180432276
507.76200,0.7908210914
507.76250,1.096015499
507.76300,1.401209907
507.76350,2.927181945
507.76400,4.147959576
507.76450,4.147959576
507.76500,2.927181945
507.76550,2.31679313
507.76600,2.621987538
507.76650,2.621987538
507.76700,1.096015499
507.76750,0.180432276
507.76800,-0.1247621317
507.76850,-0.4299565394
507.76900,-1.345539762
507.76950,-1.345539762
507.77000,0.7908210914
507.77050,2.31679313
507.77100,0.4856266837
507.77150,-3.176706209
507.77200,-5.313067063
507.77250,-5.313067063
507.77300,-3.787095024
507.77350,-1.040345355
507.77400,1.706404315
507.77450,3.842765168
507.77500,3.232376353
507.77550,0.7908210914
507.77600,-1.040345355
507.77650,-3.176706209
507.77700,-5.61826147
507.77750,-6.533844693
507.77800,-5.007872655
507.77850,-3.176706209
507.77900,-2.566317393
507.77950,-0.7351509471
507.78000,2.621987538
507.78050,4.453153984
507.78100,1.706404315
507.78150,0.7908210914
507.78200,7.199903653
507.78250,16.35573588
507.78300,17.27131911
507.78350,9.336264507
507.78400,2.927181945
507.78450,4.453153984
507.78500,8.115486876
507.78550,6.894709245
507.78600,3.232376353
507.78650,1.706404315
507.78700,1.401209907
507.78750,-1.040345355
507.78800,-4.702678247
507.78850,-5.007872655
507.78900,-3.176706209
507.78950,-3.176706209
507.79000,-6.228650286
507.79050,-8.36501114
507.79100,-7.144233509
507.79150,-5.313067063
507.79200,-5.007872655
507.79250,-4.702678247
507.79300,-2.566317393
507.79350,0.4856266837
507.79400,2.011598722
507.79450,1.096015499
507.79500,-0.1247621317
507.79550,-0.4299565394
507.79600,0.180432276
507.79650,1.096015499
507.79700,0.7908210914
507.79750,-0.1247621317
507.79800,-0.4299565394
507.79850,-0.4299565394
507.79900,-0.1247621317
507.79950,0.4856266837
507.80000,1.096015499
507.80050,1.706404315
507.80100,1.706404315
507.80150,0.4856266837
507.80200,-0.4299565394
507.80250,-0.7351509471
507.80300,-0.4299565394
507.80350,-0.1247621317
507.80400,-1.345539762
507.80450,-1.955928578
507.80500,-1.65073417
507.80550,-0.7351509471
507.80600,-1.040345355
507.80650,-2.261122986
507.80700,-3.481900616
507.80750,-3.481900616
507.80800,-2.566317393
507.80850,-1.955928578
507.80900,-1.040345355
507.80950,-0.4299565394
507.81000,-1.040345355
507.81050,-1.65073417
507.81100,-2.261122986
507.81150,-1.955928578
507.81200,-1.65073417
507.81250,-1.65073417
507.81300,-1.040345355
507.81350,-1.040345355
507.81400,-1.040345355
507.81450,-1.345539762
507.81500,-0.4299565394
507.81550,0.180432276
507.81600,0.4856266837
507.81650,0.180432276
507.81700,0.7908210914
507.81750,1.706404315
507.81800,1.096015499
507.81850,-0.1247621317
507.81900,-0.4299565394
507.81950,1.401209907
507.82000,3.232376353
507.82050,2.621987538
507.82100,1.401209907
507.82150,2.011598722
507.82200,3.232376353
507.82250,3.232376353
507.82300,2.621987538
507.82350,3.232376353
507.82400,4.453153984
507.82450,3.842765168
507.82500,1.706404315
507.82550,0.7908210914
507.82600,1.096015499
507.82650,0.7908210914
507.82700,-0.4299565394
507.82750,-0.7351509471
507.82800,1.096015499
507.82850,3.537570761
507.82900,3.232376353
507.82950,1.706404315
507.83000,1.096015499
507.83050,2.011598722
507.83100,2.31679313
507.83150,0.7908210914
507.83200,-1.345539762
507.83250,-3.787095024
507.83300,-5.923455878
507.83350,-6.533844693
507.83400,-5.313067063
507.83450,-3.481900616
507.83500,-2.566317393
507.83550,-1.955928578
507.83600,-1.040345355
507.83650,-0.4299565394
507.83700,-1.040345355
507.83750,-1.65073417
507.83800,-1.040345355
507.83850,0.180432276
507.83900,0.4856266837
507.83950,-0.1247621317
507.84000,0.180432276
507.84050,1.401209907
507.84100,2.011598722
507.84150,1.096015499
507.84200,0.4856266837
507.84250,0.180432276
507.84300,-0.1247621317
507.84350,-1.040345355
507.84400,-1.65073417
507.84450,-1.345539762
507.84500,-1.345539762
507.84550,-2.261122986
507.84600,-3.787095024
507.84650,-4.39748384
507.84700,-5.007872655
507.84750,-5.61826147
507.84800,-6.228650286
507.84850,-5.313067063
507.84900,-4.092289432
507.84950,-2.871511801
507.85000,-2.261122986
507.85050,-1.345539762
507.85100,-1.040345355
507.85150,-1.65073417
507.85200,-2.261122986
507.85250,-1.040345355
507.85300,0.4856266837
507.85350,1.096015499
507.85400,0.7908210914
507.85450,1.706404315
507.85500,3.842765168
507.85550,3.842765168
507.85600,0.7908210914
507.85650,-3.176706209
507.85700,-4.702678247
507.85750,-4.39748384
507.85800,-4.39748384
507.85850,-4.702678247
507.85900,-4.39748384
507.85950,-3.787095024
507.86000,-3.481900616
507.86050,-2.566317393
507.86100,1.706404315
507.86150,9.946653322
507.86200,18.18690233
507.86250,22.15442963
507.86300,20.933652
507.86350,17.88170792
507.86400,15.13495825
507.86450,13.60898621
507.86500,12.08301418
507.86550,10.25184773
507.86600,8.420681284
507.86650,7.199903653
507.86700,5.063542799
507.86750,0.7908210914
507.86800,-6.839039101
507.86850,-15.07928811
507.86900,-20.87798186
507.86950,-23.92992593
507.87000,-25.45589797
507.87050,-25.76109238
507.87100,-23.62473152
507.87150,-16.91045456
507.87200,-5.313067063
507.87250,7.505098061
507.87300,16.9661247
507.87350,19.10248555
507.87400,14.21937503
507.87450,7.505098061
507.87500,3.232376353
507.87550,1.706404315
507.87600,1.096015499
507.87650,0.4856266837
507.87700,-0.1247621317
507.87750,-1.040345355
507.87800,-2.566317393
507.87850,-2.871511801
507.87900,-1.040345355
507.87950,1.096015499
507.88000,2.011598722
507.88050,1.401209907
507.88100,0.4856266837
507.88150,0.180432276
507.88200,-0.1247621317
507.88250,-1.345539762
507.88300,-2.871511801
507.88350,-2.871511801
507.88400,-2.261122986
507.88450,-1.955928578
507.88500,-3.481900616
507.88550,-6.839039101
507.88600,-10.50137199
507.88650,-12.33253844
507.88700,-11.72214962
507.88750,-9.58578877
507.88800,-6.839039101
507.88850,-4.092289432
507.88900,-1.65073417
507.88950,0.4856266837
507.89000,1.401209907
507.89050,0.7908210914
507.89100,-0.4299565394
507.89150,-1.040345355
507.89200,-1.040345355
507.89250,-1.65073417
507.89300,-3.481900616
507.89350,-5.313067063
507.89400,-5.61826147
507.89450,-5.007872655
507.89500,-4.702678247
507.89550,-5.313067063
507.89600,-4.702678247
507.89650,-2.871511801
507.89700,-2.871511801
507.89750,-4.702678247
507.89800,-5.313067063
507.89850,-1.65073417
507.89900,5.368737207
507.89950,12.69340299
507.90000,17.27131911
507.90050,20.01806878
507.90100,22.76481845
507.90150,25.20637371
507.90200,24.9011793
507.90250,20.933652
507.90300,16.9661247
507.90350,15.44015266
507.90400,13.60898621
507.90450,5.368737207
507.90500,-9.58578877
507.90550,-23.62473152
507.90600,-28.81303646
507.90650,-24.84550916
507.90700,-18.43642659
507.90750,-14.16370489
507.90800,-11.72214962
507.90850,-10.19617759
507.90900,-8.36501114
507.90950,-4.39748384
507.91000,2.927181945
507.91050,12.08301418
507.91100,17.88170792
507.91150,16.9661247
507.91200,9.946653322
507.91250,0.7908210914
507.91300,-6.228650286
507.91350,-9.280594363
507.91400,-7.754622324
507.91450,-4.092289432
507.91500,-2.261122986
507.91550,-2.566317393
507.91600,-3.176706209
507.91650,-2.566317393
507.91700,-0.4299565394
507.91750,1.401209907
507.91800,2.621987538
507.91850,2.621987538
507.91900,2.011598722
507.91950,2.011598722
507.92000,2.621987538
507.92050,3.232376353
507.92100,3.232376353
507.92150,2.927181945
507.92200,2.621987538
507.92250,2.31679313
507.92300,1.096015499
507.92350,-0.1247621317
507.92400,-0.1247621317
507.92450,0.7908210914
507.92500,1.401209907
507.92550,1.096015499
507.92600,-0.1247621317
507.92650,-0.1247621317
507.92700,0.4856266837
507.92750,1.401209907
507.92800,1.401209907
507.92850,1.401209907
507.92900,1.706404315
507.92950,2.31679313
507.93000,2.621987538
507.93050,1.401209907
507.93100,0.180432276
507.93150,0.4856266837
507.93200,2.31679313
507.93250,3.232376353
507.93300,2.927181945
507.93350,2.31679313
507.93400,2.31679313
507.93450,1.401209907
507.93500,-1.040345355
507.93550,-4.702678247
507.93600,-7.754622324
507.93650,-9.890983178
507.93700,-11.11176081
507.93750,-10.8065664
507.93800,-8.670205547
507.93850,-6.228650286
507.93900,-4.702678247
507.93950,-3.176706209
507.94000,2.011598722
507.94050,11.16743095
507.94100,19.40767996
507.94150,23.37520726
507.94200,24.59598489
507.94250,26.12195693
507.94300,25.81676252
507.94350,21.54404082
507.94400,13.91418062
507.94450,8.420681284
507.94500,7.505098061
507.94550,9.336264507
507.94600,10.25184773
507.94650,9.031070099
507.94700,5.368737207
507.94750,0.7908210914
507.94800,-2.871511801
507.94850,-5.313067063
507.94900,-6.839039101
507.94950,-10.50137199
507.95000,-15.99487133
507.95050,-20.26759304
507.95100,-19.96239863
507.95150,-15.68967692
507.95200,-12.02734403
507.95250,-10.50137199
507.95300,-9.890983178
507.95350,-8.36501114
507.95400,-6.228650286
507.95450,-5.313067063
507.95500,-5.61826147
507.95550,-5.61826147
507.95600,-4.702678247
507.95650,-3.787095024
507.95700,-3.176706209
507.95750,-1.65073417
507.95800,0.180432276
507.95850,1.096015499
507.95900,0.4856266837
507.95950,-0.4299565394
507.96000,-0.1247621317
507.96050,-0.4299565394
507.96100,-2.261122986
507.96150,-5.61826147
507.96200,-8.059816732
507.96250,-8.059816732
507.96300,-6.228650286
507.96350,-3.481900616
507.96400,-1.345539762
507.96450,-0.4299565394
507.96500,-0.1247621317
507.96550,0.180432276
507.96600,0.7908210914
507.96650,0.7908210914
507.96700,-0.1247621317
507.96750,-0.7351509471
507.96800,-0.7351509471
507.96850,-1.040345355
507.96900,-2.261122986
507.96950,-3.176706209
507.97000,-2.566317393
507.97050,-1.345539762
507.97100,-0.4299565394
507.97150,-0.7351509471
507.97200,-0.7351509471
507.97250,-0.4299565394
507.97300,-0.1247621317
507.97350,0.4856266837
507.97400,1.401209907
507.97450,1.096015499
507.97500,-0.4299565394
507.97550,-1.955928578
507.97600,-1.345539762
507.97650,0.180432276
507.97700,1.401209907
507.97750,1.401209907
507.97800,1.401209907
507.97850,2.011598722
507.97900,2.31679313
507.97950,1.096015499
507.98000,-0.1247621317
507.98050,-1.040345355
507.98100,-1.65073417
507.98150,-1.345539762
507.98200,0.4856266837
507.98250,3.232376353
507.98300,4.147959576
507.98350,2.621987538
507.98400,1.096015499
507.98450,1.706404315
507.98500,3.232376353
507.98550,3.232376353
507.98600,1.706404315
507.98650,0.7908210914
507.98700,0.7908210914
507.98750,0.4856266837
507.98800,0.180432276
507.98850,-0.1247621317
507.98900,-0.1247621317
507.98950,-0.4299565394
507.99000,-0.7351509471
507.99050,-0.1247621317
507.99100,0.180432276
507.99150,-1.345539762
507.99200,-4.702678247
507.99250,-5.61826147
507.99300,-4.092289432
507.99350,-2.871511801
507.99400,-3.481900616
507.99450,-4.092289432
507.99500,-2.566317393
507.99550,-0.7351509471
507.99600,-0.1247621317
507.99650,-0.1247621317
507.99700,2.011598722
507.99750,5.368737207
507.99800,9.031070099
507.99850,12.69340299
507.99900,16.9661247
507.99950,20.01806878
508.00000,18.79729115
508.00050,12.38820858
508.00100,3.232376353
508.00150,-5.007872655
508.00200,-10.19617759
508.00250,-10.50137199
508.00300,-6.533844693
508.00350,-1.65073417
508.00400,0.4856266837
508.00450,0.4856266837
508.00500,1.096015499
508.00550,2.31679313
508.00600,3.537570761
508.00650,3.537570761
508.00700,2.927181945
508.00750,2.31679313
508.00800,2.011598722
508.00850,0.4856266837
508.00900,-1.65073417
508.00950,-3.481900616
508.01000,-3.481900616
508.01050,-1.955928578
508.01100,-0.7351509471
508.01150,-0.1247621317
508.01200,-0.4299565394
508.01250,-0.7351509471
508.01300,-1.040345355
508.01350,-1.040345355
508.01400,-1.040345355
508.01450,-0.1247621317
508.01500,-0.1247621317
508.01550,-0.4299565394
508.01600,-1.040345355
508.01650,-0.7351509471
508.01700,0.4856266837
508.01750,-0.1247621317
508.01800,-4.092289432
508.01850,-8.36501114
508.01900,-10.19617759
508.01950,-8.975399955
508.02000,-5.923455878
508.02050,-2.871511801
508.02100,-1.040345355
508.02150,-0.4299565394
508.02200,-0.4299565394
508.02250,2.011598722
508.02300,9.641458915
508.02350,19.10248555
508.02400,23.98559608
508.02450,20.62845759
508.02500,11.16743095
508.02550,3.537570761
508.02600,1.401209907
508.02650,0.7908210914
508.02700,-5.313067063
508.02750,-18.43642659
508.02800,-29.11823086
508.02850,-28.81303646
508.02900,-18.43642659
508.02950,-5.007872655
508.03000,4.453153984
508.03050,10.25184773
508.03100,12.38820858
508.03150,10.86223655
508.03200,6.589514838
508.03250,3.232376353
508.03300,2.31679313
508.03350,2.621987538
508.03400,1.401209907
508.03450,-0.1247621317
508.03500,-0.1247621317
508.03550,0.180432276
508.03600,-0.1247621317
508.03650,-0.4299565394
508.03700,-0.1247621317
508.03750,0.7908210914
508.03800,0.4856266837
508.03850,-1.040345355
508.03900,-1.65073417
508.03950,-0.7351509471
508.04000,-0.7351509471
508.04050,-2.871511801
508.04100,-4.702678247
508.04150,-4.092289432
508.04200,-2.871511801
508.04250,-3.176706209
508.04300,-4.39748384
508.04350,-5.007872655
508.04400,-5.007872655
508.04450,-5.007872655
508.04500,-5.313067063
508.04550,-4.702678247
508.04600,-4.702678247
508.04650,-5.313067063
508.04700,-5.61826147
508.04750,-4.092289432
508.04800,-2.261122986
508.04850,-2.261122986
508.04900,-3.481900616
508.04950,-3.481900616
508.05000,-2.566317393
508.05050,-2.261122986
508.05100,-2.871511801
508.05150,-2.871511801
508.05200,-1.345539762
508.05250,-0.4299565394
508.05300,-1.345539762
508.05350,-2.566317393
508.05400,-1.955928578
508.05450,-0.1247621317
508.05500,0.4856266837
508.05550,-0.1247621317
508.05600,-1.345539762
508.05650,-1.65073417
508.05700,-0.1247621317
508.05750,1.706404315
508.05800,2.621987538
508.05850,2.31679313
508.05900,2.011598722
508.05950,2.31679313
508.06000,2.927181945
508.06050,2.621987538
508.06100,1.706404315
508.06150,-0.1247621317
508.06200,-1.040345355
508.06250,-1.040345355
508.06300,-0.1247621317
508.06350,0.4856266837
508.06400,-0.1247621317
508.06450,-0.7351509471
508.06500,-0.7351509471
508.06550,-0.7351509471
508.06600,-1.345539762
508.06650,-2.871511801
508.06700,-2.871511801
508.06750,-1.345539762
508.06800,0.180432276
508.06850,1.096015499
508.06900,1.706404315
508.06950,2.011598722
508.07000,1.401209907
508.07050,0.4856266837
508.07100,0.7908210914
508.07150,2.31679313
508.07200,2.621987538
508.07250,1.706404315
508.07300,1.096015499
508.07350,2.31679313
508.07400,2.927181945
508.07450,2.31679313
508.07500,1.401209907
508.07550,2.31679313
508.07600,4.453153984
508.07650,5.063542799
508.07700,4.758348392
508.07750,4.147959576
508.07800,4.758348392
508.07850,5.368737207
508.07900,5.368737207
508.07950,3.842765168
508.08000,2.31679313
508.08050,1.401209907
508.08100,1.096015499
508.08150,1.096015499
508.08200,-0.1247621317
508.08250,-1.65073417
508.08300,-1.955928578
508.08350,-0.4299565394
508.08400,0.180432276
508.08450,-0.1247621317
508.08500,0.180432276
508.08550,1.401209907
508.08600,2.621987538
508.08650,2.31679313
508.08700,2.011598722
508.08750,3.842765168
508.08800,6.28432043
508.08850,5.063542799
508.08900,0.180432276
508.08950,-3.787095024
508.09000,-7.144233509
508.09050,-11.41695522
508.09100,-15.38448252
508.09150,-14.16370489
508.09200,-7.754622324
508.09250,-2.261122986
508.09300,-1.345539762
508.09350,-0.1247621317
508.09400,7.505098061
508.09450,18.18690233
508.09500,22.45962404
508.09550,17.88170792
508.09600,10.25184773
508.09650,5.673931615
508.09700,4.147959576
508.09750,3.842765168
508.09800,3.842765168
508.09850,3.537570761
508.09900,2.31679313
508.09950,0.4856266837
508.10000,-0.1247621317
508.10050,-0.1247621317
508.10100,0.4856266837
508.10150,0.4856266837
508.10200,0.4856266837
508.10250,0.7908210914
508.10300,-0.1247621317
508.10350,-1.65073417
508.10400,-2.261122986
508.10450,-1.955928578
508.10500,-1.345539762
508.10550,-2.261122986
508.10600,-3.481900616
508.10650,-3.787095024
508.10700,-3.481900616
508.10750,-3.787095024
508.10800,-4.702678247
508.10850,-5.313067063
508.10900,-4.702678247
508.10950,-4.092289432
508.11000,-4.39748384
508.11050,-6.228650286
508.11100,-6.533844693
508.11150,-5.007872655
508.11200,-3.481900616
508.11250,-4.702678247
508.11300,-8.36501114
508.11350,-11.11176081
508.11400,-11.72214962
508.11450,-11.11176081
508.11500,-10.8065664
508.11550,-10.8065664
508.11600,-10.50137199
508.11650,-10.19617759
508.11700,-8.36501114
508.11750,-2.261122986
508.11800,6.894709245
508.11850,13.91418062
508.11900,15.13495825
508.11950,11.77781977
508.12000,8.115486876
508.12050,6.28432043
508.12100,4.758348392
508.12150,2.927181945
508.12200,2.011598722
508.12250,1.401209907
508.12300,0.7908210914
508.12350,-0.1247621317
508.12400,-0.1247621317
508.12450,0.7908210914
508.12500,1.096015499
508.12550,0.180432276
508.12600,-0.4299565394
508.12650,-1.345539762
508.12700,-1.65073417
508.12750,-1.955928578
508.12800,-1.345539762
508.12850,-0.1247621317
508.12900,1.096015499
508.12950,1.401209907
508.13000,1.401209907
508.13050,0.7908210914
508.13100,1.096015499
508.13150,1.401209907
508.13200,1.706404315
508.13250,1.096015499
508.13300,0.4856266837
508.13350,1.096015499
508.13400,2.621987538
508.13450,3.842765168
508.13500,3.842765168
508.13550,2.927181945
508.13600,2.31679313
508.13650,1.706404315
508.13700,1.096015499
508.13750,0.4856266837
508.13800,0.4856266837
508.13850,0.4856266837
508.13900,0.4856266837
508.13950,1.096015499
508.14000,1.706404315
508.14050,-0.1247621317
508.14100,-4.39748384
508.14150,-8.36501114
508.14200,-8.670205547
508.14250,-6.228650286
508.14300,-4.092289432
508.14350,-3.481900616
508.14400,-2.871511801
508.14450,-1.345539762
508.14500,-0.1247621317
508.14550,-0.4299565394
508.14600,-0.7351509471
508.14650,-0.4299565394
508.14700,-0.1247621317
508.14750,-0.4299565394
508.14800,-1.65073417
508.14850,-2.871511801
508.14900,-3.176706209
508.14950,-2.871511801
508.15000,-2.566317393
508.15050,-1.345539762
508.15100,-0.4299565394
508.15150,-1.345539762
508.15200,-4.702678247
508.15250,-8.059816732
508.15300,-8.975399955
508.15350,-6.533844693
508.15400,-3.176706209
508.15450,-1.955928578
508.15500,-1.345539762
508.15550,-0.1247621317
508.15600,2.31679313
508.15650,3.232376353
508.15700,2.011598722
508.15750,1.401209907
508.15800,2.621987538
508.15850,4.453153984
508.15900,4.453153984
508.15950,3.842765168
508.16000,4.453153984
508.16050,5.979126022
508.16100,6.28432043
508.16150,5.063542799
508.16200,3.842765168
508.16250,3.537570761
508.16300,3.232376353
508.16350,2.31679313
508.16400,1.706404315
508.16450,2.011598722
508.16500,1.401209907
508.16550,-0.1247621317
508.16600,-0.7351509471
508.16650,-0.1247621317
508.16700,0.7908210914
508.16750,0.180432276
508.16800,-1.955928578
508.16850,-3.481900616
508.16900,-3.787095024
508.16950,-3.176706209
508.17000,-3.176706209
508.17050,-3.481900616
508.17100,-3.481900616
508.17150,-2.566317393
508.17200,-1.040345355
508.17250,-0.4299565394
508.17300,-0.4299565394
508.17350,-0.4299565394
508.17400,-0.1247621317
508.17450,-0.7351509471
508.17500,-1.040345355
508.17550,-0.4299565394
508.17600,0.180432276
508.17650,0.4856266837
508.17700,-0.4299565394
508.17750,-1.040345355
508.17800,-0.1247621317
508.17850,1.401209907
508.17900,2.011598722
508.17950,1.401209907
508.18000,2.31679313
508.18050,4.453153984
508.18100,5.368737207
508.18150,4.147959576
508.18200,2.927181945
508.18250,3.232376353
508.18300,3.842765168
508.18350,2.621987538
508.18400,-0.1247621317
508.18450,-1.040345355
508.18500,-0.7351509471
508.18550,-0.1247621317
508.18600,-0.1247621317
508.18650,0.4856266837
508.18700,1.706404315
508.18750,1.706404315
508.18800,-0.4299565394
508.18850,-2.261122986
508.18900,-0.7351509471
508.18950,2.621987538
508.19000,4.453153984
508.19050,2.621987538
508.19100,-0.1247621317
508.19150,-0.7351509471
508.19200,-0.4299565394
508.19250,-1.040345355
508.19300,-2.871511801
508.19350,-4.092289432
508.19400,-4.092289432
508.19450,-3.176706209
508.19500,-1.65073417
508.19550,-0.1247621317
508.19600,0.4856266837
508.19650,0.4856266837
508.19700,-0.1247621317
508.19750,-0.1247621317
508.19800,-0.1247621317
508.19850,-0.7351509471
508.19900,-1.955928578
508.19950,-2.566317393
508.20000,-1.040345355
508.20050,0.4856266837
508.20100,0.7908210914
508.20150,-0.1247621317
508.20200,-0.7351509471
508.20250,-0.4299565394
508.20300,-0.1247621317
508.20350,0.7908210914
508.20400,1.401209907
508.20450,2.621987538
508.20500,3.842765168
508.20550,3.842765168
508.20600,3.232376353
508.20650,2.31679313
508.20700,2.011598722
508.20750,1.401209907
508.20800,0.4856266837
508.20850,0.4856266837
508.20900,1.096015499
508.20950,1.706404315
508.21000,1.706404315
508.21050,1.401209907
508.21100,1.706404315
508.21150,2.011598722
508.21200,1.401209907
508.21250,0.4856266837
508.21300,-0.1247621317
508.21350,0.4856266837
508.21400,2.011598722
508.21450,3.537570761
508.21500,5.368737207
508.21550,7.199903653
508.21600,8.115486876
508.21650,7.505098061
508.21700,6.894709245
508.21750,7.199903653
508.21800,7.505098061
508.21850,6.894709245
508.21900,5.063542799
508.21950,2.927181945
508.22000,-0.1247621317
508.22050,-5.313067063
508.22100,-12.33253844
508.22150,-17.21564896
508.22200,-16.30006574
508.22250,-12.02734403
508.22300,-8.059816732
508.22350,-6.228650286
508.22400,-4.39748384
508.22450,-2.261122986
508.22500,-0.7351509471
508.22550,-0.7351509471
508.22600,-1.040345355
508.22650,-0.1247621317
508.22700,0.4856266837
508.22750,0.7908210914
508.22800,0.4856266837
508.22850,-0.4299565394
508.22900,-3.176706209
508.22950,-7.144233509
508.23000,-9.58578877
508.23050,-9.280594363
508.23100,-8.059816732
508.23150,-8.059816732
508.23200,-9.280594363
508.23250,-10.50137199
508.23300,-9.890983178
508.23350,-8.059816732
508.23400,-5.61826147
508.23450,-4.39748384
508.23500,-5.923455878
508.23550,-8.975399955
508.23600,-10.50137199
508.23650,-9.58578877
508.23700,-8.36501114
508.23750,-7.144233509
508.23800,-5.61826147
508.23850,-3.481900616
508.23900,-2.566317393
508.23950,-3.176706209
508.24000,-0.1247621317
508.24050,8.725875692
508.24100,19.40767996
508.24150,23.98559608
508.24200,20.01806878
508.24250,12.9985974
508.24300,7.810292469
508.24350,5.673931615
508.24400,4.453153984
508.24450,3.232376353
508.24500,2.621987538
508.24550,2.31679313
508.24600,2.31679313
508.24650,2.011598722
508.24700,1.706404315
508.24750,1.401209907
508.24800,1.401209907
508.24850,2.011598722
508.24900,2.011598722
508.24950,0.7908210914
508.25000,-0.1247621317
508.25050,-0.1247621317
508.25100,0.7908210914
508.25150,0.180432276
508.25200,-2.566317393
508.25250,-5.313067063
508.25300,-5.923455878
508.25350,-5.007872655
508.25400,-4.702678247
508.25450,-5.313067063
508.25500,-5.313067063
508.25550,-4.39748384
508.25600,-4.702678247
508.25650,-5.313067063
508.25700,-3.176706209
508.25750,3.232376353
508.25800,11.77781977
508.25850,16.66093029
508.25900,16.05054148
508.25950,12.38820858
508.26000,8.725875692
508.26050,5.368737207
508.26100,2.31679313
508.26150,-0.1247621317
508.26200,-1.040345355
508.26250,-1.040345355
508.26300,-1.345539762
508.26350,-1.955928578
508.26400,-3.176706209
508.26450,-3.787095024
508.26500,-3.176706209
508.26550,-2.261122986
508.26600,-1.65073417
508.26650,-2.871511801
508.26700,-4.092289432
508.26750,-4.39748384
508.26800,-3.481900616
508.26850,-3.176706209
508.26900,-3.176706209
508.26950,-3.176706209
508.27000,-2.261122986
508.27050,-1.345539762
508.27100,-0.4299565394
508.27150,-0.1247621317
508.27200,0.7908210914
508.27250,0.7908210914
508.27300,-0.4299565394
508.27350,-1.345539762
508.27400,-0.7351509471
508.27450,0.180432276
508.27500,0.4856266837
508.27550,0.4856266837
508.27600,0.7908210914
508.27650,1.401209907
508.27700,1.401209907
508.27750,0.7908210914
508.27800,0.7908210914
508.27850,2.011598722
508.27900,2.621987538
508.27950,0.4856266837
508.28000,-1.345539762
508.28050,-1.955928578
508.28100,-0.7351509471
508.28150,-0.7351509471
508.28200,-1.955928578
508.28250,-2.871511801
508.28300,-1.955928578
508.28350,-0.4299565394
508.28400,0.7908210914
508.28450,2.011598722
508.28500,2.927181945
508.28550,1.096015499
508.28600,-4.39748384
508.28650,-11.11176081
508.28700,-14.16370489
508.28750,-12.02734403
508.28800,-7.754622324
508.28850,-4.702678247
508.28900,-4.702678247
508.28950,-5.61826147
508.29000,-5.313067063
508.29050,-3.176706209
508.29100,-1.040345355
508.29150,-0.1247621317
508.29200,-1.040345355
508.29250,-1.65073417
508.29300,-0.4299565394
508.29350,1.401209907
508.29400,2.011598722
508.29450,1.706404315
508.29500,2.31679313
508.29550,4.147959576
508.29600,5.368737207
508.29650,4.453153984
508.29700,3.537570761
508.29750,3.842765168
508.29800,4.758348392
508.29850,4.453153984
508.29900,4.147959576
508.29950,5.063542799
508.30000,7.199903653
508.30050,8.420681284
508.30100,8.115486876
508.30150,7.810292469
508.30200,7.199903653
508.30250,5.979126022
508.30300,4.147959576
508.30350,3.537570761
508.30400,3.842765168
508.30450,3.232376353
508.30500,1.706404315
508.30550,0.7908210914
508.30600,0.7908210914
508.30650,-0.1247621317
508.30700,-2.566317393
508.30750,-4.702678247
508.30800,-3.787095024
508.30850,-1.65073417
508.30900,-1.345539762
508.30950,-3.176706209
508.31000,-4.092289432
508.31050,-2.566317393
508.31100,-0.1247621317
508.31150,0.4856266837
508.31200,0.7908210914
508.31250,0.4856266837
508.31300,-0.1247621317
508.31350,-2.871511801
508.31400,-6.228650286
508.31450,-7.754622324
508.31500,-8.059816732
508.31550,-7.144233509
508.31600,-5.923455878
508.31650,-4.39748384
508.31700,-2.871511801
508.31750,-1.955928578
508.31800,-0.4299565394
508.31850,4.147959576
508.31900,12.38820858
508.31950,19.10248555
508.32000,19.10248555
508.32050,13.91418062
508.32100,8.420681284
508.32150,6.28432043
508.32200,5.979126022
508.32250,4.758348392
508.32300,2.927181945
508.32350,2.31679313
508.32400,3.842765168
508.32450,5.063542799
508.32500,4.453153984
508.32550,2.621987538
508.32600,1.401209907
508.32650,1.401209907
508.32700,1.401209907
508.32750,-0.1247621317
508.32800,-1.65073417
508.32850,-2.871511801
508.32900,-1.955928578
508.32950,-0.7351509471
508.33000,-0.1247621317
508.33050,-0.1247621317
508.33100,-0.1247621317
508.33150,0.7908210914
508.33200,1.096015499
508.33250,0.7908210914
508.33300,0.180432276
508.33350,0.180432276
508.33400,0.180432276
508.33450,0.4856266837
508.33500,0.7908210914
508.33550,1.706404315
508.33600,2.31679313
508.33650,2.011598722
508.33700,1.706404315
508.33750,1.096015499
508.33800,0.4856266837
508.33850,-0.1247621317
508.33900,-0.1247621317
508.33950,0.4856266837
508.34000,1.096015499
508.34050,1.096015499
508.34100,0.7908210914
508.34150,0.180432276
508.34200,-0.4299565394
508.34250,-1.955928578
508.34300,-2.871511801
508.34350,-3.176706209
508.34400,-2.871511801
508.34450,-2.871511801
508.34500,-2.871511801
508.34550,-2.871511801
508.34600,-3.176706209
508.34650,-3.787095024
508.34700,-4.39748384
508.34750,-4.092289432
508.34800,-2.871511801
508.34850,-2.261122986
508.34900,-3.176706209
508.34950,-4.092289432
508.35000,-3.787095024
508.35050,-3.176706209
508.35100,-3.481900616
508.35150,-5.007872655
508.35200,-5.61826147
508.35250,-4.39748384
508.35300,-1.955928578
508.35350,-0.1247621317
508.35400,0.180432276
508.35450,0.180432276
508.35500,-0.1247621317
508.35550,-0.7351509471
508.35600,-0.7351509471
508.35650,-0.7351509471
508.35700,-0.1247621317
508.35750,-0.1247621317
508.35800,-0.1247621317
508.35850,-0.1247621317
508.35900,0.180432276
508.35950,0.4856266837
508.36000,-0.1247621317
508.36050,-1.955928578
508.36100,-3.787095024
508.36150,-3.787095024
508.36200,-1.955928578
508.36250,-0.1247621317
508.36300,0.180432276
508.36350,0.180432276
508.36400,-0.1247621317
508.36450,-1.040345355
508.36500,-2.261122986
508.36550,-2.261122986
508.36600,-1.65073417
508.36650,-2.566317393
508.36700,-5.313067063
508.36750,-8.975399955
508.36800,-11.11176081
508.36850,-11.11176081
508.36900,-9.58578877
508.36950,-7.754622324
508.37000,-6.839039101
508.37050,-7.449427917
508.37100,-8.36501114
508.37150,-6.533844693
508.37200,-0.1247621317
508.37250,8.420681284
508.37300,13.91418062
508.37350,14.21937503
508.37400,10.86223655
508.37450,6.894709245
508.37500,3.842765168
508.37550,1.706404315
508.37600,1.096015499
508.37650,1.706404315
508.37700,1.706404315
508.37750,0.4856266837
508.37800,-1.345539762
508.37850,-2.261122986
508.37900,-1.65073417
508.37950,-0.7351509471
508.38000,-1.040345355
508.38050,-1.955928578
508.38100,-2.871511801
508.38150,-2.566317393
508.38200,-1.955928578
508.38250,-2.261122986
508.38300,-2.871511801
508.38350,-3.787095024
508.38400,-3.787095024
508.38450,-2.261122986
508.38500,-0.7351509471
508.38550,-0.4299565394
508.38600,-1.65073417
508.38650,-3.481900616
508.38700,-4.092289432
508.38750,-3.787095024
508.38800,-3.176706209
508.38850,-2.871511801
508.38900,-3.176706209
508.38950,-4.702678247
508.39000,-7.754622324
508.39050,-10.50137199
508.39100,-11.11176081
508.39150,-9.280594363
508.39200,-7.144233509
508.39250,-5.923455878
508.39300,-5.61826147
508.39350,-5.61826147
508.39400,-4.092289432
508.39450,-0.1247621317
508.39500,7.505098061
508.39550,15.74534707
508.39600,19.71287437
508.39650,16.9661247
508.39700,10.86223655
508.39750,6.28432043
508.39800,5.368737207
508.39850,5.673931615
508.39900,4.758348392
508.39950,3.537570761
508.40000,2.621987538
508.40050,2.011598722
508.40100,0.4856266837
508.40150,-0.7351509471
508.40200,-0.1247621317
508.40250,0.7908210914
508.40300,0.7908210914
508.40350,-0.4299565394
508.40400,-1.345539762
508.40450,-1.040345355
508.40500,-0.7351509471
508.40550,-1.955928578
508.40600,-3.481900616
508.40650,-3.176706209
508.40700,-2.261122986
508.40750,-1.955928578
508.40800,-2.566317393
508.40850,-3.176706209
508.40900,-3.481900616
508.40950,-3.787095024
508.41000,-4.092289432
508.41050,-3.176706209
508.41100,-2.261122986
508.41150,-2.566317393
508.41200,-3.176706209
508.41250,-3.176706209
508.41300,-1.65073417
508.41350,-0.4299565394
508.41400,-0.4299565394
508.41450,-0.7351509471
508.41500,-0.1247621317
508.41550,1.401209907
508.41600,2.011598722
508.41650,1.401209907
508.41700,0.4856266837
508.41750,1.096015499
508.41800,2.621987538
508.41850,3.842765168
508.41900,3.537570761
508.41950,2.927181945
508.42000,2.927181945
508.42050,3.537570761
508.42100,4.147959576
508.42150,3.537570761
508.42200,2.621987538
508.42250,1.706404315
508.42300,1.401209907
508.42350,1.096015499
508.42400,0.7908210914
508.42450,0.7908210914
508.42500,0.7908210914
508.42550,1.096015499
508.42600,0.7908210914
508.42650,0.180432276
508.42700,-0.1247621317
508.42750,-0.4299565394
508.42800,-0.7351509471
508.42850,-0.4299565394
508.42900,-0.4299565394
508.42950,-0.4299565394
508.43000,-0.4299565394
508.43050,-0.4299565394
508.43100,-1.040345355
508.43150,-2.261122986
508.43200,-2.261122986
508.43250,-1.65073417
508.43300,-1.040345355
508.43350,-0.1247621317
508.43400,1.096015499
508.43450,2.927181945
508.43500,3.842765168
508.43550,3.537570761
508.43600,2.927181945
508.43650,3.537570761
508.43700,5.063542799
508.43750,5.673931615
508.43800,5.063542799
508.43850,4.147959576
508.43900,3.537570761
508.43950,3.537570761
508.44000,2.927181945
508.44050,2.621987538
508.44100,2.31679313
508.44150,2.31679313
508.44200,2.621987538
508.44250,2.31679313
508.44300,1.706404315
508.44350,1.096015499
508.44400,0.7908210914
508.44450,0.180432276
508.44500,-0.1247621317
508.44550,0.4856266837
508.44600,2.011598722
508.44650,2.011598722
508.44700,0.180432276
508.44750,-0.7351509471
508.44800,-0.1247621317
508.44850,1.401209907
508.44900,1.401209907
508.44950,0.7908210914
508.45000,0.7908210914
508.45050,0.4856266837
508.45100,-1.955928578
508.45150,-5.923455878
508.45200,-7.449427917
508.45250,-6.839039101
508.45300,-6.228650286
508.45350,-6.228650286
508.45400,-4.702678247
508.45450,-2.261122986
508.45500,-2.261122986
508.45550,-3.481900616
508.45600,-1.040345355
508.45650,7.199903653
508.45700,16.35573588
508.45750,19.40767996
508.45800,16.05054148
508.45850,11.16743095
508.45900,7.199903653
508.45950,4.147959576
508.46000,1.401209907
508.46050,0.180432276
508.46100,0.7908210914
508.46150,1.096015499
508.46200,1.096015499
508.46250,0.7908210914
508.46300,0.7908210914
508.46350,0.180432276
508.46400,-0.7351509471
508.46450,-1.65073417
508.46500,-2.261122986
508.46550,-2.871511801
508.46600,-4.092289432
508.46650,-5.007872655
508.46700,-5.007872655
508.46750,-3.787095024
508.46800,-2.261122986
508.46850,-1.345539762
508.46900,-2.566317393
508.46950,-4.092289432
508.47000,-4.702678247
508.47050,-3.787095024
508.47100,-2.261122986
508.47150,-1.955928578
508.47200,-2.566317393
508.47250,-3.176706209
508.47300,-3.176706209
508.47350,-2.566317393
508.47400,-1.955928578
508.47450,-2.566317393
508.47500,-5.61826147
508.47550,-8.975399955
508.47600,-10.19617759
508.47650,-9.280594363
508.47700,-8.36501114
508.47750,-7.754622324
508.47800,-5.923455878
508.47850,-2.871511801
508.47900,-1.65073417
508.47950,-1.345539762
508.48000,2.31679313
508.48050,12.08301418
508.48100,19.71287437
508.48150,19.10248555
508.48200,11.77781977
508.48250,5.979126022
508.48300,4.758348392
508.48350,4.453153984
508.48400,2.31679313
508.48450,0.7908210914
508.48500,1.706404315
508.48550,2.621987538
508.48600,1.401209907
508.48650,0.180432276
508.48700,0.180432276
508.48750,0.7908210914
508.48800,0.180432276
508.48850,-1.040345355
508.48900,-1.345539762
508.48950,-0.1247621317
508.49000,0.180432276
508.49050,-0.4299565394
508.49100,-1.345539762
508.49150,-1.65073417
508.49200,-1.040345355
508.49250,-0.1247621317
508.49300,0.4856266837
508.49350,0.7908210914
508.49400,0.7908210914
508.49450,1.401209907
508.49500,3.537570761
508.49550,5.979126022
508.49600,6.894709245
508.49650,5.368737207
508.49700,3.232376353
508.49750,2.31679313
508.49800,2.011598722
508.49850,1.096015499
508.49900,-0.1247621317
508.49950,-1.040345355
508.50000,-0.4299565394
508.50050,-0.1247621317
508.50100,0.180432276
508.50150,0.180432276
508.50200,0.4856266837
508.50250,-0.1247621317
508.50300,-1.345539762
508.50350,-2.261122986
508.50400,-1.955928578
508.50450,-1.65073417
508.50500,-2.566317393
508.50550,-3.787095024
508.50600,-4.702678247
508.50650,-4.092289432
508.50700,-3.176706209
508.50750,-2.871511801
508.50800,-3.787095024
508.50850,-4.702678247
508.50900,-4.702678247
508.50950,-3.176706209
508.51000,-2.261122986
508.51050,-3.481900616
508.51100,-4.702678247
508.51150,-3.787095024
508.51200,-1.955928578
508.51250,-1.65073417
508.51300,-2.566317393
508.51350,-2.261122986
508.51400,-1.040345355
508.51450,-1.65073417
508.51500,-3.176706209
508.51550,-2.566317393
508.51600,-0.1247621317
508.51650,1.401209907
508.51700,0.7908210914
508.51750,0.4856266837
508.51800,1.096015499
508.51850,0.7908210914
508.51900,-1.040345355
508.51950,-1.955928578
508.52000,0.180432276
508.52050,2.31679313
508.52100,2.011598722
508.52150,0.7908210914
508.52200,1.401209907
508.52250,2.011598722
508.52300,1.401209907
508.52350,0.7908210914
508.52400,1.706404315
508.52450,2.621987538
508.52500,1.706404315
508.52550,0.4856266837
508.52600,1.096015499
508.52650,0.180432276
508.52700,-5.313067063
508.52750,-12.33253844
508.52800,-14.46889929
508.52850,-10.8065664
508.52900,-7.144233509
508.52950,-6.839039101
508.53000,-6.533844693
508.53050,-4.39748384
508.53100,-1.345539762
508.53150,-0.4299565394
508.53200,-1.345539762
508.53250,-2.261122986
508.53300,-2.566317393
508.53350,-3.481900616
508.53400,-5.007872655
508.53450,-6.839039101
508.53500,-8.36501114
508.53550,-8.670205547
508.53600,-6.533844693
508.53650,-4.092289432
508.53700,-4.39748384
508.53750,-6.839039101
508.53800,-7.754622324
508.53850,-2.566317393
508.53900,6.28432043
508.53950,13.60898621
508.54000,14.52456944
508.54050,10.25184773
508.54100,5.673931615
508.54150,3.232376353
508.54200,2.621987538
508.54250,1.706404315
508.54300,0.7908210914
508.54350,-0.1247621317
508.54400,-0.7351509471
508.54450,-1.65073417
508.54500,-1.955928578
508.54550,-1.65073417
508.54600,-1.040345355
508.54650,-1.955928578
508.54700,-4.39748384
508.54750,-5.61826147
508.54800,-5.007872655
508.54850,-3.176706209
508.54900,-1.65073417
508.54950,-1.040345355
508.55000,-0.4299565394
508.55050,-0.1247621317
508.55100,-0.1247621317
508.55150,-0.1247621317
508.55200,-0.1247621317
508.55250,-0.1247621317
508.55300,-0.1247621317
508.55350,-0.1247621317
508.55400,-0.4299565394
508.55450,-0.1247621317
508.55500,0.180432276
508.55550,0.7908210914
508.55600,0.7908210914
508.55650,-0.1247621317
508.55700,-0.1247621317
508.55750,1.401209907
508.55800,2.621987538
508.55850,2.31679313
508.55900,1.706404315
508.55950,1.401209907
508.56000,2.011598722
508.56050,2.011598722
508.56100,1.401209907
508.56150,0.7908210914
508.56200,1.096015499
508.56250,1.401209907
508.56300,1.401209907
508.56350,0.7908210914
508.56400,-0.1247621317
508.56450,-1.345539762
508.56500,-2.871511801
508.56550,-3.176706209
508.56600,-1.65073417
508.56650,0.180432276
