"type","name","time_units","begin_time","frequency","count","units"
"signal","Ultium EMG-FLEX.CAPR.U RT","s",21.98000,2000,22000,"uV"

"time","value"
21.98000,-6.367901907
21.98050,-6.978290722
21.98100,-4.841929869
21.98150,-2.705569015
21.98200,-3.621152238
21.98250,-7.588679538
21.98300,-10.33542921
21.98350,-8.809457169
21.98400,-4.536735461
21.98450,-2.400374607
21.98500,-2.400374607
21.98550,-1.484791384
21.98600,2.787930324
21.98650,7.976235255
21.98700,9.807401701
21.98750,7.671040847
21.98800,5.229485586
21.98850,3.398319139
21.98900,1.872347101
21.98950,0.04118065471
21.99000,-0.8744025684
21.99050,0.04118065471
21.99100,2.787930324
21.99150,4.924291178
21.99200,5.229485586
21.99250,2.787930324
21.99300,-0.264013753
21.99350,-0.8744025684
21.99400,1.872347101
21.99450,4.61909677
21.99500,4.61909677
21.99550,4.313902363
21.99600,5.229485586
21.99650,3.703513547
21.99700,-2.705569015
21.99750,-9.419845984
21.99800,-8.504262761
21.99850,-2.095180199
21.99900,0.04118065471
21.99950,-3.926346645
22.00000,-6.673096315
22.00050,-3.010763422
22.00100,2.177541509
22.00150,2.482735916
22.00200,-0.264013753
22.00250,-2.400374607
22.00300,-3.31595783
22.00350,-3.621152238
22.00400,-2.705569015
22.00450,-1.484791384
22.00500,-2.400374607
22.00550,-5.147124276
22.00600,-4.536735461
22.00650,1.872347101
22.00700,8.891818478
22.00750,8.281429663
22.00800,1.872347101
22.00850,-2.095180199
22.00900,-0.8744025684
22.00950,1.872347101
22.01000,1.872347101
22.01050,0.6515694701
22.01100,0.3463750624
22.01150,1.567152693
22.01200,1.261958286
22.01250,-0.8744025684
22.01300,-4.536735461
22.01350,-7.28348513
22.01400,-7.28348513
22.01450,-4.536735461
22.01500,-0.264013753
22.01550,3.398319139
22.01600,5.839874401
22.01650,6.450263216
22.01700,5.839874401
22.01750,5.229485586
22.01800,4.008707955
22.01850,3.093124732
22.01900,2.787930324
22.01950,3.398319139
22.02000,3.398319139
22.02050,0.9567638778
22.02100,-3.621152238
22.02150,-7.588679538
22.02200,-6.978290722
22.02250,-2.705569015
22.02300,0.04118065471
22.02350,-1.484791384
22.02400,-4.841929869
22.02450,-5.452318684
22.02500,-2.705569015
22.02550,0.04118065471
22.02600,0.04118065471
22.02650,-2.095180199
22.02700,-4.536735461
22.02750,-5.452318684
22.02800,-5.147124276
22.02850,-5.452318684
22.02900,-6.673096315
22.02950,-6.673096315
22.03000,-2.400374607
22.03050,5.534679993
22.03100,13.46973459
22.03150,15.91128986
22.03200,14.38531782
22.03250,13.774929
22.03300,14.38531782
22.03350,14.08012341
22.03400,12.24895696
22.03450,12.55415137
22.03500,16.52167867
22.03550,16.52167867
22.03600,4.924291178
22.03650,-14.30295651
22.03700,-26.81592722
22.03750,-24.37437196
22.03800,-14.91334532
22.03850,-9.725040392
22.03900,-10.94581802
22.03950,-10.94581802
22.04000,-6.367901907
22.04050,-1.179596976
22.04100,-0.8744025684
22.04150,-4.231541053
22.04200,-7.28348513
22.04250,-8.809457169
22.04300,-8.504262761
22.04350,-4.841929869
22.04400,2.482735916
22.04450,10.11259611
22.04500,12.85934578
22.04550,8.281429663
22.04600,0.04118065471
22.04650,-6.978290722
22.04700,-11.25101243
22.04750,-13.38737328
22.04800,-13.38737328
22.04850,-11.25101243
22.04900,-5.147124276
22.04950,4.008707955
22.05000,14.08012341
22.05050,19.87881716
22.05100,17.43726189
22.05150,9.197012886
22.05200,0.04118065471
22.05250,-6.978290722
22.05300,-9.419845984
22.05350,-6.673096315
22.05400,0.04118065471
22.05450,7.36584644
22.05500,7.976235255
22.05550,0.6515694701
22.05600,-8.199068353
22.05650,-10.33542921
22.05700,-3.010763422
22.05750,5.229485586
22.05800,7.060652032
22.05850,2.787930324
22.05900,-0.264013753
22.05950,0.9567638778
22.06000,3.398319139
22.06050,2.177541509
22.06100,-0.8744025684
22.06150,-1.484791384
22.06200,1.261958286
22.06250,4.313902363
22.06300,5.534679993
22.06350,6.450263216
22.06400,7.671040847
22.06450,7.671040847
22.06500,4.61909677
22.06550,1.567152693
22.06600,0.6515694701
22.06650,0.9567638778
22.06700,0.9567638778
22.06750,0.9567638778
22.06800,1.567152693
22.06850,1.567152693
22.06900,0.6515694701
22.06950,0.9567638778
22.07000,3.093124732
22.07050,5.534679993
22.07100,5.534679993
22.07150,3.703513547
22.07200,2.787930324
22.07250,3.703513547
22.07300,3.398319139
22.07350,0.9567638778
22.07400,-1.179596976
22.07450,0.04118065471
22.07500,3.093124732
22.07550,4.008707955
22.07600,0.3463750624
22.07650,-3.31595783
22.07700,-3.621152238
22.07750,-2.095180199
22.07800,-2.095180199
22.07850,-2.705569015
22.07900,-1.484791384
22.07950,0.04118065471
22.08000,-2.095180199
22.08050,-5.452318684
22.08100,-3.010763422
22.08150,4.313902363
22.08200,7.36584644
22.08250,0.04118065471
22.08300,-10.64062361
22.08350,-14.91334532
22.08400,-9.419845984
22.08450,0.04118065471
22.08500,6.145068809
22.08550,7.671040847
22.08600,5.229485586
22.08650,2.482735916
22.08700,2.482735916
22.08750,4.924291178
22.08800,6.145068809
22.08850,4.313902363
22.08900,1.872347101
22.08950,0.9567638778
22.09000,0.9567638778
22.09050,0.3463750624
22.09100,0.3463750624
22.09150,3.093124732
22.09200,6.145068809
22.09250,5.534679993
22.09300,2.177541509
22.09350,-0.5692081607
22.09400,-0.5692081607
22.09450,-0.8744025684
22.09500,-3.31595783
22.09550,-6.978290722
22.09600,-8.809457169
22.09650,-7.28348513
22.09700,-4.536735461
22.09750,-2.400374607
22.09800,-1.179596976
22.09850,0.3463750624
22.09900,2.787930324
22.09950,3.093124732
22.10000,1.567152693
22.10050,0.6515694701
22.10100,1.567152693
22.10150,3.093124732
22.10200,3.398319139
22.10250,1.567152693
22.10300,0.04118065471
22.10350,-1.179596976
22.10400,-1.179596976
22.10450,0.04118065471
22.10500,1.261958286
22.10550,0.6515694701
22.10600,-1.484791384
22.10650,-3.31595783
22.10700,-2.095180199
22.10750,0.04118065471
22.10800,0.04118065471
22.10850,-1.179596976
22.10900,-2.400374607
22.10950,-3.621152238
22.11000,-6.062707499
22.11050,-8.504262761
22.11100,-7.893873946
22.11150,-3.926346645
22.11200,0.3463750624
22.11250,2.482735916
22.11300,1.872347101
22.11350,0.04118065471
22.11400,-1.789985791
22.11450,-3.010763422
22.11500,-3.621152238
22.11550,-4.536735461
22.11600,-6.673096315
22.11650,-8.199068353
22.11700,-7.588679538
22.11750,-4.231541053
22.11800,-1.179596976
22.11850,0.6515694701
22.11900,1.872347101
22.11950,2.482735916
22.12000,2.177541509
22.12050,0.04118065471
22.12100,-3.621152238
22.12150,-6.673096315
22.12200,-5.452318684
22.12250,0.6515694701
22.12300,8.58662407
22.12350,10.41779052
22.12400,3.093124732
22.12450,-6.673096315
22.12500,-9.725040392
22.12550,-5.757513092
22.12600,-1.484791384
22.12650,-0.8744025684
22.12700,-2.095180199
22.12750,-2.705569015
22.12800,-3.010763422
22.12850,-2.400374607
22.12900,0.9567638778
22.12950,5.839874401
22.13000,6.755457624
22.13050,3.398319139
22.13100,1.872347101
22.13150,3.093124732
22.13200,3.093124732
22.13250,0.04118065471
22.13300,0.9567638778
22.13350,7.671040847
22.13400,10.41779052
22.13450,3.398319139
22.13500,-3.926346645
22.13550,0.04118065471
22.13600,10.72298492
22.13650,10.41779052
22.13700,-4.231541053
22.13750,-18.57567822
22.13800,-20.71203907
22.13850,-14.91334532
22.13900,-9.725040392
22.13950,-6.367901907
22.14000,-1.484791384
22.14050,3.093124732
22.14100,4.61909677
22.14150,3.703513547
22.14200,4.008707955
22.14250,5.229485586
22.14300,5.839874401
22.14350,6.145068809
22.14400,6.145068809
22.14450,5.534679993
22.14500,3.398319139
22.14550,0.3463750624
22.14600,-2.400374607
22.14650,-5.452318684
22.14700,-6.673096315
22.14750,-4.841929869
22.14800,-2.705569015
22.14850,-3.010763422
22.14900,-3.621152238
22.14950,0.04118065471
22.15000,7.671040847
22.15050,11.63856815
22.15100,8.281429663
22.15150,1.261958286
22.15200,-3.31595783
22.15250,-3.621152238
22.15300,0.6515694701
22.15350,8.58662407
22.15400,14.69051222
22.15450,11.02817933
22.15500,-0.8744025684
22.15550,-10.94581802
22.15600,-10.64062361
22.15650,-3.621152238
22.15700,1.261958286
22.15750,2.787930324
22.15800,2.787930324
22.15850,2.787930324
22.15900,2.177541509
22.15950,1.872347101
22.16000,3.093124732
22.16050,4.924291178
22.16100,5.229485586
22.16150,5.229485586
22.16200,5.229485586
22.16250,3.703513547
22.16300,-0.5692081607
22.16350,-5.147124276
22.16400,-6.367901907
22.16450,-5.757513092
22.16500,-5.757513092
22.16550,-5.147124276
22.16600,-2.095180199
22.16650,1.261958286
22.16700,1.872347101
22.16750,0.04118065471
22.16800,-1.789985791
22.16850,-2.705569015
22.16900,-3.010763422
22.16950,-2.095180199
22.17000,0.04118065471
22.17050,1.872347101
22.17100,4.61909677
22.17150,8.281429663
22.17200,11.94376256
22.17250,12.55415137
22.17300,9.502207293
22.17350,5.229485586
22.17400,1.567152693
22.17450,-1.789985791
22.17500,-4.231541053
22.17550,-3.31595783
22.17600,0.04118065471
22.17650,0.6515694701
22.17700,-3.31595783
22.17750,-6.062707499
22.17800,-1.179596976
22.17850,7.671040847
22.17900,11.33337374
22.17950,7.060652032
22.18000,0.04118065471
22.18050,-3.621152238
22.18100,-4.536735461
22.18150,-3.926346645
22.18200,-3.621152238
22.18250,-4.231541053
22.18300,-5.757513092
22.18350,-6.062707499
22.18400,-3.010763422
22.18450,2.482735916
22.18500,7.976235255
22.18550,8.891818478
22.18600,3.703513547
22.18650,-4.231541053
22.18700,-10.0302348
22.18750,-8.809457169
22.18800,-2.400374607
22.18850,2.787930324
22.18900,3.703513547
22.18950,2.787930324
22.19000,3.093124732
22.19050,4.313902363
22.19100,4.313902363
22.19150,4.008707955
22.19200,4.008707955
22.19250,3.093124732
22.19300,0.04118065471
22.19350,-4.536735461
22.19400,-5.452318684
22.19450,-2.095180199
22.19500,0.3463750624
22.19550,-2.095180199
22.19600,-8.504262761
22.19650,-10.64062361
22.19700,-3.926346645
22.19750,6.145068809
22.19800,11.94376256
22.19850,10.72298492
22.19900,7.060652032
22.19950,4.924291178
22.20000,2.177541509
22.20050,-2.400374607
22.20100,-7.893873946
22.20150,-11.55620684
22.20200,-12.77698447
22.20250,-12.16659565
22.20300,-8.809457169
22.20350,-3.926346645
22.20400,0.04118065471
22.20450,2.787930324
22.20500,7.671040847
22.20550,13.46973459
22.20600,13.46973459
22.20650,4.924291178
22.20700,-3.926346645
22.20750,-3.621152238
22.20800,2.177541509
22.20850,2.177541509
22.20900,-6.673096315
22.20950,-14.91334532
22.21000,-13.9977621
22.21050,-8.199068353
22.21100,-3.926346645
22.21150,-2.095180199
22.21200,-0.264013753
22.21250,1.261958286
22.21300,1.261958286
22.21350,0.3463750624
22.21400,0.3463750624
22.21450,1.261958286
22.21500,0.6515694701
22.21550,-1.179596976
22.21600,-3.31595783
22.21650,-5.757513092
22.21700,-9.725040392
22.21750,-11.55620684
22.21800,-6.673096315
22.21850,0.6515694701
22.21900,3.093124732
22.21950,-1.789985791
22.22000,-4.841929869
22.22050,2.177541509
22.22100,15.30090104
22.22150,21.40478919
22.22200,16.52167867
22.22250,9.197012886
22.22300,7.36584644
22.22350,6.450263216
22.22400,-0.5692081607
22.22450,-13.08217888
22.22500,-18.88087262
22.22550,-13.08217888
22.22600,-2.095180199
22.22650,3.703513547
22.22700,3.093124732
22.22750,0.3463750624
22.22800,-0.5692081607
22.22850,-0.5692081607
22.22900,-0.5692081607
22.22950,0.04118065471
22.23000,1.872347101
22.23050,3.703513547
22.23100,5.839874401
22.23150,7.976235255
22.23200,9.197012886
22.23250,7.671040847
22.23300,3.093124732
22.23350,-0.264013753
22.23400,-0.264013753
22.23450,1.261958286
22.23500,0.6515694701
22.23550,-4.536735461
22.23600,-10.94581802
22.23650,-12.16659565
22.23700,-6.978290722
22.23750,0.04118065471
22.23800,3.398319139
22.23850,3.398319139
22.23900,2.482735916
22.23950,1.872347101
22.24000,1.567152693
22.24050,1.567152693
22.24100,1.872347101
22.24150,1.872347101
22.24200,-0.5692081607
22.24250,-5.452318684
22.24300,-9.114651576
22.24350,-8.199068353
22.24400,-4.231541053
22.24450,-0.264013753
22.24500,1.261958286
22.24550,0.6515694701
22.24600,-2.095180199
22.24650,-4.841929869
22.24700,-4.841929869
22.24750,-1.484791384
22.24800,1.872347101
22.24850,3.398319139
22.24900,3.398319139
22.24950,3.703513547
22.25000,4.313902363
22.25050,4.008707955
22.25100,3.093124732
22.25150,2.482735916
22.25200,2.482735916
22.25250,3.093124732
22.25300,5.534679993
22.25350,9.197012886
22.25400,10.72298492
22.25450,9.502207293
22.25500,7.060652032
22.25550,5.534679993
22.25600,4.313902363
22.25650,3.703513547
22.25700,4.008707955
22.25750,3.703513547
22.25800,0.3463750624
22.25850,-5.757513092
22.25900,-9.725040392
22.25950,-7.28348513
22.26000,-3.31595783
22.26050,-3.621152238
22.26100,-6.978290722
22.26150,-6.978290722
22.26200,-1.789985791
22.26250,3.703513547
22.26300,5.534679993
22.26350,4.61909677
22.26400,4.924291178
22.26450,7.671040847
22.26500,12.24895696
22.26550,15.30090104
22.26600,12.85934578
22.26650,3.703513547
22.26700,-8.809457169
22.26750,-17.9652894
22.26800,-18.88087262
22.26850,-14.30295651
22.26900,-8.809457169
22.26950,-6.978290722
22.27000,-8.809457169
22.27050,-10.64062361
22.27100,-6.978290722
22.27150,1.261958286
22.27200,8.58662407
22.27250,8.58662407
22.27300,3.398319139
22.27350,-2.095180199
22.27400,-6.062707499
22.27450,-9.419845984
22.27500,-10.64062361
22.27550,-9.114651576
22.27600,-5.452318684
22.27650,-2.705569015
22.27700,-0.8744025684
22.27750,0.6515694701
22.27800,2.482735916
22.27850,2.787930324
22.27900,2.787930324
22.27950,4.008707955
22.28000,5.534679993
22.28050,5.534679993
22.28100,5.229485586
22.28150,6.755457624
22.28200,8.58662407
22.28250,6.755457624
22.28300,-0.5692081607
22.28350,-9.725040392
22.28400,-14.91334532
22.28450,-13.69256769
22.28500,-7.588679538
22.28550,-2.705569015
22.28600,-2.095180199
22.28650,-3.926346645
22.28700,-3.31595783
22.28750,-0.5692081607
22.28800,0.3463750624
22.28850,1.567152693
22.28900,5.839874401
22.28950,12.55415137
22.29000,15.30090104
22.29050,12.55415137
22.29100,8.891818478
22.29150,7.976235255
22.29200,6.450263216
22.29250,0.9567638778
22.29300,-4.841929869
22.29350,-7.588679538
22.29400,-9.725040392
22.29450,-12.77698447
22.29500,-12.16659565
22.29550,-4.231541053
22.29600,4.61909677
22.29650,7.060652032
22.29700,3.703513547
22.29750,0.9567638778
22.29800,-0.264013753
22.29850,-3.621152238
22.29900,-7.893873946
22.29950,-8.504262761
22.30000,-4.536735461
22.30050,-0.264013753
22.30100,1.872347101
22.30150,3.093124732
22.30200,3.703513547
22.30250,3.093124732
22.30300,4.313902363
22.30350,8.58662407
22.30400,11.02817933
22.30450,6.450263216
22.30500,-1.484791384
22.30550,-5.452318684
22.30600,-5.452318684
22.30650,-7.893873946
22.30700,-11.86140125
22.30750,-8.199068353
22.30800,6.145068809
22.30850,20.79440038
22.30900,22.62556682
22.30950,13.46973459
22.31000,3.398319139
22.31050,-2.095180199
22.31100,-5.757513092
22.31150,-9.114651576
22.31200,-8.809457169
22.31250,-4.536735461
22.31300,0.6515694701
22.31350,4.008707955
22.31400,5.839874401
22.31450,6.450263216
22.31500,3.703513547
22.31550,0.04118065471
22.31600,0.04118065471
22.31650,4.61909677
22.31700,9.502207293
22.31750,9.502207293
22.31800,6.450263216
22.31850,5.229485586
22.31900,4.313902363
22.31950,-0.264013753
22.32000,-8.199068353
22.32050,-11.86140125
22.32100,-9.114651576
22.32150,-4.536735461
22.32200,-3.31595783
22.32250,-3.010763422
22.32300,-0.264013753
22.32350,3.398319139
22.32400,4.008707955
22.32450,0.9567638778
22.32500,-2.705569015
22.32550,-6.673096315
22.32600,-9.114651576
22.32650,-8.504262761
22.32700,-5.757513092
22.32750,-3.31595783
22.32800,-3.621152238
22.32850,-3.926346645
22.32900,-0.8744025684
22.32950,3.093124732
22.33000,4.008707955
22.33050,1.567152693
22.33100,0.04118065471
22.33150,2.177541509
22.33200,5.839874401
22.33250,8.58662407
22.33300,10.11259611
22.33350,8.891818478
22.33400,4.924291178
22.33450,0.6515694701
22.33500,0.04118065471
22.33550,2.482735916
22.33600,4.008707955
22.33650,2.482735916
22.33700,0.04118065471
22.33750,-0.5692081607
22.33800,-0.5692081607
22.33850,-1.179596976
22.33900,-2.095180199
22.33950,-2.705569015
22.34000,-3.010763422
22.34050,-3.926346645
22.34100,-4.231541053
22.34150,-3.31595783
22.34200,-2.095180199
22.34250,-2.095180199
22.34300,-3.010763422
22.34350,-1.789985791
22.34400,2.482735916
22.34450,6.755457624
22.34500,5.534679993
22.34550,-0.264013753
22.34600,-4.536735461
22.34650,-2.095180199
22.34700,2.482735916
22.34750,3.703513547
22.34800,1.567152693
22.34850,0.3463750624
22.34900,0.6515694701
22.34950,-1.179596976
22.35000,-4.841929869
22.35050,-3.621152238
22.35100,6.145068809
22.35150,17.43726189
22.35200,19.26842834
22.35250,9.502207293
22.35300,-3.010763422
22.35350,-9.725040392
22.35400,-8.504262761
22.35450,-3.926346645
22.35500,0.04118065471
22.35550,2.787930324
22.35600,3.093124732
22.35650,0.04118065471
22.35700,-5.147124276
22.35750,-6.673096315
22.35800,-3.621152238
22.35850,-0.8744025684
22.35900,-2.705569015
22.35950,-6.062707499
22.36000,-5.147124276
22.36050,-0.8744025684
22.36100,0.04118065471
22.36150,-2.705569015
22.36200,-4.841929869
22.36250,-3.010763422
22.36300,0.6515694701
22.36350,3.703513547
22.36400,6.755457624
22.36450,8.281429663
22.36500,6.450263216
22.36550,3.093124732
22.36600,2.177541509
22.36650,2.787930324
22.36700,0.3463750624
22.36750,-3.621152238
22.36800,-3.010763422
22.36850,3.398319139
22.36900,6.450263216
22.36950,-0.5692081607
22.37000,-10.0302348
22.37050,-11.55620684
22.37100,-6.367901907
22.37150,-3.010763422
22.37200,-3.621152238
22.37250,-3.621152238
22.37300,-1.179596976
22.37350,0.6515694701
22.37400,1.872347101
22.37450,5.534679993
22.37500,10.11259611
22.37550,9.502207293
22.37600,2.482735916
22.37650,-3.926346645
22.37700,-5.452318684
22.37750,-3.010763422
22.37800,-1.179596976
22.37850,0.04118065471
22.37900,3.398319139
22.37950,7.36584644
22.38000,7.36584644
22.38050,2.787930324
22.38100,-2.095180199
22.38150,-5.757513092
22.38200,-9.114651576
22.38250,-13.69256769
22.38300,-15.21853973
22.38350,-11.86140125
22.38400,-6.367901907
22.38450,-3.621152238
22.38500,-2.095180199
22.38550,0.9567638778
22.38600,4.313902363
22.38650,2.482735916
22.38700,-3.621152238
22.38750,-6.978290722
22.38800,-4.231541053
22.38850,0.04118065471
22.38900,0.9567638778
22.38950,1.261958286
22.39000,3.398319139
22.39050,5.534679993
22.39100,4.61909677
22.39150,2.177541509
22.39200,2.787930324
22.39250,5.839874401
22.39300,6.450263216
22.39350,3.703513547
22.39400,1.261958286
22.39450,1.872347101
22.39500,3.398319139
22.39550,2.177541509
22.39600,-0.8744025684
22.39650,-3.010763422
22.39700,-2.095180199
22.39750,-0.264013753
22.39800,-0.8744025684
22.39850,-4.841929869
22.39900,-8.504262761
22.39950,-9.114651576
22.40000,-7.28348513
22.40050,-5.452318684
22.40100,-5.147124276
22.40150,-3.31595783
22.40200,0.9567638778
22.40250,7.060652032
22.40300,11.02817933
22.40350,12.24895696
22.40400,12.24895696
22.40450,11.94376256
22.40500,11.02817933
22.40550,10.11259611
22.40600,9.807401701
22.40650,10.11259611
22.40700,9.807401701
22.40750,7.060652032
22.40800,2.787930324
22.40850,-0.8744025684
22.40900,-3.31595783
22.40950,-4.231541053
22.41000,-4.841929869
22.41050,-6.978290722
22.41100,-9.725040392
22.41150,-10.94581802
22.41200,-9.114651576
22.41250,-5.452318684
22.41300,-2.705569015
22.41350,-1.789985791
22.41400,-0.5692081607
22.41450,1.872347101
22.41500,3.703513547
22.41550,2.787930324
22.41600,0.3463750624
22.41650,-0.264013753
22.41700,-0.5692081607
22.41750,-1.789985791
22.41800,-2.095180199
22.41850,1.261958286
22.41900,6.755457624
22.41950,7.671040847
22.42000,3.703513547
22.42050,0.9567638778
22.42100,4.313902363
22.42150,9.197012886
22.42200,9.197012886
22.42250,3.093124732
22.42300,-5.757513092
22.42350,-14.30295651
22.42400,-18.88087262
22.42450,-15.52373414
22.42500,-6.367901907
22.42550,0.6515694701
22.42600,1.261958286
22.42650,0.3463750624
22.42700,2.177541509
22.42750,4.61909677
22.42800,3.398319139
22.42850,2.482735916
22.42900,6.145068809
22.42950,8.58662407
22.43000,3.093124732
22.43050,-5.452318684
22.43100,-5.452318684
22.43150,4.008707955
22.43200,11.33337374
22.43250,8.891818478
22.43300,0.9567638778
22.43350,-6.062707499
22.43400,-13.08217888
22.43450,-18.57567822
22.43500,-17.9652894
22.43550,-11.25101243
22.43600,-5.147124276
22.43650,-3.31595783
22.43700,-2.095180199
22.43750,0.3463750624
22.43800,-0.264013753
22.43850,-6.062707499
22.43900,-10.0302348
22.43950,-6.062707499
22.44000,1.261958286
22.44050,4.924291178
22.44100,3.398319139
22.44150,2.177541509
22.44200,3.703513547
22.44250,4.313902363
22.44300,1.261958286
22.44350,-2.705569015
22.44400,-5.452318684
22.44450,-4.231541053
22.44500,-1.484791384
22.44550,0.04118065471
22.44600,-0.5692081607
22.44650,-0.8744025684
22.44700,1.872347101
22.44750,6.755457624
22.44800,8.891818478
22.44850,7.671040847
22.44900,5.534679993
22.44950,4.008707955
22.45000,3.398319139
22.45050,3.093124732
22.45100,4.61909677
22.45150,7.060652032
22.45200,7.36584644
22.45250,4.61909677
22.45300,1.872347101
22.45350,1.872347101
22.45400,4.008707955
22.45450,5.534679993
22.45500,6.145068809
22.45550,6.755457624
22.45600,7.060652032
22.45650,5.534679993
22.45700,0.9567638778
22.45750,-3.621152238
22.45800,-3.621152238
22.45850,2.177541509
22.45900,8.58662407
22.45950,8.58662407
22.46000,0.9567638778
22.46050,-7.588679538
22.46100,-10.94581802
22.46150,-9.725040392
22.46200,-8.809457169
22.46250,-10.0302348
22.46300,-10.94581802
22.46350,-9.419845984
22.46400,-7.588679538
22.46450,-6.062707499
22.46500,-3.926346645
22.46550,0.04118065471
22.46600,4.313902363
22.46650,5.839874401
22.46700,4.313902363
22.46750,1.872347101
22.46800,0.9567638778
22.46850,0.9567638778
22.46900,0.6515694701
22.46950,0.04118065471
22.47000,-0.5692081607
22.47050,0.04118065471
22.47100,1.872347101
22.47150,3.398319139
22.47200,5.229485586
22.47250,6.755457624
22.47300,5.534679993
22.47350,0.3463750624
22.47400,-6.367901907
22.47450,-10.33542921
22.47500,-10.0302348
22.47550,-7.588679538
22.47600,-5.757513092
22.47650,-3.010763422
22.47700,1.567152693
22.47750,5.229485586
22.47800,5.534679993
22.47850,3.093124732
22.47900,1.261958286
22.47950,0.04118065471
22.48000,-1.789985791
22.48050,-3.31595783
22.48100,-1.179596976
22.48150,4.313902363
22.48200,10.41779052
22.48250,13.774929
22.48300,14.08012341
22.48350,12.85934578
22.48400,11.33337374
22.48450,11.33337374
22.48500,14.38531782
22.48550,16.52167867
22.48600,11.33337374
22.48650,-2.400374607
22.48700,-17.04970618
22.48750,-21.62762229
22.48800,-13.9977621
22.48850,-3.010763422
22.48900,0.3463750624
22.48950,-5.757513092
22.49000,-14.60815091
22.49050,-16.13412295
22.49100,-10.64062361
22.49150,-5.147124276
22.49200,-4.841929869
22.49250,-6.673096315
22.49300,-4.841929869
22.49350,-0.8744025684
22.49400,-0.5692081607
22.49450,-5.452318684
22.49500,-10.33542921
22.49550,-10.33542921
22.49600,-7.28348513
22.49650,-3.926346645
22.49700,-1.179596976
22.49750,2.177541509
22.49800,4.61909677
22.49850,4.924291178
22.49900,5.534679993
22.49950,9.197012886
22.50000,13.774929
22.50050,14.69051222
22.50100,10.72298492
22.50150,6.145068809
22.50200,4.008707955
22.50250,3.398319139
22.50300,3.093124732
22.50350,3.093124732
22.50400,3.093124732
22.50450,2.482735916
22.50500,1.567152693
22.50550,1.261958286
22.50600,1.567152693
22.50650,3.093124732
22.50700,5.534679993
22.50750,9.807401701
22.50800,14.38531782
22.50850,15.91128986
22.50900,10.41779052
22.50950,-0.8744025684
22.51000,-12.47179006
22.51050,-16.13412295
22.51100,-9.725040392
22.51150,0.3463750624
22.51200,5.534679993
22.51250,2.787930324
22.51300,-3.010763422
22.51350,-6.978290722
22.51400,-7.28348513
22.51450,-5.147124276
22.51500,-3.31595783
22.51550,-3.926346645
22.51600,-7.588679538
22.51650,-10.94581802
22.51700,-10.33542921
22.51750,-6.367901907
22.51800,-1.484791384
22.51850,0.9567638778
22.51900,2.787930324
22.51950,2.787930324
22.52000,0.04118065471
22.52050,-3.621152238
22.52100,-4.841929869
22.52150,-2.095180199
22.52200,0.04118065471
22.52250,-1.484791384
22.52300,-5.452318684
22.52350,-6.367901907
22.52400,-3.621152238
22.52450,-0.5692081607
22.52500,0.3463750624
22.52550,0.9567638778
22.52600,0.04118065471
22.52650,-3.926346645
22.52700,-10.64062361
22.52750,-13.9977621
22.52800,-10.0302348
22.52850,-2.095180199
22.52900,3.398319139
22.52950,4.61909677
22.53000,4.008707955
22.53050,3.703513547
22.53100,3.398319139
22.53150,2.787930324
22.53200,3.093124732
22.53250,4.008707955
22.53300,3.703513547
22.53350,1.872347101
22.53400,2.177541509
22.53450,5.534679993
22.53500,6.450263216
22.53550,0.04118065471
22.53600,-10.0302348
22.53650,-14.30295651
22.53700,-10.64062361
22.53750,-4.841929869
22.53800,-0.8744025684
22.53850,1.567152693
22.53900,4.313902363
22.53950,5.534679993
22.54000,4.61909677
22.54050,4.008707955
22.54100,5.839874401
22.54150,8.58662407
22.54200,8.58662407
22.54250,4.61909677
22.54300,-1.484791384
22.54350,-7.28348513
22.54400,-10.0302348
22.54450,-8.809457169
22.54500,-5.147124276
22.54550,-0.264013753
22.54600,4.61909677
22.54650,9.807401701
22.54700,11.63856815
22.54750,9.807401701
22.54800,5.839874401
22.54850,2.482735916
22.54900,0.6515694701
22.54950,1.261958286
22.55000,3.398319139
22.55050,4.61909677
22.55100,3.703513547
22.55150,3.703513547
22.55200,8.281429663
22.55250,12.85934578
22.55300,8.891818478
22.55350,-2.400374607
22.55400,-10.64062361
22.55450,-9.725040392
22.55500,-5.147124276
22.55550,-2.400374607
22.55600,-1.484791384
22.55650,-1.789985791
22.55700,-6.978290722
22.55750,-15.82892855
22.55800,-19.18606703
22.55850,-12.77698447
22.55900,-3.621152238
22.55950,1.567152693
22.56000,4.924291178
22.56050,8.58662407
22.56100,7.060652032
22.56150,-1.484791384
22.56200,-8.199068353
22.56250,-3.010763422
22.56300,7.060652032
22.56350,8.891818478
22.56400,0.04118065471
22.56450,-7.588679538
22.56500,-5.757513092
22.56550,2.177541509
22.56600,8.58662407
22.56650,10.11259611
22.56700,7.36584644
22.56750,3.398319139
22.56800,2.177541509
22.56850,3.703513547
22.56900,3.703513547
22.56950,-1.179596976
22.57000,-9.114651576
22.57050,-15.21853973
22.57100,-16.13412295
22.57150,-11.55620684
22.57200,-1.179596976
22.57250,9.807401701
22.57300,14.08012341
22.57350,8.891818478
22.57400,2.787930324
22.57450,3.703513547
22.57500,7.976235255
22.57550,6.450263216
22.57600,-0.8744025684
22.57650,-5.147124276
22.57700,-3.010763422
22.57750,0.04118065471
22.57800,0.04118065471
22.57850,0.3463750624
22.57900,4.924291178
22.57950,10.11259611
22.58000,10.41779052
22.58050,6.755457624
22.58100,3.398319139
22.58150,2.177541509
22.58200,1.261958286
22.58250,1.872347101
22.58300,5.534679993
22.58350,9.502207293
22.58400,10.11259611
22.58450,8.891818478
22.58500,8.281429663
22.58550,7.671040847
22.58600,3.398319139
22.58650,-0.264013753
22.58700,3.703513547
22.58750,12.55415137
22.58800,13.46973459
22.58850,0.3463750624
22.58900,-15.21853973
22.58950,-19.79645585
22.59000,-14.30295651
22.59050,-7.588679538
22.59100,-3.926346645
22.59150,-1.789985791
22.59200,-2.400374607
22.59250,-7.588679538
22.59300,-12.47179006
22.59350,-11.25101243
22.59400,-6.673096315
22.59450,-3.926346645
22.59500,-3.31595783
22.59550,-0.8744025684
22.59600,0.04118065471
22.59650,-4.841929869
22.59700,-11.25101243
22.59750,-10.33542921
22.59800,-2.705569015
22.59850,2.177541509
22.59900,1.872347101
22.59950,3.093124732
22.60000,9.197012886
22.60050,12.55415137
22.60100,7.36584644
22.60150,-1.484791384
22.60200,-8.504262761
22.60250,-12.16659565
22.60300,-12.16659565
22.60350,-7.893873946
22.60400,-0.264013753
22.60450,5.229485586
22.60500,5.534679993
22.60550,3.703513547
22.60600,3.093124732
22.60650,2.482735916
22.60700,0.9567638778
22.60750,0.6515694701
22.60800,2.787930324
22.60850,5.534679993
22.60900,6.145068809
22.60950,4.924291178
22.61000,4.008707955
22.61050,5.839874401
22.61100,8.891818478
22.61150,10.11259611
22.61200,7.060652032
22.61250,2.177541509
22.61300,0.04118065471
22.61350,1.261958286
22.61400,0.6515694701
22.61450,-5.452318684
22.61500,-13.69256769
22.61550,-14.60815091
22.61600,-8.504262761
22.61650,-2.705569015
22.61700,-2.095180199
22.61750,-3.010763422
22.61800,-2.400374607
22.61850,-1.179596976
22.61900,-1.484791384
22.61950,-3.621152238
22.62000,-6.062707499
22.62050,-8.504262761
22.62100,-10.0302348
22.62150,-10.0302348
22.62200,-7.588679538
22.62250,-4.231541053
22.62300,-0.8744025684
22.62350,1.872347101
22.62400,4.924291178
22.62450,7.36584644
22.62500,8.891818478
22.62550,9.807401701
22.62600,9.197012886
22.62650,6.450263216
22.62700,2.177541509
22.62750,-1.484791384
22.62800,-4.231541053
22.62850,-3.926346645
22.62900,-0.8744025684
22.62950,3.398319139
22.63000,6.755457624
22.63050,7.36584644
22.63100,7.36584644
22.63150,6.450263216
22.63200,3.703513547
22.63250,-0.5692081607
22.63300,-3.010763422
22.63350,-0.8744025684
22.63400,4.008707955
22.63450,7.671040847
22.63500,8.281429663
22.63550,7.671040847
22.63600,6.450263216
22.63650,5.534679993
22.63700,4.313902363
22.63750,2.482735916
22.63800,1.261958286
22.63850,0.3463750624
22.63900,0.3463750624
22.63950,-0.264013753
22.64000,-2.705569015
22.64050,-5.147124276
22.64100,-4.536735461
22.64150,-1.789985791
22.64200,-0.5692081607
22.64250,-1.484791384
22.64300,-0.5692081607
22.64350,4.313902363
22.64400,9.807401701
22.64450,11.02817933
22.64500,5.229485586
22.64550,-5.147124276
22.64600,-16.13412295
22.64650,-21.62762229
22.64700,-17.66009499
22.64750,-8.504262761
22.64800,-1.179596976
22.64850,0.9567638778
22.64900,0.9567638778
22.64950,2.482735916
22.65000,5.229485586
22.65050,6.145068809
22.65100,5.229485586
22.65150,3.703513547
22.65200,1.567152693
22.65250,-1.179596976
22.65300,-3.621152238
22.65350,-3.621152238
22.65400,-2.400374607
22.65450,-3.010763422
22.65500,-5.757513092
22.65550,-6.978290722
22.65600,-5.452318684
22.65650,-3.926346645
22.65700,-5.757513092
22.65750,-8.199068353
22.65800,-6.062707499
22.65850,0.3463750624
22.65900,5.839874401
22.65950,7.36584644
22.66000,7.36584644
22.66050,7.976235255
22.66100,3.398319139
22.66150,-8.809457169
22.66200,-20.40684466
22.66250,-18.27048381
22.66300,-1.484791384
22.66350,15.91128986
22.66400,19.57362275
22.66450,8.281429663
22.66500,-6.062707499
22.66550,-12.77698447
22.66600,-10.0302348
22.66650,-3.926346645
22.66700,0.3463750624
22.66750,0.9567638778
22.66800,-1.484791384
22.66850,-5.452318684
22.66900,-6.062707499
22.66950,-1.179596976
22.67000,4.61909677
22.67050,3.703513547
22.67100,-3.621152238
22.67150,-8.504262761
22.67200,-4.231541053
22.67250,3.398319139
22.67300,4.61909677
22.67350,-0.264013753
22.67400,-3.621152238
22.67450,-1.484791384
22.67500,2.177541509
22.67550,4.008707955
22.67600,4.313902363
22.67650,4.008707955
22.67700,4.924291178
22.67750,7.976235255
22.67800,13.46973459
22.67850,15.30090104
22.67900,9.807401701
22.67950,1.567152693
22.68000,-1.484791384
22.68050,0.04118065471
22.68100,1.872347101
22.68150,0.9567638778
22.68200,-0.264013753
22.68250,-2.705569015
22.68300,-6.978290722
22.68350,-10.94581802
22.68400,-11.25101243
22.68450,-8.504262761
22.68500,-6.673096315
22.68550,-4.536735461
22.68600,0.04118065471
22.68650,5.229485586
22.68700,6.145068809
22.68750,3.093124732
22.68800,2.177541509
22.68850,4.61909677
22.68900,5.839874401
22.68950,4.008707955
22.69000,2.177541509
22.69050,0.9567638778
22.69100,-2.705569015
22.69150,-9.114651576
22.69200,-12.77698447
22.69250,-10.33542921
22.69300,-4.536735461
22.69350,0.04118065471
22.69400,2.787930324
22.69450,4.924291178
22.69500,4.924291178
22.69550,1.567152693
22.69600,-0.8744025684
22.69650,0.04118065471
22.69700,4.008707955
22.69750,5.534679993
22.69800,3.398319139
22.69850,0.04118065471
22.69900,-2.705569015
22.69950,-3.621152238
22.70000,-2.095180199
22.70050,0.3463750624
22.70100,2.177541509
22.70150,1.261958286
22.70200,-0.264013753
22.70250,0.04118065471
22.70300,2.482735916
22.70350,3.703513547
22.70400,0.6515694701
22.70450,-2.095180199
22.70500,0.04118065471
22.70550,7.36584644
22.70600,10.72298492
22.70650,4.313902363
22.70700,-8.199068353
22.70750,-16.43931736
22.70800,-15.52373414
22.70850,-9.114651576
22.70900,-4.231541053
22.70950,-3.010763422
22.71000,-1.789985791
22.71050,0.9567638778
22.71100,4.924291178
22.71150,6.755457624
22.71200,6.450263216
22.71250,5.229485586
22.71300,2.787930324
22.71350,-1.179596976
22.71400,-4.536735461
22.71450,-3.621152238
22.71500,0.3463750624
22.71550,4.008707955
22.71600,4.008707955
22.71650,3.093124732
22.71700,3.703513547
22.71750,5.534679993
22.71800,6.755457624
22.71850,7.671040847
22.71900,8.891818478
22.71950,7.976235255
22.72000,2.482735916
22.72050,-3.010763422
22.72100,-3.926346645
22.72150,-1.789985791
22.72200,-2.095180199
22.72250,-5.147124276
22.72300,-7.28348513
22.72350,-6.062707499
22.72400,-5.452318684
22.72450,-7.588679538
22.72500,-8.809457169
22.72550,-5.147124276
22.72600,0.9567638778
22.72650,4.313902363
22.72700,3.703513547
22.72750,1.872347101
22.72800,1.261958286
22.72850,2.787930324
22.72900,4.008707955
22.72950,4.008707955
22.73000,2.482735916
22.73050,1.567152693
22.73100,0.9567638778
22.73150,0.04118065471
22.73200,0.04118065471
22.73250,4.313902363
22.73300,12.85934578
22.73350,18.04765071
22.73400,15.60609545
22.73450,10.72298492
22.73500,11.02817933
22.73550,14.38531782
22.73600,11.94376256
22.73650,1.567152693
22.73700,-10.94581802
22.73750,-19.79645585
22.73800,-22.84839992
22.73850,-20.71203907
22.73900,-13.69256769
22.73950,-6.978290722
22.74000,-3.926346645
22.74050,-3.621152238
22.74100,-1.179596976
22.74150,3.093124732
22.74200,5.229485586
22.74250,3.093124732
22.74300,0.6515694701
22.74350,-0.8744025684
22.74400,-3.31595783
22.74450,-6.673096315
22.74500,-7.28348513
22.74550,-5.147124276
22.74600,-3.926346645
22.74650,-4.231541053
22.74700,-2.705569015
22.74750,1.261958286
22.74800,4.61909677
22.74850,4.008707955
22.74900,2.787930324
22.74950,3.093124732
22.75000,4.61909677
22.75050,6.450263216
22.75100,7.671040847
22.75150,5.839874401
22.75200,1.567152693
22.75250,-0.264013753
22.75300,2.482735916
22.75350,6.755457624
22.75400,7.060652032
22.75450,6.145068809
22.75500,8.281429663
22.75550,8.891818478
22.75600,-0.8744025684
22.75650,-17.66009499
22.75700,-25.28995518
22.75750,-17.66009499
22.75800,-6.367901907
22.75850,-2.095180199
22.75900,-3.31595783
22.75950,-2.705569015
22.76000,-2.095180199
22.76050,-5.147124276
22.76100,-7.893873946
22.76150,-3.621152238
22.76200,4.008707955
22.76250,8.891818478
22.76300,9.807401701
22.76350,11.02817933
22.76400,12.55415137
22.76450,11.02817933
22.76500,6.755457624
22.76550,4.924291178
22.76600,5.229485586
22.76650,2.482735916
22.76700,-3.010763422
22.76750,-6.673096315
22.76800,-5.452318684
22.76850,-3.926346645
22.76900,-6.062707499
22.76950,-7.28348513
22.77000,-1.789985791
22.77050,7.976235255
22.77100,13.774929
22.77150,10.72298492
22.77200,4.924291178
22.77250,2.482735916
22.77300,2.482735916
22.77350,-0.264013753
22.77400,-5.757513092
22.77450,-7.893873946
22.77500,-4.536735461
22.77550,-0.264013753
22.77600,0.3463750624
22.77650,-0.264013753
22.77700,-0.5692081607
22.77750,-0.264013753
22.77800,-0.264013753
22.77850,-0.264013753
22.77900,0.3463750624
22.77950,0.3463750624
22.78000,-0.8744025684
22.78050,-1.789985791
22.78100,-1.179596976
22.78150,-1.179596976
22.78200,-2.095180199
22.78250,-0.8744025684
22.78300,3.703513547
22.78350,8.281429663
22.78400,9.197012886
22.78450,8.281429663
22.78500,8.281429663
22.78550,5.534679993
22.78600,-3.926346645
22.78650,-17.04970618
22.78700,-24.67956637
22.78750,-22.23801111
22.78800,-13.9977621
22.78850,-5.147124276
22.78900,3.398319139
22.78950,10.72298492
22.79000,12.85934578
22.79050,8.891818478
22.79100,3.093124732
22.79150,-0.264013753
22.79200,-1.789985791
22.79250,-2.400374607
22.79300,-0.8744025684
22.79350,2.177541509
22.79400,4.008707955
22.79450,3.093124732
22.79500,1.567152693
22.79550,2.482735916
22.79600,4.008707955
22.79650,3.093124732
22.79700,0.6515694701
22.79750,-1.179596976
22.79800,-2.705569015
22.79850,-3.926346645
22.79900,-3.926346645
22.79950,-2.400374607
22.80000,-1.179596976
22.80050,-1.789985791
22.80100,-3.31595783
22.80150,-3.010763422
22.80200,-3.010763422
22.80250,-4.841929869
22.80300,-6.062707499
22.80350,-3.31595783
22.80400,1.261958286
22.80450,3.703513547
22.80500,3.398319139
22.80550,2.787930324
22.80600,3.703513547
22.80650,5.229485586
22.80700,5.839874401
22.80750,4.61909677
22.80800,1.567152693
22.80850,-1.789985791
22.80900,-2.705569015
22.80950,-0.8744025684
22.81000,0.3463750624
22.81050,-0.5692081607
22.81100,-0.5692081607
22.81150,1.261958286
22.81200,0.6515694701
22.81250,-6.978290722
22.81300,-15.82892855
22.81350,-15.82892855
22.81400,-6.978290722
22.81450,1.567152693
22.81500,4.924291178
22.81550,4.61909677
22.81600,4.924291178
22.81650,5.534679993
22.81700,6.145068809
22.81750,7.671040847
22.81800,8.891818478
22.81850,7.976235255
22.81900,4.924291178
22.81950,3.398319139
22.82000,3.093124732
22.82050,2.177541509
22.82100,-0.264013753
22.82150,-2.705569015
22.82200,-4.231541053
22.82250,-6.367901907
22.82300,-8.809457169
22.82350,-9.419845984
22.82400,-6.367901907
22.82450,-1.789985791
22.82500,0.9567638778
22.82550,1.567152693
22.82600,0.04118065471
22.82650,-1.484791384
22.82700,-1.789985791
22.82750,-0.5692081607
22.82800,0.3463750624
22.82850,0.04118065471
22.82900,-1.484791384
22.82950,-1.484791384
22.83000,0.3463750624
22.83050,2.482735916
22.83100,3.398319139
22.83150,4.61909677
22.83200,6.450263216
22.83250,8.281429663
22.83300,7.671040847
22.83350,5.534679993
22.83400,5.229485586
22.83450,7.671040847
22.83500,9.197012886
22.83550,5.534679993
22.83600,-0.5692081607
22.83650,-2.705569015
22.83700,-1.179596976
22.83750,-2.095180199
22.83800,-8.504262761
22.83850,-13.38737328
22.83900,-10.33542921
22.83950,-2.400374607
22.84000,1.261958286
22.84050,-0.264013753
22.84100,-3.010763422
22.84150,-5.147124276
22.84200,-8.504262761
22.84250,-12.47179006
22.84300,-12.16659565
22.84350,-6.062707499
22.84400,-0.5692081607
22.84450,-0.5692081607
22.84500,-4.536735461
22.84550,-5.757513092
22.84600,-0.8744025684
22.84650,6.450263216
22.84700,11.33337374
22.84750,11.02817933
22.84800,7.976235255
22.84850,4.924291178
22.84900,3.093124732
22.84950,0.9567638778
22.85000,0.04118065471
22.85050,0.9567638778
22.85100,3.703513547
22.85150,4.61909677
22.85200,3.398319139
22.85250,1.567152693
22.85300,0.6515694701
22.85350,0.3463750624
22.85400,0.9567638778
22.85450,3.703513547
22.85500,6.450263216
22.85550,5.839874401
22.85600,2.482735916
22.85650,0.3463750624
22.85700,0.9567638778
22.85750,2.482735916
22.85800,1.872347101
22.85850,1.567152693
22.85900,2.787930324
22.85950,3.398319139
22.86000,0.04118065471
22.86050,-5.452318684
22.86100,-6.673096315
22.86150,0.6515694701
22.86200,11.63856815
22.86250,13.774929
22.86300,2.482735916
22.86350,-14.30295651
22.86400,-22.84839992
22.86450,-18.57567822
22.86500,-9.419845984
22.86550,-3.621152238
22.86600,-1.484791384
22.86650,-0.5692081607
22.86700,-0.264013753
22.86750,-1.789985791
22.86800,-3.010763422
22.86850,-0.5692081607
22.86900,4.008707955
22.86950,6.755457624
22.87000,5.839874401
22.87050,3.398319139
22.87100,0.9567638778
22.87150,-1.789985791
22.87200,-4.536735461
22.87250,-5.147124276
22.87300,-2.400374607
22.87350,1.261958286
22.87400,3.703513547
22.87450,3.703513547
22.87500,2.482735916
22.87550,2.177541509
22.87600,3.398319139
22.87650,4.924291178
22.87700,1.872347101
22.87750,-6.062707499
22.87800,-13.69256769
22.87850,-13.38737328
22.87900,-3.31595783
22.87950,8.58662407
22.88000,16.21648426
22.88050,18.35284512
22.88100,16.52167867
22.88150,10.72298492
22.88200,0.3463750624
22.88250,-9.419845984
22.88300,-13.38737328
22.88350,-11.25101243
22.88400,-9.419845984
22.88450,-10.64062361
22.88500,-11.86140125
22.88550,-10.0302348
22.88600,-6.673096315
22.88650,-3.621152238
22.88700,-2.095180199
22.88750,-1.484791384
22.88800,-1.789985791
22.88850,-2.400374607
22.88900,-1.484791384
22.88950,0.6515694701
22.89000,2.482735916
22.89050,3.093124732
22.89100,4.313902363
22.89150,5.839874401
22.89200,6.145068809
22.89250,4.924291178
22.89300,3.093124732
22.89350,0.6515694701
22.89400,-2.705569015
22.89450,-4.231541053
22.89500,0.04118065471
22.89550,6.145068809
22.89600,6.145068809
22.89650,-0.5692081607
22.89700,-5.147124276
22.89750,-0.264013753
22.89800,6.755457624
22.89850,6.755457624
22.89900,0.3463750624
22.89950,-4.536735461
22.90000,-4.536735461
22.90050,-2.400374607
22.90100,0.04118065471
22.90150,2.787930324
22.90200,4.008707955
22.90250,0.3463750624
22.90300,-4.536735461
22.90350,-5.452318684
22.90400,-1.179596976
22.90450,2.177541509
22.90500,3.398319139
22.90550,3.398319139
22.90600,3.093124732
22.90650,-0.264013753
22.90700,-5.452318684
22.90750,-6.062707499
22.90800,-0.264013753
22.90850,7.060652032
22.90900,10.72298492
22.90950,9.807401701
22.91000,6.755457624
22.91050,3.703513547
22.91100,1.567152693
22.91150,1.261958286
22.91200,1.261958286
22.91250,0.04118065471
22.91300,-1.179596976
22.91350,-0.8744025684
22.91400,0.3463750624
22.91450,0.04118065471
22.91500,-2.400374607
22.91550,-2.705569015
22.91600,0.04118065471
22.91650,1.567152693
22.91700,0.04118065471
22.91750,-0.8744025684
22.91800,0.3463750624
22.91850,1.872347101
22.91900,0.04118065471
22.91950,-2.705569015
22.92000,-1.789985791
22.92050,0.9567638778
22.92100,0.9567638778
22.92150,-1.789985791
22.92200,-2.095180199
22.92250,2.177541509
22.92300,7.060652032
22.92350,8.58662407
22.92400,7.060652032
22.92450,4.313902363
22.92500,0.9567638778
22.92550,-1.789985791
22.92600,-2.095180199
22.92650,-0.264013753
22.92700,0.9567638778
22.92750,-0.5692081607
22.92800,-4.231541053
22.92850,-7.588679538
22.92900,-8.199068353
22.92950,-5.757513092
22.93000,-1.179596976
22.93050,1.872347101
22.93100,0.6515694701
22.93150,-3.010763422
22.93200,-4.231541053
22.93250,-1.179596976
22.93300,3.398319139
22.93350,5.229485586
22.93400,4.313902363
22.93450,3.093124732
22.93500,3.398319139
22.93550,4.008707955
22.93600,4.008707955
22.93650,4.313902363
22.93700,5.534679993
22.93750,6.755457624
22.93800,4.924291178
22.93850,0.04118065471
22.93900,-5.452318684
22.93950,-6.978290722
22.94000,-6.062707499
22.94050,-6.062707499
22.94100,-4.536735461
22.94150,2.177541509
22.94200,11.94376256
22.94250,14.08012341
22.94300,4.313902363
22.94350,-7.28348513
22.94400,-10.33542921
22.94450,-5.147124276
22.94500,-0.264013753
22.94550,-0.5692081607
22.94600,-1.789985791
22.94650,-0.264013753
22.94700,1.261958286
22.94750,0.9567638778
22.94800,-0.5692081607
22.94850,-1.789985791
22.94900,-2.095180199
22.94950,-1.179596976
22.95000,0.9567638778
22.95050,2.177541509
22.95100,-0.8744025684
22.95150,-7.588679538
22.95200,-12.16659565
22.95250,-10.64062361
22.95300,-4.231541053
22.95350,-0.264013753
22.95400,-2.095180199
22.95450,-6.673096315
22.95500,-8.199068353
22.95550,-4.841929869
22.95600,-0.5692081607
22.95650,1.261958286
22.95700,2.482735916
22.95750,5.229485586
22.95800,7.36584644
22.95850,7.060652032
22.95900,6.450263216
22.95950,6.450263216
22.96000,4.61909677
22.96050,0.6515694701
22.96100,0.9567638778
22.96150,9.807401701
22.96200,18.04765071
22.96250,9.807401701
22.96300,-13.9977621
22.96350,-35.36137064
22.96400,-37.8029259
22.96450,-25.59514959
22.96500,-12.77698447
22.96550,-6.367901907
22.96600,-3.010763422
22.96650,-0.264013753
22.96700,1.261958286
22.96750,1.567152693
22.96800,0.3463750624
22.96850,-3.31595783
22.96900,-9.725040392
22.96950,-14.30295651
22.97000,-12.47179006
22.97050,-6.062707499
22.97100,-0.8744025684
22.97150,0.04118065471
22.97200,0.3463750624
22.97250,3.093124732
22.97300,7.36584644
22.97350,11.02817933
22.97400,13.16454019
22.97450,13.774929
22.97500,13.16454019
22.97550,12.24895696
22.97600,11.94376256
22.97650,12.24895696
22.97700,11.02817933
22.97750,6.450263216
22.97800,0.9567638778
22.97850,-1.789985791
22.97900,-0.264013753
22.97950,2.482735916
22.98000,4.008707955
22.98050,3.093124732
22.98100,0.3463750624
22.98150,-3.31595783
22.98200,-6.978290722
22.98250,-8.199068353
22.98300,-6.978290722
22.98350,-5.147124276
22.98400,-3.621152238
22.98450,-0.5692081607
22.98500,5.839874401
22.98550,12.85934578
22.98600,13.46973459
22.98650,6.450263216
22.98700,-1.484791384
22.98750,-5.452318684
22.98800,-3.926346645
22.98850,0.04118065471
22.98900,3.398319139
22.98950,5.839874401
22.99000,7.36584644
22.99050,8.281429663
22.99100,10.11259611
22.99150,11.02817933
22.99200,9.807401701
22.99250,6.755457624
22.99300,4.313902363
22.99350,3.703513547
22.99400,3.093124732
22.99450,0.9567638778
22.99500,-0.264013753
22.99550,0.04118065471
22.99600,1.872347101
22.99650,4.008707955
22.99700,4.313902363
22.99750,2.787930324
22.99800,-0.264013753
22.99850,-3.31595783
22.99900,-3.31595783
22.99950,-0.5692081607
23.00000,0.9567638778
23.00050,0.04118065471
23.00100,-1.789985791
23.00150,-1.484791384
23.00200,-0.264013753
23.00250,-0.5692081607
23.00300,-2.095180199
23.00350,-2.095180199
23.00400,0.04118065471
23.00450,1.261958286
23.00500,0.04118065471
23.00550,-3.010763422
23.00600,-4.536735461
23.00650,-2.705569015
23.00700,-0.264013753
23.00750,0.04118065471
23.00800,-1.179596976
23.00850,-1.484791384
23.00900,0.04118065471
23.00950,0.9567638778
23.01000,0.3463750624
23.01050,-0.264013753
23.01100,-0.264013753
23.01150,-1.484791384
23.01200,-4.841929869
23.01250,-7.28348513
23.01300,-4.841929869
23.01350,2.177541509
23.01400,7.976235255
23.01450,7.671040847
23.01500,4.008707955
23.01550,2.177541509
23.01600,3.398319139
23.01650,5.229485586
23.01700,4.61909677
23.01750,2.787930324
23.01800,2.482735916
23.01850,2.482735916
23.01900,0.6515694701
23.01950,-3.926346645
23.02000,-8.504262761
23.02050,-9.725040392
23.02100,-7.588679538
23.02150,-4.231541053
23.02200,-2.095180199
23.02250,-0.8744025684
23.02300,-0.264013753
23.02350,-0.8744025684
23.02400,-2.095180199
23.02450,-3.010763422
23.02500,-2.400374607
23.02550,-1.484791384
23.02600,-0.5692081607
23.02650,-1.179596976
23.02700,-3.010763422
23.02750,-6.062707499
23.02800,-6.673096315
23.02850,-2.400374607
23.02900,4.924291178
23.02950,8.281429663
23.03000,2.482735916
23.03050,-7.893873946
23.03100,-13.08217888
23.03150,-7.588679538
23.03200,1.261958286
23.03250,4.61909677
23.03300,0.04118065471
23.03350,-5.452318684
23.03400,-7.28348513
23.03450,-6.367901907
23.03500,-4.536735461
23.03550,-1.179596976
23.03600,4.008707955
23.03650,8.891818478
23.03700,9.197012886
23.03750,7.36584644
23.03800,7.671040847
23.03850,9.197012886
23.03900,6.450263216
23.03950,0.04118065471
23.04000,-5.452318684
23.04050,-6.062707499
23.04100,-3.621152238
23.04150,-2.095180199
23.04200,-1.484791384
23.04250,-0.5692081607
23.04300,-1.179596976
23.04350,-3.621152238
23.04400,-6.367901907
23.04450,-7.893873946
23.04500,-8.809457169
23.04550,-9.725040392
23.04600,-7.893873946
23.04650,-3.621152238
23.04700,-1.179596976
23.04750,-3.010763422
23.04800,-6.673096315
23.04850,-7.893873946
23.04900,-6.978290722
23.04950,-4.841929869
23.05000,-0.5692081607
23.05050,5.534679993
23.05100,10.72298492
23.05150,12.55415137
23.05200,12.55415137
23.05250,12.85934578
23.05300,11.63856815
23.05350,8.891818478
23.05400,10.41779052
23.05450,16.21648426
23.05500,17.43726189
23.05550,7.671040847
23.05600,-4.536735461
23.05650,-8.809457169
23.05700,-7.28348513
23.05750,-9.725040392
23.05800,-16.43931736
23.05850,-18.57567822
23.05900,-13.38737328
23.05950,-6.673096315
23.06000,-0.8744025684
23.06050,6.145068809
23.06100,11.02817933
23.06150,4.61909677
23.06200,-11.25101243
23.06250,-21.01723348
23.06300,-15.52373414
23.06350,-4.231541053
23.06400,0.04118065471
23.06450,-0.8744025684
23.06500,0.6515694701
23.06550,6.755457624
23.06600,10.41779052
23.06650,9.197012886
23.06700,6.145068809
23.06750,5.839874401
23.06800,7.060652032
23.06850,7.976235255
23.06900,6.450263216
23.06950,3.398319139
23.07000,0.3463750624
23.07050,-0.8744025684
23.07100,-1.484791384
23.07150,-3.31595783
23.07200,-5.452318684
23.07250,-5.452318684
23.07300,-2.095180199
23.07350,3.093124732
23.07400,8.891818478
23.07450,11.33337374
23.07500,9.197012886
23.07550,2.787930324
23.07600,-2.095180199
23.07650,-3.31595783
23.07700,-2.400374607
23.07750,-3.621152238
23.07800,-6.673096315
23.07850,-6.673096315
23.07900,-1.179596976
23.07950,5.839874401
23.08000,9.807401701
23.08050,8.281429663
23.08100,3.093124732
23.08150,-1.789985791
23.08200,-3.31595783
23.08250,-1.179596976
23.08300,0.6515694701
23.08350,0.04118065471
23.08400,-2.095180199
23.08450,-3.31595783
23.08500,-3.010763422
23.08550,-1.484791384
23.08600,1.261958286
23.08650,4.008707955
23.08700,3.703513547
23.08750,0.6515694701
23.08800,-0.8744025684
23.08850,0.6515694701
23.08900,2.787930324
23.08950,2.177541509
23.09000,0.3463750624
23.09050,0.3463750624
23.09100,2.177541509
23.09150,1.872347101
23.09200,0.04118065471
23.09250,-1.179596976
23.09300,0.04118065471
23.09350,1.872347101
23.09400,4.313902363
23.09450,6.145068809
23.09500,5.839874401
23.09550,3.703513547
23.09600,0.6515694701
23.09650,-1.484791384
23.09700,-2.400374607
23.09750,-2.095180199
23.09800,0.3463750624
23.09850,4.313902363
23.09900,6.450263216
23.09950,5.534679993
23.10000,3.703513547
23.10050,1.872347101
23.10100,-2.095180199
23.10150,-8.504262761
23.10200,-11.86140125
23.10250,-7.893873946
23.10300,-1.484791384
23.10350,0.3463750624
23.10400,-1.484791384
23.10450,-2.400374607
23.10500,-0.5692081607
23.10550,0.9567638778
23.10600,1.261958286
23.10650,3.398319139
23.10700,7.976235255
23.10750,10.72298492
23.10800,9.197012886
23.10850,4.924291178
23.10900,2.177541509
23.10950,1.872347101
23.11000,5.229485586
23.11050,10.11259611
23.11100,11.63856815
23.11150,6.145068809
23.11200,-2.400374607
23.11250,-6.062707499
23.11300,-1.789985791
23.11350,3.703513547
23.11400,3.703513547
23.11450,-1.179596976
23.11500,-6.367901907
23.11550,-8.504262761
23.11600,-7.893873946
23.11650,-6.367901907
23.11700,-6.062707499
23.11750,-7.893873946
23.11800,-9.114651576
23.11850,-6.367901907
23.11900,-2.095180199
23.11950,-0.264013753
23.12000,-1.484791384
23.12050,-0.8744025684
23.12100,2.482735916
23.12150,2.787930324
23.12200,-2.705569015
23.12250,-9.114651576
23.12300,-8.809457169
23.12350,-3.621152238
23.12400,-0.5692081607
23.12450,-1.789985791
23.12500,-4.231541053
23.12550,-5.147124276
23.12600,-5.452318684
23.12650,-5.757513092
23.12700,-5.147124276
23.12750,-3.010763422
23.12800,-1.484791384
23.12850,-0.264013753
23.12900,0.6515694701
23.12950,0.6515694701
23.13000,0.04118065471
23.13050,0.3463750624
23.13100,2.787930324
23.13150,5.534679993
23.13200,5.534679993
23.13250,3.398319139
23.13300,1.872347101
23.13350,1.872347101
23.13400,1.261958286
23.13450,0.6515694701
23.13500,1.872347101
23.13550,5.534679993
23.13600,7.36584644
23.13650,4.61909677
23.13700,-1.179596976
23.13750,-5.452318684
23.13800,-6.062707499
23.13850,-4.231541053
23.13900,-2.400374607
23.13950,-1.179596976
23.14000,0.3463750624
23.14050,0.9567638778
23.14100,0.04118065471
23.14150,-1.179596976
23.14200,0.04118065471
23.14250,4.008707955
23.14300,5.534679993
23.14350,3.398319139
23.14400,0.9567638778
23.14450,1.872347101
23.14500,5.229485586
23.14550,7.060652032
23.14600,6.450263216
23.14650,4.924291178
23.14700,2.482735916
23.14750,-0.8744025684
23.14800,-4.536735461
23.14850,-6.062707499
23.14900,-6.062707499
23.14950,-6.367901907
23.15000,-7.28348513
23.15050,-6.673096315
23.15100,-4.841929869
23.15150,-2.400374607
23.15200,-0.5692081607
23.15250,1.872347101
23.15300,4.61909677
23.15350,5.534679993
23.15400,4.61909677
23.15450,3.703513547
23.15500,2.482735916
23.15550,1.261958286
23.15600,0.9567638778
23.15650,3.093124732
23.15700,6.450263216
23.15750,6.145068809
23.15800,0.04118065471
23.15850,-8.504262761
23.15900,-14.30295651
23.15950,-15.21853973
23.16000,-13.08217888
23.16050,-10.0302348
23.16100,-6.673096315
23.16150,-4.231541053
23.16200,-3.926346645
23.16250,-4.536735461
23.16300,-4.841929869
23.16350,-4.841929869
23.16400,-4.536735461
23.16450,-3.926346645
23.16500,-2.095180199
23.16550,0.3463750624
23.16600,1.261958286
23.16650,-0.264013753
23.16700,-1.484791384
23.16750,0.04118065471
23.16800,4.61909677
23.16850,7.671040847
23.16900,6.755457624
23.16950,4.008707955
23.17000,1.872347101
23.17050,1.261958286
23.17100,0.6515694701
23.17150,0.6515694701
23.17200,2.482735916
23.17250,5.534679993
23.17300,5.839874401
23.17350,2.787930324
23.17400,0.3463750624
23.17450,2.177541509
23.17500,5.839874401
23.17550,7.060652032
23.17600,6.450263216
23.17650,6.145068809
23.17700,6.145068809
23.17750,3.398319139
23.17800,0.04118065471
23.17850,0.3463750624
23.17900,3.398319139
23.17950,2.787930324
23.18000,-4.536735461
23.18050,-11.55620684
23.18100,-11.25101243
23.18150,-4.536735461
23.18200,0.9567638778
23.18250,4.313902363
23.18300,6.755457624
23.18350,6.450263216
23.18400,0.04118065471
23.18450,-8.504262761
23.18500,-12.47179006
23.18550,-7.588679538
23.18600,0.9567638778
23.18650,6.755457624
23.18700,6.755457624
23.18750,0.9567638778
23.18800,-6.062707499
23.18850,-9.725040392
23.18900,-7.893873946
23.18950,-4.841929869
23.19000,-4.536735461
23.19050,-6.062707499
23.19100,-6.367901907
23.19150,-5.757513092
23.19200,-5.757513092
23.19250,-4.536735461
23.19300,1.261958286
23.19350,9.197012886
23.19400,11.94376256
23.19450,7.671040847
23.19500,1.261958286
23.19550,-1.484791384
23.19600,-0.264013753
23.19650,3.093124732
23.19700,8.58662407
23.19750,14.08012341
23.19800,16.82687308
23.19850,14.69051222
23.19900,10.41779052
23.19950,6.755457624
23.20000,4.008707955
23.20050,0.3463750624
23.20100,-5.147124276
23.20150,-12.47179006
23.20200,-17.66009499
23.20250,-15.21853973
23.20300,-3.926346645
23.20350,9.807401701
23.20400,18.04765071
23.20450,17.13206749
23.20500,11.63856815
23.20550,6.755457624
23.20600,4.008707955
23.20650,2.177541509
23.20700,1.261958286
23.20750,2.177541509
23.20800,3.398319139
23.20850,3.398319139
23.20900,2.177541509
23.20950,0.6515694701
23.21000,0.04118065471
23.21050,-0.8744025684
23.21100,-1.179596976
23.21150,0.04118065471
23.21200,0.9567638778
23.21250,1.872347101
23.21300,2.787930324
23.21350,3.398319139
23.21400,2.787930324
23.21450,0.6515694701
23.21500,-0.8744025684
23.21550,-1.179596976
23.21600,-1.789985791
23.21650,-3.621152238
23.21700,-4.536735461
23.21750,-3.31595783
23.21800,-1.789985791
23.21850,-2.705569015
23.21900,-4.231541053
23.21950,-3.31595783
23.22000,0.04118065471
23.22050,2.787930324
23.22100,2.482735916
23.22150,1.567152693
23.22200,0.9567638778
23.22250,0.6515694701
23.22300,0.3463750624
23.22350,0.04118065471
23.22400,-1.789985791
23.22450,-7.588679538
23.22500,-15.52373414
23.22550,-18.88087262
23.22600,-15.82892855
23.22650,-9.419845984
23.22700,-3.926346645
23.22750,1.567152693
23.22800,9.197012886
23.22850,15.91128986
23.22900,16.52167867
23.22950,11.94376256
23.23000,6.450263216
23.23050,2.787930324
23.23100,1.261958286
23.23150,1.261958286
23.23200,1.872347101
23.23250,0.6515694701
23.23300,-3.621152238
23.23350,-7.893873946
23.23400,-8.504262761
23.23450,-6.978290722
23.23500,-6.978290722
23.23550,-9.114651576
23.23600,-9.419845984
23.23650,-5.757513092
23.23700,-0.8744025684
23.23750,2.482735916
23.23800,3.093124732
23.23850,1.872347101
23.23900,0.04118065471
23.23950,-0.5692081607
23.24000,0.6515694701
23.24050,2.482735916
23.24100,2.177541509
23.24150,0.3463750624
23.24200,-0.8744025684
23.24250,-0.5692081607
23.24300,0.3463750624
23.24350,1.261958286
23.24400,1.872347101
23.24450,1.261958286
23.24500,-0.5692081607
23.24550,-1.484791384
23.24600,1.567152693
23.24650,6.450263216
23.24700,6.755457624
23.24750,0.6515694701
23.24800,-6.673096315
23.24850,-10.33542921
23.24900,-9.419845984
23.24950,-7.588679538
23.25000,-5.757513092
23.25050,-4.231541053
23.25100,-3.621152238
23.25150,-3.621152238
23.25200,-2.705569015
23.25250,0.6515694701
23.25300,5.839874401
23.25350,8.891818478
23.25400,8.281429663
23.25450,5.229485586
23.25500,2.482735916
23.25550,0.3463750624
23.25600,-0.8744025684
23.25650,-2.095180199
23.25700,-2.400374607
23.25750,-2.400374607
23.25800,-0.8744025684
23.25850,1.872347101
23.25900,6.145068809
23.25950,8.281429663
23.26000,7.060652032
23.26050,4.924291178
23.26100,3.703513547
23.26150,3.093124732
23.26200,1.261958286
23.26250,-0.8744025684
23.26300,0.3463750624
23.26350,5.534679993
23.26400,9.502207293
23.26450,7.060652032
23.26500,-0.8744025684
23.26550,-9.114651576
23.26600,-12.47179006
23.26650,-11.55620684
23.26700,-9.419845984
23.26750,-7.893873946
23.26800,-6.673096315
23.26850,-4.841929869
23.26900,-2.095180199
23.26950,0.04118065471
23.27000,0.6515694701
23.27050,0.6515694701
23.27100,2.177541509
23.27150,4.924291178
23.27200,5.534679993
23.27250,3.093124732
23.27300,1.261958286
23.27350,2.787930324
23.27400,5.229485586
23.27450,5.229485586
23.27500,3.398319139
23.27550,2.787930324
23.27600,4.008707955
23.27650,4.008707955
23.27700,2.177541509
23.27750,0.9567638778
23.27800,1.261958286
23.27850,2.177541509
23.27900,3.398319139
23.27950,5.534679993
23.28000,7.671040847
23.28050,7.671040847
23.28100,5.229485586
23.28150,2.787930324
23.28200,2.482735916
23.28250,2.787930324
23.28300,1.567152693
23.28350,-1.179596976
23.28400,-5.757513092
23.28450,-10.0302348
23.28500,-11.55620684
23.28550,-9.725040392
23.28600,-6.062707499
23.28650,-3.31595783
23.28700,-2.095180199
23.28750,-1.484791384
23.28800,-1.789985791
23.28850,-3.621152238
23.28900,-7.588679538
23.28950,-10.94581802
23.29000,-10.0302348
23.29050,-6.367901907
23.29100,-3.621152238
23.29150,-3.926346645
23.29200,-5.452318684
23.29250,-4.536735461
23.29300,0.04118065471
23.29350,5.534679993
23.29400,8.281429663
23.29450,7.976235255
23.29500,6.145068809
23.29550,6.755457624
23.29600,11.02817933
23.29650,16.82687308
23.29700,19.26842834
23.29750,14.08012341
23.29800,2.177541509
23.29850,-9.725040392
23.29900,-15.21853973
23.29950,-14.60815091
23.30000,-13.9977621
23.30050,-15.82892855
23.30100,-17.66009499
23.30150,-15.52373414
23.30200,-10.0302348
23.30250,-4.231541053
23.30300,0.3463750624
23.30350,4.313902363
23.30400,6.450263216
23.30450,4.61909677
23.30500,0.9567638778
23.30550,0.04118065471
23.30600,2.177541509
23.30650,2.482735916
23.30700,-0.5692081607
23.30750,-4.231541053
23.30800,-3.31595783
23.30850,0.9567638778
23.30900,4.61909677
23.30950,4.924291178
23.31000,4.008707955
23.31050,2.787930324
23.31100,1.261958286
23.31150,0.04118065471
23.31200,-0.264013753
23.31250,0.3463750624
23.31300,1.567152693
23.31350,2.177541509
23.31400,4.313902363
23.31450,7.36584644
23.31500,9.807401701
23.31550,8.891818478
23.31600,6.145068809
23.31650,3.093124732
23.31700,1.567152693
23.31750,1.567152693
23.31800,3.093124732
23.31850,4.008707955
23.31900,3.398319139
23.31950,1.261958286
23.32000,0.3463750624
23.32050,1.567152693
23.32100,2.482735916
23.32150,0.6515694701
23.32200,-1.789985791
23.32250,-1.789985791
23.32300,0.04118065471
23.32350,0.04118065471
23.32400,-2.705569015
23.32450,-5.147124276
23.32500,-4.231541053
23.32550,-3.010763422
23.32600,-3.621152238
23.32650,-5.147124276
23.32700,-3.31595783
23.32750,0.9567638778
23.32800,4.61909677
23.32850,4.61909677
23.32900,1.567152693
23.32950,-1.484791384
23.33000,-3.010763422
23.33050,-1.484791384
23.33100,1.872347101
23.33150,5.229485586
23.33200,5.229485586
23.33250,3.398319139
23.33300,2.482735916
23.33350,2.787930324
23.33400,2.787930324
23.33450,2.787930324
23.33500,3.093124732
23.33550,2.482735916
23.33600,1.567152693
23.33650,4.008707955
23.33700,12.24895696
23.33750,17.7424563
23.33800,11.33337374
23.33850,-4.231541053
23.33900,-16.43931736
23.33950,-16.43931736
23.34000,-9.725040392
23.34050,-5.147124276
23.34100,-4.536735461
23.34150,-4.841929869
23.34200,-6.367901907
23.34250,-9.114651576
23.34300,-9.114651576
23.34350,-5.452318684
23.34400,-1.179596976
23.34450,-1.789985791
23.34500,-5.147124276
23.34550,-6.673096315
23.34600,-4.231541053
23.34650,0.04118065471
23.34700,5.534679993
23.34750,9.807401701
23.34800,9.807401701
23.34850,4.61909677
23.34900,-2.095180199
23.34950,-6.367901907
23.35000,-7.893873946
23.35050,-7.893873946
23.35100,-6.367901907
23.35150,-3.621152238
23.35200,-1.789985791
23.35250,-2.095180199
23.35300,-3.621152238
23.35350,-4.231541053
23.35400,-3.926346645
23.35450,-5.147124276
23.35500,-6.367901907
23.35550,-5.452318684
23.35600,-1.789985791
23.35650,2.177541509
23.35700,5.534679993
23.35750,7.36584644
23.35800,7.976235255
23.35850,7.36584644
23.35900,7.060652032
23.35950,7.671040847
23.36000,7.060652032
23.36050,4.61909677
23.36100,1.261958286
23.36150,-0.5692081607
23.36200,-1.484791384
23.36250,-1.484791384
23.36300,-0.5692081607
23.36350,0.9567638778
23.36400,0.3463750624
23.36450,-4.536735461
23.36500,-10.94581802
23.36550,-13.69256769
23.36600,-10.64062361
23.36650,-5.147124276
23.36700,-0.5692081607
23.36750,1.872347101
23.36800,2.787930324
23.36850,1.872347101
23.36900,-0.264013753
23.36950,-1.789985791
23.37000,-1.484791384
23.37050,0.3463750624
23.37100,1.567152693
23.37150,0.6515694701
23.37200,-1.484791384
23.37250,-3.926346645
23.37300,-4.231541053
23.37350,-1.789985791
23.37400,4.008707955
23.37450,11.63856815
23.37500,15.60609545
23.37550,13.16454019
23.37600,7.671040847
23.37650,3.703513547
23.37700,2.787930324
23.37750,2.177541509
23.37800,1.567152693
23.37850,3.703513547
23.37900,7.36584644
23.37950,8.281429663
23.38000,5.229485586
23.38050,4.313902363
23.38100,8.281429663
23.38150,11.33337374
23.38200,8.58662407
23.38250,4.008707955
23.38300,4.313902363
23.38350,6.145068809
23.38400,0.9567638778
23.38450,-11.25101243
23.38500,-20.40684466
23.38550,-19.18606703
23.38600,-11.86140125
23.38650,-7.588679538
23.38700,-8.809457169
23.38750,-10.94581802
23.38800,-9.114651576
23.38850,-2.400374607
23.38900,3.703513547
23.38950,4.313902363
23.39000,0.04118065471
23.39050,-4.231541053
23.39100,-3.926346645
23.39150,0.3463750624
23.39200,4.924291178
23.39250,7.976235255
23.39300,10.72298492
23.39350,11.02817933
23.39400,7.976235255
23.39450,2.787930324
23.39500,0.04118065471
23.39550,0.6515694701
23.39600,3.093124732
23.39650,4.61909677
23.39700,4.61909677
23.39750,3.398319139
23.39800,0.9567638778
23.39850,-1.179596976
23.39900,-2.095180199
23.39950,-1.484791384
23.40000,-0.5692081607
23.40050,0.04118065471
23.40100,0.04118065471
23.40150,-0.5692081607
23.40200,-1.484791384
23.40250,-2.095180199
23.40300,-2.095180199
23.40350,-1.789985791
23.40400,-2.400374607
23.40450,-3.926346645
23.40500,-6.062707499
23.40550,-8.199068353
23.40600,-9.114651576
23.40650,-7.588679538
23.40700,-4.231541053
23.40750,-0.264013753
23.40800,1.872347101
23.40850,2.177541509
23.40900,1.261958286
23.40950,0.6515694701
23.41000,1.567152693
23.41050,3.093124732
23.41100,1.872347101
23.41150,-1.179596976
23.41200,-3.926346645
23.41250,-3.010763422
23.41300,0.04118065471
23.41350,2.177541509
23.41400,3.093124732
23.41450,4.924291178
23.41500,7.36584644
23.41550,7.060652032
23.41600,2.482735916
23.41650,-1.179596976
23.41700,-0.5692081607
23.41750,3.398319139
23.41800,6.450263216
23.41850,5.534679993
23.41900,3.398319139
23.41950,3.398319139
23.42000,5.839874401
23.42050,8.891818478
23.42100,11.63856815
23.42150,12.55415137
23.42200,9.197012886
23.42250,0.6515694701
23.42300,-8.199068353
23.42350,-12.47179006
23.42400,-9.114651576
23.42450,-1.484791384
23.42500,3.093124732
23.42550,1.567152693
23.42600,-4.231541053
23.42650,-10.64062361
23.42700,-13.08217888
23.42750,-10.64062361
23.42800,-5.757513092
23.42850,-1.789985791
23.42900,-1.179596976
23.42950,-3.31595783
23.43000,-5.147124276
23.43050,-4.536735461
23.43100,-1.789985791
23.43150,0.6515694701
23.43200,1.261958286
23.43250,2.177541509
23.43300,5.839874401
23.43350,10.41779052
23.43400,10.72298492
23.43450,7.671040847
23.43500,5.839874401
23.43550,7.36584644
23.43600,5.839874401
23.43650,-1.789985791
23.43700,-9.419845984
23.43750,-8.809457169
23.43800,-2.095180199
23.43850,0.9567638778
23.43900,-1.179596976
23.43950,-4.231541053
23.44000,-4.536735461
23.44050,-3.621152238
23.44100,-3.31595783
23.44150,-1.484791384
23.44200,1.567152693
23.44250,3.398319139
23.44300,2.787930324
23.44350,1.261958286
23.44400,-0.5692081607
23.44450,-3.926346645
23.44500,-5.757513092
23.44550,-1.789985791
23.44600,4.008707955
23.44650,4.008707955
23.44700,-5.147124276
23.44750,-14.30295651
23.44800,-13.9977621
23.44850,-5.757513092
23.44900,0.6515694701
23.44950,1.872347101
23.45000,0.6515694701
23.45050,1.261958286
23.45100,4.313902363
23.45150,7.671040847
23.45200,8.58662407
23.45250,5.839874401
23.45300,2.177541509
23.45350,0.3463750624
23.45400,1.261958286
23.45450,2.482735916
23.45500,3.093124732
23.45550,4.313902363
23.45600,5.839874401
23.45650,6.450263216
23.45700,5.839874401
23.45750,6.145068809
23.45800,7.060652032
23.45850,5.229485586
23.45900,-0.5692081607
23.45950,-5.452318684
23.46000,-5.452318684
23.46050,-1.789985791
23.46100,0.6515694701
23.46150,0.04118065471
23.46200,-2.095180199
23.46250,-3.926346645
23.46300,-4.536735461
23.46350,-3.926346645
23.46400,-2.095180199
23.46450,-1.179596976
23.46500,-1.789985791
23.46550,-2.400374607
23.46600,-2.095180199
23.46650,-1.179596976
23.46700,-1.789985791
23.46750,-2.400374607
23.46800,-2.095180199
23.46850,-1.484791384
23.46900,-1.789985791
23.46950,-2.095180199
23.47000,-1.789985791
23.47050,-1.484791384
23.47100,-2.095180199
23.47150,-2.705569015
23.47200,-0.5692081607
23.47250,3.093124732
23.47300,5.229485586
23.47350,4.313902363
23.47400,3.398319139
23.47450,4.008707955
23.47500,5.229485586
23.47550,5.839874401
23.47600,6.450263216
23.47650,6.145068809
23.47700,2.482735916
23.47750,-3.010763422
23.47800,-5.147124276
23.47850,0.3463750624
23.47900,8.891818478
23.47950,10.11259611
23.48000,2.177541509
23.48050,-5.757513092
23.48100,-7.28348513
23.48150,-5.147124276
23.48200,-6.673096315
23.48250,-10.64062361
23.48300,-10.64062361
23.48350,-4.841929869
23.48400,-0.264013753
23.48450,-0.8744025684
23.48500,-3.621152238
23.48550,-3.31595783
23.48600,-1.789985791
23.48650,-2.705569015
23.48700,-4.536735461
23.48750,-2.095180199
23.48800,5.229485586
23.48850,11.94376256
23.48900,13.16454019
23.48950,9.807401701
23.49000,4.61909677
23.49050,-0.5692081607
23.49100,-6.978290722
23.49150,-13.69256769
23.49200,-19.18606703
23.49250,-21.01723348
23.49300,-17.35490058
23.49350,-8.504262761
23.49400,0.3463750624
23.49450,6.145068809
23.49500,7.671040847
23.49550,7.976235255
23.49600,8.58662407
23.49650,8.58662407
23.49700,6.755457624
23.49750,4.008707955
23.49800,2.482735916
23.49850,1.567152693
23.49900,1.261958286
23.49950,0.3463750624
23.50000,0.04118065471
23.50050,-0.8744025684
23.50100,-2.095180199
23.50150,-3.31595783
23.50200,-3.621152238
23.50250,-3.926346645
23.50300,-3.621152238
23.50350,-2.400374607
23.50400,-0.8744025684
23.50450,-1.179596976
23.50500,-3.31595783
23.50550,-4.231541053
23.50600,-0.8744025684
23.50650,4.61909677
23.50700,7.671040847
23.50750,7.060652032
23.50800,4.313902363
23.50850,1.567152693
23.50900,-1.179596976
23.50950,-2.705569015
23.51000,-1.484791384
23.51050,0.9567638778
23.51100,0.9567638778
23.51150,-1.179596976
23.51200,-1.179596976
23.51250,2.177541509
23.51300,4.313902363
23.51350,2.177541509
23.51400,0.04118065471
23.51450,1.261958286
23.51500,4.61909677
23.51550,4.313902363
23.51600,0.04118065471
23.51650,-3.31595783
23.51700,-3.621152238
23.51750,-1.484791384
23.51800,1.261958286
23.51850,3.398319139
23.51900,3.398319139
23.51950,2.482735916
23.52000,2.177541509
23.52050,2.482735916
23.52100,1.261958286
23.52150,0.04118065471
23.52200,3.093124732
23.52250,10.11259611
23.52300,13.774929
23.52350,8.58662407
23.52400,-0.8744025684
23.52450,-6.367901907
23.52500,-6.367901907
23.52550,-3.010763422
23.52600,1.261958286
23.52650,5.839874401
23.52700,6.450263216
23.52750,1.567152693
23.52800,-4.231541053
23.52850,-4.536735461
23.52900,0.3463750624
23.52950,4.61909677
23.53000,3.703513547
23.53050,-1.179596976
23.53100,-5.147124276
23.53150,-3.31595783
23.53200,2.787930324
23.53250,7.671040847
23.53300,4.313902363
23.53350,-5.757513092
23.53400,-13.08217888
23.53450,-10.94581802
23.53500,-3.31595783
23.53550,1.567152693
23.53600,2.482735916
23.53650,0.9567638778
23.53700,-3.010763422
23.53750,-10.0302348
23.53800,-15.82892855
23.53850,-14.60815091
23.53900,-8.809457169
23.53950,-3.926346645
23.54000,-3.621152238
23.54050,-3.621152238
23.54100,-1.484791384
23.54150,0.04118065471
23.54200,-0.264013753
23.54250,-0.5692081607
23.54300,0.6515694701
23.54350,2.482735916
23.54400,2.177541509
23.54450,0.9567638778
23.54500,1.261958286
23.54550,3.398319139
23.54600,4.313902363
23.54650,2.482735916
23.54700,0.04118065471
23.54750,-0.8744025684
23.54800,0.04118065471
23.54850,0.9567638778
23.54900,1.872347101
23.54950,2.482735916
23.55000,2.482735916
23.55050,1.261958286
23.55100,0.04118065471
23.55150,0.04118065471
23.55200,0.04118065471
23.55250,0.9567638778
23.55300,2.177541509
23.55350,4.924291178
23.55400,7.671040847
23.55450,8.58662407
23.55500,7.671040847
23.55550,5.534679993
23.55600,3.398319139
23.55650,1.567152693
23.55700,0.3463750624
23.55750,0.3463750624
23.55800,1.567152693
23.55850,2.482735916
23.55900,2.177541509
23.55950,0.6515694701
23.56000,-0.264013753
23.56050,-0.8744025684
23.56100,-0.264013753
23.56150,0.04118065471
23.56200,-0.8744025684
23.56250,-1.484791384
23.56300,-1.789985791
23.56350,-2.095180199
23.56400,-2.705569015
23.56450,-3.621152238
23.56500,-2.705569015
23.56550,-0.8744025684
23.56600,0.04118065471
23.56650,-0.5692081607
23.56700,-0.5692081607
23.56750,0.04118065471
23.56800,0.6515694701
23.56850,-0.264013753
23.56900,-1.179596976
23.56950,-0.264013753
23.57000,0.04118065471
23.57050,-0.5692081607
23.57100,-2.705569015
23.57150,-4.536735461
23.57200,-5.147124276
23.57250,-3.926346645
23.57300,0.3463750624
23.57350,5.534679993
23.57400,5.839874401
23.57450,0.3463750624
23.57500,-3.31595783
23.57550,0.04118065471
23.57600,5.534679993
23.57650,5.229485586
23.57700,0.3463750624
23.57750,-1.789985791
23.57800,-0.5692081607
23.57850,-0.8744025684
23.57900,-3.926346645
23.57950,-4.841929869
23.58000,-1.179596976
23.58050,2.482735916
23.58100,3.398319139
23.58150,4.61909677
23.58200,7.671040847
23.58250,9.502207293
23.58300,7.060652032
23.58350,3.093124732
23.58400,1.567152693
23.58450,2.787930324
23.58500,4.61909677
23.58550,4.313902363
23.58600,2.177541509
23.58650,0.04118065471
23.58700,0.6515694701
23.58750,6.450263216
23.58800,11.63856815
23.58850,7.36584644
23.58900,-5.757513092
23.58950,-16.13412295
23.59000,-15.52373414
23.59050,-9.419845984
23.59100,-8.199068353
23.59150,-13.08217888
23.59200,-15.82892855
23.59250,-11.86140125
23.59300,-6.367901907
23.59350,-3.926346645
23.59400,-2.705569015
23.59450,0.04118065471
23.59500,3.703513547
23.59550,5.229485586
23.59600,3.398319139
23.59650,2.177541509
23.59700,3.703513547
23.59750,6.450263216
23.59800,6.145068809
23.59850,0.6515694701
23.59900,-6.673096315
23.59950,-11.86140125
23.60000,-12.77698447
23.60050,-9.419845984
23.60100,-3.621152238
23.60150,1.872347101
23.60200,5.534679993
23.60250,4.61909677
23.60300,-0.5692081607
23.60350,-5.147124276
23.60400,-4.231541053
23.60450,0.6515694701
23.60500,4.313902363
23.60550,3.093124732
23.60600,-0.264013753
23.60650,-1.484791384
23.60700,0.3463750624
23.60750,4.008707955
23.60800,5.534679993
23.60850,4.008707955
23.60900,0.6515694701
23.60950,-0.5692081607
23.61000,1.261958286
23.61050,4.008707955
23.61100,3.703513547
23.61150,0.3463750624
23.61200,-1.789985791
23.61250,-0.5692081607
23.61300,1.567152693
23.61350,2.787930324
23.61400,3.093124732
23.61450,3.398319139
23.61500,2.177541509
23.61550,-0.264013753
23.61600,-3.010763422
23.61650,-2.400374607
23.61700,0.04118065471
23.61750,1.261958286
23.61800,0.04118065471
23.61850,-1.789985791
23.61900,-1.484791384
23.61950,0.04118065471
23.62000,1.567152693
23.62050,2.482735916
23.62100,4.008707955
23.62150,6.145068809
23.62200,8.281429663
23.62250,9.197012886
23.62300,9.502207293
23.62350,9.197012886
23.62400,8.58662407
23.62450,7.671040847
23.62500,7.976235255
23.62550,8.891818478
23.62600,6.450263216
23.62650,0.04118065471
23.62700,-5.452318684
23.62750,-4.536735461
23.62800,1.567152693
23.62850,5.534679993
23.62900,1.567152693
23.62950,-6.062707499
23.63000,-10.64062361
23.63050,-9.114651576
23.63100,-4.231541053
23.63150,0.04118065471
23.63200,1.567152693
23.63250,-2.095180199
23.63300,-8.199068353
23.63350,-9.419845984
23.63400,-4.536735461
23.63450,0.04118065471
23.63500,-2.095180199
23.63550,-7.588679538
23.63600,-8.504262761
23.63650,-3.926346645
23.63700,0.3463750624
23.63750,3.703513547
23.63800,8.281429663
23.63850,12.24895696
23.63900,11.33337374
23.63950,6.145068809
23.64000,2.177541509
23.64050,0.04118065471
23.64100,-5.452318684
23.64150,-14.91334532
23.64200,-18.57567822
23.64250,-12.47179006
23.64300,-4.841929869
23.64350,-3.31595783
23.64400,-4.841929869
23.64450,-2.400374607
23.64500,2.482735916
23.64550,4.924291178
23.64600,4.313902363
23.64650,4.008707955
23.64700,4.61909677
23.64750,6.145068809
23.64800,10.11259611
23.64850,15.60609545
23.64900,15.30090104
23.64950,4.924291178
23.65000,-8.809457169
23.65050,-13.38737328
23.65100,-6.673096315
23.65150,2.787930324
23.65200,7.671040847
23.65250,7.36584644
23.65300,5.839874401
23.65350,3.093124732
23.65400,-0.8744025684
23.65450,-4.536735461
23.65500,-5.147124276
23.65550,-4.231541053
23.65600,-3.31595783
23.65650,-3.010763422
23.65700,-3.31595783
23.65750,-3.31595783
23.65800,-2.095180199
23.65850,0.9567638778
23.65900,4.008707955
23.65950,3.398319139
23.66000,-1.789985791
23.66050,-7.28348513
23.66100,-7.893873946
23.66150,-3.621152238
23.66200,1.567152693
23.66250,4.61909677
23.66300,3.703513547
23.66350,-0.264013753
23.66400,-4.231541053
23.66450,-3.31595783
23.66500,1.261958286
23.66550,4.313902363
23.66600,0.9567638778
23.66650,-5.147124276
23.66700,-7.588679538
23.66750,-3.31595783
23.66800,1.567152693
23.66850,1.872347101
23.66900,-0.264013753
23.66950,0.3463750624
23.67000,6.755457624
23.67050,13.46973459
23.67100,13.774929
23.67150,7.976235255
23.67200,0.3463750624
23.67250,-3.926346645
23.67300,-4.841929869
23.67350,-2.400374607
23.67400,0.6515694701
23.67450,2.787930324
23.67500,1.567152693
23.67550,-1.484791384
23.67600,-3.010763422
23.67650,-2.095180199
23.67700,-0.5692081607
23.67750,-0.5692081607
23.67800,0.04118065471
23.67850,2.482735916
23.67900,6.755457624
23.67950,8.58662407
23.68000,6.755457624
23.68050,3.398319139
23.68100,0.04118065471
23.68150,-3.31595783
23.68200,-6.673096315
23.68250,-9.114651576
23.68300,-9.419845984
23.68350,-8.809457169
23.68400,-9.419845984
23.68450,-10.33542921
23.68500,-9.419845984
23.68550,-5.757513092
23.68600,-1.484791384
23.68650,0.04118065471
23.68700,-0.264013753
23.68750,-0.8744025684
23.68800,-0.8744025684
23.68850,-0.8744025684
23.68900,-2.400374607
23.68950,-4.536735461
23.69000,-3.621152238
23.69050,1.567152693
23.69100,7.976235255
23.69150,10.72298492
23.69200,8.58662407
23.69250,4.924291178
23.69300,3.398319139
23.69350,3.093124732
23.69400,0.9567638778
23.69450,-2.400374607
23.69500,-4.841929869
23.69550,-3.926346645
23.69600,-0.8744025684
23.69650,1.261958286
23.69700,1.872347101
23.69750,0.9567638778
23.69800,-1.789985791
23.69850,-6.062707499
23.69900,-7.893873946
23.69950,-5.452318684
23.70000,-0.8744025684
23.70050,0.9567638778
23.70100,0.04118065471
23.70150,0.04118065471
23.70200,0.9567638778
23.70250,1.872347101
23.70300,1.567152693
23.70350,2.482735916
23.70400,5.229485586
23.70450,7.36584644
23.70500,4.924291178
23.70550,0.6515694701
23.70600,-2.095180199
23.70650,-3.926346645
23.70700,-5.757513092
23.70750,-6.978290722
23.70800,-6.062707499
23.70850,-5.757513092
23.70900,-7.588679538
23.70950,-6.978290722
23.71000,0.3463750624
23.71050,9.502207293
23.71100,8.891818478
23.71150,-0.8744025684
23.71200,-6.673096315
23.71250,-1.484791384
23.71300,5.229485586
23.71350,5.534679993
23.71400,4.008707955
23.71450,7.36584644
23.71500,10.41779052
23.71550,5.839874401
23.71600,-1.484791384
23.71650,-2.705569015
23.71700,0.3463750624
23.71750,-0.8744025684
23.71800,-7.28348513
23.71850,-9.419845984
23.71900,-4.841929869
23.71950,-0.264013753
23.72000,0.04118065471
23.72050,0.3463750624
23.72100,1.261958286
23.72150,0.3463750624
23.72200,-0.8744025684
23.72250,1.567152693
23.72300,7.060652032
23.72350,6.145068809
23.72400,-4.231541053
23.72450,-14.60815091
23.72500,-15.21853973
23.72550,-9.419845984
23.72600,-4.536735461
23.72650,-3.926346645
23.72700,-5.452318684
23.72750,-6.062707499
23.72800,-4.231541053
23.72850,0.04118065471
23.72900,4.61909677
23.72950,6.450263216
23.73000,6.145068809
23.73050,7.060652032
23.73100,9.197012886
23.73150,8.281429663
23.73200,3.093124732
23.73250,-1.179596976
23.73300,-1.179596976
23.73350,0.3463750624
23.73400,-0.8744025684
23.73450,-6.367901907
23.73500,-10.0302348
23.73550,-7.893873946
23.73600,-1.789985791
23.73650,3.398319139
23.73700,5.229485586
23.73750,3.703513547
23.73800,2.482735916
23.73850,3.398319139
23.73900,4.924291178
23.73950,4.924291178
23.74000,4.61909677
23.74050,4.61909677
23.74100,4.924291178
23.74150,3.703513547
23.74200,2.787930324
23.74250,4.008707955
23.74300,4.61909677
23.74350,2.482735916
23.74400,-0.8744025684
23.74450,-0.5692081607
23.74500,3.703513547
23.74550,5.839874401
23.74600,3.093124732
23.74650,0.3463750624
23.74700,2.177541509
23.74750,6.450263216
23.74800,7.976235255
23.74850,9.502207293
23.74900,15.30090104
23.74950,21.09959479
23.75000,16.82687308
23.75050,0.6515694701
23.75100,-14.60815091
23.75150,-17.35490058
23.75200,-7.28348513
23.75250,2.482735916
23.75300,3.703513547
23.75350,-2.400374607
23.75400,-8.199068353
23.75450,-8.504262761
23.75500,-5.147124276
23.75550,-2.400374607
23.75600,-1.484791384
23.75650,-1.484791384
23.75700,-0.8744025684
23.75750,-0.264013753
23.75800,0.04118065471
23.75850,0.9567638778
23.75900,1.872347101
23.75950,1.872347101
23.76000,1.261958286
23.76050,1.872347101
23.76100,3.398319139
23.76150,3.093124732
23.76200,0.6515694701
23.76250,0.04118065471
23.76300,2.482735916
23.76350,5.534679993
23.76400,5.839874401
23.76450,4.61909677
23.76500,3.398319139
23.76550,0.6515694701
23.76600,-3.926346645
23.76650,-7.893873946
23.76700,-7.893873946
23.76750,-5.452318684
23.76800,-3.621152238
23.76850,-2.095180199
23.76900,0.6515694701
23.76950,2.177541509
23.77000,0.04118065471
23.77050,-2.705569015
23.77100,-1.179596976
23.77150,2.177541509
23.77200,2.787930324
23.77250,0.6515694701
23.77300,0.3463750624
23.77350,1.872347101
23.77400,1.567152693
23.77450,0.6515694701
23.77500,3.703513547
23.77550,7.671040847
23.77600,6.450263216
23.77650,2.787930324
23.77700,4.008707955
23.77750,8.58662407
23.77800,6.145068809
23.77850,-4.536735461
23.77900,-13.08217888
23.77950,-10.94581802
23.78000,-3.926346645
23.78050,-1.179596976
23.78100,-1.789985791
23.78150,-0.5692081607
23.78200,0.3463750624
23.78250,-1.789985791
23.78300,-7.28348513
23.78350,-10.94581802
23.78400,-11.25101243
23.78450,-10.94581802
23.78500,-9.725040392
23.78550,-6.062707499
23.78600,-1.789985791
23.78650,0.04118065471
23.78700,-0.5692081607
23.78750,-1.789985791
23.78800,-2.705569015
23.78850,-3.621152238
23.78900,-3.621152238
23.78950,-2.400374607
23.79000,-1.789985791
23.79050,-3.31595783
23.79100,-4.231541053
23.79150,-3.926346645
23.79200,-3.010763422
23.79250,-2.705569015
23.79300,-0.5692081607
23.79350,4.61909677
23.79400,10.11259611
23.79450,11.63856815
23.79500,9.197012886
23.79550,6.145068809
23.79600,2.787930324
23.79650,-1.789985791
23.79700,-6.367901907
23.79750,-9.114651576
23.79800,-10.0302348
23.79850,-9.419845984
23.79900,-5.757513092
23.79950,0.3463750624
23.80000,5.229485586
23.80050,3.398319139
23.80100,-0.8744025684
23.80150,-2.400374607
23.80200,0.04118065471
23.80250,0.9567638778
23.80300,0.04118065471
23.80350,-0.264013753
23.80400,1.261958286
23.80450,2.482735916
23.80500,1.261958286
23.80550,-1.179596976
23.80600,-3.31595783
23.80650,-4.536735461
23.80700,-4.536735461
23.80750,-2.095180199
23.80800,1.261958286
23.80850,2.482735916
23.80900,1.261958286
23.80950,0.04118065471
23.81000,1.261958286
23.81050,3.093124732
23.81100,4.008707955
23.81150,3.703513547
23.81200,3.398319139
23.81250,2.787930324
23.81300,1.872347101
23.81350,1.872347101
23.81400,4.008707955
23.81450,6.450263216
23.81500,6.450263216
23.81550,3.093124732
23.81600,-2.400374607
23.81650,-6.978290722
23.81700,-7.893873946
23.81750,-6.367901907
23.81800,-4.841929869
23.81850,-3.010763422
23.81900,0.3463750624
23.81950,4.008707955
23.82000,4.313902363
23.82050,0.9567638778
23.82100,-0.5692081607
23.82150,0.6515694701
23.82200,2.177541509
23.82250,0.6515694701
23.82300,-1.179596976
23.82350,-0.8744025684
23.82400,0.9567638778
23.82450,2.787930324
23.82500,6.145068809
23.82550,10.72298492
23.82600,12.24895696
23.82650,5.839874401
23.82700,-4.231541053
23.82750,-8.504262761
23.82800,-4.536735461
23.82850,0.3463750624
23.82900,0.3463750624
23.82950,-2.095180199
23.83000,-3.926346645
23.83050,-5.757513092
23.83100,-8.809457169
23.83150,-9.725040392
23.83200,-4.536735461
23.83250,4.313902363
23.83300,10.72298492
23.83350,11.33337374
23.83400,9.197012886
23.83450,7.36584644
23.83500,5.534679993
23.83550,4.61909677
23.83600,6.145068809
23.83650,10.11259611
23.83700,12.85934578
23.83750,10.41779052
23.83800,2.787930324
23.83850,-4.231541053
23.83900,-5.452318684
23.83950,0.04118065471
23.84000,7.671040847
23.84050,9.502207293
23.84100,1.567152693
23.84150,-11.25101243
23.84200,-18.88087262
23.84250,-15.82892855
23.84300,-7.893873946
23.84350,-4.536735461
23.84400,-6.978290722
23.84450,-8.809457169
23.84500,-5.147124276
23.84550,-0.5692081607
23.84600,-0.264013753
23.84650,-2.095180199
23.84700,-1.789985791
23.84750,0.3463750624
23.84800,1.567152693
23.84850,0.9567638778
23.84900,2.177541509
23.84950,5.229485586
23.85000,6.755457624
23.85050,4.008707955
23.85100,1.261958286
23.85150,0.9567638778
23.85200,1.872347101
23.85250,1.261958286
23.85300,0.04118065471
23.85350,-0.264013753
23.85400,0.3463750624
23.85450,1.567152693
23.85500,3.093124732
23.85550,5.534679993
23.85600,7.36584644
23.85650,7.36584644
23.85700,6.145068809
23.85750,4.61909677
23.85800,4.313902363
23.85850,7.060652032
23.85900,12.24895696
23.85950,16.52167867
23.86000,14.69051222
23.86050,5.839874401
23.86100,-2.705569015
23.86150,-5.757513092
23.86200,-2.705569015
23.86250,1.567152693
23.86300,3.398319139
23.86350,1.872347101
23.86400,-1.789985791
23.86450,-5.147124276
23.86500,-6.367901907
23.86550,-5.147124276
23.86600,-3.010763422
23.86650,-0.8744025684
23.86700,1.872347101
23.86750,5.534679993
23.86800,7.671040847
23.86850,5.534679993
23.86900,-0.5692081607
23.86950,-8.809457169
23.87000,-13.69256769
23.87050,-12.77698447
23.87100,-8.199068353
23.87150,-4.536735461
23.87200,-3.926346645
23.87250,-3.926346645
23.87300,-2.705569015
23.87350,-0.8744025684
23.87400,0.04118065471
23.87450,1.872347101
23.87500,4.61909677
23.87550,6.145068809
23.87600,3.093124732
23.87650,-2.705569015
23.87700,-6.978290722
23.87750,-8.199068353
23.87800,-8.504262761
23.87850,-8.809457169
23.87900,-6.367901907
23.87950,-1.789985791
23.88000,1.261958286
23.88050,0.6515694701
23.88100,-2.095180199
23.88150,-3.621152238
23.88200,-3.31595783
23.88250,-2.705569015
23.88300,-3.621152238
23.88350,-4.536735461
23.88400,-3.926346645
23.88450,-1.789985791
23.88500,-0.264013753
23.88550,0.04118065471
23.88600,0.04118065471
23.88650,0.3463750624
23.88700,1.261958286
23.88750,0.6515694701
23.88800,-0.8744025684
23.88850,-2.095180199
23.88900,-0.264013753
23.88950,3.398319139
23.89000,5.534679993
23.89050,3.398319139
23.89100,-0.5692081607
23.89150,-3.31595783
23.89200,-2.705569015
23.89250,-0.264013753
23.89300,0.9567638778
23.89350,1.261958286
23.89400,1.567152693
23.89450,4.924291178
23.89500,10.11259611
23.89550,13.774929
23.89600,12.55415137
23.89650,5.534679993
23.89700,-3.621152238
23.89750,-11.55620684
23.89800,-13.9977621
23.89850,-10.94581802
23.89900,-4.841929869
23.89950,0.6515694701
23.90000,3.703513547
23.90050,2.787930324
23.90100,-1.484791384
23.90150,-6.673096315
23.90200,-9.419845984
23.90250,-8.504262761
23.90300,-5.147124276
23.90350,-2.400374607
23.90400,-1.484791384
23.90450,-1.789985791
23.90500,-1.179596976
23.90550,0.04118065471
23.90600,1.261958286
23.90650,1.567152693
23.90700,0.6515694701
23.90750,0.04118065471
23.90800,-0.264013753
23.90850,-1.179596976
23.90900,-0.8744025684
23.90950,1.872347101
23.91000,6.145068809
23.91050,7.36584644
23.91100,4.313902363
23.91150,0.04118065471
23.91200,-0.264013753
23.91250,2.177541509
23.91300,4.313902363
23.91350,4.313902363
23.91400,2.482735916
23.91450,0.04118065471
23.91500,-1.179596976
23.91550,-0.5692081607
23.91600,1.872347101
23.91650,4.924291178
23.91700,5.839874401
23.91750,4.924291178
23.91800,4.61909677
23.91850,5.534679993
23.91900,6.755457624
23.91950,6.450263216
23.92000,3.398319139
23.92050,-0.8744025684
23.92100,-5.452318684
23.92150,-6.978290722
23.92200,-5.452318684
23.92250,-3.010763422
23.92300,-3.010763422
23.92350,-5.452318684
23.92400,-7.588679538
23.92450,-6.367901907
23.92500,-2.705569015
23.92550,0.04118065471
23.92600,0.6515694701
23.92650,0.9567638778
23.92700,2.482735916
23.92750,4.008707955
23.92800,3.093124732
23.92850,0.04118065471
23.92900,-2.095180199
23.92950,-0.8744025684
23.93000,3.398319139
23.93050,7.060652032
23.93100,7.36584644
23.93150,4.924291178
23.93200,1.567152693
23.93250,0.04118065471
23.93300,-0.264013753
23.93350,-0.8744025684
23.93400,-4.231541053
23.93450,-7.588679538
23.93500,-6.367901907
23.93550,-0.8744025684
23.93600,3.093124732
23.93650,0.04118065471
23.93700,-7.588679538
23.93750,-12.77698447
23.93800,-12.16659565
23.93850,-9.114651576
23.93900,-6.062707499
23.93950,-1.789985791
23.94000,3.093124732
23.94050,5.534679993
23.94100,5.229485586
23.94150,7.976235255
23.94200,14.99570663
23.94250,18.96323393
23.94300,13.774929
23.94350,4.924291178
23.94400,0.9567638778
23.94450,-1.484791384
23.94500,-12.47179006
23.94550,-28.95228808
23.94600,-35.36137064
23.94650,-24.67956637
23.94700,-8.199068353
23.94750,-0.5692081607
23.94800,-1.789985791
23.94850,-1.484791384
23.94900,2.482735916
23.94950,3.703513547
23.95000,-1.179596976
23.95050,-7.893873946
23.95100,-11.55620684
23.95150,-11.55620684
23.95200,-8.504262761
23.95250,-1.789985791
23.95300,7.060652032
23.95350,13.16454019
23.95400,12.24895696
23.95450,7.671040847
23.95500,4.61909677
23.95550,6.450263216
23.95600,10.41779052
23.95650,13.774929
23.95700,14.69051222
23.95750,12.85934578
23.95800,9.502207293
23.95850,5.534679993
23.95900,3.398319139
23.95950,2.482735916
23.96000,2.482735916
23.96050,4.313902363
23.96100,7.060652032
23.96150,8.281429663
23.96200,5.839874401
23.96250,2.177541509
23.96300,0.6515694701
23.96350,1.567152693
23.96400,0.9567638778
23.96450,-2.705569015
23.96500,-6.367901907
23.96550,-5.757513092
23.96600,-2.705569015
23.96650,-1.179596976
23.96700,-1.179596976
23.96750,-0.264013753
23.96800,1.872347101
23.96850,2.787930324
23.96900,2.177541509
23.96950,1.567152693
23.97000,1.872347101
23.97050,1.872347101
23.97100,0.6515694701
23.97150,0.04118065471
23.97200,0.04118065471
23.97250,0.04118065471
23.97300,0.04118065471
23.97350,0.6515694701
23.97400,2.177541509
23.97450,3.398319139
23.97500,4.924291178
23.97550,7.976235255
23.97600,10.11259611
23.97650,6.755457624
23.97700,-0.8744025684
23.97750,-7.588679538
23.97800,-9.419845984
23.97850,-7.588679538
23.97900,-6.062707499
23.97950,-5.147124276
23.98000,-3.31595783
23.98050,-0.264013753
23.98100,1.567152693
23.98150,1.872347101
23.98200,2.787930324
23.98250,3.703513547
23.98300,4.008707955
23.98350,2.482735916
23.98400,0.3463750624
23.98450,-0.264013753
23.98500,1.261958286
23.98550,4.313902363
23.98600,6.145068809
23.98650,4.61909677
23.98700,0.9567638778
23.98750,-1.789985791
23.98800,-1.484791384
23.98850,0.04118065471
23.98900,0.6515694701
23.98950,0.04118065471
23.99000,0.04118065471
23.99050,2.177541509
23.99100,3.398319139
23.99150,0.04118065471
23.99200,-5.147124276
23.99250,-6.978290722
23.99300,-3.31595783
23.99350,-0.5692081607
23.99400,-3.010763422
23.99450,-7.893873946
23.99500,-8.809457169
23.99550,-6.062707499
23.99600,-4.231541053
23.99650,-5.452318684
23.99700,-6.062707499
23.99750,-3.31595783
23.99800,0.9567638778
23.99850,4.61909677
23.99900,5.534679993
23.99950,4.61909677
24.00000,2.482735916
24.00050,1.872347101
24.00100,4.924291178
24.00150,9.197012886
24.00200,9.807401701
24.00250,4.313902363
24.00300,-3.010763422
24.00350,-7.588679538
24.00400,-7.28348513
24.00450,-3.010763422
24.00500,1.261958286
24.00550,4.008707955
24.00600,4.61909677
24.00650,3.703513547
24.00700,2.177541509
24.00750,1.567152693
24.00800,1.872347101
24.00850,3.703513547
24.00900,6.145068809
24.00950,5.839874401
24.01000,2.177541509
24.01050,-1.789985791
24.01100,-3.621152238
24.01150,-3.010763422
24.01200,-2.705569015
24.01250,-1.484791384
24.01300,0.9567638778
24.01350,2.787930324
24.01400,-0.5692081607
24.01450,-7.893873946
24.01500,-13.08217888
24.01550,-11.25101243
24.01600,-5.757513092
24.01650,-1.789985791
24.01700,-1.179596976
24.01750,-2.095180199
24.01800,-2.400374607
24.01850,-2.705569015
24.01900,-2.705569015
24.01950,-2.400374607
24.02000,-2.400374607
24.02050,-2.705569015
24.02100,-2.705569015
24.02150,-1.789985791
24.02200,-0.8744025684
24.02250,-0.5692081607
24.02300,-1.179596976
24.02350,-1.484791384
24.02400,-0.8744025684
24.02450,-0.5692081607
24.02500,-1.179596976
24.02550,-1.789985791
24.02600,-1.179596976
24.02650,-0.5692081607
24.02700,-2.705569015
24.02750,-6.062707499
24.02800,-5.757513092
24.02850,-0.8744025684
24.02900,3.093124732
24.02950,2.177541509
24.03000,-1.179596976
24.03050,-2.400374607
24.03100,-1.484791384
24.03150,-1.789985791
24.03200,-3.010763422
24.03250,-1.179596976
24.03300,2.482735916
24.03350,3.398319139
24.03400,0.6515694701
24.03450,-0.264013753
24.03500,2.482735916
24.03550,5.229485586
24.03600,4.924291178
24.03650,3.703513547
24.03700,4.61909677
24.03750,5.534679993
24.03800,5.229485586
24.03850,6.450263216
24.03900,9.807401701
24.03950,10.11259611
24.04000,5.229485586
24.04050,2.177541509
24.04100,5.534679993
24.04150,11.63856815
24.04200,13.16454019
24.04250,10.11259611
24.04300,8.281429663
24.04350,7.36584644
24.04400,6.755457624
24.04450,8.281429663
24.04500,12.55415137
24.04550,11.33337374
24.04600,-3.621152238
24.04650,-25.28995518
24.04700,-38.41331472
24.04750,-36.88734268
24.04800,-28.34189926
24.04850,-19.49126144
24.04900,-9.725040392
24.04950,0.04118065471
24.05000,4.61909677
24.05050,1.261958286
24.05100,-4.231541053
24.05150,-5.452318684
24.05200,-3.621152238
24.05250,-3.926346645
24.05300,-6.673096315
24.05350,-8.809457169
24.05400,-8.199068353
24.05450,-6.062707499
24.05500,-3.010763422
24.05550,0.04118065471
24.05600,3.398319139
24.05650,5.229485586
24.05700,4.61909677
24.05750,2.177541509
24.05800,0.04118065471
24.05850,0.04118065471
24.05900,2.177541509
24.05950,4.924291178
24.06000,4.924291178
24.06050,2.787930324
24.06100,1.261958286
24.06150,2.177541509
24.06200,3.398319139
24.06250,2.787930324
24.06300,0.9567638778
24.06350,0.3463750624
24.06400,2.482735916
24.06450,5.229485586
24.06500,5.534679993
24.06550,2.787930324
24.06600,0.6515694701
24.06650,0.9567638778
24.06700,2.787930324
24.06750,2.787930324
24.06800,0.6515694701
24.06850,-1.484791384
24.06900,-2.400374607
24.06950,-1.789985791
24.07000,-0.5692081607
24.07050,0.04118065471
24.07100,0.6515694701
24.07150,2.787930324
24.07200,6.755457624
24.07250,11.02817933
24.07300,11.33337374
24.07350,7.060652032
24.07400,0.6515694701
24.07450,-3.31595783
24.07500,-3.926346645
24.07550,-3.010763422
24.07600,-1.179596976
24.07650,0.6515694701
24.07700,2.482735916
24.07750,2.787930324
24.07800,1.261958286
24.07850,0.3463750624
24.07900,0.9567638778
24.07950,1.567152693
24.08000,0.04118065471
24.08050,-2.400374607
24.08100,-2.705569015
24.08150,0.04118065471
24.08200,3.093124732
24.08250,2.482735916
24.08300,0.3463750624
24.08350,0.04118065471
24.08400,2.177541509
24.08450,2.787930324
24.08500,1.261958286
24.08550,-0.5692081607
24.08600,-0.264013753
24.08650,0.6515694701
24.08700,1.567152693
24.08750,1.872347101
24.08800,2.177541509
24.08850,1.872347101
24.08900,0.3463750624
24.08950,-0.264013753
24.09000,-0.264013753
24.09050,-0.264013753
24.09100,-0.8744025684
24.09150,-1.179596976
24.09200,0.04118065471
24.09250,0.3463750624
24.09300,0.04118065471
24.09350,0.04118065471
24.09400,2.787930324
24.09450,7.671040847
24.09500,11.33337374
24.09550,12.24895696
24.09600,9.807401701
24.09650,4.61909677
24.09700,0.9567638778
24.09750,1.872347101
24.09800,7.060652032
24.09850,10.11259611
24.09900,7.060652032
24.09950,0.3463750624
24.10000,-5.452318684
24.10050,-8.504262761
24.10100,-7.893873946
24.10150,-2.400374607
24.10200,5.839874401
24.10250,9.197012886
24.10300,2.787930324
24.10350,-8.199068353
24.10400,-13.08217888
24.10450,-10.0302348
24.10500,-6.062707499
24.10550,-6.062707499
24.10600,-7.588679538
24.10650,-6.978290722
24.10700,-4.841929869
24.10750,-3.621152238
24.10800,-2.400374607
24.10850,0.04118065471
24.10900,3.703513547
24.10950,5.839874401
24.11000,5.229485586
24.11050,1.567152693
24.11100,-6.062707499
24.11150,-14.91334532
24.11200,-18.57567822
24.11250,-14.30295651
24.11300,-6.062707499
24.11350,0.3463750624
24.11400,2.482735916
24.11450,0.04118065471
24.11500,-4.536735461
24.11550,-8.809457169
24.11600,-8.504262761
24.11650,-4.231541053
24.11700,-0.264013753
24.11750,0.6515694701
24.11800,0.9567638778
24.11850,2.177541509
24.11900,2.482735916
24.11950,1.567152693
24.12000,1.261958286
24.12050,2.482735916
24.12100,3.093124732
24.12150,2.787930324
24.12200,3.703513547
24.12250,5.839874401
24.12300,5.534679993
24.12350,0.04118065471
24.12400,-6.367901907
24.12450,-9.419845984
24.12500,-7.893873946
24.12550,-5.757513092
24.12600,-4.536735461
24.12650,-3.010763422
24.12700,-1.179596976
24.12750,-0.264013753
24.12800,-0.264013753
24.12850,-0.8744025684
24.12900,-1.179596976
24.12950,-0.264013753
24.13000,1.567152693
24.13050,3.703513547
24.13100,2.482735916
24.13150,0.04118065471
24.13200,0.04118065471
24.13250,5.534679993
24.13300,9.197012886
24.13350,5.839874401
24.13400,-0.5692081607
24.13450,-3.31595783
24.13500,-0.264013753
24.13550,3.703513547
24.13600,6.145068809
24.13650,7.060652032
24.13700,7.060652032
24.13750,5.534679993
24.13800,3.703513547
24.13850,3.398319139
24.13900,4.008707955
24.13950,3.093124732
24.14000,0.6515694701
24.14050,-0.264013753
24.14100,0.04118065471
24.14150,1.261958286
24.14200,2.482735916
24.14250,3.398319139
24.14300,3.093124732
24.14350,1.261958286
24.14400,-0.264013753
24.14450,-0.264013753
24.14500,0.04118065471
24.14550,-0.264013753
24.14600,-1.484791384
24.14650,-0.8744025684
24.14700,0.3463750624
24.14750,0.04118065471
24.14800,-1.484791384
24.14850,-3.31595783
24.14900,-4.231541053
24.14950,-5.147124276
24.15000,-6.367901907
24.15050,-6.673096315
24.15100,-5.452318684
24.15150,-2.705569015
24.15200,0.9567638778
24.15250,5.839874401
24.15300,10.11259611
24.15350,13.16454019
24.15400,12.24895696
24.15450,7.671040847
24.15500,1.567152693
24.15550,-1.179596976
24.15600,0.9567638778
24.15650,4.008707955
24.15700,1.872347101
24.15750,-4.536735461
24.15800,-10.64062361
24.15850,-13.9977621
24.15900,-15.82892855
24.15950,-15.21853973
24.16000,-8.809457169
24.16050,-1.179596976
24.16100,-2.705569015
24.16150,-12.77698447
24.16200,-16.43931736
24.16250,-3.926346645
24.16300,14.08012341
24.16350,20.48920597
24.16400,11.33337374
24.16450,-0.8744025684
24.16500,-6.673096315
24.16550,-5.757513092
24.16600,-2.095180199
24.16650,0.6515694701
24.16700,0.6515694701
24.16750,-2.400374607
24.16800,-4.841929869
24.16850,-2.400374607
24.16900,1.872347101
24.16950,2.787930324
24.17000,0.9567638778
24.17050,0.9567638778
24.17100,3.703513547
24.17150,4.924291178
24.17200,5.839874401
24.17250,10.11259611
24.17300,15.60609545
24.17350,13.46973459
24.17400,0.04118065471
24.17450,-15.52373414
24.17500,-20.40684466
24.17550,-12.77698447
24.17600,-1.789985791
24.17650,4.61909677
24.17700,5.839874401
24.17750,4.61909677
24.17800,3.093124732
24.17850,2.177541509
24.17900,0.9567638778
24.17950,-1.179596976
24.18000,-4.536735461
24.18050,-5.452318684
24.18100,-3.31595783
24.18150,0.04118065471
24.18200,2.482735916
24.18250,4.924291178
24.18300,7.976235255
24.18350,9.197012886
24.18400,5.839874401
24.18450,1.567152693
24.18500,1.872347101
24.18550,4.924291178
24.18600,4.313902363
24.18650,0.3463750624
24.18700,1.261958286
24.18750,9.502207293
24.18800,14.38531782
24.18850,6.145068809
24.18900,-8.199068353
24.18950,-15.21853973
24.19000,-10.64062361
24.19050,-3.31595783
24.19100,-1.789985791
24.19150,-3.31595783
24.19200,-2.400374607
24.19250,0.3463750624
24.19300,2.482735916
24.19350,1.872347101
24.19400,0.9567638778
24.19450,0.6515694701
24.19500,1.872347101
24.19550,4.313902363
24.19600,5.534679993
24.19650,4.313902363
24.19700,1.872347101
24.19750,0.9567638778
24.19800,1.261958286
24.19850,0.6515694701
24.19900,0.04118065471
24.19950,0.3463750624
24.20000,0.6515694701
24.20050,-1.179596976
24.20100,-3.621152238
24.20150,-2.400374607
24.20200,1.261958286
24.20250,2.482735916
24.20300,0.04118065471
24.20350,-3.010763422
24.20400,-2.705569015
24.20450,-1.789985791
24.20500,-3.31595783
24.20550,-5.757513092
24.20600,-5.757513092
24.20650,-3.621152238
24.20700,-1.179596976
24.20750,0.6515694701
24.20800,3.398319139
24.20850,7.060652032
24.20900,10.72298492
24.20950,12.24895696
24.21000,10.72298492
24.21050,6.145068809
24.21100,0.3463750624
24.21150,-3.31595783
24.21200,-4.536735461
24.21250,-4.841929869
24.21300,-6.673096315
24.21350,-9.114651576
24.21400,-9.419845984
24.21450,-6.062707499
24.21500,-1.789985791
24.21550,0.6515694701
24.21600,0.6515694701
24.21650,0.04118065471
24.21700,0.04118065471
24.21750,0.6515694701
24.21800,0.04118065471
24.21850,-3.621152238
24.21900,-7.28348513
24.21950,-8.199068353
24.22000,-6.062707499
24.22050,-4.231541053
24.22100,-3.31595783
24.22150,-2.400374607
24.22200,0.04118065471
24.22250,2.177541509
24.22300,2.482735916
24.22350,0.04118065471
24.22400,-2.400374607
24.22450,-2.400374607
24.22500,-0.5692081607
24.22550,0.6515694701
24.22600,1.872347101
24.22650,2.787930324
24.22700,4.008707955
24.22750,4.924291178
24.22800,5.534679993
24.22850,6.145068809
24.22900,5.839874401
24.22950,4.008707955
24.23000,1.872347101
24.23050,1.567152693
24.23100,3.093124732
24.23150,3.398319139
24.23200,2.177541509
24.23250,1.261958286
24.23300,1.567152693
24.23350,0.9567638778
24.23400,-0.264013753
24.23450,0.04118065471
24.23500,2.482735916
24.23550,4.313902363
24.23600,2.177541509
24.23650,-1.484791384
24.23700,-3.010763422
24.23750,-0.8744025684
24.23800,0.9567638778
24.23850,1.261958286
24.23900,0.04118065471
24.23950,0.04118065471
24.24000,0.6515694701
24.24050,0.9567638778
24.24100,0.04118065471
24.24150,-0.5692081607
24.24200,-0.8744025684
24.24250,-0.8744025684
24.24300,-0.8744025684
24.24350,-0.8744025684
24.24400,-1.484791384
24.24450,-3.010763422
24.24500,-6.062707499
24.24550,-8.809457169
24.24600,-8.809457169
24.24650,-6.062707499
24.24700,-2.705569015
24.24750,-0.5692081607
24.24800,-0.5692081607
24.24850,-2.095180199
24.24900,-2.705569015
24.24950,0.04118065471
24.25000,6.450263216
24.25050,10.72298492
24.25100,9.197012886
24.25150,4.924291178
24.25200,3.703513547
24.25250,5.229485586
24.25300,4.924291178
24.25350,2.482735916
24.25400,3.093124732
24.25450,8.891818478
24.25500,13.774929
24.25550,11.02817933
24.25600,0.9567638778
24.25650,-9.114651576
24.25700,-13.69256769
24.25750,-12.47179006
24.25800,-9.725040392
24.25850,-8.809457169
24.25900,-9.725040392
24.25950,-9.114651576
24.26000,-5.452318684
24.26050,0.04118065471
24.26100,5.229485586
24.26150,11.63856815
24.26200,18.35284512
24.26250,19.57362275
24.26300,10.41779052
24.26350,-3.926346645
24.26400,-13.38737328
24.26450,-13.9977621
24.26500,-11.55620684
24.26550,-11.25101243
24.26600,-12.77698447
24.26650,-13.38737328
24.26700,-12.77698447
24.26750,-11.55620684
24.26800,-10.0302348
24.26850,-6.367901907
24.26900,-1.179596976
24.26950,2.787930324
24.27000,4.008707955
24.27050,1.567152693
24.27100,-1.484791384
24.27150,-0.8744025684
24.27200,3.093124732
24.27250,5.229485586
24.27300,2.482735916
24.27350,-0.8744025684
24.27400,0.04118065471
24.27450,3.398319139
24.27500,5.534679993
24.27550,5.839874401
24.27600,6.755457624
24.27650,6.145068809
24.27700,2.787930324
24.27750,0.6515694701
24.27800,4.008707955
24.27850,8.891818478
24.27900,6.145068809
24.27950,-3.31595783
24.28000,-10.33542921
24.28050,-8.809457169
24.28100,-5.147124276
24.28150,-4.231541053
24.28200,-4.231541053
24.28250,-2.095180199
24.28300,0.04118065471
24.28350,0.04118065471
24.28400,-1.484791384
24.28450,-1.484791384
24.28500,-1.179596976
24.28550,-1.484791384
24.28600,-0.8744025684
24.28650,1.872347101
24.28700,4.313902363
24.28750,4.61909677
24.28800,6.145068809
24.28850,10.11259611
24.28900,11.02817933
24.28950,4.924291178
24.29000,-3.31595783
24.29050,-6.062707499
24.29100,-3.31595783
24.29150,-0.5692081607
24.29200,0.6515694701
24.29250,3.398319139
24.29300,7.060652032
24.29350,5.839874401
24.29400,0.04118065471
24.29450,-2.400374607
24.29500,2.177541509
24.29550,9.197012886
24.29600,9.807401701
24.29650,4.924291178
24.29700,2.787930324
24.29750,5.839874401
24.29800,9.197012886
24.29850,7.671040847
24.29900,3.093124732
24.29950,-1.179596976
24.30000,-3.621152238
24.30050,-4.536735461
24.30100,-3.621152238
24.30150,-0.5692081607
24.30200,1.872347101
24.30250,0.6515694701
24.30300,-3.31595783
24.30350,-8.199068353
24.30400,-9.725040392
24.30450,-6.367901907
24.30500,-0.5692081607
24.30550,3.703513547
24.30600,4.924291178
24.30650,4.313902363
24.30700,3.703513547
24.30750,3.398319139
24.30800,1.567152693
24.30850,-3.31595783
24.30900,-10.94581802
24.30950,-17.9652894
24.31000,-20.40684466
24.31050,-16.43931736
24.31100,-7.588679538
24.31150,0.9567638778
24.31200,5.534679993
24.31250,6.450263216
24.31300,6.450263216
24.31350,6.755457624
24.31400,6.145068809
24.31450,4.61909677
24.31500,3.093124732
24.31550,1.872347101
24.31600,0.3463750624
24.31650,-0.5692081607
24.31700,-0.5692081607
24.31750,0.3463750624
24.31800,1.567152693
24.31850,2.177541509
24.31900,1.567152693
24.31950,0.04118065471
24.32000,-2.095180199
24.32050,-3.010763422
24.32100,-0.8744025684
24.32150,2.787930324
24.32200,7.060652032
24.32250,10.11259611
24.32300,10.72298492
24.32350,6.450263216
24.32400,-1.789985791
24.32450,-9.419845984
24.32500,-10.64062361
24.32550,-6.978290722
24.32600,-3.010763422
24.32650,-2.095180199
24.32700,-2.400374607
24.32750,-2.705569015
24.32800,-3.926346645
24.32850,-4.841929869
24.32900,-3.31595783
24.32950,-0.264013753
24.33000,0.9567638778
24.33050,0.04118065471
24.33100,0.3463750624
24.33150,3.093124732
24.33200,5.229485586
24.33250,3.093124732
24.33300,0.04118065471
24.33350,-0.264013753
24.33400,0.9567638778
24.33450,0.9567638778
24.33500,0.04118065471
24.33550,1.261958286
24.33600,3.398319139
24.33650,2.787930324
24.33700,0.04118065471
24.33750,-0.264013753
24.33800,0.9567638778
24.33850,0.04118065471
24.33900,-3.621152238
24.33950,-5.757513092
24.34000,-2.705569015
24.34050,0.9567638778
24.34100,0.04118065471
24.34150,-3.621152238
24.34200,-5.147124276
24.34250,-2.095180199
24.34300,2.177541509
24.34350,4.313902363
24.34400,4.61909677
24.34450,5.534679993
24.34500,9.807401701
24.34550,14.38531782
24.34600,13.16454019
24.34650,5.534679993
24.34700,-1.789985791
24.34750,-3.010763422
24.34800,-0.264013753
24.34850,0.04118065471
24.34900,-0.8744025684
24.34950,2.177541509
24.35000,8.58662407
24.35050,8.58662407
24.35100,-0.5692081607
24.35150,-10.94581802
24.35200,-12.16659565
24.35250,-6.673096315
24.35300,-3.010763422
24.35350,-2.400374607
24.35400,-0.264013753
24.35450,4.008707955
24.35500,5.839874401
24.35550,3.703513547
24.35600,0.04118065471
24.35650,-0.8744025684
24.35700,-0.5692081607
24.35750,0.3463750624
24.35800,1.261958286
24.35850,1.567152693
24.35900,1.261958286
24.35950,1.872347101
24.36000,3.093124732
24.36050,3.093124732
24.36100,0.6515694701
24.36150,-2.095180199
24.36200,-3.621152238
24.36250,-3.621152238
24.36300,-3.31595783
24.36350,-2.400374607
24.36400,-0.8744025684
24.36450,-0.264013753
24.36500,-1.179596976
24.36550,-3.010763422
24.36600,-2.705569015
24.36650,-1.484791384
24.36700,-1.179596976
24.36750,-2.400374607
24.36800,-3.010763422
24.36850,-2.705569015
24.36900,-2.400374607
24.36950,-2.705569015
24.37000,-3.31595783
24.37050,-3.621152238
24.37100,-4.231541053
24.37150,-4.231541053
24.37200,-3.31595783
24.37250,-2.400374607
24.37300,-2.400374607
24.37350,-3.31595783
24.37400,-3.010763422
24.37450,-0.8744025684
24.37500,1.567152693
24.37550,3.398319139
24.37600,3.093124732
24.37650,0.6515694701
24.37700,-1.179596976
24.37750,-0.8744025684
24.37800,0.6515694701
24.37850,3.093124732
24.37900,4.61909677
24.37950,5.839874401
24.38000,5.534679993
24.38050,3.703513547
24.38100,1.872347101
24.38150,2.787930324
24.38200,6.450263216
24.38250,8.58662407
24.38300,6.755457624
24.38350,2.177541509
24.38400,-0.8744025684
24.38450,-3.621152238
24.38500,-6.978290722
24.38550,-10.0302348
24.38600,-9.725040392
24.38650,-7.28348513
24.38700,-6.062707499
24.38750,-6.978290722
24.38800,-7.28348513
24.38850,-5.147124276
24.38900,-1.789985791
24.38950,0.3463750624
24.39000,2.177541509
24.39050,4.313902363
24.39100,5.229485586
24.39150,3.703513547
24.39200,1.261958286
24.39250,0.04118065471
24.39300,-0.8744025684
24.39350,-2.095180199
24.39400,-2.705569015
24.39450,-0.264013753
24.39500,4.008707955
24.39550,7.36584644
24.39600,7.671040847
24.39650,6.145068809
24.39700,4.313902363
24.39750,2.482735916
24.39800,0.3463750624
24.39850,0.3463750624
24.39900,3.703513547
24.39950,7.36584644
24.40000,4.924291178
24.40050,-3.010763422
24.40100,-11.25101243
24.40150,-13.38737328
24.40200,-10.33542921
24.40250,-6.673096315
24.40300,-4.536735461
24.40350,-3.010763422
24.40400,-1.789985791
24.40450,-0.8744025684
24.40500,0.04118065471
24.40550,3.093124732
24.40600,5.534679993
24.40650,5.229485586
24.40700,1.872347101
24.40750,-0.8744025684
24.40800,-0.264013753
24.40850,1.872347101
24.40900,3.398319139
24.40950,3.093124732
24.41000,1.872347101
24.41050,1.872347101
24.41100,3.398319139
24.41150,4.313902363
24.41200,3.703513547
24.41250,2.177541509
24.41300,2.177541509
24.41350,4.008707955
24.41400,5.229485586
24.41450,2.482735916
24.41500,-2.705569015
24.41550,-5.757513092
24.41600,-3.926346645
24.41650,-0.5692081607
24.41700,-0.5692081607
24.41750,-4.231541053
24.41800,-8.809457169
24.41850,-11.86140125
24.41900,-12.16659565
24.41950,-10.0302348
24.42000,-6.062707499
24.42050,-3.010763422
24.42100,-2.095180199
24.42150,-1.789985791
24.42200,-0.264013753
24.42250,0.6515694701
24.42300,0.3463750624
24.42350,0.3463750624
24.42400,3.703513547
24.42450,7.671040847
24.42500,7.671040847
24.42550,4.313902363
24.42600,2.482735916
24.42650,2.787930324
24.42700,1.567152693
24.42750,-2.095180199
24.42800,-2.705569015
24.42850,2.177541509
24.42900,6.450263216
24.42950,3.703513547
24.43000,-3.010763422
24.43050,-6.062707499
24.43100,-2.095180199
24.43150,2.482735916
24.43200,3.398319139
24.43250,2.787930324
24.43300,3.703513547
24.43350,5.534679993
24.43400,4.61909677
24.43450,1.261958286
24.43500,-1.484791384
24.43550,-2.400374607
24.43600,-3.010763422
24.43650,-2.705569015
24.43700,0.04118065471
24.43750,5.229485586
24.43800,8.281429663
24.43850,5.229485586
24.43900,0.9567638778
24.43950,1.567152693
24.44000,6.450263216
24.44050,10.72298492
24.44100,11.02817933
24.44150,8.891818478
24.44200,4.61909677
24.44250,-1.179596976
24.44300,-5.452318684
24.44350,-3.621152238
24.44400,0.6515694701
24.44450,-0.264013753
24.44500,-7.28348513
24.44550,-10.0302348
24.44600,-2.705569015
24.44650,7.976235255
24.44700,11.94376256
24.44750,8.281429663
24.44800,3.398319139
24.44850,0.9567638778
24.44900,0.6515694701
24.44950,1.872347101
24.45000,3.093124732
24.45050,1.567152693
24.45100,-2.095180199
24.45150,-3.31595783
24.45200,-0.264013753
24.45250,1.261958286
24.45300,-2.705569015
24.45350,-8.809457169
24.45400,-8.504262761
24.45450,-2.705569015
24.45500,0.9567638778
24.45550,0.3463750624
24.45600,-0.8744025684
24.45650,-0.5692081607
24.45700,0.04118065471
24.45750,-0.8744025684
24.45800,-0.264013753
24.45850,2.177541509
24.45900,4.61909677
24.45950,4.61909677
24.46000,3.703513547
24.46050,3.703513547
24.46100,3.398319139
24.46150,0.9567638778
24.46200,-1.484791384
24.46250,-2.400374607
24.46300,-1.789985791
24.46350,-2.095180199
24.46400,-4.536735461
24.46450,-6.673096315
24.46500,-6.062707499
24.46550,-3.31595783
24.46600,-0.8744025684
24.46650,0.04118065471
24.46700,0.04118065471
24.46750,0.9567638778
24.46800,3.093124732
24.46850,4.61909677
24.46900,2.482735916
24.46950,-2.705569015
24.47000,-7.588679538
24.47050,-6.978290722
24.47100,0.04118065471
24.47150,8.58662407
24.47200,13.46973459
24.47250,13.774929
24.47300,12.24895696
24.47350,10.11259611
24.47400,4.313902363
24.47450,-5.452318684
24.47500,-14.91334532
24.47550,-17.35490058
24.47600,-12.77698447
24.47650,-6.062707499
24.47700,-3.010763422
24.47750,-3.31595783
24.47800,-5.147124276
24.47850,-6.367901907
24.47900,-6.978290722
24.47950,-6.673096315
24.48000,-6.367901907
24.48050,-5.147124276
24.48100,-3.621152238
24.48150,-3.010763422
24.48200,-2.705569015
24.48250,-1.484791384
24.48300,-0.264013753
24.48350,-0.264013753
24.48400,-1.484791384
24.48450,-0.8744025684
24.48500,2.787930324
24.48550,6.755457624
24.48600,7.36584644
24.48650,5.839874401
24.48700,4.313902363
24.48750,2.177541509
24.48800,-2.705569015
24.48850,-6.062707499
24.48900,-3.010763422
24.48950,3.703513547
24.49000,5.839874401
24.49050,0.9567638778
24.49100,-3.31595783
24.49150,-2.400374607
24.49200,1.261958286
24.49250,2.787930324
24.49300,0.9567638778
24.49350,-0.8744025684
24.49400,-1.484791384
24.49450,0.04118065471
24.49500,3.703513547
24.49550,5.839874401
24.49600,3.703513547
24.49650,-0.5692081607
24.49700,-2.705569015
24.49750,-0.8744025684
24.49800,0.9567638778
24.49850,1.872347101
24.49900,1.872347101
24.49950,1.261958286
24.50000,0.04118065471
24.50050,-0.8744025684
24.50100,2.482735916
24.50150,9.502207293
24.50200,14.99570663
24.50250,14.99570663
24.50300,10.41779052
24.50350,3.093124732
24.50400,-5.757513092
24.50450,-14.91334532
24.50500,-19.79645585
24.50550,-17.9652894
24.50600,-12.16659565
24.50650,-7.28348513
24.50700,-5.452318684
24.50750,-5.452318684
24.50800,-5.147124276
24.50850,-3.926346645
24.50900,-2.095180199
24.50950,-0.8744025684
24.51000,0.04118065471
24.51050,1.261958286
24.51100,4.008707955
24.51150,7.060652032
24.51200,7.36584644
24.51250,5.229485586
24.51300,3.398319139
24.51350,3.703513547
24.51400,4.313902363
24.51450,1.872347101
24.51500,-3.31595783
24.51550,-6.978290722
24.51600,-5.147124276
24.51650,-0.264013753
24.51700,2.482735916
24.51750,3.703513547
24.51800,6.145068809
24.51850,11.33337374
24.51900,12.55415137
24.51950,4.924291178
24.52000,-6.367901907
24.52050,-11.86140125
24.52100,-8.809457169
24.52150,-3.621152238
24.52200,-3.926346645
24.52250,-7.588679538
24.52300,-8.809457169
24.52350,-5.452318684
24.52400,-0.5692081607
24.52450,2.482735916
24.52500,4.008707955
24.52550,4.924291178
24.52600,6.145068809
24.52650,7.36584644
24.52700,6.450263216
24.52750,0.9567638778
24.52800,-5.452318684
24.52850,-5.757513092
24.52900,2.787930324
24.52950,12.55415137
24.53000,14.08012341
24.53050,7.671040847
24.53100,1.261958286
24.53150,-0.264013753
24.53200,-0.264013753
24.53250,-0.8744025684
24.53300,0.04118065471
24.53350,4.313902363
24.53400,5.839874401
24.53450,0.04118065471
24.53500,-7.588679538
24.53550,-8.504262761
24.53600,-0.5692081607
24.53650,7.060652032
24.53700,6.755457624
24.53750,0.04118065471
24.53800,-4.536735461
24.53850,-3.621152238
24.53900,-0.264013753
24.53950,0.04118065471
24.54000,-2.095180199
24.54050,-5.147124276
24.54100,-6.062707499
24.54150,-4.231541053
24.54200,-1.179596976
24.54250,0.6515694701
24.54300,0.04118065471
24.54350,-1.789985791
24.54400,-1.484791384
24.54450,1.567152693
24.54500,4.008707955
24.54550,2.787930324
24.54600,1.872347101
24.54650,4.008707955
24.54700,7.060652032
24.54750,5.839874401
24.54800,1.567152693
24.54850,-0.264013753
24.54900,0.9567638778
24.54950,2.177541509
24.55000,1.261958286
24.55050,1.261958286
24.55100,4.313902363
24.55150,6.145068809
24.55200,4.313902363
24.55250,1.872347101
24.55300,2.177541509
24.55350,3.093124732
24.55400,1.872347101
24.55450,-0.5692081607
24.55500,-1.789985791
24.55550,-1.789985791
24.55600,-3.31595783
24.55650,-5.452318684
24.55700,-5.452318684
24.55750,-3.926346645
24.55800,-2.705569015
24.55850,-2.400374607
24.55900,-1.484791384
24.55950,0.04118065471
24.56000,0.9567638778
24.56050,2.177541509
24.56100,2.787930324
24.56150,1.567152693
24.56200,-0.5692081607
24.56250,-1.484791384
24.56300,0.3463750624
24.56350,1.872347101
24.56400,0.9567638778
24.56450,-0.5692081607
24.56500,-0.264013753
24.56550,0.6515694701
24.56600,-0.264013753
24.56650,-5.757513092
24.56700,-12.47179006
24.56750,-15.52373414
24.56800,-10.0302348
24.56850,3.093124732
24.56900,13.774929
24.56950,10.41779052
24.57000,-4.231541053
24.57050,-15.52373414
24.57100,-13.9977621
24.57150,-5.757513092
24.57200,-2.400374607
24.57250,-4.231541053
24.57300,-4.841929869
24.57350,-3.31595783
24.57400,-3.621152238
24.57450,-5.757513092
24.57500,-5.147124276
24.57550,-1.484791384
24.57600,0.04118065471
24.57650,-0.8744025684
24.57700,-2.705569015
24.57750,-2.095180199
24.57800,0.3463750624
24.57850,3.703513547
24.57900,4.61909677
24.57950,2.787930324
24.58000,0.3463750624
24.58050,0.3463750624
24.58100,2.177541509
24.58150,2.177541509
24.58200,0.04118065471
24.58250,-0.5692081607
24.58300,2.177541509
24.58350,5.839874401
24.58400,6.145068809
24.58450,3.703513547
24.58500,1.261958286
24.58550,-0.8744025684
24.58600,-2.705569015
24.58650,-2.095180199
24.58700,2.177541509
24.58750,7.36584644
24.58800,7.976235255
24.58850,4.61909677
24.58900,0.9567638778
24.58950,-0.8744025684
24.59000,-2.705569015
24.59050,-3.31595783
24.59100,0.04118065471
24.59150,4.924291178
24.59200,5.534679993
24.59250,0.04118065471
24.59300,-5.757513092
24.59350,-6.673096315
24.59400,-2.400374607
24.59450,2.177541509
24.59500,4.924291178
24.59550,6.755457624
24.59600,8.891818478
24.59650,9.197012886
24.59700,5.839874401
24.59750,0.6515694701
24.59800,-3.010763422
24.59850,-4.536735461
24.59900,-5.757513092
24.59950,-6.673096315
24.60000,-5.757513092
24.60050,-2.095180199
24.60100,1.261958286
24.60150,1.872347101
24.60200,-0.264013753
24.60250,-3.621152238
24.60300,-5.757513092
24.60350,-6.062707499
24.60400,-5.757513092
24.60450,-4.841929869
24.60500,-4.231541053
24.60550,-3.010763422
24.60600,-1.179596976
24.60650,0.3463750624
24.60700,0.6515694701
24.60750,-0.5692081607
24.60800,-1.789985791
24.60850,-0.8744025684
24.60900,1.261958286
24.60950,3.703513547
24.61000,6.450263216
24.61050,9.197012886
24.61100,9.502207293
24.61150,5.229485586
24.61200,0.3463750624
24.61250,-0.264013753
24.61300,1.261958286
24.61350,1.567152693
24.61400,0.04118065471
24.61450,0.04118065471
24.61500,3.093124732
24.61550,7.36584644
24.61600,9.197012886
24.61650,7.060652032
24.61700,2.177541509
24.61750,-3.31595783
24.61800,-6.978290722
24.61850,-6.673096315
24.61900,-4.841929869
24.61950,-3.926346645
24.62000,-3.621152238
24.62050,-0.5692081607
24.62100,3.703513547
24.62150,4.924291178
24.62200,2.787930324
24.62250,2.787930324
24.62300,6.755457624
24.62350,10.11259611
24.62400,8.281429663
24.62450,3.093124732
24.62500,-1.484791384
24.62550,-5.757513092
24.62600,-10.33542921
24.62650,-11.86140125
24.62700,-8.199068353
24.62750,-2.095180199
24.62800,1.261958286
24.62850,2.482735916
24.62900,2.787930324
24.62950,0.6515694701
24.63000,-3.621152238
24.63050,-5.757513092
24.63100,-1.789985791
24.63150,4.313902363
24.63200,5.534679993
24.63250,2.787930324
24.63300,1.261958286
24.63350,3.703513547
24.63400,6.450263216
24.63450,7.671040847
24.63500,8.891818478
24.63550,9.197012886
24.63600,5.534679993
24.63650,0.04118065471
24.63700,-1.789985791
24.63750,0.04118065471
24.63800,0.9567638778
24.63850,-0.5692081607
24.63900,-2.095180199
24.63950,-0.264013753
24.64000,2.482735916
24.64050,2.482735916
24.64100,0.3463750624
24.64150,-0.5692081607
24.64200,0.04118065471
24.64250,0.04118065471
24.64300,-0.264013753
24.64350,0.04118065471
24.64400,1.261958286
24.64450,1.872347101
24.64500,1.261958286
24.64550,0.6515694701
24.64600,0.04118065471
24.64650,0.04118065471
24.64700,0.04118065471
24.64750,0.04118065471
24.64800,-1.179596976
24.64850,-3.010763422
24.64900,-4.841929869
24.64950,-5.452318684
24.65000,-3.31595783
24.65050,0.04118065471
24.65100,2.482735916
24.65150,2.787930324
24.65200,2.177541509
24.65250,2.787930324
24.65300,4.313902363
24.65350,3.703513547
24.65400,1.261958286
24.65450,-0.8744025684
24.65500,-1.789985791
24.65550,-2.095180199
24.65600,-3.010763422
24.65650,-3.621152238
24.65700,-3.010763422
24.65750,-1.179596976
24.65800,0.3463750624
24.65850,2.177541509
24.65900,2.787930324
24.65950,0.04118065471
24.66000,-5.147124276
24.66050,-7.28348513
24.66100,-4.536735461
24.66150,0.04118065471
24.66200,1.872347101
24.66250,0.9567638778
24.66300,0.04118065471
24.66350,-1.179596976
24.66400,-1.179596976
24.66450,1.872347101
24.66500,7.36584644
24.66550,9.807401701
24.66600,4.61909677
24.66650,-4.841929869
24.66700,-12.16659565
24.66750,-12.77698447
24.66800,-9.725040392
24.66850,-5.147124276
24.66900,-0.8744025684
24.66950,1.872347101
24.67000,3.398319139
24.67050,2.787930324
24.67100,1.567152693
24.67150,0.9567638778
24.67200,0.6515694701
24.67250,0.9567638778
24.67300,0.9567638778
24.67350,0.04118065471
24.67400,-2.705569015
24.67450,-4.231541053
24.67500,-3.31595783
24.67550,-1.789985791
24.67600,-2.400374607
24.67650,-3.621152238
24.67700,-2.400374607
24.67750,0.6515694701
24.67800,2.787930324
24.67850,1.261958286
24.67900,-0.8744025684
24.67950,-1.484791384
24.68000,0.04118065471
24.68050,0.9567638778
24.68100,1.261958286
24.68150,0.9567638778
24.68200,-0.264013753
24.68250,-3.31595783
24.68300,-5.452318684
24.68350,-3.926346645
24.68400,0.04118065471
24.68450,3.093124732
24.68500,2.177541509
24.68550,-0.5692081607
24.68600,-1.789985791
24.68650,0.3463750624
24.68700,3.703513547
24.68750,5.839874401
24.68800,7.671040847
24.68850,10.72298492
24.68900,13.46973459
24.68950,12.24895696
24.69000,7.671040847
24.69050,2.177541509
24.69100,-2.400374607
24.69150,-6.978290722
24.69200,-9.114651576
24.69250,-5.757513092
24.69300,0.9567638778
24.69350,4.924291178
24.69400,1.567152693
24.69450,-4.841929869
24.69500,-8.504262761
24.69550,-8.199068353
24.69600,-7.588679538
24.69650,-6.978290722
24.69700,-4.841929869
24.69750,-2.095180199
24.69800,-1.179596976
24.69850,-1.789985791
24.69900,0.04118065471
24.69950,4.61909677
24.70000,6.450263216
24.70050,2.177541509
24.70100,-3.621152238
24.70150,-6.367901907
24.70200,-5.452318684
24.70250,-4.536735461
24.70300,-4.536735461
24.70350,-4.841929869
24.70400,-4.536735461
24.70450,-3.010763422
24.70500,-1.484791384
24.70550,-0.5692081607
24.70600,-1.789985791
24.70650,-3.010763422
24.70700,-0.8744025684
24.70750,3.703513547
24.70800,7.060652032
24.70850,5.839874401
24.70900,2.482735916
24.70950,1.261958286
24.71000,2.482735916
24.71050,3.703513547
24.71100,3.398319139
24.71150,3.093124732
24.71200,4.61909677
24.71250,7.976235255
24.71300,10.72298492
24.71350,10.72298492
24.71400,8.58662407
24.71450,5.839874401
24.71500,4.61909677
24.71550,3.093124732
24.71600,0.6515694701
24.71650,-2.400374607
24.71700,-4.231541053
24.71750,-3.926346645
24.71800,-3.010763422
24.71850,-3.010763422
24.71900,-3.621152238
24.71950,-3.010763422
24.72000,-1.179596976
24.72050,-0.8744025684
24.72100,-2.705569015
24.72150,-5.147124276
24.72200,-5.757513092
24.72250,-3.31595783
24.72300,-0.5692081607
24.72350,0.3463750624
24.72400,0.9567638778
24.72450,2.177541509
24.72500,4.313902363
24.72550,5.534679993
24.72600,5.839874401
24.72650,6.145068809
24.72700,6.145068809
24.72750,4.924291178
24.72800,0.9567638778
24.72850,-2.705569015
24.72900,-4.536735461
24.72950,-4.231541053
24.73000,-3.31595783
24.73050,-3.010763422
24.73100,-3.010763422
24.73150,-2.705569015
24.73200,-2.400374607
24.73250,-1.484791384
24.73300,1.567152693
24.73350,6.755457624
24.73400,9.502207293
24.73450,6.755457624
24.73500,0.3463750624
24.73550,-4.536735461
24.73600,-6.062707499
24.73650,-5.452318684
24.73700,-4.231541053
24.73750,-1.789985791
24.73800,1.567152693
24.73850,4.008707955
24.73900,3.703513547
24.73950,2.177541509
24.74000,2.177541509
24.74050,3.398319139
24.74100,3.093124732
24.74150,1.567152693
24.74200,0.3463750624
24.74250,0.3463750624
24.74300,0.6515694701
24.74350,0.3463750624
24.74400,-1.179596976
24.74450,-3.31595783
24.74500,-4.841929869
24.74550,-4.231541053
24.74600,-3.010763422
24.74650,-5.147124276
24.74700,-10.64062361
24.74750,-15.21853973
24.74800,-13.9977621
24.74850,-8.199068353
24.74900,-4.536735461
24.74950,-5.757513092
24.75000,-7.893873946
24.75050,-6.978290722
24.75100,-3.010763422
24.75150,0.3463750624
24.75200,0.9567638778
24.75250,0.3463750624
24.75300,0.9567638778
24.75350,3.398319139
