"type","name","time_units","begin_time","frequency","count","units"
"signal","Ultium EMG-FLEX.CAPR.U RT","s",428.96000,2000,22000,"uV"

"time","value"
428.96000,-0.3099225569
428.96050,0.3004662585
428.96100,-0.004728149245
428.96150,-0.6151169646
428.96200,-0.9203113723
428.96250,-0.004728149245
428.96300,1.826438297
428.96350,2.436827112
428.96400,0.9108550739
428.96450,-0.6151169646
428.96500,-2.446283411
428.96550,-3.667061042
428.96600,-4.277449857
428.96650,-3.056672226
428.96700,-0.9203113723
428.96750,0.3004662585
428.96800,1.521243889
428.96850,3.657604743
428.96900,6.099160005
428.96950,5.183576782
428.97000,-0.004728149245
428.97050,-4.582644265
428.97100,-4.887838672
428.97150,-2.141089003
428.97200,-0.004728149245
428.97250,0.9108550739
428.97300,1.216049482
428.97350,0.6056606662
428.97400,1.216049482
428.97450,4.878382374
428.97500,9.151104082
428.97550,7.014743228
428.97600,-3.056672226
428.97650,-12.21250446
428.97700,-11.60211564
428.97750,-3.667061042
428.97800,1.826438297
428.97850,3.047215928
428.97900,2.74202152
428.97950,3.352410335
428.98000,2.74202152
428.98050,0.6056606662
428.98100,-0.004728149245
428.98150,0.6056606662
428.98200,0.3004662585
428.98250,-1.835894595
428.98300,-4.277449857
428.98350,-4.887838672
428.98400,-3.972255449
428.98450,-2.141089003
428.98500,-0.9203113723
428.98550,-1.22550578
428.98600,-3.361866634
428.98650,-5.19303308
428.98700,-5.19303308
428.98750,-4.887838672
428.98800,-5.498227488
428.98850,-5.498227488
428.98900,-3.056672226
428.98950,0.3004662585
428.99000,1.521243889
428.99050,1.216049482
428.99100,1.521243889
428.99150,1.826438297
428.99200,-0.004728149245
428.99250,-3.361866634
428.99300,-5.498227488
428.99350,-5.803421896
428.99400,-5.803421896
428.99450,-4.887838672
428.99500,-1.22550578
428.99550,2.436827112
428.99600,3.047215928
428.99650,-0.6151169646
428.99700,-4.582644265
428.99750,-3.972255449
428.99800,-0.6151169646
428.99850,0.6056606662
428.99900,-0.6151169646
428.99950,-1.530700188
429.00000,-0.004728149245
429.00050,3.047215928
429.00100,4.878382374
429.00150,3.962799151
429.00200,1.216049482
429.00250,-0.004728149245
429.00300,-0.004728149245
429.00350,1.216049482
429.00400,0.9108550739
429.00450,-0.9203113723
429.00500,-2.141089003
429.00550,-1.22550578
429.00600,0.9108550739
429.00650,2.131632705
429.00700,2.436827112
429.00750,2.74202152
429.00800,3.352410335
429.00850,3.352410335
429.00900,0.6056606662
429.00950,-3.667061042
429.01000,-5.803421896
429.01050,-2.141089003
429.01100,4.573187966
429.01150,9.151104082
429.01200,8.845909674
429.01250,7.319937636
429.01300,8.540715266
429.01350,10.67707612
429.01400,10.67707612
429.01450,8.845909674
429.01500,7.014743228
429.01550,5.793965597
429.01600,3.657604743
429.01650,3.352410335
429.01700,7.014743228
429.01750,13.11863138
429.01800,14.94979783
429.01850,9.761492897
429.01900,-0.004728149245
429.01950,-9.770949196
429.02000,-15.87483735
429.02050,-16.48522617
429.02100,-11.90731005
429.02150,-5.803421896
429.02200,-2.751477819
429.02250,-3.667061042
429.02300,-5.19303308
429.02350,-5.19303308
429.02400,-4.887838672
429.02450,-5.498227488
429.02500,-6.108616303
429.02550,-5.19303308
429.02600,-3.667061042
429.02650,-3.056672226
429.02700,-2.141089003
429.02750,-0.004728149245
429.02800,2.74202152
429.02850,4.878382374
429.02900,4.573187966
429.02950,2.131632705
429.03000,-0.6151169646
429.03050,-2.751477819
429.03100,-2.751477819
429.03150,-1.835894595
429.03200,-1.530700188
429.03250,-1.835894595
429.03300,-0.6151169646
429.03350,1.826438297
429.03400,3.352410335
429.03450,2.436827112
429.03500,1.826438297
429.03550,3.352410335
429.03600,5.183576782
429.03650,4.573187966
429.03700,1.826438297
429.03750,-0.004728149245
429.03800,-0.004728149245
429.03850,-0.6151169646
429.03900,-2.141089003
429.03950,-4.277449857
429.04000,-4.887838672
429.04050,-4.582644265
429.04100,-4.582644265
429.04150,-4.887838672
429.04200,-5.803421896
429.04250,-6.413810711
429.04300,-6.108616303
429.04350,-3.361866634
429.04400,-0.004728149245
429.04450,0.9108550739
429.04500,-0.3099225569
429.04550,-0.6151169646
429.04600,2.436827112
429.04650,7.625132043
429.04700,10.0666873
429.04750,8.540715266
429.04800,6.404354412
429.04850,5.793965597
429.04900,5.793965597
429.04950,4.573187966
429.05000,3.657604743
429.05050,4.267993559
429.05100,4.573187966
429.05150,4.267993559
429.05200,4.267993559
429.05250,4.267993559
429.05300,3.657604743
429.05350,1.521243889
429.05400,-0.6151169646
429.05450,-2.141089003
429.05500,-3.667061042
429.05550,-5.803421896
429.05600,-6.108616303
429.05650,-2.446283411
429.05700,2.74202152
429.05750,7.930326451
429.05800,12.50824257
429.05850,14.94979783
429.05900,10.67707612
429.05950,-2.141089003
429.06000,-15.87483735
429.06050,-18.92678143
429.06100,-11.60211564
429.06150,-4.277449857
429.06200,-4.887838672
429.06250,-8.550171565
429.06300,-7.634588342
429.06350,-2.141089003
429.06400,3.047215928
429.06450,6.099160005
429.06500,8.845909674
429.06550,10.37188171
429.06600,8.845909674
429.06650,5.183576782
429.06700,3.962799151
429.06750,6.70954882
429.06800,9.45629849
429.06850,9.151104082
429.06900,6.404354412
429.06950,3.657604743
429.07000,1.521243889
429.07050,-0.004728149245
429.07100,-0.004728149245
429.07150,2.131632705
429.07200,5.183576782
429.07250,6.70954882
429.07300,6.70954882
429.07350,6.099160005
429.07400,4.573187966
429.07450,1.521243889
429.07500,-1.530700188
429.07550,-1.835894595
429.07600,2.131632705
429.07650,7.930326451
429.07700,9.151104082
429.07750,4.573187966
429.07800,-1.22550578
429.07850,-4.277449857
429.07900,-4.277449857
429.07950,-4.277449857
429.08000,-4.582644265
429.08050,-2.141089003
429.08100,3.047215928
429.08150,7.930326451
429.08200,9.151104082
429.08250,7.014743228
429.08300,3.962799151
429.08350,0.9108550739
429.08400,-1.530700188
429.08450,-3.667061042
429.08500,-3.972255449
429.08550,-3.667061042
429.08600,-3.972255449
429.08650,-6.108616303
429.08700,-7.939782749
429.08750,-7.634588342
429.08800,-5.498227488
429.08850,-4.887838672
429.08900,-7.634588342
429.08950,-10.38133801
429.09000,-7.939782749
429.09050,-0.9203113723
429.09100,4.573187966
429.09150,4.573187966
429.09200,1.216049482
429.09250,-1.22550578
429.09300,-3.361866634
429.09350,-6.413810711
429.09400,-9.16056038
429.09450,-8.550171565
429.09500,-4.277449857
429.09550,-0.9203113723
429.09600,-0.3099225569
429.09650,-0.3099225569
429.09700,0.9108550739
429.09750,1.826438297
429.09800,0.6056606662
429.09850,-0.9203113723
429.09900,-0.9203113723
429.09950,-0.6151169646
429.10000,-3.667061042
429.10050,-10.38133801
429.10100,-16.18003176
429.10150,-16.48522617
429.10200,-11.29692123
429.10250,-3.361866634
429.10300,2.436827112
429.10350,5.183576782
429.10400,3.962799151
429.10450,1.216049482
429.10500,0.3004662585
429.10550,1.521243889
429.10600,1.216049482
429.10650,-1.835894595
429.10700,-4.277449857
429.10750,-1.835894595
429.10800,3.352410335
429.10850,5.488771189
429.10900,1.521243889
429.10950,-5.19303308
429.11000,-10.38133801
429.11050,-12.82289327
429.11100,-13.12808768
429.11150,-10.99172683
429.11200,-7.329393934
429.11250,-4.277449857
429.11300,-2.751477819
429.11350,-2.141089003
429.11400,-1.530700188
429.11450,-1.530700188
429.11500,-2.446283411
429.11550,-3.667061042
429.11600,-4.582644265
429.11650,-5.19303308
429.11700,-5.803421896
429.11750,-5.19303308
429.11800,-3.361866634
429.11850,-0.9203113723
429.11900,2.131632705
429.11950,6.099160005
429.12000,7.930326451
429.12050,6.099160005
429.12100,5.183576782
429.12150,9.45629849
429.12200,15.86538105
429.12250,16.17057546
429.12300,10.0666873
429.12350,3.962799151
429.12400,2.131632705
429.12450,-0.9203113723
429.12500,-9.465754788
429.12550,-17.09561498
429.12600,-15.56964294
429.12650,-6.108616303
429.12700,0.9108550739
429.12750,3.047215928
429.12800,3.962799151
429.12850,5.488771189
429.12900,5.488771189
429.12950,2.74202152
429.13000,0.9108550739
429.13050,2.131632705
429.13100,3.352410335
429.13150,2.131632705
429.13200,0.9108550739
429.13250,1.521243889
429.13300,2.74202152
429.13350,1.826438297
429.13400,-0.004728149245
429.13450,1.521243889
429.13500,5.183576782
429.13550,7.625132043
429.13600,6.70954882
429.13650,5.183576782
429.13700,4.878382374
429.13750,5.183576782
429.13800,4.573187966
429.13850,4.267993559
429.13900,4.573187966
429.13950,3.657604743
429.14000,0.6056606662
429.14050,-3.056672226
429.14100,-4.277449857
429.14150,-2.751477819
429.14200,-0.004728149245
429.14250,2.436827112
429.14300,3.657604743
429.14350,3.657604743
429.14400,3.352410335
429.14450,3.047215928
429.14500,1.521243889
429.14550,-1.22550578
429.14600,-4.277449857
429.14650,-5.498227488
429.14700,-4.887838672
429.14750,-3.972255449
429.14800,-2.751477819
429.14850,-1.22550578
429.14900,0.3004662585
429.14950,1.216049482
429.15000,0.9108550739
429.15050,-0.004728149245
429.15100,-0.9203113723
429.15150,-0.9203113723
429.15200,1.826438297
429.15250,5.183576782
429.15300,3.047215928
429.15350,-7.329393934
429.15400,-19.84236465
429.15450,-24.11508636
429.15500,-17.7060038
429.15550,-7.939782749
429.15600,-1.22550578
429.15650,2.436827112
429.15700,5.183576782
429.15750,6.70954882
429.15800,6.404354412
429.15850,7.625132043
429.15900,10.98227053
429.15950,14.03421461
429.16000,13.42382579
429.16050,10.0666873
429.16100,7.014743228
429.16150,5.183576782
429.16200,3.352410335
429.16250,3.352410335
429.16300,5.488771189
429.16350,8.235520859
429.16400,7.625132043
429.16450,4.573187966
429.16500,1.826438297
429.16550,0.9108550739
429.16600,0.9108550739
429.16650,0.9108550739
429.16700,0.9108550739
429.16750,0.6056606662
429.16800,-0.3099225569
429.16850,-0.9203113723
429.16900,-0.6151169646
429.16950,-0.6151169646
429.17000,-2.751477819
429.17050,-5.803421896
429.17100,-4.887838672
429.17150,0.6056606662
429.17200,6.70954882
429.17250,8.845909674
429.17300,7.014743228
429.17350,4.573187966
429.17400,3.047215928
429.17450,1.826438297
429.17500,-0.9203113723
429.17550,-6.413810711
429.17600,-12.82289327
429.17650,-15.56964294
429.17700,-12.21250446
429.17750,-5.498227488
429.17800,-1.22550578
429.17850,-1.835894595
429.17900,-3.667061042
429.17950,-3.972255449
429.18000,-4.277449857
429.18050,-6.413810711
429.18100,-9.16056038
429.18150,-8.550171565
429.18200,-4.277449857
429.18250,0.3004662585
429.18300,3.047215928
429.18350,4.267993559
429.18400,4.878382374
429.18450,4.573187966
429.18500,2.131632705
429.18550,-2.141089003
429.18600,-6.719005119
429.18650,-7.939782749
429.18700,-5.498227488
429.18750,-1.530700188
429.18800,0.3004662585
429.18850,0.6056606662
429.18900,-0.004728149245
429.18950,0.3004662585
429.19000,-0.004728149245
429.19050,-1.530700188
429.19100,-3.972255449
429.19150,-3.972255449
429.19200,-0.6151169646
429.19250,4.878382374
429.19300,10.67707612
429.19350,14.33940901
429.19400,14.33940901
429.19450,10.98227053
429.19500,6.404354412
429.19550,2.74202152
429.19600,0.6056606662
429.19650,-0.004728149245
429.19700,1.826438297
429.19750,4.573187966
429.19800,6.099160005
429.19850,5.488771189
429.19900,6.099160005
429.19950,9.45629849
429.20000,11.89785375
429.20050,8.845909674
429.20100,1.826438297
429.20150,-1.835894595
429.20200,-0.004728149245
429.20250,3.047215928
429.20300,3.657604743
429.20350,1.521243889
429.20400,-0.9203113723
429.20450,-4.887838672
429.20500,-10.38133801
429.20550,-14.34886531
429.20600,-13.43328209
429.20650,-8.855365973
429.20700,-4.582644265
429.20750,-3.361866634
429.20800,-3.667061042
429.20850,-2.446283411
429.20900,-0.6151169646
429.20950,-0.004728149245
429.21000,-1.835894595
429.21050,-4.277449857
429.21100,-3.667061042
429.21150,0.3004662585
429.21200,4.573187966
429.21250,6.099160005
429.21300,5.793965597
429.21350,6.099160005
429.21400,6.70954882
429.21450,6.404354412
429.21500,5.793965597
429.21550,6.099160005
429.21600,6.099160005
429.21650,4.267993559
429.21700,2.436827112
429.21750,2.131632705
429.21800,0.3004662585
429.21850,-6.108616303
429.21900,-13.43328209
429.21950,-14.65405972
429.22000,-9.770949196
429.22050,-5.19303308
429.22100,-5.498227488
429.22150,-8.244977157
429.22200,-9.770949196
429.22250,-10.0761436
429.22300,-8.244977157
429.22350,-4.277449857
429.22400,-0.004728149245
429.22450,0.6056606662
429.22500,-1.835894595
429.22550,-3.056672226
429.22600,-0.9203113723
429.22650,1.521243889
429.22700,1.826438297
429.22750,0.9108550739
429.22800,0.9108550739
429.22850,0.6056606662
429.22900,-3.056672226
429.22950,-9.770949196
429.23000,-14.95925413
429.23050,-14.95925413
429.23100,-10.68653242
429.23150,-5.498227488
429.23200,-1.530700188
429.23250,-0.3099225569
429.23300,-1.530700188
429.23350,-3.056672226
429.23400,-3.056672226
429.23450,-2.141089003
429.23500,-1.530700188
429.23550,-2.141089003
429.23600,-2.751477819
429.23650,-2.446283411
429.23700,-0.6151169646
429.23750,1.216049482
429.23800,2.74202152
429.23850,3.047215928
429.23900,2.436827112
429.23950,0.3004662585
429.24000,-3.667061042
429.24050,-7.329393934
429.24100,-6.413810711
429.24150,-1.530700188
429.24200,1.521243889
429.24250,-0.004728149245
429.24300,-3.667061042
429.24350,-5.803421896
429.24400,-6.108616303
429.24450,-7.329393934
429.24500,-8.550171565
429.24550,-7.329393934
429.24600,-3.972255449
429.24650,-0.3099225569
429.24700,2.74202152
429.24750,5.488771189
429.24800,7.625132043
429.24850,7.014743228
429.24900,4.878382374
429.24950,3.962799151
429.25000,4.878382374
429.25050,5.793965597
429.25100,3.352410335
429.25150,-2.141089003
429.25200,-9.16056038
429.25250,-13.12808768
429.25300,-13.12808768
429.25350,-10.99172683
429.25400,-10.38133801
429.25450,-11.90731005
429.25500,-11.90731005
429.25550,-9.16056038
429.25600,-5.803421896
429.25650,-2.751477819
429.25700,2.131632705
429.25750,10.98227053
429.25800,19.22251954
429.25850,22.27446361
429.25900,21.96926921
429.25950,23.49524124
429.26000,27.76796295
429.26050,29.29393499
429.26100,25.02121328
429.26150,18.61213072
429.26200,14.64460342
429.26250,12.81343697
429.26300,10.67707612
429.26350,7.625132043
429.26400,6.70954882
429.26450,8.540715266
429.26500,10.37188171
429.26550,8.845909674
429.26600,3.352410335
429.26650,-1.835894595
429.26700,-3.667061042
429.26750,-3.056672226
429.26800,-2.141089003
429.26850,-2.141089003
429.26900,-2.446283411
429.26950,-3.667061042
429.27000,-6.719005119
429.27050,-10.38133801
429.27100,-10.68653242
429.27150,-7.634588342
429.27200,-4.582644265
429.27250,-3.056672226
429.27300,-0.9203113723
429.27350,3.962799151
429.27400,7.625132043
429.27450,6.099160005
429.27500,1.826438297
429.27550,1.216049482
429.27600,5.183576782
429.27650,8.540715266
429.27700,6.70954882
429.27750,3.047215928
429.27800,1.521243889
429.27850,2.131632705
429.27900,1.216049482
429.27950,-0.6151169646
429.28000,-1.835894595
429.28050,-0.9203113723
429.28100,-0.004728149245
429.28150,0.9108550739
429.28200,1.826438297
429.28250,3.352410335
429.28300,5.183576782
429.28350,5.183576782
429.28400,4.267993559
429.28450,3.657604743
429.28500,3.962799151
429.28550,3.657604743
429.28600,3.047215928
429.28650,3.352410335
429.28700,4.573187966
429.28750,3.962799151
429.28800,0.3004662585
429.28850,-4.277449857
429.28900,-5.803421896
429.28950,-3.667061042
429.29000,-0.9203113723
429.29050,-0.9203113723
429.29100,-2.446283411
429.29150,-3.972255449
429.29200,-4.582644265
429.29250,-5.803421896
429.29300,-8.244977157
429.29350,-11.29692123
429.29400,-13.43328209
429.29450,-12.82289327
429.29500,-10.0761436
429.29550,-6.719005119
429.29600,-4.887838672
429.29650,-4.887838672
429.29700,-5.19303308
429.29750,-3.972255449
429.29800,-0.9203113723
429.29850,2.131632705
429.29900,5.183576782
429.29950,8.235520859
429.30000,10.0666873
429.30050,7.930326451
429.30100,-0.004728149245
429.30150,-11.29692123
429.30200,-17.7060038
429.30250,-15.56964294
429.30300,-7.329393934
429.30350,-0.3099225569
429.30400,1.521243889
429.30450,0.3004662585
429.30500,-0.6151169646
429.30550,-0.9203113723
429.30600,-0.004728149245
429.30650,1.826438297
429.30700,3.962799151
429.30750,5.183576782
429.30800,4.267993559
429.30850,2.131632705
429.30900,0.6056606662
429.30950,-0.004728149245
429.31000,-0.004728149245
429.31050,-0.004728149245
429.31100,-0.004728149245
429.31150,-0.9203113723
429.31200,-2.141089003
429.31250,-2.446283411
429.31300,-0.9203113723
429.31350,-0.004728149245
429.31400,-0.004728149245
429.31450,-0.6151169646
429.31500,0.9108550739
429.31550,3.962799151
429.31600,5.488771189
429.31650,3.962799151
429.31700,1.216049482
429.31750,0.3004662585
429.31800,0.6056606662
429.31850,0.9108550739
429.31900,1.216049482
429.31950,2.436827112
429.32000,4.267993559
429.32050,4.267993559
429.32100,1.826438297
429.32150,0.3004662585
429.32200,0.9108550739
429.32250,1.521243889
429.32300,0.6056606662
429.32350,-0.3099225569
429.32400,-0.004728149245
429.32450,1.216049482
429.32500,1.216049482
429.32550,-0.6151169646
429.32600,-2.141089003
429.32650,-2.446283411
429.32700,-2.751477819
429.32750,-3.667061042
429.32800,-3.667061042
429.32850,-2.446283411
429.32900,-0.9203113723
429.32950,-0.9203113723
429.33000,-2.141089003
429.33050,-2.751477819
429.33100,-2.446283411
429.33150,-1.530700188
429.33200,-0.004728149245
429.33250,1.216049482
429.33300,1.216049482
429.33350,-0.004728149245
429.33400,-0.004728149245
429.33450,0.6056606662
429.33500,1.216049482
429.33550,0.6056606662
429.33600,0.3004662585
429.33650,1.216049482
429.33700,3.352410335
429.33750,4.573187966
429.33800,3.657604743
429.33850,1.826438297
429.33900,0.6056606662
429.33950,0.6056606662
429.34000,1.216049482
429.34050,0.9108550739
429.34100,-0.6151169646
429.34150,-2.751477819
429.34200,-3.361866634
429.34250,-3.056672226
429.34300,-3.056672226
429.34350,-3.972255449
429.34400,-3.972255449
429.34450,-3.972255449
429.34500,-5.19303308
429.34550,-5.498227488
429.34600,-2.751477819
429.34650,2.436827112
429.34700,4.878382374
429.34750,0.9108550739
429.34800,-4.582644265
429.34850,-5.19303308
429.34900,-0.3099225569
429.34950,4.267993559
429.35000,4.573187966
429.35050,2.436827112
429.35100,0.9108550739
429.35150,1.521243889
429.35200,2.74202152
429.35250,3.657604743
429.35300,3.962799151
429.35350,3.657604743
429.35400,3.962799151
429.35450,5.488771189
429.35500,6.099160005
429.35550,3.962799151
429.35600,-0.004728149245
429.35650,-1.530700188
429.35700,-0.004728149245
429.35750,3.047215928
429.35800,3.962799151
429.35850,2.131632705
429.35900,0.6056606662
429.35950,0.6056606662
429.36000,1.216049482
429.36050,1.216049482
429.36100,1.826438297
429.36150,3.352410335
429.36200,4.878382374
429.36250,4.878382374
429.36300,4.573187966
429.36350,3.962799151
429.36400,1.826438297
429.36450,-3.361866634
429.36500,-8.550171565
429.36550,-8.855365973
429.36600,-5.803421896
429.36650,-3.972255449
429.36700,-3.361866634
429.36750,-0.6151169646
429.36800,4.267993559
429.36850,6.099160005
429.36900,2.131632705
429.36950,-1.530700188
429.37000,0.6056606662
429.37050,5.183576782
429.37100,3.047215928
429.37150,-6.108616303
429.37200,-15.56964294
429.37250,-19.23197583
429.37300,-16.79042057
429.37350,-10.99172683
429.37400,-4.887838672
429.37450,-2.141089003
429.37500,-2.751477819
429.37550,-2.446283411
429.37600,1.521243889
429.37650,6.70954882
429.37700,7.930326451
429.37750,8.235520859
429.37800,9.761492897
429.37850,7.930326451
429.37900,-2.446283411
429.37950,-16.79042057
429.38000,-22.89430873
429.38050,-18.0111982
429.38100,-10.0761436
429.38150,-5.803421896
429.38200,-2.751477819
429.38250,0.9108550739
429.38300,4.267993559
429.38350,4.878382374
429.38400,5.488771189
429.38450,6.099160005
429.38500,4.573187966
429.38550,-0.004728149245
429.38600,-4.582644265
429.38650,-7.634588342
429.38700,-9.770949196
429.38750,-11.29692123
429.38800,-11.29692123
429.38850,-10.68653242
429.38900,-10.68653242
429.38950,-10.68653242
429.39000,-9.465754788
429.39050,-8.855365973
429.39100,-9.770949196
429.39150,-8.855365973
429.39200,-1.530700188
429.39250,7.930326451
429.39300,12.20304816
429.39350,9.45629849
429.39400,5.793965597
429.39450,5.793965597
429.39500,7.319937636
429.39550,6.70954882
429.39600,5.488771189
429.39650,6.404354412
429.39700,8.540715266
429.39750,8.235520859
429.39800,5.183576782
429.39850,3.657604743
429.39900,4.878382374
429.39950,6.70954882
429.40000,6.404354412
429.40050,4.573187966
429.40100,3.047215928
429.40150,1.521243889
429.40200,-1.835894595
429.40250,-6.719005119
429.40300,-9.465754788
429.40350,-7.634588342
429.40400,-2.751477819
429.40450,-0.3099225569
429.40500,-1.530700188
429.40550,-3.667061042
429.40600,-3.667061042
429.40650,-1.835894595
429.40700,0.3004662585
429.40750,3.352410335
429.40800,7.014743228
429.40850,8.845909674
429.40900,7.014743228
429.40950,2.74202152
429.41000,0.3004662585
429.41050,1.216049482
429.41100,3.352410335
429.41150,4.573187966
429.41200,4.878382374
429.41250,4.878382374
429.41300,3.962799151
429.41350,1.826438297
429.41400,-0.9203113723
429.41450,-3.361866634
429.41500,-4.887838672
429.41550,-5.498227488
429.41600,-5.19303308
429.41650,-4.277449857
429.41700,-3.361866634
429.41750,-2.141089003
429.41800,-0.3099225569
429.41850,2.131632705
429.41900,6.404354412
429.41950,9.45629849
429.42000,9.45629849
429.42050,6.404354412
429.42100,2.436827112
429.42150,0.3004662585
429.42200,-0.004728149245
429.42250,-0.3099225569
429.42300,-0.004728149245
429.42350,3.047215928
429.42400,6.404354412
429.42450,6.099160005
429.42500,1.826438297
429.42550,-0.6151169646
429.42600,2.74202152
429.42650,9.761492897
429.42700,13.11863138
429.42750,10.67707612
429.42800,5.793965597
429.42850,2.131632705
429.42900,-0.3099225569
429.42950,-2.446283411
429.43000,-3.056672226
429.43050,-1.22550578
429.43100,0.9108550739
429.43150,1.216049482
429.43200,-0.004728149245
429.43250,-1.530700188
429.43300,-3.361866634
429.43350,-4.582644265
429.43400,-4.582644265
429.43450,-3.056672226
429.43500,-1.22550578
429.43550,-0.004728149245
429.43600,1.521243889
429.43650,2.131632705
429.43700,1.826438297
429.43750,0.3004662585
429.43800,-0.004728149245
429.43850,0.6056606662
429.43900,1.521243889
429.43950,0.9108550739
429.44000,-0.004728149245
429.44050,-0.004728149245
429.44100,0.9108550739
429.44150,-0.004728149245
429.44200,-3.972255449
429.44250,-8.244977157
429.44300,-8.855365973
429.44350,-7.024199526
429.44400,-7.939782749
429.44450,-11.60211564
429.44500,-14.34886531
429.44550,-12.82289327
429.44600,-8.855365973
429.44650,-5.803421896
429.44700,-3.972255449
429.44750,-2.751477819
429.44800,-4.277449857
429.44850,-9.16056038
429.44900,-12.82289327
429.44950,-10.38133801
429.45000,-2.751477819
429.45050,4.573187966
429.45100,7.014743228
429.45150,4.878382374
429.45200,0.3004662585
429.45250,-4.277449857
429.45300,-6.719005119
429.45350,-5.19303308
429.45400,-0.004728149245
429.45450,5.488771189
429.45500,9.151104082
429.45550,10.0666873
429.45600,8.540715266
429.45650,8.540715266
429.45700,12.20304816
429.45750,18.61213072
429.45800,21.05368598
429.45850,16.17057546
429.45900,8.845909674
429.45950,6.099160005
429.46000,8.540715266
429.46050,9.45629849
429.46100,4.267993559
429.46150,-2.446283411
429.46200,-3.667061042
429.46250,0.6056606662
429.46300,3.047215928
429.46350,-2.751477819
429.46400,-15.26444853
429.46450,-25.03066958
429.46500,-26.55664162
429.46550,-21.9787255
429.46600,-16.48522617
429.46650,-11.90731005
429.46700,-7.634588342
429.46750,-3.361866634
429.46800,-0.3099225569
429.46850,1.826438297
429.46900,3.352410335
429.46950,3.047215928
429.47000,1.216049482
429.47050,0.3004662585
429.47100,0.9108550739
429.47150,1.826438297
429.47200,1.826438297
429.47250,4.573187966
429.47300,12.20304816
429.47350,19.22251954
429.47400,20.13810276
429.47450,15.25499224
429.47500,11.59265934
429.47550,11.59265934
429.47600,12.20304816
429.47650,10.98227053
429.47700,10.0666873
429.47750,11.59265934
429.47800,12.20304816
429.47850,9.761492897
429.47900,5.793965597
429.47950,4.267993559
429.48000,4.573187966
429.48050,3.657604743
429.48100,0.9108550739
429.48150,-0.004728149245
429.48200,1.826438297
429.48250,6.404354412
429.48300,8.540715266
429.48350,6.099160005
429.48400,0.6056606662
429.48450,-2.751477819
429.48500,-2.141089003
429.48550,0.6056606662
429.48600,3.047215928
429.48650,4.267993559
429.48700,4.573187966
429.48750,2.436827112
429.48800,-2.141089003
429.48850,-6.719005119
429.48900,-8.550171565
429.48950,-7.939782749
429.49000,-7.634588342
429.49050,-8.550171565
429.49100,-7.634588342
429.49150,-5.19303308
429.49200,-3.972255449
429.49250,-5.19303308
429.49300,-6.108616303
429.49350,-4.582644265
429.49400,-3.056672226
429.49450,-6.108616303
429.49500,-12.51769887
429.49550,-16.18003176
429.49600,-12.21250446
429.49650,-4.277449857
429.49700,0.6056606662
429.49750,1.216049482
429.49800,1.826438297
429.49850,7.014743228
429.49900,14.33940901
429.49950,17.39135309
429.50000,14.03421461
429.50050,7.319937636
429.50100,1.521243889
429.50150,-1.22550578
429.50200,-2.141089003
429.50250,-2.141089003
429.50300,-2.141089003
429.50350,-2.446283411
429.50400,-3.667061042
429.50450,-5.19303308
429.50500,-5.498227488
429.50550,-4.277449857
429.50600,-3.667061042
429.50650,-4.582644265
429.50700,-6.413810711
429.50750,-6.413810711
429.50800,-4.887838672
429.50850,-3.361866634
429.50900,-3.667061042
429.50950,-4.582644265
429.51000,-5.19303308
429.51050,-5.498227488
429.51100,-5.803421896
429.51150,-6.413810711
429.51200,-6.108616303
429.51250,-5.498227488
429.51300,-4.887838672
429.51350,-3.056672226
429.51400,0.3004662585
429.51450,3.047215928
429.51500,2.436827112
429.51550,-0.3099225569
429.51600,-1.835894595
429.51650,-0.9203113723
429.51700,-0.004728149245
429.51750,-0.3099225569
429.51800,-2.141089003
429.51850,-2.751477819
429.51900,-2.141089003
429.51950,-0.9203113723
429.52000,-0.004728149245
429.52050,1.521243889
429.52100,2.131632705
429.52150,1.521243889
429.52200,0.3004662585
429.52250,-1.530700188
429.52300,-5.19303308
429.52350,-8.550171565
429.52400,-8.855365973
429.52450,-5.19303308
429.52500,-0.6151169646
429.52550,1.826438297
429.52600,2.436827112
429.52650,2.131632705
429.52700,0.9108550739
429.52750,-0.6151169646
429.52800,-1.530700188
429.52850,-0.004728149245
429.52900,3.962799151
429.52950,7.625132043
429.53000,8.540715266
429.53050,7.319937636
429.53100,5.183576782
429.53150,3.352410335
429.53200,1.216049482
429.53250,-1.530700188
429.53300,-4.582644265
429.53350,-5.498227488
429.53400,-3.361866634
429.53450,-0.9203113723
429.53500,-0.6151169646
429.53550,-2.751477819
429.53600,-5.498227488
429.53650,-6.719005119
429.53700,-4.277449857
429.53750,1.521243889
429.53800,8.540715266
429.53850,10.0666873
429.53900,4.267993559
429.53950,-3.361866634
429.54000,-5.19303308
429.54050,-2.141089003
429.54100,-2.751477819
429.54150,-10.38133801
429.54200,-18.0111982
429.54250,-17.7060038
429.54300,-10.0761436
429.54350,-2.141089003
429.54400,2.436827112
429.54450,5.183576782
429.54500,6.099160005
429.54550,3.962799151
429.54600,-0.004728149245
429.54650,-1.22550578
429.54700,0.6056606662
429.54750,3.352410335
429.54800,4.267993559
429.54850,3.962799151
429.54900,2.74202152
429.54950,0.6056606662
429.55000,-0.6151169646
429.55050,-0.004728149245
429.55100,3.047215928
429.55150,5.183576782
429.55200,4.573187966
429.55250,2.131632705
429.55300,-0.3099225569
429.55350,-3.361866634
429.55400,-5.19303308
429.55450,-3.361866634
429.55500,1.826438297
429.55550,5.793965597
429.55600,2.74202152
429.55650,-3.972255449
429.55700,-7.634588342
429.55750,-5.19303308
429.55800,-2.751477819
429.55850,-4.582644265
429.55900,-5.803421896
429.55950,-0.004728149245
429.56000,9.45629849
429.56050,14.94979783
429.56100,13.42382579
429.56150,9.761492897
429.56200,8.235520859
429.56250,7.319937636
429.56300,6.099160005
429.56350,5.183576782
429.56400,5.488771189
429.56450,4.878382374
429.56500,2.436827112
429.56550,1.216049482
429.56600,3.352410335
429.56650,6.70954882
429.56700,6.099160005
429.56750,0.6056606662
429.56800,-7.024199526
429.56850,-11.90731005
429.56900,-10.99172683
429.56950,-5.803421896
429.57000,-1.530700188
429.57050,-1.835894595
429.57100,-4.582644265
429.57150,-4.887838672
429.57200,-1.530700188
429.57250,0.3004662585
429.57300,-0.6151169646
429.57350,-3.056672226
429.57400,-2.751477819
429.57450,-2.751477819
429.57500,-5.498227488
429.57550,-9.16056038
429.57600,-9.465754788
429.57650,-6.719005119
429.57700,-3.972255449
429.57750,-1.530700188
429.57800,1.521243889
429.57850,4.267993559
429.57900,3.657604743
429.57950,0.6056606662
429.58000,-0.9203113723
429.58050,0.3004662585
429.58100,2.74202152
429.58150,3.352410335
429.58200,0.6056606662
429.58250,-3.667061042
429.58300,-7.329393934
429.58350,-8.550171565
429.58400,-7.634588342
429.58450,-7.024199526
429.58500,-7.939782749
429.58550,-9.16056038
429.58600,-9.465754788
429.58650,-9.770949196
429.58700,-10.0761436
429.58750,-5.19303308
429.58800,7.930326451
429.58850,25.02121328
429.58900,33.26146229
429.58950,27.46276854
429.59000,14.64460342
429.59050,6.099160005
429.59100,8.540715266
429.59150,19.83290835
429.59200,32.65107347
429.59250,39.67054485
429.59300,36.31340637
429.59350,25.02121328
429.59400,12.81343697
429.59450,6.099160005
429.59500,3.962799151
429.59550,3.657604743
429.59600,3.352410335
429.59650,3.047215928
429.59700,2.131632705
429.59750,-0.004728149245
429.59800,-3.972255449
429.59850,-7.939782749
429.59900,-11.90731005
429.59950,-16.79042057
429.60000,-21.6735311
429.60050,-23.19950313
429.60100,-19.23197583
429.60150,-11.60211564
429.60200,-5.498227488
429.60250,-2.751477819
429.60300,-0.6151169646
429.60350,3.352410335
429.60400,8.845909674
429.60450,14.03421461
429.60500,18.61213072
429.60550,23.19004684
429.60600,24.41082447
429.60650,18.61213072
429.60700,7.625132043
429.60750,-3.056672226
429.60800,-10.99172683
429.60850,-14.95925413
429.60900,-14.95925413
429.60950,-9.770949196
429.61000,-2.751477819
429.61050,-1.530700188
429.61100,-7.329393934
429.61150,-11.29692123
429.61200,-7.634588342
429.61250,-0.3099225569
429.61300,2.131632705
429.61350,0.9108550739
429.61400,0.3004662585
429.61450,1.216049482
429.61500,0.3004662585
429.61550,-1.22550578
429.61600,-0.9203113723
429.61650,-0.004728149245
429.61700,-1.530700188
429.61750,-4.277449857
429.61800,-2.751477819
429.61850,2.74202152
429.61900,7.014743228
429.61950,7.625132043
429.62000,7.014743228
429.62050,5.488771189
429.62100,-1.530700188
429.62150,-16.18003176
429.62200,-29.30339129
429.62250,-31.43975214
429.62300,-24.11508636
429.62350,-16.18003176
429.62400,-11.90731005
429.62450,-9.465754788
429.62500,-6.413810711
429.62550,-3.361866634
429.62600,-1.22550578
429.62650,-0.3099225569
429.62700,-0.004728149245
429.62750,-0.9203113723
429.62800,-2.446283411
429.62850,-5.19303308
429.62900,-8.550171565
429.62950,-10.99172683
429.63000,-10.68653242
429.63050,-8.550171565
429.63100,-5.803421896
429.63150,-3.056672226
429.63200,-0.004728149245
429.63250,2.131632705
429.63300,3.047215928
429.63350,3.657604743
429.63400,4.878382374
429.63450,5.183576782
429.63500,3.962799151
429.63550,2.131632705
429.63600,1.216049482
429.63650,0.6056606662
429.63700,-1.530700188
429.63750,-5.498227488
429.63800,-9.16056038
429.63850,-10.0761436
429.63900,-7.939782749
429.63950,-4.277449857
429.64000,-1.22550578
429.64050,-0.6151169646
429.64100,-0.004728149245
429.64150,4.573187966
429.64200,13.11863138
429.64250,20.13810276
429.64300,21.6640748
429.64350,20.13810276
429.64400,17.39135309
429.64450,10.67707612
429.64500,-1.22550578
429.64550,-11.60211564
429.64600,-12.21250446
429.64650,-3.972255449
429.64700,3.962799151
429.64750,6.099160005
429.64800,4.573187966
429.64850,1.521243889
429.64900,-1.835894595
429.64950,-4.277449857
429.65000,-2.141089003
429.65050,3.657604743
429.65100,7.930326451
429.65150,7.625132043
429.65200,5.183576782
429.65250,2.131632705
429.65300,-1.22550578
429.65350,-4.277449857
429.65400,-4.887838672
429.65450,-2.446283411
429.65500,-0.004728149245
429.65550,2.131632705
429.65600,4.267993559
429.65650,3.962799151
429.65700,-0.6151169646
429.65750,-7.634588342
429.65800,-10.68653242
429.65850,-9.770949196
429.65900,-8.855365973
429.65950,-8.855365973
429.66000,-5.498227488
429.66050,1.521243889
429.66100,6.099160005
429.66150,4.267993559
429.66200,2.74202152
429.66250,7.625132043
429.66300,14.64460342
429.66350,14.94979783
429.66400,7.625132043
429.66450,-0.004728149245
429.66500,-3.667061042
429.66550,-5.498227488
429.66600,-7.634588342
429.66650,-8.550171565
429.66700,-4.582644265
429.66750,3.962799151
429.66800,14.33940901
429.66850,21.05368598
429.66900,20.13810276
429.66950,11.59265934
429.67000,1.521243889
429.67050,-3.667061042
429.67100,-1.530700188
429.67150,4.267993559
429.67200,7.319937636
429.67250,4.878382374
429.67300,-0.004728149245
429.67350,-2.141089003
429.67400,-2.751477819
429.67450,-3.972255449
429.67500,-5.498227488
429.67550,-4.887838672
429.67600,-1.835894595
429.67650,0.6056606662
429.67700,-0.004728149245
429.67750,-6.413810711
429.67800,-18.62158702
429.67850,-34.18650181
429.67900,-47.30986134
429.67950,-50.66699983
429.68000,-46.08908371
429.68050,-43.34233404
429.68100,-47.61505575
429.68150,-54.93972154
429.68200,-56.16049917
429.68250,-47.00466694
429.68300,-25.9462528
429.68350,4.573187966
429.68400,38.14457281
429.68450,62.86531984
429.68500,72.02115207
429.68550,69.57959681
429.68600,63.17051424
429.68650,57.98220931
429.68700,56.15104287
429.68750,61.03415339
429.68800,70.49518003
429.68850,78.12504022
429.68900,76.90426259
429.68950,65.3068751
429.69000,44.85884978
429.69050,18.91732513
429.69100,-8.244977157
429.69150,-32.35533537
429.69200,-52.19297187
429.69250,-65.92672021
429.69300,-68.97866429
429.69350,-61.3488041
429.69400,-54.02413831
429.69450,-52.19297187
429.69500,-39.98519556
429.69550,-3.667061042
429.69600,33.5666567
429.69650,31.73549025
429.69700,-11.29692123
429.69750,-47.92025016
429.69800,-40.90077878
429.69850,-13.12808768
429.69900,-10.0761436
429.69950,-37.23844589
429.70000,-62.26438732
429.70050,-67.75788666
429.70100,-65.92672021
429.70150,-66.23191462
429.70200,-61.04360969
429.70250,-47.00466694
429.70300,-34.49169622
429.70350,-29.9137801
429.70400,-23.80989195
429.70450,-10.99172683
429.70500,1.521243889
429.70550,12.20304816
429.70600,29.90432381
429.70650,57.98220931
429.70700,83.61853956
429.70750,96.13151028
429.70800,102.2353984
429.70850,113.2223971
429.70900,127.5665343
429.70950,139.1639218
429.71000,149.2353372
429.71050,159.3067527
429.71100,157.7807806
429.71150,134.8912001
429.71200,101.3198152
429.71250,77.209457
429.71300,66.22245832
429.71350,53.09909879
429.71400,29.29393499
429.71450,3.962799151
429.71500,-10.68653242
429.71550,-14.95925413
429.71600,-14.0436709
429.71650,-11.90731005
429.71700,-10.68653242
429.71750,-11.60211564
429.71800,-17.09561498
429.71850,-25.6410584
429.71900,-35.10208503
429.71950,-41.816362
429.72000,-44.25791727
429.72050,-43.64752845
429.72100,-41.816362
429.72150,-36.93325148
429.72200,-27.77741925
429.72250,-21.9787255
429.72300,-27.77741925
429.72350,-43.34233404
429.72400,-55.55011035
429.72450,-57.99166561
429.72500,-56.77088798
429.72550,-55.85530476
429.72600,-50.36180542
429.72650,-37.5436403
429.72700,-26.25144721
429.72750,-23.50469754
429.72800,-24.72547517
429.72850,-24.72547517
429.72900,-26.86183603
429.72950,-31.74494655
429.73000,-26.55664162
429.73050,-5.19303308
429.73100,12.81343697
429.73150,3.962799151
429.73200,-28.08261366
429.73250,-55.55011035
429.73300,-58.90724884
429.73350,-47.30986134
429.73400,-39.37480674
429.73450,-40.90077878
429.73500,-42.12155641
429.73550,-36.62805707
429.73600,-28.08261366
429.73650,-25.03066958
429.73700,-31.43975214
429.73750,-39.37480674
429.73800,-39.68000115
429.73850,-32.96572418
429.73900,-25.6410584
429.73950,-20.45275347
429.74000,-15.56964294
429.74050,-11.60211564
429.74100,-11.90731005
429.74150,-13.7384765
429.74200,-10.99172683
429.74250,-5.19303308
429.74300,-3.056672226
429.74350,-2.751477819
429.74400,3.352410335
429.74450,9.761492897
429.74500,-0.004728149245
429.74550,-25.6410584
429.74600,-42.42675082
429.74650,-33.8813074
429.74700,-14.65405972
429.74750,-10.68653242
429.74800,-26.86183603
429.74850,-44.56311167
429.74900,-48.22544457
429.74950,-36.62805707
429.75000,-18.0111982
429.75050,-2.446283411
429.75100,2.131632705
429.75150,-0.004728149245
429.75200,3.047215928
429.75250,18.30693631
429.75300,37.22898959
429.75350,47.60559945
429.75400,50.35234912
429.75450,55.84584846
429.75500,67.13804155
429.75550,75.37829055
429.75600,74.46270733
429.75650,69.57959681
429.75700,69.2744024
429.75750,72.32634648
429.75800,72.32634648
429.75850,67.13804155
429.75900,61.3393478
429.75950,58.89779254
429.76000,55.54065405
429.76050,44.85884978
429.76100,28.37835177
429.76150,14.64460342
429.76200,8.540715266
429.76250,5.488771189
429.76300,-0.004728149245
429.76350,-4.582644265
429.76400,-1.835894595
429.76450,5.793965597
429.76500,9.45629849
429.76550,6.404354412
429.76600,3.657604743
429.76650,5.793965597
429.76700,7.319937636
429.76750,2.436827112
429.76800,-4.887838672
429.76850,-9.16056038
429.76900,-11.60211564
429.76950,-18.31639261
429.77000,-26.86183603
429.77050,-28.38780807
429.77100,-18.62158702
429.77150,-3.361866634
429.77200,6.404354412
429.77250,7.319937636
429.77300,2.131632705
429.77350,-3.056672226
429.77400,-5.498227488
429.77450,-5.803421896
429.77500,-6.719005119
429.77550,-9.770949196
429.77600,-13.12808768
429.77650,-14.0436709
429.77700,-12.21250446
429.77750,-9.770949196
429.77800,-8.244977157
429.77850,-5.498227488
429.77900,-1.835894595
429.77950,0.6056606662
429.78000,0.3004662585
429.78050,-1.530700188
429.78100,-4.887838672
429.78150,-9.16056038
429.78200,-13.12808768
429.78250,-14.34886531
429.78300,-12.51769887
429.78350,-10.0761436
429.78400,-10.0761436
429.78450,-13.12808768
429.78500,-15.56964294
429.78550,-16.48522617
429.78600,-15.26444853
429.78650,-11.60211564
429.78700,-5.803421896
429.78750,-0.6151169646
429.78800,-0.004728149245
429.78850,-1.530700188
429.78900,-2.751477819
429.78950,-1.22550578
429.79000,1.521243889
429.79050,4.267993559
429.79100,8.235520859
429.79150,12.20304816
429.79200,11.59265934
429.79250,3.962799151
429.79300,-5.19303308
429.79350,-9.770949196
429.79400,-7.939782749
429.79450,-3.972255449
429.79500,-1.835894595
429.79550,-2.141089003
429.79600,-3.667061042
429.79650,-4.887838672
429.79700,-4.582644265
429.79750,-3.361866634
429.79800,-2.446283411
429.79850,-1.835894595
429.79900,-0.6151169646
429.79950,2.131632705
429.80000,6.099160005
429.80050,10.37188171
429.80100,13.7290202
429.80150,13.42382579
429.80200,10.0666873
429.80250,7.014743228
429.80300,6.70954882
429.80350,7.625132043
429.80400,5.793965597
429.80450,2.74202152
429.80500,1.521243889
429.80550,1.826438297
429.80600,0.9108550739
429.80650,0.6056606662
429.80700,3.352410335
429.80750,6.099160005
429.80800,3.047215928
429.80850,-3.056672226
429.80900,-3.667061042
429.80950,3.352410335
429.81000,9.45629849
429.81050,7.014743228
429.81100,-0.9203113723
429.81150,-9.770949196
429.81200,-17.40080939
429.81250,-23.50469754
429.81300,-26.25144721
429.81350,-25.9462528
429.81400,-25.9462528
429.81450,-24.42028077
429.81500,-17.40080939
429.81550,-9.16056038
429.81600,-8.855365973
429.81650,-14.65405972
429.81700,-13.7384765
429.81750,-2.751477819
429.81800,7.319937636
429.81850,9.45629849
429.81900,9.761492897
429.81950,15.56018664
429.82000,21.35888039
429.82050,22.88485243
429.82100,26.54718532
429.82150,38.75496163
429.82200,52.48870998
429.82250,59.20298694
429.82300,61.3393478
429.82350,62.25493102
429.82400,53.09909879
429.82450,24.41082447
429.82500,-11.90731005
429.82550,-35.10208503
429.82600,-39.37480674
429.82650,-39.37480674
429.82700,-43.95272286
429.82750,-47.61505575
429.82800,-42.42675082
429.82850,-31.74494655
429.82900,-21.06314228
429.82950,-9.16056038
429.83000,3.352410335
429.83050,11.89785375
429.83100,12.50824257
429.83150,12.20304816
429.83200,21.96926921
429.83250,39.67054485
429.83300,49.13157149
429.83350,39.36535044
429.83400,20.13810276
429.83450,10.98227053
429.83500,17.39135309
429.83550,25.93679651
429.83600,24.71601887
429.83650,18.91732513
429.83700,19.83290835
429.83750,27.76796295
429.83800,33.87185111
429.83850,37.83937841
429.83900,43.63807215
429.83950,43.94326656
429.84000,25.6316021
429.84050,-5.19303308
429.84100,-25.9462528
429.84150,-24.11508636
429.84200,-13.7384765
429.84250,-13.7384765
429.84300,-21.9787255
429.84350,-25.6410584
429.84400,-23.80989195
429.84450,-23.50469754
429.84500,-24.72547517
429.84550,-21.06314228
429.84600,-12.82289327
429.84650,-7.939782749
429.84700,-8.855365973
429.84750,-10.0761436
429.84800,-7.329393934
429.84850,-4.277449857
429.84900,-6.108616303
429.84950,-12.82289327
429.85000,-20.45275347
429.85050,-25.03066958
429.85100,-22.89430873
429.85150,-15.26444853
429.85200,-6.108616303
429.85250,0.6056606662
429.85300,9.151104082
429.85350,27.46276854
429.85400,54.93026524
429.85450,80.26140108
429.85500,87.28087245
429.85550,69.88479121
429.85600,36.61860077
429.85650,3.657604743
429.85700,-17.7060038
429.85750,-25.6410584
429.85800,-24.72547517
429.85850,-21.6735311
429.85900,-21.06314228
429.85950,-25.9462528
429.86000,-33.27091859
429.86050,-36.93325148
429.86100,-32.96572418
429.86150,-21.06314228
429.86200,-3.667061042
429.86250,14.33940901
429.86300,25.32640769
429.86350,22.57965802
429.86400,7.930326451
429.86450,-7.939782749
429.86500,-16.79042057
429.86550,-19.23197583
429.86600,-19.53717024
429.86650,-15.26444853
429.86700,-1.835894595
429.86750,15.86538105
429.86800,25.93679651
429.86850,20.74849157
429.86900,7.014743228
429.86950,-2.446283411
429.87000,-3.667061042
429.87050,-2.751477819
429.87100,-4.582644265
429.87150,-9.465754788
429.87200,-14.34886531
429.87250,-20.45275347
429.87300,-28.38780807
429.87350,-34.49169622
429.87400,-33.27091859
429.87450,-25.9462528
429.87500,-21.6735311
429.87550,-26.86183603
429.87600,-35.10208503
429.87650,-35.71247385
429.87700,-26.25144721
429.87750,-13.12808768
429.87800,-3.972255449
429.87850,-0.004728149245
429.87900,-0.004728149245
429.87950,-1.835894595
429.88000,-5.19303308
429.88050,-7.329393934
429.88100,-6.413810711
429.88150,-3.667061042
429.88200,-1.835894595
429.88250,-2.446283411
429.88300,-3.056672226
429.88350,-2.141089003
429.88400,-0.3099225569
429.88450,-0.3099225569
429.88500,-3.056672226
429.88550,-6.108616303
429.88600,-8.244977157
429.88650,-10.0761436
429.88700,-12.51769887
429.88750,-14.65405972
429.88800,-14.34886531
429.88850,-13.12808768
429.88900,-12.51769887
429.88950,-12.21250446
429.89000,-10.38133801
429.89050,-6.108616303
429.89100,-1.530700188
429.89150,0.6056606662
429.89200,-0.004728149245
429.89250,-2.751477819
429.89300,-4.277449857
429.89350,-2.141089003
429.89400,1.521243889
429.89450,2.74202152
429.89500,-0.004728149245
429.89550,-1.530700188
429.89600,-0.004728149245
429.89650,2.436827112
429.89700,0.9108550739
429.89750,-2.751477819
429.89800,-3.972255449
429.89850,-1.530700188
429.89900,0.6056606662
429.89950,0.6056606662
429.90000,0.3004662585
429.90050,1.521243889
429.90100,4.267993559
429.90150,6.70954882
429.90200,7.930326451
429.90250,8.235520859
429.90300,8.845909674
429.90350,9.45629849
429.90400,9.761492897
429.90450,10.37188171
429.90500,11.89785375
429.90550,14.64460342
429.90600,15.86538105
429.90650,11.59265934
429.90700,1.826438297
429.90750,-6.413810711
429.90800,-8.244977157
429.90850,-4.277449857
429.90900,-0.004728149245
429.90950,1.826438297
429.91000,2.131632705
429.91050,1.216049482
429.91100,0.6056606662
429.91150,3.962799151
429.91200,12.20304816
429.91250,21.35888039
429.91300,25.6316021
429.91350,23.49524124
429.91400,17.39135309
429.91450,9.761492897
429.91500,2.74202152
429.91550,-0.004728149245
429.91600,2.74202152
429.91650,4.267993559
429.91700,-1.835894595
429.91750,-12.51769887
429.91800,-16.79042057
429.91850,-10.0761436
429.91900,-0.3099225569
429.91950,4.573187966
429.92000,5.183576782
429.92050,5.488771189
429.92100,4.878382374
429.92150,1.216049482
429.92200,-4.582644265
429.92250,-8.244977157
429.92300,-7.024199526
429.92350,-3.667061042
429.92400,-1.835894595
429.92450,-1.835894595
429.92500,-1.835894595
429.92550,-1.22550578
429.92600,-0.6151169646
429.92650,-1.530700188
429.92700,-3.056672226
429.92750,-3.972255449
429.92800,-3.667061042
429.92850,-2.751477819
429.92900,-3.056672226
429.92950,-3.972255449
429.93000,-3.972255449
429.93050,-2.141089003
429.93100,-0.004728149245
429.93150,-0.004728149245
429.93200,-0.9203113723
429.93250,-0.004728149245
429.93300,4.573187966
429.93350,10.67707612
429.93400,14.64460342
429.93450,18.30693631
429.93500,22.27446361
429.93550,22.57965802
429.93600,12.50824257
429.93650,-3.056672226
429.93700,-12.21250446
429.93750,-8.244977157
429.93800,1.826438297
429.93850,10.98227053
429.93900,18.91732513
429.93950,24.71601887
429.94000,23.49524124
429.94050,11.59265934
429.94100,-2.446283411
429.94150,-9.16056038
429.94200,-7.634588342
429.94250,-5.498227488
429.94300,-6.413810711
429.94350,-9.16056038
429.94400,-13.12808768
429.94450,-16.18003176
429.94500,-14.0436709
429.94550,-7.939782749
429.94600,-3.361866634
429.94650,-3.361866634
429.94700,-3.361866634
429.94750,-0.004728149245
429.94800,2.131632705
429.94850,3.047215928
429.94900,10.37188171
429.94950,24.41082447
429.95000,29.29393499
429.95050,14.64460342
429.95100,-5.498227488
429.95150,-10.38133801
429.95200,-1.530700188
429.95250,3.047215928
429.95300,-1.22550578
429.95350,-1.835894595
429.95400,7.625132043
429.95450,17.6965475
429.95500,18.61213072
429.95550,14.33940901
429.95600,8.845909674
429.95650,0.6056606662
429.95700,-3.972255449
429.95750,6.70954882
429.95800,32.04068466
429.95850,48.52118268
429.95900,37.83937841
429.95950,9.151104082
429.96000,-14.65405972
429.96050,-25.03066958
429.96100,-26.86183603
429.96150,-24.72547517
429.96200,-18.31639261
429.96250,-11.29692123
429.96300,-10.68653242
429.96350,-14.95925413
429.96400,-17.40080939
429.96450,-17.09561498
429.96500,-18.0111982
429.96550,-19.53717024
429.96600,-15.87483735
429.96650,-4.887838672
429.96700,5.793965597
429.96750,11.28746494
429.96800,14.94979783
429.96850,22.88485243
429.96900,33.26146229
429.96950,39.67054485
429.97000,37.83937841
429.97050,33.26146229
429.97100,33.26146229
429.97150,40.58612808
429.97200,50.35234912
429.97250,54.62507083
429.97300,49.13157149
429.97350,35.39782314
429.97400,18.61213072
429.97450,4.573187966
429.97500,-3.056672226
429.97550,-6.108616303
429.97600,-7.634588342
429.97650,-10.0761436
429.97700,-11.90731005
429.97750,-12.51769887
429.97800,-13.12808768
429.97850,-13.7384765
429.97900,-13.7384765
429.97950,-13.43328209
429.98000,-15.56964294
429.98050,-18.31639261
429.98100,-14.65405972
429.98150,-1.835894595
429.98200,10.98227053
429.98250,11.89785375
429.98300,-0.004728149245
429.98350,-13.12808768
429.98400,-18.62158702
429.98450,-17.40080939
429.98500,-16.79042057
429.98550,-19.53717024
429.98600,-22.89430873
429.98650,-24.11508636
429.98700,-24.42028077
429.98750,-26.55664162
429.98800,-28.69300247
429.98850,-26.55664162
429.98900,-17.40080939
429.98950,-5.19303308
429.99000,1.521243889
429.99050,-1.22550578
429.99100,-10.99172683
429.99150,-22.28391991
429.99200,-30.21897451
429.99250,-34.79689063
429.99300,-39.68000115
429.99350,-48.53063897
429.99400,-57.3812768
429.99450,-56.16049917
429.99500,-40.59558437
429.99550,-20.45275347
429.99600,-9.770949196
429.99650,-11.60211564
429.99700,-17.09561498
429.99750,-19.23197583
429.99800,-17.09561498
429.99850,-10.99172683
429.99900,-1.22550578
429.99950,9.761492897
430.00000,16.47576987
430.00050,16.47576987
430.00100,14.03421461
430.00150,15.56018664
430.00200,24.10563006
430.00250,38.14457281
430.00300,50.04715471
430.00350,53.09909879
430.00400,48.82637708
430.00450,47.60559945
430.00500,50.96273794
430.00550,48.52118268
430.00600,32.34587907
430.00650,11.28746494
430.00700,-0.3099225569
430.00750,-3.056672226
430.00800,-6.719005119
430.00850,-14.0436709
430.00900,-17.7060038
430.00950,-14.0436709
430.01000,-9.16056038
430.01050,-6.719005119
430.01100,-4.277449857
430.01150,-1.22550578
430.01200,-0.6151169646
430.01250,-2.446283411
430.01300,-2.141089003
430.01350,-0.004728149245
430.01400,-0.004728149245
430.01450,-4.582644265
430.01500,-8.550171565
430.01550,-8.244977157
430.01600,-6.108616303
430.01650,-7.024199526
430.01700,-9.465754788
430.01750,-9.16056038
430.01800,-5.803421896
430.01850,-2.141089003
430.01900,-0.6151169646
430.01950,-0.6151169646
430.02000,-0.004728149245
430.02050,0.3004662585
430.02100,-1.835894595
430.02150,-7.329393934
430.02200,-12.51769887
430.02250,-14.65405972
430.02300,-15.26444853
430.02350,-15.87483735
430.02400,-14.0436709
430.02450,-8.244977157
430.02500,-2.751477819
430.02550,-3.361866634
430.02600,-3.361866634
430.02650,6.70954882
430.02700,22.27446361
430.02750,23.19004684
430.02800,2.436827112
430.02850,-21.06314228
430.02900,-26.86183603
430.02950,-15.26444853
430.03000,-3.361866634
430.03050,1.216049482
430.03100,4.267993559
430.03150,8.845909674
430.03200,8.540715266
430.03250,2.74202152
430.03300,-0.9203113723
430.03350,1.521243889
430.03400,6.404354412
430.03450,7.930326451
430.03500,7.930326451
430.03550,8.235520859
430.03600,8.235520859
430.03650,5.488771189
430.03700,1.826438297
430.03750,-0.6151169646
430.03800,-3.361866634
430.03850,-5.803421896
430.03900,-3.667061042
430.03950,3.657604743
430.04000,10.37188171
430.04050,10.67707612
430.04100,6.70954882
430.04150,5.793965597
430.04200,9.761492897
430.04250,13.11863138
430.04300,13.11863138
430.04350,12.20304816
430.04400,11.59265934
430.04450,9.761492897
430.04500,5.488771189
430.04550,1.826438297
430.04600,0.9108550739
430.04650,0.9108550739
430.04700,0.3004662585
430.04750,-0.004728149245
430.04800,-0.004728149245
430.04850,-0.9203113723
430.04900,-5.19303308
430.04950,-9.16056038
430.05000,-8.855365973
430.05050,-5.803421896
430.05100,-3.972255449
430.05150,-5.803421896
430.05200,-7.329393934
430.05250,-5.498227488
430.05300,-1.22550578
430.05350,1.521243889
430.05400,1.216049482
430.05450,-0.9203113723
430.05500,-3.667061042
430.05550,-5.803421896
430.05600,-5.498227488
430.05650,-3.972255449
430.05700,-2.141089003
430.05750,-0.3099225569
430.05800,0.6056606662
430.05850,0.9108550739
430.05900,-0.004728149245
430.05950,0.9108550739
430.06000,5.488771189
430.06050,9.761492897
430.06100,5.488771189
430.06150,-7.024199526
430.06200,-17.09561498
430.06250,-13.7384765
430.06300,-0.004728149245
430.06350,12.50824257
430.06400,15.25499224
430.06450,11.89785375
430.06500,8.235520859
430.06550,5.488771189
430.06600,2.74202152
430.06650,0.9108550739
430.06700,1.216049482
430.06750,2.74202152
430.06800,5.183576782
430.06850,7.319937636
430.06900,7.014743228
430.06950,4.573187966
430.07000,2.74202152
430.07050,4.267993559
430.07100,5.183576782
430.07150,1.521243889
430.07200,-4.582644265
430.07250,-6.108616303
430.07300,-1.530700188
430.07350,3.047215928
430.07400,3.352410335
430.07450,0.3004662585
430.07500,-1.835894595
430.07550,-0.9203113723
430.07600,3.962799151
430.07650,12.50824257
430.07700,18.61213072
430.07750,15.56018664
430.07800,2.74202152
430.07850,-10.38133801
430.07900,-14.65405972
430.07950,-8.550171565
430.08000,2.131632705
430.08050,11.28746494
430.08100,15.86538105
430.08150,18.91732513
430.08200,23.19004684
430.08250,26.24199091
430.08300,20.13810276
430.08350,4.573187966
430.08400,-9.770949196
430.08450,-12.51769887
430.08500,-5.498227488
430.08550,-0.004728149245
430.08600,-0.9203113723
430.08650,-5.498227488
430.08700,-8.855365973
430.08750,-11.60211564
430.08800,-11.60211564
430.08850,-4.582644265
430.08900,6.70954882
430.08950,12.20304816
430.09000,7.014743228
430.09050,0.3004662585
430.09100,-0.004728149245
430.09150,3.352410335
430.09200,1.826438297
430.09250,-4.887838672
430.09300,-8.855365973
430.09350,-6.413810711
430.09400,-2.141089003
430.09450,-0.004728149245
430.09500,1.216049482
430.09550,2.74202152
430.09600,3.047215928
430.09650,1.521243889
430.09700,-0.3099225569
430.09750,-1.835894595
430.09800,-3.056672226
430.09850,-2.751477819
430.09900,-0.004728149245
430.09950,3.657604743
430.10000,2.131632705
430.10050,-3.667061042
430.10100,-10.0761436
430.10150,-12.82289327
430.10200,-14.95925413
430.10250,-16.79042057
430.10300,-16.48522617
430.10350,-13.43328209
430.10400,-13.7384765
430.10450,-19.84236465
430.10500,-24.11508636
430.10550,-16.79042057
430.10600,-0.6151169646
430.10650,10.67707612
430.10700,9.761492897
430.10750,-0.004728149245
430.10800,-9.770949196
430.10850,-15.56964294
430.10900,-17.40080939
430.10950,-14.95925413
430.11000,-8.855365973
430.11050,-3.361866634
430.11100,-1.530700188
430.11150,-1.530700188
430.11200,1.216049482
430.11250,8.235520859
430.11300,12.81343697
430.11350,9.761492897
430.11400,3.047215928
430.11450,0.3004662585
430.11500,3.047215928
430.11550,9.151104082
430.11600,16.78096427
430.11650,25.93679651
430.11700,31.43029584
430.11750,28.37835177
430.11800,20.13810276
430.11850,15.56018664
430.11900,15.86538105
430.11950,13.42382579
430.12000,4.878382374
430.12050,-3.361866634
430.12100,-6.719005119
430.12150,-9.16056038
430.12200,-15.87483735
430.12250,-23.19950313
430.12300,-25.03066958
430.12350,-21.6735311
430.12400,-14.65405972
430.12450,-3.361866634
430.12500,7.930326451
430.12550,9.761492897
430.12600,1.216049482
430.12650,-3.667061042
430.12700,5.793965597
430.12750,21.35888039
430.12800,26.54718532
430.12850,19.52771394
430.12900,13.11863138
430.12950,15.86538105
430.13000,25.32640769
430.13050,35.09262874
430.13100,39.97573926
430.13150,32.95626788
430.13200,14.33940901
430.13250,-4.277449857
430.13300,-9.465754788
430.13350,-2.751477819
430.13400,2.436827112
430.13450,-0.004728149245
430.13500,-2.751477819
430.13550,-0.004728149245
430.13600,2.436827112
430.13650,0.6056606662
430.13700,-3.056672226
430.13750,-4.277449857
430.13800,-5.498227488
430.13850,-10.0761436
430.13900,-13.43328209
430.13950,-10.68653242
430.14000,-7.329393934
430.14050,-12.51769887
430.14100,-24.42028077
430.14150,-28.99819688
430.14200,-19.53717024
430.14250,-4.277449857
430.14300,1.521243889
430.14350,-3.667061042
430.14400,-11.60211564
430.14450,-14.0436709
430.14500,-11.60211564
430.14550,-8.244977157
430.14600,-5.19303308
430.14650,-2.446283411
430.14700,-0.6151169646
430.14750,-0.9203113723
430.14800,-3.667061042
430.14850,-8.244977157
430.14900,-14.34886531
430.14950,-20.45275347
430.15000,-23.80989195
430.15050,-23.80989195
430.15100,-23.50469754
430.15150,-24.72547517
430.15200,-25.03066958
430.15250,-22.28391991
430.15300,-17.7060038
430.15350,-14.34886531
430.15400,-11.60211564
430.15450,-7.329393934
430.15500,-2.141089003
430.15550,0.6056606662
430.15600,0.3004662585
430.15650,0.6056606662
430.15700,3.047215928
430.15750,4.573187966
430.15800,3.352410335
430.15850,1.826438297
430.15900,3.047215928
430.15950,6.404354412
430.16000,8.540715266
430.16050,9.151104082
430.16100,10.0666873
430.16150,9.761492897
430.16200,6.099160005
430.16250,1.216049482
430.16300,0.6056606662
430.16350,5.183576782
430.16400,10.37188171
430.16450,11.59265934
430.16500,8.235520859
430.16550,3.047215928
430.16600,-0.3099225569
430.16650,-0.004728149245
430.16700,2.74202152
430.16750,3.962799151
430.16800,0.9108550739
430.16850,-2.141089003
430.16900,-0.004728149245
430.16950,6.404354412
430.17000,10.0666873
430.17050,9.45629849
430.17100,8.235520859
430.17150,10.37188171
430.17200,11.89785375
430.17250,9.761492897
430.17300,5.488771189
430.17350,2.74202152
430.17400,1.521243889
430.17450,-0.3099225569
430.17500,-2.446283411
430.17550,-3.972255449
430.17600,-4.887838672
430.17650,-6.413810711
430.17700,-8.244977157
430.17750,-9.770949196
430.17800,-10.99172683
430.17850,-10.99172683
430.17900,-7.939782749
430.17950,-2.141089003
430.18000,2.131632705
430.18050,3.962799151
430.18100,5.183576782
430.18150,8.540715266
430.18200,11.28746494
430.18250,9.761492897
430.18300,6.70954882
430.18350,6.099160005
430.18400,7.930326451
430.18450,7.014743228
430.18500,3.047215928
430.18550,-0.6151169646
430.18600,-1.835894595
430.18650,-0.9203113723
430.18700,-0.004728149245
430.18750,0.6056606662
430.18800,1.826438297
430.18850,3.047215928
430.18900,3.962799151
430.18950,4.878382374
430.19000,4.573187966
430.19050,3.047215928
430.19100,2.436827112
430.19150,3.352410335
430.19200,3.352410335
430.19250,-0.004728149245
430.19300,-1.530700188
430.19350,2.74202152
430.19400,11.89785375
430.19450,17.08615868
430.19500,13.7290202
430.19550,6.404354412
430.19600,-0.3099225569
430.19650,-4.887838672
430.19700,-6.108616303
430.19750,-2.141089003
430.19800,3.657604743
430.19850,3.657604743
430.19900,-4.887838672
430.19950,-13.7384765
430.20000,-13.43328209
430.20050,-6.413810711
430.20100,-0.6151169646
430.20150,1.216049482
430.20200,3.352410335
430.20250,5.488771189
430.20300,4.573187966
430.20350,1.216049482
430.20400,-0.004728149245
430.20450,1.521243889
430.20500,3.047215928
430.20550,2.131632705
430.20600,-0.004728149245
430.20650,-3.056672226
430.20700,-10.38133801
430.20750,-20.75794787
430.20800,-27.16703043
430.20850,-24.72547517
430.20900,-16.48522617
430.20950,-11.60211564
430.21000,-12.82289327
430.21050,-13.7384765
430.21100,-5.803421896
430.21150,9.151104082
430.21200,22.27446361
430.21250,26.54718532
430.21300,23.80043565
430.21350,20.13810276
430.21400,16.17057546
430.21450,8.540715266
430.21500,-0.9203113723
430.21550,-7.634588342
430.21600,-8.550171565
430.21650,-4.887838672
430.21700,-0.9203113723
430.21750,0.3004662585
430.21800,-1.835894595
430.21850,-7.329393934
430.21900,-13.7384765
430.21950,-18.62158702
430.22000,-21.6735311
430.22050,-20.75794787
430.22100,-13.12808768
430.22150,-5.498227488
430.22200,-10.68653242
430.22250,-30.52416892
430.22300,-43.95272286
430.22350,-30.21897451
430.22400,2.74202152
430.22450,27.15757414
430.22500,25.6316021
430.22550,7.930326451
430.22600,-5.19303308
430.22650,-4.887838672
430.22700,7.014743228
430.22750,23.19004684
430.22800,32.04068466
430.22850,26.54718532
430.22900,14.33940901
430.22950,11.59265934
430.23000,21.96926921
430.23050,32.34587907
430.23100,29.29393499
430.23150,17.39135309
430.23200,7.930326451
430.23250,4.878382374
430.23300,3.047215928
430.23350,0.6056606662
430.23400,-1.22550578
430.23450,-3.361866634
430.23500,-3.972255449
430.23550,-0.004728149245
430.23600,7.930326451
430.23650,14.33940901
430.23700,13.11863138
430.23750,7.319937636
430.23800,3.352410335
430.23850,3.352410335
430.23900,4.267993559
430.23950,4.878382374
430.24000,4.573187966
430.24050,3.352410335
430.24100,1.216049482
430.24150,-0.004728149245
430.24200,0.6056606662
430.24250,1.826438297
430.24300,1.216049482
430.24350,-1.22550578
430.24400,-4.277449857
430.24450,-7.329393934
430.24500,-9.16056038
430.24550,-8.855365973
430.24600,-7.024199526
430.24650,-6.108616303
430.24700,-7.024199526
430.24750,-7.329393934
430.24800,-5.498227488
430.24850,-2.141089003
430.24900,0.9108550739
430.24950,4.267993559
430.25000,5.183576782
430.25050,2.131632705
430.25100,-3.667061042
430.25150,-8.244977157
430.25200,-8.244977157
430.25250,-5.803421896
430.25300,-5.498227488
430.25350,-6.108616303
430.25400,-5.498227488
430.25450,-3.056672226
430.25500,-3.056672226
430.25550,-6.108616303
430.25600,-9.465754788
430.25650,-8.855365973
430.25700,-5.498227488
430.25750,-2.751477819
430.25800,-2.446283411
430.25850,-2.751477819
430.25900,-1.22550578
430.25950,0.9108550739
430.26000,3.352410335
430.26050,4.267993559
430.26100,3.657604743
430.26150,3.047215928
430.26200,3.657604743
430.26250,5.183576782
430.26300,7.014743228
430.26350,7.625132043
430.26400,5.793965597
430.26450,3.352410335
430.26500,0.6056606662
430.26550,-1.835894595
430.26600,-4.582644265
430.26650,-5.19303308
430.26700,-3.667061042
430.26750,-0.9203113723
430.26800,-0.004728149245
430.26850,-0.9203113723
430.26900,-2.446283411
430.26950,-2.751477819
430.27000,-2.751477819
430.27050,-3.972255449
430.27100,-5.498227488
430.27150,-6.413810711
430.27200,-6.413810711
430.27250,-5.498227488
430.27300,-4.582644265
430.27350,-3.972255449
430.27400,-2.446283411
430.27450,0.6056606662
430.27500,3.962799151
430.27550,2.436827112
430.27600,-6.413810711
430.27650,-18.62158702
430.27700,-25.03066958
430.27750,-23.19950313
430.27800,-19.53717024
430.27850,-19.84236465
430.27900,-21.9787255
430.27950,-19.53717024
430.28000,-13.12808768
430.28050,-10.0761436
430.28100,-11.29692123
430.28150,-8.855365973
430.28200,2.131632705
430.28250,16.78096427
430.28300,23.80043565
430.28350,19.52771394
430.28400,8.845909674
430.28450,-1.835894595
430.28500,-9.465754788
430.28550,-12.21250446
430.28600,-9.16056038
430.28650,-0.9203113723
430.28700,10.0666873
430.28750,24.41082447
430.28800,42.11210011
430.28850,57.98220931
430.28900,63.78090306
430.28950,54.31987642
430.29000,36.92379518
430.29050,23.49524124
430.29100,19.22251954
430.29150,19.83290835
430.29200,18.61213072
430.29250,12.50824257
430.29300,5.488771189
430.29350,-0.004728149245
430.29400,-4.582644265
430.29450,-8.550171565
430.29500,-9.465754788
430.29550,-6.108616303
430.29600,-0.9203113723
430.29650,1.826438297
430.29700,3.657604743
430.29750,6.404354412
430.29800,10.37188171
430.29850,13.42382579
430.29900,14.94979783
430.29950,17.08615868
430.30000,18.30693631
430.30050,14.03421461
430.30100,1.826438297
430.30150,-12.21250446
430.30200,-21.36833669
430.30250,-22.58911432
430.30300,-20.14755906
430.30350,-18.0111982
430.30400,-17.09561498
430.30450,-16.48522617
430.30500,-16.48522617
430.30550,-16.48522617
430.30600,-15.87483735
430.30650,-14.65405972
430.30700,-15.56964294
430.30750,-18.62158702
430.30800,-21.9787255
430.30850,-23.80989195
430.30900,-25.33586399
430.30950,-25.33586399
430.31000,-21.9787255
430.31050,-14.95925413
430.31100,-8.550171565
430.31150,-6.719005119
430.31200,-8.244977157
430.31250,-8.550171565
430.31300,-6.108616303
430.31350,-3.667061042
430.31400,-2.141089003
430.31450,-0.6151169646
430.31500,2.131632705
430.31550,3.352410335
430.31600,2.436827112
430.31650,2.131632705
430.31700,3.657604743
430.31750,4.878382374
430.31800,3.352410335
430.31850,-0.004728149245
430.31900,-2.751477819
430.31950,-4.582644265
430.32000,-5.19303308
430.32050,-0.3099225569
430.32100,10.0666873
430.32150,18.61213072
430.32200,16.47576987
430.32250,6.099160005
430.32300,-1.22550578
430.32350,-0.004728149245
430.32400,4.267993559
430.32450,5.488771189
430.32500,5.183576782
430.32550,6.70954882
430.32600,9.151104082
430.32650,8.235520859
430.32700,3.962799151
430.32750,0.6056606662
430.32800,-0.004728149245
430.32850,1.521243889
430.32900,3.352410335
430.32950,4.267993559
430.33000,3.962799151
430.33050,2.74202152
430.33100,2.74202152
430.33150,3.657604743
430.33200,3.352410335
430.33250,1.521243889
430.33300,0.3004662585
430.33350,1.216049482
430.33400,2.74202152
430.33450,1.826438297
430.33500,-0.004728149245
430.33550,-1.835894595
430.33600,-2.751477819
430.33650,-3.667061042
430.33700,-3.361866634
430.33750,-1.835894595
430.33800,-0.9203113723
430.33850,-3.056672226
430.33900,-6.413810711
430.33950,-6.108616303
430.34000,-1.22550578
430.34050,4.267993559
430.34100,7.319937636
430.34150,7.319937636
430.34200,5.793965597
430.34250,4.267993559
430.34300,3.657604743
430.34350,4.573187966
430.34400,5.183576782
430.34450,4.267993559
430.34500,2.74202152
430.34550,1.521243889
430.34600,-0.6151169646
430.34650,-6.413810711
430.34700,-13.7384765
430.34750,-16.48522617
430.34800,-12.21250446
430.34850,-4.582644265
430.34900,-0.3099225569
430.34950,-0.3099225569
430.35000,-2.141089003
430.35050,-2.751477819
430.35100,-1.835894595
430.35150,-0.9203113723
430.35200,-1.22550578
430.35250,-2.446283411
430.35300,-2.446283411
430.35350,-0.004728149245
430.35400,3.047215928
430.35450,3.657604743
430.35500,1.521243889
430.35550,-0.004728149245
430.35600,0.9108550739
430.35650,3.352410335
430.35700,7.014743228
430.35750,11.28746494
430.35800,13.42382579
430.35850,9.151104082
430.35900,0.9108550739
430.35950,-2.141089003
430.36000,1.826438297
430.36050,5.183576782
430.36100,-0.6151169646
430.36150,-11.90731005
430.36200,-18.62158702
430.36250,-15.87483735
430.36300,-8.550171565
430.36350,-2.141089003
430.36400,0.6056606662
430.36450,-0.3099225569
430.36500,-4.887838672
430.36550,-7.329393934
430.36600,-4.582644265
430.36650,-0.004728149245
430.36700,1.216049482
430.36750,0.3004662585
430.36800,1.826438297
430.36850,6.404354412
430.36900,9.761492897
430.36950,12.20304816
430.37000,14.94979783
430.37050,16.78096427
430.37100,14.33940901
430.37150,9.45629849
430.37200,5.488771189
430.37250,2.436827112
430.37300,-1.530700188
430.37350,-3.361866634
430.37400,1.826438297
430.37450,7.319937636
430.37500,2.131632705
430.37550,-12.21250446
430.37600,-21.9787255
430.37650,-17.09561498
430.37700,-5.19303308
430.37750,2.436827112
430.37800,3.962799151
430.37850,4.267993559
430.37900,5.793965597
430.37950,7.319937636
430.38000,8.540715266
430.38050,7.930326451
430.38100,0.9108550739
430.38150,-11.90731005
430.38200,-24.72547517
430.38250,-28.38780807
430.38300,-21.36833669
430.38350,-9.465754788
430.38400,-0.004728149245
430.38450,4.267993559
430.38500,5.183576782
430.38550,6.70954882
430.38600,10.37188171
430.38650,11.89785375
430.38700,7.625132043
430.38750,-0.3099225569
430.38800,-6.108616303
430.38850,-7.024199526
430.38900,-6.108616303
430.38950,-4.277449857
430.39000,-0.004728149245
430.39050,5.183576782
430.39100,3.657604743
430.39150,-6.719005119
430.39200,-18.31639261
430.39250,-21.36833669
430.39300,-17.09561498
430.39350,-14.34886531
430.39400,-15.26444853
430.39450,-16.18003176
430.39500,-14.0436709
430.39550,-10.99172683
430.39600,-8.855365973
430.39650,-5.803421896
430.39700,-0.3099225569
430.39750,4.573187966
430.39800,6.099160005
430.39850,7.014743228
430.39900,12.20304816
430.39950,22.27446361
430.40000,31.12510144
430.40050,33.5666567
430.40100,30.20951821
430.40150,25.6316021
430.40200,22.27446361
430.40250,18.00174191
430.40300,11.89785375
430.40350,7.014743228
430.40400,7.319937636
430.40450,10.67707612
430.40500,13.11863138
430.40550,12.20304816
430.40600,9.45629849
430.40650,6.70954882
430.40700,3.657604743
430.40750,0.6056606662
430.40800,-0.9203113723
430.40850,-0.6151169646
430.40900,-0.004728149245
430.40950,-0.9203113723
430.41000,-3.667061042
430.41050,-5.19303308
430.41100,-3.667061042
430.41150,-0.9203113723
430.41200,-0.004728149245
430.41250,-1.22550578
430.41300,-3.667061042
430.41350,-6.413810711
430.41400,-9.465754788
430.41450,-10.68653242
430.41500,-8.855365973
430.41550,-3.972255449
430.41600,-0.004728149245
430.41650,1.521243889
430.41700,0.9108550739
430.41750,-0.3099225569
430.41800,-1.530700188
430.41850,-1.530700188
430.41900,-1.530700188
430.41950,-2.751477819
430.42000,-5.498227488
430.42050,-7.329393934
430.42100,-6.719005119
430.42150,-4.887838672
430.42200,-4.582644265
430.42250,-6.108616303
430.42300,-7.939782749
430.42350,-8.550171565
430.42400,-8.550171565
430.42450,-7.024199526
430.42500,-2.751477819
430.42550,2.74202152
430.42600,6.70954882
430.42650,9.45629849
430.42700,12.20304816
430.42750,12.81343697
430.42800,8.540715266
430.42850,0.6056606662
430.42900,-3.361866634
430.42950,-1.835894595
430.43000,1.216049482
430.43050,2.436827112
430.43100,0.9108550739
430.43150,-2.141089003
430.43200,-7.024199526
430.43250,-10.99172683
430.43300,-10.0761436
430.43350,-5.803421896
430.43400,-3.361866634
430.43450,-4.582644265
430.43500,-5.19303308
430.43550,-3.056672226
430.43600,-2.141089003
430.43650,-4.887838672
430.43700,-7.634588342
430.43750,-6.108616303
430.43800,-2.446283411
430.43850,0.3004662585
430.43900,2.74202152
430.43950,7.014743228
430.44000,13.11863138
430.44050,17.6965475
430.44100,19.22251954
430.44150,16.78096427
430.44200,10.67707612
430.44250,4.878382374
430.44300,3.962799151
430.44350,7.014743228
430.44400,4.878382374
430.44450,-6.108616303
430.44500,-20.14755906
430.44550,-26.55664162
430.44600,-22.28391991
430.44650,-13.43328209
430.44700,-5.498227488
430.44750,-0.6151169646
430.44800,0.3004662585
430.44850,-0.3099225569
430.44900,-0.004728149245
430.44950,3.352410335
430.45000,7.930326451
430.45050,8.845909674
430.45100,6.404354412
430.45150,3.962799151
430.45200,2.74202152
430.45250,1.216049482
430.45300,-1.22550578
430.45350,-3.056672226
430.45400,-3.667061042
430.45450,-3.972255449
430.45500,-5.498227488
430.45550,-8.244977157
430.45600,-10.99172683
430.45650,-11.90731005
430.45700,-10.0761436
430.45750,-5.19303308
430.45800,0.3004662585
430.45850,5.183576782
430.45900,8.235520859
430.45950,9.45629849
430.46000,8.845909674
430.46050,7.319937636
430.46100,5.793965597
430.46150,4.267993559
430.46200,1.826438297
430.46250,-0.004728149245
430.46300,1.826438297
430.46350,6.404354412
430.46400,9.45629849
430.46450,8.235520859
430.46500,6.404354412
430.46550,6.404354412
430.46600,4.573187966
430.46650,-3.056672226
430.46700,-11.90731005
430.46750,-13.43328209
430.46800,-8.244977157
430.46850,-6.108616303
430.46900,-11.29692123
430.46950,-16.18003176
430.47000,-13.43328209
430.47050,-4.277449857
430.47100,4.267993559
430.47150,9.45629849
430.47200,10.98227053
430.47250,7.930326451
430.47300,-0.004728149245
430.47350,-8.244977157
430.47400,-11.60211564
430.47450,-9.465754788
430.47500,-4.887838672
430.47550,-0.9203113723
430.47600,0.6056606662
430.47650,-2.141089003
430.47700,-9.465754788
430.47750,-14.65405972
430.47800,-13.12808768
430.47850,-6.108616303
430.47900,-0.004728149245
430.47950,3.962799151
430.48000,7.930326451
430.48050,12.81343697
430.48100,15.56018664
430.48150,14.94979783
430.48200,12.50824257
430.48250,10.37188171
430.48300,8.540715266
430.48350,6.099160005
430.48400,3.962799151
430.48450,2.436827112
430.48500,2.436827112
430.48550,5.488771189
430.48600,10.37188171
430.48650,12.50824257
430.48700,10.67707612
430.48750,7.319937636
430.48800,5.183576782
430.48850,2.74202152
430.48900,-0.6151169646
430.48950,-3.667061042
430.49000,-4.582644265
430.49050,-7.939782749
430.49100,-16.18003176
430.49150,-22.28391991
430.49200,-17.40080939
430.49250,-5.803421896
430.49300,-0.004728149245
430.49350,-3.056672226
430.49400,-6.413810711
430.49450,-1.530700188
430.49500,6.70954882
430.49550,10.67707612
430.49600,9.45629849
430.49650,7.625132043
430.49700,7.625132043
430.49750,8.845909674
430.49800,10.0666873
430.49850,13.11863138
430.49900,16.17057546
430.49950,15.86538105
430.50000,11.59265934
430.50050,7.319937636
430.50100,7.625132043
430.50150,11.28746494
430.50200,11.28746494
430.50250,1.826438297
430.50300,-12.51769887
430.50350,-24.11508636
430.50400,-26.86183603
430.50450,-22.58911432
430.50500,-14.95925413
430.50550,-6.719005119
430.50600,-0.3099225569
430.50650,1.216049482
430.50700,-2.446283411
430.50750,-6.719005119
430.50800,-6.719005119
430.50850,-3.361866634
430.50900,-0.9203113723
430.50950,-0.9203113723
430.51000,-0.9203113723
430.51050,-0.3099225569
430.51100,-0.3099225569
430.51150,-2.141089003
430.51200,-3.361866634
430.51250,-2.751477819
430.51300,-1.835894595
430.51350,-3.972255449
430.51400,-9.465754788
430.51450,-14.34886531
430.51500,-14.34886531
430.51550,-9.465754788
430.51600,-4.582644265
430.51650,-2.751477819
430.51700,-2.446283411
430.51750,-0.3099225569
430.51800,2.436827112
430.51850,2.436827112
430.51900,-0.3099225569
430.51950,-1.22550578
430.52000,2.436827112
430.52050,7.319937636
430.52100,9.151104082
430.52150,8.845909674
430.52200,9.151104082
430.52250,10.37188171
430.52300,10.98227053
430.52350,10.67707612
430.52400,10.0666873
430.52450,9.761492897
430.52500,7.930326451
430.52550,4.573187966
430.52600,2.131632705
430.52650,2.131632705
430.52700,3.352410335
430.52750,3.352410335
430.52800,1.826438297
430.52850,1.216049482
430.52900,2.436827112
430.52950,4.267993559
430.53000,6.404354412
430.53050,7.930326451
430.53100,7.014743228
430.53150,2.74202152
430.53200,-2.751477819
430.53250,-6.108616303
430.53300,-4.887838672
430.53350,-3.056672226
430.53400,-4.582644265
430.53450,-7.939782749
430.53500,-8.550171565
430.53550,-6.108616303
430.53600,-4.887838672
430.53650,-7.024199526
430.53700,-8.244977157
430.53750,-5.803421896
430.53800,-1.22550578
430.53850,0.9108550739
430.53900,0.3004662585
430.53950,-1.835894595
430.54000,-3.972255449
430.54050,-4.582644265
430.54100,-3.667061042
430.54150,-2.751477819
430.54200,-3.361866634
430.54250,-4.277449857
430.54300,-4.277449857
430.54350,-3.056672226
430.54400,-2.446283411
430.54450,-1.530700188
430.54500,2.131632705
430.54550,7.930326451
430.54600,10.98227053
430.54650,8.540715266
430.54700,3.352410335
430.54750,-0.004728149245
430.54800,-1.835894595
430.54850,-3.056672226
430.54900,-2.446283411
430.54950,3.047215928
430.55000,13.42382579
430.55050,22.27446361
430.55100,25.02121328
430.55150,21.6640748
430.55200,14.94979783
430.55250,7.625132043
430.55300,2.74202152
430.55350,2.74202152
430.55400,4.573187966
430.55450,3.352410335
430.55500,-3.972255449
430.55550,-14.34886531
430.55600,-21.36833669
430.55650,-22.28391991
430.55700,-19.23197583
430.55750,-14.34886531
430.55800,-9.770949196
430.55850,-6.108616303
430.55900,-4.887838672
430.55950,-5.19303308
430.56000,-5.498227488
430.56050,-5.498227488
430.56100,-5.803421896
430.56150,-6.413810711
430.56200,-7.024199526
430.56250,-7.634588342
430.56300,-7.939782749
430.56350,-7.329393934
430.56400,-5.19303308
430.56450,-3.056672226
430.56500,-2.141089003
430.56550,-0.9203113723
430.56600,1.826438297
430.56650,4.267993559
430.56700,3.047215928
430.56750,-0.3099225569
430.56800,-1.530700188
430.56850,0.3004662585
430.56900,2.436827112
430.56950,1.826438297
430.57000,0.6056606662
430.57050,1.216049482
430.57100,3.962799151
430.57150,5.183576782
430.57200,3.962799151
430.57250,2.436827112
430.57300,3.657604743
430.57350,6.099160005
430.57400,4.878382374
430.57450,-1.22550578
430.57500,-8.244977157
430.57550,-8.550171565
430.57600,-2.751477819
430.57650,2.74202152
430.57700,2.436827112
430.57750,-0.3099225569
430.57800,-0.9203113723
430.57850,1.826438297
430.57900,5.183576782
430.57950,6.70954882
430.58000,6.099160005
430.58050,4.267993559
430.58100,3.657604743
430.58150,7.319937636
430.58200,11.59265934
430.58250,8.540715266
430.58300,-3.056672226
430.58350,-13.7384765
430.58400,-12.51769887
430.58450,-3.056672226
430.58500,0.9108550739
430.58550,-4.277449857
430.58600,-11.29692123
430.58650,-11.60211564
430.58700,-6.413810711
430.58750,-2.446283411
430.58800,-1.835894595
430.58850,-0.004728149245
430.58900,4.267993559
430.58950,9.45629849
430.59000,10.98227053
430.59050,9.45629849
430.59100,7.625132043
430.59150,7.930326451
430.59200,7.930326451
430.59250,6.099160005
430.59300,3.657604743
430.59350,3.352410335
430.59400,3.047215928
430.59450,0.6056606662
430.59500,-1.22550578
430.59550,2.131632705
430.59600,9.45629849
430.59650,10.98227053
430.59700,2.436827112
430.59750,-7.329393934
430.59800,-9.770949196
430.59850,-4.887838672
430.59900,-0.3099225569
430.59950,0.3004662585
430.60000,-0.004728149245
430.60050,-0.9203113723
430.60100,-1.835894595
430.60150,-2.751477819
430.60200,-2.446283411
430.60250,-3.056672226
430.60300,-4.582644265
430.60350,-5.498227488
430.60400,-4.582644265
430.60450,-3.972255449
430.60500,-5.19303308
430.60550,-6.413810711
430.60600,-6.719005119
430.60650,-6.719005119
430.60700,-7.634588342
430.60750,-7.634588342
430.60800,-7.024199526
430.60850,-8.855365973
430.60900,-13.12808768
430.60950,-14.65405972
430.61000,-10.68653242
430.61050,-5.19303308
430.61100,-2.446283411
430.61150,-0.3099225569
430.61200,3.352410335
430.61250,7.014743228
430.61300,7.930326451
430.61350,10.0666873
430.61400,17.39135309
430.61450,25.02121328
430.61500,26.85237973
430.61550,22.88485243
430.61600,18.30693631
430.61650,14.33940901
430.61700,9.151104082
430.61750,3.352410335
430.61800,-0.6151169646
430.61850,-3.972255449
430.61900,-7.024199526
430.61950,-8.244977157
430.62000,-5.498227488
430.62050,-0.004728149245
430.62100,4.573187966
430.62150,7.319937636
430.62200,7.930326451
430.62250,6.404354412
430.62300,4.878382374
430.62350,7.014743228
430.62400,11.59265934
430.62450,13.42382579
430.62500,8.845909674
430.62550,1.216049482
430.62600,-4.277449857
430.62650,-7.634588342
430.62700,-9.16056038
430.62750,-7.634588342
430.62800,-3.361866634
430.62850,-2.141089003
430.62900,-6.719005119
430.62950,-12.51769887
430.63000,-12.51769887
430.63050,-6.719005119
430.63100,-0.6151169646
430.63150,2.74202152
430.63200,6.70954882
430.63250,11.28746494
430.63300,14.03421461
430.63350,13.7290202
430.63400,13.11863138
430.63450,13.11863138
430.63500,12.50824257
430.63550,10.37188171
430.63600,7.319937636
430.63650,3.047215928
430.63700,-2.141089003
430.63750,-6.108616303
430.63800,-6.413810711
430.63850,-4.887838672
430.63900,-5.803421896
430.63950,-9.16056038
430.64000,-10.99172683
430.64050,-9.770949196
430.64100,-6.108616303
430.64150,-2.446283411
430.64200,0.6056606662
430.64250,3.352410335
430.64300,5.793965597
430.64350,9.151104082
430.64400,14.03421461
430.64450,16.17057546
430.64500,10.67707612
430.64550,-1.530700188
430.64600,-12.21250446
430.64650,-15.26444853
430.64700,-13.12808768
430.64750,-10.99172683
430.64800,-10.0761436
430.64850,-9.465754788
430.64900,-7.939782749
430.64950,-7.024199526
430.65000,-8.244977157
430.65050,-10.0761436
430.65100,-10.38133801
430.65150,-9.465754788
430.65200,-8.855365973
430.65250,-9.465754788
430.65300,-10.0761436
430.65350,-9.465754788
430.65400,-7.634588342
430.65450,-6.719005119
430.65500,-7.024199526
430.65550,-6.413810711
430.65600,-3.972255449
430.65650,-1.22550578
430.65700,-0.9203113723
430.65750,-2.141089003
430.65800,-3.056672226
430.65850,-2.446283411
430.65900,-0.6151169646
430.65950,1.826438297
430.66000,4.267993559
430.66050,5.488771189
430.66100,4.878382374
430.66150,3.047215928
430.66200,0.9108550739
430.66250,-0.6151169646
430.66300,-2.751477819
430.66350,-5.498227488
430.66400,-7.329393934
430.66450,-7.024199526
430.66500,-6.108616303
430.66550,-7.939782749
430.66600,-11.29692123
430.66650,-13.43328209
430.66700,-11.60211564
430.66750,-9.16056038
430.66800,-7.939782749
430.66850,-6.413810711
430.66900,-1.22550578
430.66950,5.183576782
430.67000,7.930326451
430.67050,4.878382374
430.67100,0.6056606662
430.67150,0.6056606662
430.67200,6.70954882
430.67250,14.33940901
430.67300,17.08615868
430.67350,10.67707612
430.67400,-3.056672226
430.67450,-15.87483735
430.67500,-19.84236465
430.67550,-14.34886531
430.67600,-3.972255449
430.67650,6.099160005
430.67700,12.81343697
430.67750,13.7290202
430.67800,8.845909674
430.67850,4.573187966
430.67900,6.099160005
430.67950,10.67707612
430.68000,11.28746494
430.68050,5.488771189
430.68100,-0.9203113723
430.68150,-3.972255449
430.68200,-3.972255449
430.68250,-3.972255449
430.68300,-4.887838672
430.68350,-6.108616303
430.68400,-6.413810711
430.68450,-3.667061042
430.68500,0.9108550739
430.68550,3.657604743
430.68600,1.216049482
430.68650,-2.751477819
430.68700,-2.751477819
430.68750,2.436827112
430.68800,8.235520859
430.68850,9.761492897
430.68900,6.099160005
430.68950,-0.6151169646
430.69000,-8.855365973
430.69050,-14.34886531
430.69100,-12.51769887
430.69150,-5.19303308
430.69200,2.74202152
430.69250,7.930326451
430.69300,9.45629849
430.69350,8.235520859
430.69400,5.488771189
430.69450,3.657604743
430.69500,4.878382374
430.69550,7.014743228
430.69600,6.404354412
430.69650,3.047215928
430.69700,0.3004662585
430.69750,0.6056606662
430.69800,3.047215928
430.69850,6.404354412
430.69900,10.67707612
430.69950,15.86538105
430.70000,20.44329717
430.70050,22.88485243
430.70100,21.96926921
430.70150,16.17057546
430.70200,5.793965597
430.70250,-3.361866634
430.70300,-5.803421896
430.70350,-1.835894595
430.70400,2.131632705
430.70450,2.131632705
430.70500,0.9108550739
430.70550,1.826438297
430.70600,3.352410335
430.70650,3.962799151
430.70700,4.878382374
430.70750,6.70954882
430.70800,5.183576782
430.70850,-3.056672226
430.70900,-13.43328209
430.70950,-16.48522617
430.71000,-10.99172683
430.71050,-3.361866634
430.71100,-0.004728149245
430.71150,1.216049482
430.71200,2.436827112
430.71250,2.131632705
430.71300,-0.3099225569
430.71350,-2.751477819
430.71400,-1.835894595
430.71450,1.216049482
430.71500,2.74202152
430.71550,1.216049482
430.71600,-0.6151169646
430.71650,-2.141089003
430.71700,-3.972255449
430.71750,-6.413810711
430.71800,-7.634588342
430.71850,-7.329393934
430.71900,-5.803421896
430.71950,-4.582644265
430.72000,-3.667061042
430.72050,-1.835894595
430.72100,0.9108550739
430.72150,3.047215928
430.72200,3.352410335
430.72250,2.74202152
430.72300,3.657604743
430.72350,4.573187966
430.72400,2.74202152
430.72450,-1.530700188
430.72500,-3.056672226
430.72550,-0.004728149245
430.72600,3.657604743
430.72650,3.047215928
430.72700,-0.004728149245
430.72750,-0.6151169646
430.72800,2.74202152
430.72850,7.625132043
430.72900,10.0666873
430.72950,10.37188171
430.73000,9.45629849
430.73050,7.014743228
430.73100,3.657604743
430.73150,1.216049482
430.73200,1.521243889
430.73250,2.74202152
430.73300,2.436827112
430.73350,0.6056606662
430.73400,-0.3099225569
430.73450,-0.004728149245
430.73500,1.216049482
430.73550,1.521243889
430.73600,-0.004728149245
430.73650,-1.835894595
430.73700,-2.446283411
430.73750,-1.835894595
430.73800,-1.835894595
430.73850,-2.446283411
430.73900,-1.835894595
430.73950,1.521243889
430.74000,5.488771189
430.74050,7.014743228
430.74100,6.404354412
430.74150,5.488771189
430.74200,3.962799151
430.74250,0.9108550739
430.74300,-2.446283411
430.74350,-4.277449857
430.74400,-4.277449857
430.74450,-4.582644265
430.74500,-5.19303308
430.74550,-3.056672226
430.74600,2.131632705
430.74650,6.70954882
430.74700,7.014743228
430.74750,4.267993559
430.74800,1.521243889
430.74850,-1.22550578
430.74900,-5.19303308
430.74950,-7.939782749
430.75000,-6.413810711
430.75050,-2.751477819
430.75100,-1.530700188
430.75150,-2.751477819
430.75200,-2.446283411
430.75250,1.216049482
430.75300,5.488771189
430.75350,5.488771189
430.75400,2.436827112
430.75450,-0.3099225569
430.75500,-2.141089003
430.75550,-3.972255449
430.75600,-5.498227488
430.75650,-6.413810711
430.75700,-6.108616303
430.75750,-5.19303308
430.75800,-3.972255449
430.75850,-1.530700188
430.75900,-0.004728149245
430.75950,-0.9203113723
430.76000,-3.667061042
430.76050,-4.582644265
430.76100,-0.9203113723
430.76150,3.352410335
430.76200,3.352410335
430.76250,-0.6151169646
430.76300,-1.22550578
430.76350,5.488771189
430.76400,13.42382579
430.76450,12.20304816
430.76500,3.352410335
430.76550,-3.667061042
430.76600,-5.498227488
430.76650,-7.634588342
430.76700,-15.26444853
430.76750,-22.89430873
430.76800,-22.58911432
430.76850,-16.48522617
430.76900,-12.21250446
430.76950,-13.43328209
430.77000,-14.95925413
430.77050,-11.90731005
430.77100,-5.803421896
430.77150,-0.6151169646
430.77200,2.74202152
430.77250,6.404354412
430.77300,10.0666873
430.77350,12.50824257
430.77400,12.50824257
430.77450,10.37188171
430.77500,6.404354412
430.77550,0.6056606662
430.77600,-6.413810711
430.77650,-12.51769887
430.77700,-15.87483735
430.77750,-17.09561498
430.77800,-18.31639261
430.77850,-20.45275347
430.77900,-22.89430873
430.77950,-24.42028077
430.78000,-24.11508636
430.78050,-21.06314228
430.78100,-15.56964294
430.78150,-8.550171565
430.78200,-0.6151169646
430.78250,7.930326451
430.78300,16.47576987
430.78350,21.6640748
430.78400,21.05368598
430.78450,16.17057546
430.78500,12.20304816
430.78550,11.59265934
430.78600,11.59265934
430.78650,8.845909674
430.78700,3.657604743
430.78750,-0.6151169646
430.78800,-3.056672226
430.78850,-2.751477819
430.78900,-0.004728149245
430.78950,4.267993559
430.79000,7.319937636
430.79050,7.625132043
430.79100,7.625132043
430.79150,10.0666873
430.79200,13.7290202
430.79250,15.56018664
430.79300,16.17057546
430.79350,18.30693631
430.79400,20.44329717
430.79450,16.78096427
430.79500,5.488771189
430.79550,-6.413810711
430.79600,-11.60211564
430.79650,-9.465754788
430.79700,-5.803421896
430.79750,-3.972255449
430.79800,-4.277449857
430.79850,-5.19303308
430.79900,-8.244977157
430.79950,-11.60211564
430.80000,-13.12808768
430.80050,-10.99172683
430.80100,-7.634588342
430.80150,-5.19303308
430.80200,-4.277449857
430.80250,-3.361866634
430.80300,-2.446283411
430.80350,-1.530700188
430.80400,-0.3099225569
430.80450,0.6056606662
430.80500,2.436827112
430.80550,3.962799151
430.80600,4.267993559
430.80650,2.131632705
430.80700,-1.530700188
430.80750,-3.972255449
430.80800,-3.972255449
430.80850,-3.667061042
430.80900,-4.582644265
430.80950,-5.498227488
430.81000,-4.277449857
430.81050,-1.835894595
430.81100,-0.6151169646
430.81150,-0.004728149245
430.81200,1.826438297
430.81250,5.793965597
430.81300,10.0666873
430.81350,12.50824257
430.81400,12.20304816
430.81450,8.845909674
430.81500,4.267993559
430.81550,2.131632705
430.81600,3.657604743
430.81650,6.70954882
430.81700,7.625132043
430.81750,6.099160005
430.81800,3.657604743
430.81850,0.9108550739
430.81900,-2.751477819
430.81950,-6.413810711
430.82000,-7.329393934
430.82050,-5.498227488
430.82100,-2.751477819
430.82150,-0.004728149245
430.82200,3.657604743
430.82250,5.793965597
430.82300,5.183576782
430.82350,2.74202152
430.82400,1.216049482
430.82450,1.521243889
430.82500,1.216049482
430.82550,-0.9203113723
430.82600,-3.667061042
430.82650,-4.887838672
430.82700,-4.887838672
430.82750,-4.887838672
430.82800,-4.582644265
430.82850,-1.530700188
430.82900,3.047215928
430.82950,7.014743228
430.83000,8.235520859
430.83050,6.404354412
430.83100,2.74202152
430.83150,-1.530700188
430.83200,-6.108616303
430.83250,-7.024199526
430.83300,-2.751477819
430.83350,3.047215928
430.83400,7.014743228
430.83450,7.625132043
430.83500,7.319937636
430.83550,6.404354412
430.83600,3.962799151
430.83650,0.6056606662
430.83700,-1.22550578
430.83750,-1.22550578
430.83800,-2.141089003
430.83850,-3.972255449
430.83900,-4.277449857
430.83950,-0.6151169646
430.84000,3.352410335
430.84050,5.183576782
430.84100,4.878382374
430.84150,5.183576782
430.84200,5.488771189
430.84250,1.826438297
430.84300,-5.19303308
430.84350,-10.99172683
430.84400,-11.90731005
430.84450,-9.770949196
430.84500,-8.244977157
430.84550,-7.329393934
430.84600,-5.803421896
430.84650,-3.667061042
430.84700,-2.751477819
430.84750,-3.667061042
430.84800,-4.887838672
430.84850,-3.667061042
430.84900,-0.9203113723
430.84950,0.9108550739
430.85000,1.521243889
430.85050,2.131632705
430.85100,3.047215928
430.85150,3.352410335
430.85200,1.521243889
430.85250,-0.9203113723
430.85300,-3.361866634
430.85350,-4.582644265
430.85400,-4.277449857
430.85450,-1.530700188
430.85500,2.436827112
430.85550,6.404354412
430.85600,7.319937636
430.85650,6.099160005
430.85700,5.183576782
430.85750,5.793965597
430.85800,6.099160005
430.85850,5.488771189
430.85900,4.573187966
430.85950,3.657604743
430.86000,2.131632705
430.86050,-0.004728149245
430.86100,-2.446283411
430.86150,-6.719005119
430.86200,-12.82289327
430.86250,-17.09561498
430.86300,-16.18003176
430.86350,-10.38133801
430.86400,-3.667061042
430.86450,2.131632705
430.86500,6.404354412
430.86550,7.014743228
430.86600,3.047215928
430.86650,-0.6151169646
430.86700,-0.004728149245
430.86750,2.74202152
430.86800,1.826438297
430.86850,-3.056672226
430.86900,-5.19303308
430.86950,-2.751477819
430.87000,-2.751477819
430.87050,-8.855365973
430.87100,-14.0436709
430.87150,-11.60211564
430.87200,-4.887838672
430.87250,-1.22550578
430.87300,1.826438297
430.87350,10.37188171
430.87400,21.05368598
430.87450,25.32640769
430.87500,22.27446361
430.87550,19.83290835
430.87600,22.57965802
430.87650,24.41082447
430.87700,19.22251954
430.87750,9.761492897
430.87800,3.352410335
430.87850,2.131632705
430.87900,1.826438297
430.87950,-0.9203113723
430.88000,-6.108616303
430.88050,-9.770949196
430.88100,-9.770949196
430.88150,-6.413810711
430.88200,-3.056672226
430.88250,-0.3099225569
430.88300,1.826438297
430.88350,3.962799151
430.88400,3.657604743
430.88450,0.6056606662
430.88500,-1.22550578
430.88550,-0.9203113723
430.88600,-2.141089003
430.88650,-8.244977157
430.88700,-15.26444853
430.88750,-17.40080939
430.88800,-16.18003176
430.88850,-18.31639261
430.88900,-23.50469754
430.88950,-25.03066958
430.89000,-20.45275347
430.89050,-12.82289327
430.89100,-4.887838672
430.89150,6.404354412
430.89200,20.74849157
430.89250,28.98874058
430.89300,26.24199091
430.89350,18.91732513
430.89400,16.17057546
430.89450,17.08615868
430.89500,13.7290202
430.89550,3.657604743
430.89600,-5.498227488
430.89650,-7.634588342
430.89700,-3.667061042
430.89750,0.3004662585
430.89800,1.216049482
430.89850,-0.3099225569
430.89900,-2.446283411
430.89950,-1.835894595
430.90000,0.9108550739
430.90050,3.962799151
430.90100,5.183576782
430.90150,3.657604743
430.90200,1.216049482
430.90250,-0.6151169646
430.90300,-1.835894595
430.90350,-2.751477819
430.90400,-3.056672226
430.90450,-3.361866634
430.90500,-4.277449857
430.90550,-5.498227488
430.90600,-5.803421896
430.90650,-3.361866634
430.90700,-0.6151169646
430.90750,-0.3099225569
430.90800,-2.446283411
430.90850,-2.446283411
430.90900,-0.004728149245
430.90950,2.131632705
430.91000,-0.6151169646
430.91050,-6.719005119
430.91100,-9.770949196
430.91150,-8.244977157
430.91200,-5.803421896
430.91250,-5.19303308
430.91300,-5.803421896
430.91350,-6.108616303
430.91400,-5.19303308
430.91450,-3.667061042
430.91500,-1.22550578
430.91550,1.521243889
430.91600,4.267993559
430.91650,6.099160005
430.91700,7.014743228
430.91750,7.319937636
430.91800,5.488771189
430.91850,1.521243889
430.91900,-0.004728149245
430.91950,1.826438297
430.92000,5.488771189
430.92050,6.70954882
430.92100,4.878382374
430.92150,2.436827112
430.92200,0.3004662585
430.92250,-2.751477819
430.92300,-6.719005119
430.92350,-8.244977157
430.92400,-7.024199526
430.92450,-4.887838672
430.92500,-4.582644265
430.92550,-5.19303308
430.92600,-4.887838672
430.92650,-3.056672226
430.92700,-1.22550578
430.92750,-0.004728149245
430.92800,0.3004662585
430.92850,-0.004728149245
430.92900,-1.835894595
430.92950,-4.277449857
430.93000,-5.498227488
430.93050,-4.277449857
430.93100,-1.835894595
430.93150,-1.22550578
430.93200,-2.751477819
430.93250,-4.887838672
430.93300,-5.19303308
430.93350,-3.056672226
430.93400,0.3004662585
430.93450,3.047215928
430.93500,3.962799151
430.93550,3.352410335
430.93600,2.436827112
430.93650,2.74202152
430.93700,2.131632705
430.93750,0.3004662585
430.93800,-2.141089003
430.93850,-3.667061042
430.93900,-3.667061042
430.93950,-2.751477819
430.94000,0.3004662585
430.94050,7.319937636
430.94100,15.86538105
430.94150,20.74849157
430.94200,19.22251954
430.94250,14.03421461
430.94300,10.37188171
430.94350,8.845909674
430.94400,5.488771189
430.94450,-0.004728149245
430.94500,-5.498227488
430.94550,-7.939782749
430.94600,-9.16056038
430.94650,-9.16056038
430.94700,-6.108616303
430.94750,0.3004662585
430.94800,6.70954882
430.94850,9.761492897
430.94900,9.151104082
430.94950,7.930326451
430.95000,8.845909674
430.95050,12.81343697
430.95100,18.61213072
430.95150,21.96926921
430.95200,17.08615868
430.95250,4.267993559
430.95300,-7.024199526
430.95350,-10.38133801
430.95400,-7.024199526
430.95450,-4.277449857
430.95500,-3.361866634
430.95550,-0.9203113723
430.95600,3.962799151
430.95650,7.930326451
430.95700,7.625132043
430.95750,3.962799151
430.95800,-0.004728149245
430.95850,-4.582644265
430.95900,-10.68653242
430.95950,-15.56964294
430.96000,-15.56964294
430.96050,-11.29692123
430.96100,-6.719005119
430.96150,-5.498227488
430.96200,-7.634588342
430.96250,-10.0761436
430.96300,-10.0761436
430.96350,-6.413810711
430.96400,-1.22550578
430.96450,2.436827112
430.96500,3.657604743
430.96550,2.131632705
430.96600,-0.004728149245
430.96650,0.6056606662
430.96700,8.540715266
430.96750,22.27446361
430.96800,33.5666567
430.96850,34.48223992
430.96900,25.32640769
430.96950,13.11863138
430.97000,4.878382374
430.97050,3.047215928
430.97100,6.404354412
430.97150,10.0666873
430.97200,6.099160005
430.97250,-8.855365973
430.97300,-26.25144721
430.97350,-32.96572418
430.97400,-26.25144721
430.97450,-15.26444853
430.97500,-8.855365973
430.97550,-7.024199526
430.97600,-6.413810711
430.97650,-7.634588342
430.97700,-10.38133801
430.97750,-11.60211564
430.97800,-9.770949196
430.97850,-7.329393934
430.97900,-5.19303308
430.97950,-1.530700188
430.98000,0.6056606662
430.98050,-3.667061042
430.98100,-13.7384765
430.98150,-18.31639261
430.98200,-12.82289327
430.98250,-5.803421896
430.98300,-6.108616303
430.98350,-7.634588342
430.98400,-2.141089003
430.98450,6.70954882
430.98500,9.151104082
430.98550,6.099160005
430.98600,8.235520859
430.98650,16.17057546
430.98700,19.52771394
430.98750,14.94979783
430.98800,10.37188171
430.98850,10.0666873
430.98900,8.540715266
430.98950,0.6056606662
430.99000,-7.329393934
430.99050,-8.244977157
430.99100,-3.056672226
430.99150,1.216049482
430.99200,2.74202152
430.99250,3.047215928
430.99300,2.436827112
430.99350,0.6056606662
430.99400,-1.530700188
430.99450,-3.972255449
430.99500,-6.413810711
430.99550,-8.855365973
430.99600,-10.0761436
430.99650,-10.0761436
430.99700,-10.68653242
430.99750,-12.82289327
430.99800,-14.65405972
430.99850,-14.65405972
430.99900,-13.7384765
430.99950,-11.29692123
431.00000,-7.024199526
431.00050,-0.9203113723
431.00100,3.352410335
431.00150,5.488771189
431.00200,6.404354412
431.00250,7.625132043
431.00300,8.845909674
431.00350,10.0666873
431.00400,10.98227053
431.00450,7.930326451
431.00500,-0.9203113723
431.00550,-12.21250446
431.00600,-17.7060038
431.00650,-13.7384765
431.00700,-5.803421896
431.00750,0.3004662585
431.00800,3.047215928
431.00850,3.657604743
431.00900,4.573187966
431.00950,6.404354412
431.01000,7.319937636
431.01050,2.436827112
431.01100,-8.550171565
431.01150,-18.0111982
431.01200,-15.87483735
431.01250,-5.19303308
431.01300,1.521243889
431.01350,0.9108550739
431.01400,-0.004728149245
431.01450,3.657604743
431.01500,6.099160005
431.01550,0.3004662585
431.01600,-7.329393934
431.01650,-6.719005119
431.01700,0.9108550739
431.01750,4.878382374
431.01800,0.9108550739
431.01850,-2.446283411
431.01900,1.521243889
431.01950,9.151104082
431.02000,12.50824257
431.02050,10.67707612
431.02100,7.014743228
431.02150,3.657604743
431.02200,-0.3099225569
431.02250,-3.972255449
431.02300,-4.887838672
431.02350,-3.056672226
431.02400,-1.22550578
431.02450,-0.004728149245
431.02500,1.521243889
431.02550,4.878382374
431.02600,6.404354412
431.02650,3.657604743
431.02700,-2.141089003
431.02750,-6.719005119
431.02800,-7.024199526
431.02850,-3.361866634
431.02900,1.826438297
431.02950,5.793965597
431.03000,5.488771189
431.03050,2.131632705
431.03100,0.3004662585
431.03150,2.74202152
431.03200,7.625132043
431.03250,10.0666873
431.03300,9.761492897
431.03350,8.845909674
431.03400,10.37188171
431.03450,14.03421461
431.03500,16.78096427
431.03550,16.17057546
431.03600,12.81343697
431.03650,8.540715266
431.03700,3.962799151
431.03750,-1.835894595
431.03800,-9.465754788
431.03850,-14.65405972
431.03900,-12.82289327
431.03950,-4.887838672
431.04000,1.826438297
431.04050,2.436827112
431.04100,0.3004662585
431.04150,0.6056606662
431.04200,4.878382374
431.04250,8.235520859
431.04300,8.235520859
431.04350,6.70954882
431.04400,6.099160005
431.04450,6.404354412
431.04500,7.014743228
431.04550,7.319937636
431.04600,8.540715266
431.04650,9.151104082
431.04700,8.540715266
431.04750,7.014743228
431.04800,5.488771189
431.04850,4.573187966
431.04900,3.047215928
431.04950,-0.004728149245
431.05000,-3.972255449
431.05050,-7.634588342
431.05100,-10.0761436
431.05150,-10.99172683
431.05200,-10.68653242
431.05250,-10.0761436
431.05300,-9.16056038
431.05350,-7.024199526
431.05400,-3.667061042
431.05450,-0.004728149245
431.05500,1.826438297
431.05550,0.9108550739
431.05600,-0.9203113723
431.05650,-1.530700188
431.05700,-0.6151169646
431.05750,-0.004728149245
431.05800,-0.004728149245
431.05850,-1.22550578
431.05900,-1.22550578
431.05950,-0.004728149245
431.06000,1.521243889
431.06050,1.216049482
431.06100,-0.9203113723
431.06150,-3.361866634
431.06200,-3.361866634
431.06250,-1.835894595
431.06300,-0.6151169646
431.06350,-0.3099225569
431.06400,-0.3099225569
431.06450,-0.6151169646
431.06500,-1.22550578
431.06550,-1.22550578
431.06600,-0.3099225569
431.06650,-0.004728149245
431.06700,-1.835894595
431.06750,-6.413810711
431.06800,-9.16056038
431.06850,-7.634588342
431.06900,-5.803421896
431.06950,-7.024199526
431.07000,-10.0761436
431.07050,-11.29692123
431.07100,-7.939782749
431.07150,-2.141089003
431.07200,2.74202152
431.07250,4.267993559
431.07300,2.436827112
431.07350,0.9108550739
431.07400,1.216049482
431.07450,-0.004728149245
431.07500,-6.108616303
431.07550,-14.65405972
431.07600,-18.0111982
431.07650,-13.7384765
431.07700,-8.244977157
431.07750,-6.719005119
431.07800,-4.887838672
431.07850,1.521243889
431.07900,10.67707612
431.07950,16.17057546
431.08000,19.52771394
431.08050,22.88485243
431.08100,24.41082447
431.08150,20.74849157
431.08200,16.47576987
431.08250,17.6965475
431.08300,22.88485243
431.08350,23.49524124
431.08400,17.39135309
431.08450,10.37188171
431.08500,5.793965597
431.08550,1.216049482
431.08600,-4.277449857
431.08650,-6.108616303
431.08700,-1.835894595
431.08750,4.878382374
431.08800,8.845909674
431.08850,8.540715266
431.08900,5.488771189
431.08950,1.216049482
431.09000,-1.835894595
431.09050,-3.667061042
431.09100,-6.719005119
431.09150,-12.51769887
431.09200,-16.79042057
431.09250,-14.34886531
431.09300,-6.413810711
431.09350,-1.22550578
431.09400,-3.972255449
431.09450,-10.38133801
431.09500,-16.18003176
431.09550,-20.75794787
431.09600,-24.11508636
431.09650,-23.19950313
431.09700,-16.79042057
431.09750,-9.770949196
431.09800,-5.803421896
431.09850,-3.361866634
431.09900,-0.3099225569
431.09950,1.216049482
431.10000,-0.6151169646
431.10050,-3.972255449
431.10100,-4.887838672
431.10150,-3.972255449
431.10200,-4.277449857
431.10250,-4.277449857
431.10300,-1.530700188
431.10350,1.216049482
431.10400,-0.004728149245
431.10450,-4.887838672
431.10500,-7.634588342
431.10550,-7.329393934
431.10600,-9.16056038
431.10650,-13.43328209
431.10700,-12.51769887
431.10750,-2.141089003
431.10800,10.67707612
431.10850,17.39135309
431.10900,18.61213072
431.10950,20.13810276
431.11000,20.44329717
431.11050,15.86538105
431.11100,7.930326451
431.11150,4.267993559
431.11200,6.404354412
431.11250,6.70954882
431.11300,0.9108550739
431.11350,-5.803421896
431.11400,-7.939782749
431.11450,-5.498227488
431.11500,-2.751477819
431.11550,-0.004728149245
431.11600,3.657604743
431.11650,7.625132043
431.11700,8.540715266
431.11750,8.540715266
431.11800,8.540715266
431.11850,7.930326451
431.11900,5.488771189
431.11950,4.878382374
431.12000,7.319937636
431.12050,6.404354412
431.12100,-1.22550578
431.12150,-10.68653242
431.12200,-11.90731005
431.12250,-6.108616303
431.12300,-4.582644265
431.12350,-11.29692123
431.12400,-17.7060038
431.12450,-14.95925413
431.12500,-6.413810711
431.12550,-0.3099225569
431.12600,0.6056606662
431.12650,-0.004728149245
431.12700,-0.6151169646
431.12750,-2.141089003
431.12800,-3.361866634
431.12850,-3.056672226
431.12900,-1.835894595
431.12950,-2.751477819
431.13000,-5.19303308
431.13050,-7.329393934
431.13100,-7.939782749
431.13150,-7.024199526
431.13200,-4.887838672
431.13250,-2.141089003
431.13300,-1.530700188
431.13350,-3.667061042
431.13400,-5.803421896
431.13450,-3.972255449
431.13500,-0.004728149245
431.13550,1.216049482
431.13600,-0.6151169646
431.13650,-3.667061042
431.13700,-4.887838672
431.13750,-3.972255449
431.13800,-1.835894595
431.13850,0.9108550739
431.13900,4.573187966
431.13950,6.099160005
431.14000,4.267993559
431.14050,1.216049482
431.14100,0.6056606662
431.14150,1.521243889
431.14200,1.216049482
431.14250,-0.6151169646
431.14300,-1.22550578
431.14350,1.216049482
431.14400,5.793965597
431.14450,9.761492897
431.14500,12.81343697
431.14550,15.86538105
431.14600,16.78096427
431.14650,14.03421461
431.14700,10.0666873
431.14750,8.845909674
431.14800,10.0666873
431.14850,10.0666873
431.14900,6.70954882
431.14950,2.131632705
431.15000,-0.9203113723
431.15050,-2.446283411
431.15100,-2.141089003
431.15150,-0.004728149245
431.15200,3.962799151
431.15250,8.235520859
431.15300,8.235520859
431.15350,3.047215928
431.15400,-3.667061042
431.15450,-7.634588342
431.15500,-7.329393934
431.15550,-6.719005119
431.15600,-10.68653242
431.15650,-19.23197583
431.15700,-24.42028077
431.15750,-21.06314228
431.15800,-12.51769887
431.15850,-6.108616303
431.15900,-5.19303308
431.15950,-5.498227488
431.16000,-2.751477819
431.16050,0.9108550739
431.16100,2.74202152
431.16150,2.436827112
431.16200,2.131632705
431.16250,2.74202152
431.16300,2.436827112
431.16350,0.6056606662
431.16400,-1.835894595
431.16450,-3.972255449
431.16500,-3.972255449
431.16550,-2.141089003
431.16600,-0.3099225569
431.16650,-0.004728149245
431.16700,-0.3099225569
431.16750,1.521243889
431.16800,6.099160005
431.16850,9.761492897
431.16900,10.67707612
431.16950,10.37188171
431.17000,10.0666873
431.17050,7.930326451
431.17100,4.267993559
431.17150,3.047215928
431.17200,7.014743228
431.17250,12.20304816
431.17300,14.33940901
431.17350,14.03421461
431.17400,13.7290202
431.17450,10.67707612
431.17500,1.826438297
431.17550,-6.108616303
431.17600,-4.582644265
431.17650,5.488771189
431.17700,11.28746494
431.17750,6.70954882
431.17800,-0.004728149245
431.17850,0.3004662585
431.17900,3.352410335
431.17950,0.9108550739
431.18000,-3.361866634
431.18050,-0.3099225569
431.18100,10.0666873
431.18150,16.47576987
431.18200,10.0666873
431.18250,-4.277449857
431.18300,-15.26444853
431.18350,-18.0111982
431.18400,-14.0436709
431.18450,-8.244977157
431.18500,-3.361866634
431.18550,-0.9203113723
431.18600,-0.004728149245
431.18650,1.521243889
431.18700,4.573187966
431.18750,8.235520859
431.18800,11.59265934
431.18850,13.11863138
431.18900,10.67707612
431.18950,4.267993559
431.19000,-3.056672226
431.19050,-6.413810711
431.19100,-3.972255449
431.19150,-0.004728149245
431.19200,0.3004662585
431.19250,-2.141089003
431.19300,-3.972255449
431.19350,-3.361866634
431.19400,-3.056672226
431.19450,-4.582644265
431.19500,-5.803421896
431.19550,-3.667061042
431.19600,-0.6151169646
431.19650,-2.751477819
431.19700,-9.770949196
431.19750,-15.56964294
431.19800,-14.0436709
431.19850,-7.329393934
431.19900,-1.22550578
431.19950,2.436827112
431.20000,5.793965597
431.20050,8.540715266
431.20100,10.37188171
431.20150,14.03421461
431.20200,21.96926921
431.20250,28.37835177
431.20300,24.10563006
431.20350,6.70954882
431.20400,-11.90731005
431.20450,-20.75794787
431.20500,-19.23197583
431.20550,-16.48522617
431.20600,-16.18003176
431.20650,-13.7384765
431.20700,-5.803421896
431.20750,2.131632705
431.20800,2.74202152
431.20850,-0.9203113723
431.20900,-1.530700188
431.20950,3.962799151
431.21000,9.151104082
431.21050,7.625132043
431.21100,2.131632705
431.21150,-0.9203113723
431.21200,-2.446283411
431.21250,-5.803421896
431.21300,-10.68653242
431.21350,-12.82289327
431.21400,-9.770949196
431.21450,-5.498227488
431.21500,-3.667061042
431.21550,-4.887838672
431.21600,-6.108616303
431.21650,-5.803421896
431.21700,-3.056672226
431.21750,0.3004662585
431.21800,3.047215928
431.21850,3.352410335
431.21900,2.74202152
431.21950,3.352410335
431.22000,4.267993559
431.22050,3.352410335
431.22100,1.216049482
431.22150,0.3004662585
431.22200,0.9108550739
431.22250,0.6056606662
431.22300,-0.9203113723
431.22350,-2.141089003
431.22400,-2.446283411
431.22450,-3.972255449
431.22500,-6.413810711
431.22550,-6.719005119
431.22600,-2.751477819
431.22650,1.521243889
431.22700,2.74202152
431.22750,1.826438297
431.22800,2.131632705
431.22850,4.267993559
431.22900,4.573187966
431.22950,2.74202152
431.23000,0.3004662585
431.23050,-0.004728149245
431.23100,-0.004728149245
431.23150,-0.6151169646
431.23200,-2.751477819
431.23250,-3.667061042
431.23300,-0.6151169646
431.23350,7.014743228
431.23400,16.47576987
431.23450,20.74849157
431.23500,16.47576987
431.23550,7.014743228
431.23600,-0.004728149245
431.23650,0.6056606662
431.23700,4.573187966
431.23750,4.573187966
431.23800,-0.9203113723
431.23850,-6.719005119
431.23900,-6.719005119
431.23950,-2.141089003
431.24000,0.9108550739
431.24050,-0.004728149245
431.24100,-3.056672226
431.24150,-6.108616303
431.24200,-8.855365973
431.24250,-10.68653242
431.24300,-9.16056038
431.24350,-4.277449857
431.24400,-0.004728149245
431.24450,-0.004728149245
431.24500,-2.446283411
431.24550,-3.667061042
431.24600,-2.446283411
431.24650,-0.004728149245
431.24700,2.74202152
431.24750,7.014743228
431.24800,10.98227053
431.24850,12.50824257
431.24900,11.28746494
431.24950,8.540715266
431.25000,4.878382374
431.25050,-0.004728149245
431.25100,-3.361866634
431.25150,-3.972255449
431.25200,-2.751477819
431.25250,-2.446283411
431.25300,-5.498227488
431.25350,-10.68653242
431.25400,-14.95925413
431.25450,-15.26444853
431.25500,-11.60211564
431.25550,-7.329393934
431.25600,-4.582644265
431.25650,-3.361866634
431.25700,-1.530700188
431.25750,1.216049482
431.25800,3.047215928
431.25850,3.657604743
431.25900,5.183576782
431.25950,6.404354412
431.26000,4.267993559
431.26050,-1.22550578
431.26100,-6.108616303
431.26150,-6.108616303
431.26200,-3.056672226
431.26250,-0.3099225569
431.26300,1.826438297
431.26350,3.047215928
431.26400,2.131632705
431.26450,-0.3099225569
431.26500,-1.530700188
431.26550,-0.004728149245
431.26600,-0.004728149245
431.26650,-3.667061042
431.26700,-6.413810711
431.26750,-3.667061042
431.26800,1.216049482
431.26850,2.74202152
431.26900,-0.6151169646
431.26950,-4.887838672
431.27000,-8.550171565
431.27050,-11.29692123
431.27100,-10.99172683
431.27150,-5.498227488
431.27200,2.436827112
431.27250,6.404354412
431.27300,4.878382374
431.27350,2.131632705
431.27400,1.826438297
431.27450,2.131632705
431.27500,0.9108550739
431.27550,0.9108550739
431.27600,3.047215928
431.27650,6.099160005
431.27700,7.014743228
431.27750,4.878382374
431.27800,2.131632705
431.27850,1.216049482
431.27900,2.131632705
431.27950,3.962799151
431.28000,4.267993559
431.28050,3.657604743
431.28100,3.657604743
431.28150,5.183576782
431.28200,4.878382374
431.28250,1.521243889
431.28300,-2.141089003
431.28350,-3.056672226
431.28400,-0.004728149245
431.28450,4.573187966
431.28500,7.625132043
431.28550,8.540715266
431.28600,6.70954882
431.28650,3.962799151
431.28700,2.436827112
431.28750,2.436827112
431.28800,2.74202152
431.28850,0.9108550739
431.28900,-1.22550578
431.28950,-1.530700188
431.29000,-0.3099225569
431.29050,-1.22550578
431.29100,-5.498227488
431.29150,-11.29692123
431.29200,-16.18003176
431.29250,-18.31639261
431.29300,-16.48522617
431.29350,-9.770949196
431.29400,-0.9203113723
431.29450,5.183576782
431.29500,5.793965597
431.29550,2.74202152
431.29600,-0.3099225569
431.29650,-1.530700188
431.29700,-0.9203113723
431.29750,0.9108550739
431.29800,4.267993559
431.29850,9.151104082
431.29900,13.42382579
431.29950,12.20304816
431.30000,4.267993559
431.30050,-6.413810711
431.30100,-12.21250446
431.30150,-10.38133801
431.30200,-5.498227488
431.30250,-4.582644265
431.30300,-8.244977157
431.30350,-13.12808768
431.30400,-14.34886531
431.30450,-11.29692123
431.30500,-6.108616303
431.30550,-1.835894595
431.30600,-0.004728149245
431.30650,1.216049482
431.30700,4.267993559
431.30750,7.014743228
431.30800,7.319937636
431.30850,5.183576782
431.30900,2.74202152
431.30950,-0.004728149245
431.31000,-5.803421896
431.31050,-12.21250446
431.31100,-12.82289327
431.31150,-4.582644265
431.31200,5.793965597
431.31250,11.28746494
431.31300,10.37188171
431.31350,7.319937636
431.31400,3.352410335
431.31450,-0.3099225569
431.31500,-2.141089003
431.31550,0.6056606662
431.31600,7.014743228
431.31650,11.59265934
431.31700,10.67707612
431.31750,7.014743228
431.31800,2.131632705
431.31850,-2.751477819
431.31900,-7.939782749
431.31950,-11.29692123
431.32000,-10.68653242
431.32050,-8.855365973
431.32100,-8.855365973
431.32150,-10.0761436
431.32200,-8.550171565
431.32250,-3.667061042
431.32300,1.521243889
431.32350,4.267993559
431.32400,5.793965597
431.32450,8.235520859
431.32500,10.98227053
431.32550,10.37188171
431.32600,4.573187966
431.32650,-2.446283411
431.32700,-5.498227488
431.32750,-3.972255449
431.32800,-1.835894595
431.32850,-1.530700188
431.32900,-1.22550578
431.32950,1.521243889
431.33000,5.488771189
431.33050,6.404354412
431.33100,3.657604743
431.33150,0.3004662585
431.33200,-0.6151169646
431.33250,-0.6151169646
431.33300,-0.9203113723
431.33350,-0.6151169646
431.33400,0.6056606662
431.33450,3.657604743
431.33500,7.930326451
431.33550,11.59265934
431.33600,14.03421461
431.33650,13.7290202
431.33700,10.0666873
431.33750,5.793965597
431.33800,4.267993559
431.33850,5.183576782
431.33900,5.793965597
431.33950,4.267993559
431.34000,0.9108550739
431.34050,-1.22550578
431.34100,-3.361866634
431.34150,-6.413810711
431.34200,-10.38133801
431.34250,-13.43328209
431.34300,-14.34886531
431.34350,-11.60211564
431.34400,-4.887838672
431.34450,3.047215928
431.34500,7.625132043
431.34550,7.930326451
431.34600,7.930326451
431.34650,11.59265934
431.34700,15.56018664
431.34750,14.64460342
431.34800,9.761492897
431.34850,7.319937636
431.34900,7.319937636
431.34950,4.267993559
431.35000,-2.446283411
431.35050,-6.108616303
431.35100,-2.751477819
431.35150,1.826438297
431.35200,0.9108550739
431.35250,-3.667061042
431.35300,-6.413810711
431.35350,-5.19303308
431.35400,-4.277449857
431.35450,-5.19303308
431.35500,-6.108616303
431.35550,-6.108616303
431.35600,-5.19303308
431.35650,-0.9203113723
431.35700,5.793965597
431.35750,10.37188171
431.35800,7.930326451
431.35850,1.826438297
431.35900,-1.530700188
431.35950,-2.141089003
431.36000,-3.972255449
431.36050,-6.719005119
431.36100,-6.108616303
431.36150,-1.835894595
431.36200,1.521243889
431.36250,2.436827112
431.36300,3.657604743
431.36350,6.099160005
431.36400,6.404354412
431.36450,3.657604743
431.36500,3.657604743
431.36550,8.845909674
431.36600,13.42382579
431.36650,10.98227053
431.36700,3.047215928
431.36750,-2.751477819
431.36800,-3.056672226
431.36850,-0.3099225569
431.36900,2.436827112
431.36950,3.657604743
431.37000,1.521243889
431.37050,-3.972255449
431.37100,-10.0761436
431.37150,-11.60211564
431.37200,-8.550171565
431.37250,-5.498227488
431.37300,-5.19303308
431.37350,-6.108616303
431.37400,-6.108616303
431.37450,-5.19303308
431.37500,-4.582644265
431.37550,-3.056672226
431.37600,-0.9203113723
431.37650,0.3004662585
431.37700,0.6056606662
431.37750,0.9108550739
431.37800,2.131632705
431.37850,3.352410335
431.37900,3.962799151
431.37950,4.267993559
431.38000,3.657604743
431.38050,1.521243889
431.38100,-1.835894595
431.38150,-3.972255449
431.38200,-3.361866634
431.38250,-1.530700188
431.38300,-1.22550578
431.38350,-1.835894595
431.38400,-2.141089003
431.38450,-1.22550578
431.38500,-0.6151169646
431.38550,-0.3099225569
431.38600,0.9108550739
431.38650,3.047215928
431.38700,3.657604743
431.38750,0.9108550739
431.38800,-2.446283411
431.38850,-3.667061042
431.38900,-2.141089003
431.38950,-0.004728149245
431.39000,-0.9203113723
431.39050,-4.582644265
431.39100,-7.634588342
431.39150,-7.939782749
431.39200,-6.719005119
431.39250,-6.413810711
431.39300,-7.634588342
431.39350,-8.244977157
431.39400,-6.413810711
431.39450,-3.361866634
431.39500,-2.141089003
431.39550,-3.667061042
431.39600,-5.19303308
431.39650,-3.972255449
431.39700,0.6056606662
431.39750,5.793965597
431.39800,7.930326451
431.39850,6.099160005
431.39900,2.436827112
431.39950,0.3004662585
431.40000,0.6056606662
431.40050,1.521243889
431.40100,1.521243889
431.40150,0.9108550739
431.40200,-0.9203113723
431.40250,-3.667061042
431.40300,-5.498227488
431.40350,-5.19303308
431.40400,-3.972255449
431.40450,-3.667061042
431.40500,-4.277449857
431.40550,-4.277449857
431.40600,-4.277449857
431.40650,-7.634588342
431.40700,-13.43328209
431.40750,-16.18003176
431.40800,-11.60211564
431.40850,-3.361866634
431.40900,1.521243889
431.40950,1.216049482
431.41000,-0.3099225569
431.41050,0.3004662585
431.41100,4.267993559
431.41150,8.845909674
431.41200,13.11863138
431.41250,16.78096427
431.41300,18.30693631
431.41350,15.56018664
431.41400,10.37188171
431.41450,6.099160005
431.41500,4.878382374
431.41550,5.488771189
431.41600,4.878382374
431.41650,2.74202152
431.41700,0.3004662585
431.41750,-1.835894595
431.41800,-3.056672226
431.41850,-2.141089003
431.41900,1.216049482
431.41950,4.878382374
431.42000,6.70954882
431.42050,7.014743228
431.42100,6.70954882
431.42150,5.183576782
431.42200,2.131632705
431.42250,-0.3099225569
431.42300,-1.530700188
431.42350,-2.141089003
431.42400,-3.667061042
431.42450,-4.277449857
431.42500,-2.446283411
431.42550,-1.530700188
431.42600,-3.972255449
431.42650,-7.329393934
431.42700,-5.803421896
431.42750,0.3004662585
431.42800,4.573187966
431.42850,5.183576782
431.42900,7.014743228
431.42950,11.28746494
431.43000,11.89785375
431.43050,4.267993559
431.43100,-6.108616303
431.43150,-11.60211564
431.43200,-11.29692123
431.43250,-9.770949196
431.43300,-9.465754788
431.43350,-7.329393934
431.43400,-3.361866634
431.43450,-0.9203113723
431.43500,-1.530700188
431.43550,-2.446283411
431.43600,-0.004728149245
431.43650,5.183576782
431.43700,8.845909674
431.43750,9.151104082
431.43800,7.930326451
431.43850,7.319937636
431.43900,7.625132043
431.43950,9.45629849
431.44000,13.7290202
431.44050,18.61213072
431.44100,21.6640748
431.44150,21.35888039
431.44200,18.91732513
431.44250,15.56018664
431.44300,10.0666873
431.44350,4.267993559
431.44400,2.436827112
431.44450,4.267993559
431.44500,3.657604743
431.44550,-4.277449857
431.44600,-14.95925413
431.44650,-18.92678143
431.44700,-14.34886531
431.44750,-8.244977157
431.44800,-4.887838672
431.44850,-3.972255449
431.44900,-4.277449857
431.44950,-7.024199526
431.45000,-10.99172683
431.45050,-12.82289327
431.45100,-12.21250446
431.45150,-12.21250446
431.45200,-13.7384765
431.45250,-13.7384765
431.45300,-11.29692123
431.45350,-10.38133801
431.45400,-11.90731005
431.45450,-12.51769887
431.45500,-10.99172683
431.45550,-9.465754788
431.45600,-10.0761436
431.45650,-9.465754788
431.45700,-6.413810711
431.45750,-3.667061042
431.45800,-2.141089003
431.45850,1.826438297
431.45900,10.67707612
431.45950,16.78096427
431.46000,14.94979783
431.46050,9.151104082
431.46100,8.235520859
431.46150,12.20304816
431.46200,13.7290202
431.46250,8.540715266
431.46300,2.74202152
431.46350,0.9108550739
431.46400,1.216049482
431.46450,-0.9203113723
431.46500,-4.887838672
431.46550,-6.719005119
431.46600,-4.887838672
431.46650,-2.446283411
431.46700,-2.141089003
431.46750,-3.667061042
431.46800,-4.277449857
431.46850,-2.141089003
431.46900,1.826438297
431.46950,5.793965597
431.47000,7.625132043
431.47050,6.70954882
431.47100,4.878382374
431.47150,2.74202152
431.47200,0.3004662585
431.47250,-1.530700188
431.47300,-2.141089003
431.47350,-1.835894595
431.47400,-1.530700188
431.47450,-1.22550578
431.47500,-0.3099225569
431.47550,1.216049482
431.47600,2.436827112
431.47650,-0.3099225569
431.47700,-6.108616303
431.47750,-9.770949196
431.47800,-7.329393934
431.47850,-2.446283411
431.47900,-1.22550578
431.47950,-5.19303308
431.48000,-7.939782749
431.48050,-5.803421896
431.48100,-2.446283411
431.48150,-3.056672226
431.48200,-6.108616303
431.48250,-7.024199526
431.48300,-5.803421896
431.48350,-7.024199526
431.48400,-10.99172683
431.48450,-11.90731005
431.48500,-5.498227488
431.48550,3.047215928
431.48600,7.930326451
431.48650,7.930326451
431.48700,5.183576782
431.48750,1.826438297
431.48800,-0.6151169646
431.48850,-0.9203113723
431.48900,0.3004662585
431.48950,1.216049482
431.49000,-0.004728149245
431.49050,-1.530700188
431.49100,-0.6151169646
431.49150,0.6056606662
431.49200,0.9108550739
431.49250,-0.004728149245
431.49300,-0.9203113723
431.49350,-1.530700188
431.49400,-2.141089003
431.49450,-2.141089003
431.49500,-1.530700188
431.49550,-1.22550578
431.49600,-1.530700188
431.49650,-1.835894595
431.49700,-1.22550578
431.49750,-1.22550578
431.49800,-3.056672226
431.49850,-5.19303308
431.49900,-5.19303308
431.49950,-3.972255449
431.50000,-3.361866634
431.50050,-2.751477819
431.50100,-0.6151169646
431.50150,2.131632705
431.50200,3.657604743
431.50250,2.74202152
431.50300,1.521243889
431.50350,1.521243889
431.50400,2.74202152
431.50450,4.573187966
431.50500,6.70954882
431.50550,7.014743228
431.50600,4.878382374
431.50650,1.826438297
431.50700,0.9108550739
431.50750,3.047215928
431.50800,5.183576782
431.50850,5.183576782
431.50900,3.962799151
431.50950,3.047215928
431.51000,2.131632705
431.51050,0.3004662585
431.51100,-1.22550578
431.51150,-2.446283411
431.51200,-3.056672226
431.51250,-4.887838672
431.51300,-10.0761436
431.51350,-15.87483735
431.51400,-18.0111982
431.51450,-14.34886531
431.51500,-8.550171565
431.51550,-5.803421896
431.51600,-6.719005119
431.51650,-5.803421896
431.51700,-0.3099225569
431.51750,7.319937636
431.51800,13.42382579
431.51850,18.00174191
431.51900,22.88485243
431.51950,27.15757414
431.52000,26.85237973
431.52050,21.35888039
431.52100,14.64460342
431.52150,11.59265934
431.52200,10.98227053
431.52250,8.845909674
431.52300,3.962799151
431.52350,0.6056606662
431.52400,1.216049482
431.52450,4.267993559
431.52500,5.488771189
431.52550,3.962799151
431.52600,1.521243889
431.52650,0.6056606662
431.52700,0.3004662585
431.52750,0.9108550739
431.52800,3.047215928
431.52850,5.488771189
431.52900,5.183576782
431.52950,1.521243889
431.53000,-1.835894595
431.53050,-1.530700188
431.53100,2.131632705
431.53150,4.267993559
431.53200,2.131632705
431.53250,-2.751477819
431.53300,-6.108616303
431.53350,-5.19303308
431.53400,-0.6151169646
431.53450,4.573187966
431.53500,8.845909674
431.53550,11.28746494
431.53600,14.33940901
431.53650,19.22251954
431.53700,22.57965802
431.53750,20.44329717
431.53800,12.81343697
431.53850,4.267993559
431.53900,-0.6151169646
431.53950,-2.446283411
431.54000,-2.446283411
431.54050,-0.6151169646
431.54100,2.74202152
431.54150,7.014743228
431.54200,9.151104082
431.54250,8.235520859
431.54300,6.099160005
431.54350,3.962799151
431.54400,1.216049482
431.54450,-2.141089003
431.54500,-6.108616303
431.54550,-8.244977157
431.54600,-7.939782749
431.54650,-6.413810711
431.54700,-5.803421896
431.54750,-5.803421896
431.54800,-6.108616303
431.54850,-7.329393934
431.54900,-9.16056038
431.54950,-9.465754788
431.55000,-7.634588342
431.55050,-5.803421896
431.55100,-6.413810711
431.55150,-6.108616303
431.55200,-0.004728149245
431.55250,8.845909674
431.55300,10.98227053
431.55350,3.352410335
431.55400,-6.108616303
431.55450,-8.244977157
431.55500,-3.361866634
431.55550,0.6056606662
431.55600,-0.9203113723
431.55650,-8.550171565
431.55700,-18.31639261
431.55750,-26.25144721
431.55800,-28.99819688
431.55850,-25.33586399
431.55900,-20.14755906
431.55950,-17.09561498
431.56000,-14.95925413
431.56050,-10.0761436
431.56100,-3.056672226
431.56150,2.131632705
431.56200,4.573187966
431.56250,7.319937636
431.56300,11.28746494
431.56350,12.50824257
431.56400,8.845909674
431.56450,2.74202152
431.56500,-3.972255449
431.56550,-11.60211564
431.56600,-17.7060038
431.56650,-19.23197583
431.56700,-15.26444853
431.56750,-10.68653242
431.56800,-8.550171565
431.56850,-7.329393934
431.56900,-3.972255449
431.56950,1.216049482
431.57000,5.793965597
431.57050,10.0666873
431.57100,15.86538105
431.57150,21.35888039
431.57200,22.88485243
431.57250,19.22251954
431.57300,14.94979783
431.57350,12.50824257
431.57400,9.761492897
431.57450,3.962799151
431.57500,-1.22550578
431.57550,-2.751477819
431.57600,-0.6151169646
431.57650,1.216049482
431.57700,0.3004662585
431.57750,-0.6151169646
431.57800,-0.004728149245
431.57850,1.826438297
431.57900,1.521243889
431.57950,-1.22550578
431.58000,-4.887838672
431.58050,-7.024199526
431.58100,-6.719005119
431.58150,-4.277449857
431.58200,-0.3099225569
431.58250,2.436827112
431.58300,1.826438297
431.58350,-1.22550578
431.58400,-4.582644265
431.58450,-6.108616303
431.58500,-7.024199526
431.58550,-8.550171565
431.58600,-9.465754788
431.58650,-7.939782749
431.58700,-4.887838672
431.58750,-2.446283411
431.58800,-0.6151169646
431.58850,1.521243889
431.58900,2.436827112
431.58950,0.9108550739
431.59000,-1.530700188
431.59050,-1.22550578
431.59100,1.521243889
431.59150,4.267993559
431.59200,4.267993559
431.59250,2.74202152
431.59300,2.131632705
431.59350,2.436827112
431.59400,1.826438297
431.59450,-0.3099225569
431.59500,-2.446283411
431.59550,-2.446283411
431.59600,-0.004728149245
431.59650,3.657604743
431.59700,5.488771189
431.59750,3.962799151
431.59800,1.521243889
431.59850,0.3004662585
431.59900,0.6056606662
431.59950,0.6056606662
431.60000,-0.004728149245
431.60050,-0.004728149245
431.60100,-0.004728149245
431.60150,-1.530700188
431.60200,-3.361866634
431.60250,-3.056672226
431.60300,-2.751477819
431.60350,-4.887838672
431.60400,-8.855365973
431.60450,-10.0761436
431.60500,-7.634588342
431.60550,-4.582644265
431.60600,-3.361866634
