"type","name","time_units","begin_time","frequency","count","units"
"signal","Ultium EMG-FLEX.CARP.R RT","s",274.92000,2000,22000,"uV"

"time","value"
274.92000,2.682538352
274.92050,0.5461774982
274.92100,-0.06421131716
274.92150,-0.06421131716
274.92200,-0.06421131716
274.92250,-1.284988948
274.92300,-2.810960986
274.92350,-2.810960986
274.92400,-1.590183356
274.92450,-0.9797945403
274.92500,-0.9797945403
274.92550,-0.9797945403
274.92600,-0.3694057249
274.92650,-0.6746001326
274.92700,-1.284988948
274.92750,-0.9797945403
274.92800,0.2409830905
274.92850,0.8513719059
274.92900,0.2409830905
274.92950,-0.3694057249
274.93000,-0.3694057249
274.93050,0.2409830905
274.93100,0.5461774982
274.93150,0.2409830905
274.93200,-0.06421131716
274.93250,-0.06421131716
274.93300,-0.3694057249
274.93350,-0.06421131716
274.93400,1.156566314
274.93450,2.98773276
274.93500,3.598121575
274.93550,3.598121575
274.93600,3.598121575
274.93650,3.598121575
274.93700,3.903315983
274.93750,3.903315983
274.93800,3.903315983
274.93850,3.598121575
274.93900,2.377343944
274.93950,0.8513719059
274.94000,0.2409830905
274.94050,-0.06421131716
274.94100,-1.284988948
274.94150,-2.810960986
274.94200,-3.421349802
274.94250,-2.810960986
274.94300,-2.810960986
274.94350,-4.336933025
274.94400,-5.862905063
274.94450,-5.557710656
274.94500,-4.336933025
274.94550,-4.031738617
274.94600,-4.94732184
274.94650,-4.642127433
274.94700,-3.72654421
274.94750,-4.031738617
274.94800,-5.252516248
274.94850,-5.862905063
274.94900,-4.642127433
274.94950,-2.810960986
274.95000,-2.200572171
274.95050,-3.421349802
274.95100,-4.031738617
274.95150,-2.200572171
274.95200,0.2409830905
274.95250,2.072149537
274.95300,2.377343944
274.95350,1.766955129
274.95400,1.766955129
274.95450,1.766955129
274.95500,1.156566314
274.95550,-0.06421131716
274.95600,0.5461774982
274.95650,2.98773276
274.95700,4.818899206
274.95750,4.208510391
274.95800,2.072149537
274.95850,0.2409830905
274.95900,-0.06421131716
274.95950,0.5461774982
274.96000,1.156566314
274.96050,1.461760721
274.96100,1.156566314
274.96150,0.2409830905
274.96200,-0.6746001326
274.96250,-1.895377763
274.96300,-3.116155394
274.96350,-3.72654421
274.96400,-4.336933025
274.96450,-4.642127433
274.96500,-4.642127433
274.96550,-2.810960986
274.96600,-0.06421131716
274.96650,1.156566314
274.96700,0.2409830905
274.96750,-1.590183356
274.96800,-1.895377763
274.96850,-0.3694057249
274.96900,1.156566314
274.96950,2.682538352
274.97000,3.903315983
274.97050,5.124093614
274.97100,6.039676837
274.97150,6.344871245
274.97200,6.039676837
274.97250,5.429288021
274.97300,3.903315983
274.97350,2.682538352
274.97400,2.98773276
274.97450,4.818899206
274.97500,6.344871245
274.97550,5.734482429
274.97600,4.208510391
274.97650,3.903315983
274.97700,4.208510391
274.97750,4.513704798
274.97800,3.292927168
274.97850,0.5461774982
274.97900,-1.284988948
274.97950,-1.284988948
274.98000,0.5461774982
274.98050,1.766955129
274.98100,1.156566314
274.98150,-0.9797945403
274.98200,-2.505766579
274.98250,-3.116155394
274.98300,-4.031738617
274.98350,-4.94732184
274.98400,-5.557710656
274.98450,-5.252516248
274.98500,-5.252516248
274.98550,-5.862905063
274.98600,-6.473293879
274.98650,-5.862905063
274.98700,-4.642127433
274.98750,-3.72654421
274.98800,-4.031738617
274.98850,-5.252516248
274.98900,-6.168099471
274.98950,-5.862905063
274.99000,-4.336933025
274.99050,-2.505766579
274.99100,-1.895377763
274.99150,-1.590183356
274.99200,-1.284988948
274.99250,-0.9797945403
274.99300,-0.3694057249
274.99350,0.5461774982
274.99400,1.461760721
274.99450,1.156566314
274.99500,0.5461774982
274.99550,1.156566314
274.99600,2.072149537
274.99650,2.377343944
274.99700,1.766955129
274.99750,1.156566314
274.99800,1.461760721
274.99850,1.156566314
274.99900,-0.06421131716
274.99950,-0.6746001326
275.00000,-0.3694057249
275.00050,-0.6746001326
275.00100,-2.505766579
275.00150,-3.421349802
275.00200,-1.895377763
275.00250,-0.06421131716
275.00300,-0.6746001326
275.00350,-3.72654421
275.00400,-5.557710656
275.00450,-5.252516248
275.00500,-4.642127433
275.00550,-5.252516248
275.00600,-6.168099471
275.00650,-5.557710656
275.00700,-4.031738617
275.00750,-4.031738617
275.00800,-4.642127433
275.00850,-4.336933025
275.00900,-3.421349802
275.00950,-3.421349802
275.01000,-4.031738617
275.01050,-4.031738617
275.01100,-2.505766579
275.01150,-0.6746001326
275.01200,0.5461774982
275.01250,1.461760721
275.01300,2.377343944
275.01350,2.377343944
275.01400,2.072149537
275.01450,2.072149537
275.01500,3.598121575
275.01550,5.124093614
275.01600,5.429288021
275.01650,4.818899206
275.01700,4.513704798
275.01750,5.124093614
275.01800,5.429288021
275.01850,5.124093614
275.01900,4.513704798
275.01950,4.208510391
275.02000,3.598121575
275.02050,1.461760721
275.02100,-0.06421131716
275.02150,-0.6746001326
275.02200,-0.3694057249
275.02250,-0.6746001326
275.02300,-1.590183356
275.02350,-2.200572171
275.02400,-1.590183356
275.02450,-0.6746001326
275.02500,-0.06421131716
275.02550,-0.06421131716
275.02600,-0.06421131716
275.02650,-0.3694057249
275.02700,-0.6746001326
275.02750,-0.9797945403
275.02800,-0.9797945403
275.02850,-0.3694057249
275.02900,-0.06421131716
275.02950,-0.06421131716
275.03000,0.5461774982
275.03050,1.766955129
275.03100,2.682538352
275.03150,3.292927168
275.03200,3.903315983
275.03250,5.124093614
275.03300,6.039676837
275.03350,7.260454468
275.03400,8.176037691
275.03450,8.481232098
275.03500,7.870843283
275.03550,6.650065652
275.03600,6.344871245
275.03650,6.344871245
275.03700,6.650065652
275.03750,6.344871245
275.03800,4.818899206
275.03850,2.98773276
275.03900,1.156566314
275.03950,0.8513719059
275.04000,1.461760721
275.04050,2.072149537
275.04100,1.156566314
275.04150,-0.6746001326
275.04200,-2.505766579
275.04250,-2.505766579
275.04300,-2.200572171
275.04350,-2.505766579
275.04400,-2.505766579
275.04450,-2.200572171
275.04500,-2.810960986
275.04550,-5.252516248
275.04600,-7.388877102
275.04650,-7.388877102
275.04700,-5.862905063
275.04750,-4.031738617
275.04800,-2.505766579
275.04850,-1.590183356
275.04900,-1.284988948
275.04950,-1.284988948
275.05000,-1.284988948
275.05050,-1.284988948
275.05100,-1.284988948
275.05150,-0.6746001326
275.05200,-0.06421131716
275.05250,1.461760721
275.05300,2.682538352
275.05350,2.682538352
275.05400,2.377343944
275.05450,2.072149537
275.05500,1.156566314
275.05550,-0.06421131716
275.05600,-0.9797945403
275.05650,-0.9797945403
275.05700,-0.3694057249
275.05750,-0.06421131716
275.05800,-0.06421131716
275.05850,0.5461774982
275.05900,1.156566314
275.05950,0.5461774982
275.06000,-0.06421131716
275.06050,-0.06421131716
275.06100,0.5461774982
275.06150,0.8513719059
275.06200,0.2409830905
275.06250,-0.9797945403
275.06300,-1.590183356
275.06350,-2.200572171
275.06400,-3.421349802
275.06450,-4.336933025
275.06500,-4.031738617
275.06550,-2.810960986
275.06600,-2.200572171
275.06650,-3.116155394
275.06700,-4.336933025
275.06750,-4.336933025
275.06800,-4.031738617
275.06850,-4.336933025
275.06900,-5.557710656
275.06950,-5.862905063
275.07000,-4.642127433
275.07050,-3.116155394
275.07100,-1.895377763
275.07150,-0.9797945403
275.07200,-0.06421131716
275.07250,0.8513719059
275.07300,0.8513719059
275.07350,1.156566314
275.07400,1.766955129
275.07450,2.377343944
275.07500,1.766955129
275.07550,0.8513719059
275.07600,1.461760721
275.07650,2.682538352
275.07700,3.292927168
275.07750,2.377343944
275.07800,2.377343944
275.07850,2.98773276
275.07900,3.903315983
275.07950,3.292927168
275.08000,1.766955129
275.08050,1.156566314
275.08100,0.8513719059
275.08150,-0.06421131716
275.08200,-1.284988948
275.08250,-1.284988948
275.08300,-0.3694057249
275.08350,-0.3694057249
275.08400,-1.895377763
275.08450,-3.72654421
275.08500,-4.336933025
275.08550,-4.336933025
275.08600,-4.642127433
275.08650,-4.642127433
275.08700,-3.72654421
275.08750,-3.116155394
275.08800,-3.116155394
275.08850,-2.810960986
275.08900,-1.590183356
275.08950,-0.3694057249
275.09000,-0.3694057249
275.09050,-0.9797945403
275.09100,-0.9797945403
275.09150,-0.06421131716
275.09200,0.5461774982
275.09250,0.5461774982
275.09300,0.5461774982
275.09350,1.766955129
275.09400,2.98773276
275.09450,2.682538352
275.09500,2.072149537
275.09550,2.377343944
275.09600,3.903315983
275.09650,5.124093614
275.09700,5.429288021
275.09750,4.818899206
275.09800,3.598121575
275.09850,2.377343944
275.09900,1.156566314
275.09950,0.5461774982
275.10000,0.2409830905
275.10050,-0.3694057249
275.10100,-2.200572171
275.10150,-3.421349802
275.10200,-2.810960986
275.10250,-0.6746001326
275.10300,0.8513719059
275.10350,0.5461774982
275.10400,-0.3694057249
275.10450,-1.284988948
275.10500,-2.200572171
275.10550,-3.421349802
275.10600,-4.336933025
275.10650,-3.72654421
275.10700,-2.505766579
275.10750,-1.590183356
275.10800,-0.9797945403
275.10850,-0.06421131716
275.10900,0.5461774982
275.10950,-0.06421131716
275.11000,-1.284988948
275.11050,-1.284988948
275.11100,-0.06421131716
275.11150,0.8513719059
275.11200,0.8513719059
275.11250,0.8513719059
275.11300,1.156566314
275.11350,1.461760721
275.11400,1.766955129
275.11450,2.682538352
275.11500,3.292927168
275.11550,2.682538352
275.11600,2.072149537
275.11650,2.682538352
275.11700,3.903315983
275.11750,4.208510391
275.11800,2.682538352
275.11850,1.156566314
275.11900,1.156566314
275.11950,1.461760721
275.12000,0.8513719059
275.12050,-0.3694057249
275.12100,-1.590183356
275.12150,-1.590183356
275.12200,-0.9797945403
275.12250,-0.3694057249
275.12300,-0.3694057249
275.12350,-1.284988948
275.12400,-3.116155394
275.12450,-4.336933025
275.12500,-4.336933025
275.12550,-3.116155394
275.12600,-2.200572171
275.12650,-2.505766579
275.12700,-3.116155394
275.12750,-2.505766579
275.12800,-0.9797945403
275.12850,-0.3694057249
275.12900,-0.9797945403
275.12950,-1.895377763
275.13000,-0.9797945403
275.13050,0.8513719059
275.13100,2.98773276
275.13150,3.903315983
275.13200,4.513704798
275.13250,5.734482429
275.13300,6.344871245
275.13350,6.344871245
275.13400,5.429288021
275.13450,5.429288021
275.13500,5.429288021
275.13550,5.429288021
275.13600,4.513704798
275.13650,3.598121575
275.13700,3.292927168
275.13750,3.903315983
275.13800,4.818899206
275.13850,5.734482429
275.13900,6.344871245
275.13950,6.344871245
275.14000,6.039676837
275.14050,4.513704798
275.14100,2.682538352
275.14150,1.766955129
275.14200,2.072149537
275.14250,2.377343944
275.14300,1.156566314
275.14350,-0.3694057249
275.14400,-1.284988948
275.14450,-0.9797945403
275.14500,-0.9797945403
275.14550,-1.590183356
275.14600,-2.200572171
275.14650,-1.895377763
275.14700,-1.895377763
275.14750,-3.116155394
275.14800,-4.642127433
275.14850,-4.642127433
275.14900,-4.336933025
275.14950,-4.336933025
275.15000,-4.336933025
275.15050,-3.72654421
275.15100,-2.810960986
275.15150,-2.505766579
275.15200,-2.810960986
275.15250,-3.116155394
275.15300,-2.505766579
275.15350,-1.895377763
275.15400,-1.284988948
275.15450,-0.9797945403
275.15500,-1.284988948
275.15550,-1.590183356
275.15600,-1.590183356
275.15650,-1.895377763
275.15700,-2.200572171
275.15750,-1.895377763
275.15800,-0.9797945403
275.15850,-0.06421131716
275.15900,-0.06421131716
275.15950,-1.284988948
275.16000,-2.505766579
275.16050,-2.810960986
275.16100,-2.810960986
275.16150,-3.116155394
275.16200,-3.421349802
275.16250,-4.336933025
275.16300,-5.252516248
275.16350,-5.862905063
275.16400,-5.557710656
275.16450,-4.94732184
275.16500,-5.252516248
275.16550,-5.862905063
275.16600,-5.862905063
275.16650,-5.557710656
275.16700,-4.642127433
275.16750,-4.031738617
275.16800,-3.72654421
275.16850,-4.031738617
275.16900,-5.252516248
275.16950,-5.557710656
275.17000,-3.72654421
275.17050,-0.3694057249
275.17100,1.461760721
275.17150,2.377343944
275.17200,3.598121575
275.17250,5.734482429
275.17300,7.870843283
275.17350,8.481232098
275.17400,7.260454468
275.17450,6.344871245
275.17500,5.429288021
275.17550,6.039676837
275.17600,7.260454468
275.17650,9.091620914
275.17700,9.702009729
275.17750,8.786426506
275.17800,7.565648875
275.17850,6.95526006
275.17900,6.344871245
275.17950,5.429288021
275.18000,4.513704798
275.18050,3.598121575
275.18100,2.682538352
275.18150,1.461760721
275.18200,-0.06421131716
275.18250,-0.9797945403
275.18300,-1.895377763
275.18350,-2.810960986
275.18400,-3.116155394
275.18450,-3.116155394
275.18500,-2.810960986
275.18550,-2.505766579
275.18600,-2.505766579
275.18650,-2.200572171
275.18700,-2.505766579
275.18750,-3.116155394
275.18800,-3.116155394
275.18850,-2.505766579
275.18900,-1.895377763
275.18950,-2.505766579
275.19000,-2.200572171
275.19050,-0.3694057249
275.19100,2.682538352
275.19150,3.903315983
275.19200,2.682538352
275.19250,1.156566314
275.19300,1.766955129
275.19350,3.598121575
275.19400,3.598121575
275.19450,2.072149537
275.19500,1.766955129
275.19550,3.292927168
275.19600,3.903315983
275.19650,2.682538352
275.19700,0.8513719059
275.19750,0.5461774982
275.19800,1.156566314
275.19850,1.156566314
275.19900,0.8513719059
275.19950,0.8513719059
275.20000,-0.3694057249
275.20050,-2.810960986
275.20100,-4.336933025
275.20150,-3.72654421
275.20200,-3.116155394
275.20250,-4.642127433
275.20300,-6.473293879
275.20350,-7.083682694
275.20400,-6.778488287
275.20450,-7.999265917
275.20500,-9.220043548
275.20550,-8.304460325
275.20600,-6.168099471
275.20650,-5.252516248
275.20700,-5.862905063
275.20750,-5.862905063
275.20800,-4.031738617
275.20850,-3.116155394
275.20900,-2.810960986
275.20950,-2.200572171
275.21000,-0.06421131716
275.21050,1.156566314
275.21100,1.766955129
275.21150,2.072149537
275.21200,2.377343944
275.21250,2.377343944
275.21300,1.156566314
275.21350,0.5461774982
275.21400,0.5461774982
275.21450,0.8513719059
275.21500,1.156566314
275.21550,1.461760721
275.21600,2.072149537
275.21650,2.072149537
275.21700,1.461760721
275.21750,0.8513719059
275.21800,0.5461774982
275.21850,-0.06421131716
275.21900,-0.3694057249
275.21950,-0.3694057249
275.22000,-0.3694057249
275.22050,-0.3694057249
275.22100,-0.6746001326
275.22150,-0.9797945403
275.22200,-0.9797945403
275.22250,-1.284988948
275.22300,-1.895377763
275.22350,-2.505766579
275.22400,-3.72654421
275.22450,-4.94732184
275.22500,-4.94732184
275.22550,-4.031738617
275.22600,-3.421349802
275.22650,-4.031738617
275.22700,-4.94732184
275.22750,-4.642127433
275.22800,-3.421349802
275.22850,-2.200572171
275.22900,-1.590183356
275.22950,-1.284988948
275.23000,-0.9797945403
275.23050,-0.6746001326
275.23100,-0.06421131716
275.23150,1.461760721
275.23200,2.682538352
275.23250,3.292927168
275.23300,3.903315983
275.23350,4.208510391
275.23400,4.208510391
275.23450,4.513704798
275.23500,5.124093614
275.23550,4.818899206
275.23600,3.598121575
275.23650,2.98773276
275.23700,3.903315983
275.23750,5.124093614
275.23800,5.124093614
275.23850,3.903315983
275.23900,3.292927168
275.23950,3.292927168
275.24000,2.377343944
275.24050,0.2409830905
275.24100,-0.6746001326
275.24150,-0.06421131716
275.24200,0.2409830905
275.24250,-0.3694057249
275.24300,-1.590183356
275.24350,-2.505766579
275.24400,-3.116155394
275.24450,-4.031738617
275.24500,-3.72654421
275.24550,-1.590183356
275.24600,0.5461774982
275.24650,0.8513719059
275.24700,-0.06421131716
275.24750,-0.9797945403
275.24800,-1.590183356
275.24850,-2.505766579
275.24900,-3.421349802
275.24950,-2.505766579
275.25000,-0.9797945403
275.25050,-1.284988948
275.25100,-3.116155394
275.25150,-2.505766579
275.25200,0.5461774982
275.25250,4.208510391
275.25300,5.124093614
275.25350,4.513704798
275.25400,3.903315983
275.25450,3.903315983
275.25500,3.903315983
275.25550,3.598121575
275.25600,2.98773276
275.25650,2.377343944
275.25700,1.766955129
275.25750,1.766955129
275.25800,2.682538352
275.25850,3.292927168
275.25900,2.377343944
275.25950,1.156566314
275.26000,-0.06421131716
275.26050,-0.06421131716
275.26100,-0.6746001326
275.26150,-1.895377763
275.26200,-3.116155394
275.26250,-4.031738617
275.26300,-4.336933025
275.26350,-4.336933025
275.26400,-4.336933025
275.26450,-4.031738617
275.26500,-3.72654421
275.26550,-3.421349802
275.26600,-2.810960986
275.26650,-1.590183356
275.26700,-0.06421131716
275.26750,1.156566314
275.26800,1.766955129
275.26850,0.8513719059
275.26900,-0.3694057249
275.26950,-1.895377763
275.27000,-1.895377763
275.27050,-0.06421131716
275.27100,1.766955129
275.27150,2.072149537
275.27200,1.156566314
275.27250,1.461760721
275.27300,2.98773276
275.27350,4.513704798
275.27400,5.124093614
275.27450,5.734482429
275.27500,6.95526006
275.27550,7.260454468
275.27600,6.039676837
275.27650,4.208510391
275.27700,2.682538352
275.27750,1.766955129
275.27800,0.8513719059
275.27850,0.8513719059
275.27900,2.072149537
275.27950,3.598121575
275.28000,5.124093614
275.28050,6.039676837
275.28100,6.344871245
275.28150,5.429288021
275.28200,2.072149537
275.28250,-0.3694057249
275.28300,-0.9797945403
275.28350,-0.06421131716
275.28400,-0.06421131716
275.28450,-1.284988948
275.28500,-2.200572171
275.28550,-1.895377763
275.28600,-2.200572171
275.28650,-3.72654421
275.28700,-5.557710656
275.28750,-5.252516248
275.28800,-3.421349802
275.28850,-1.590183356
275.28900,-0.3694057249
275.28950,-0.06421131716
275.29000,0.5461774982
275.29050,1.461760721
275.29100,2.072149537
275.29150,2.072149537
275.29200,1.461760721
275.29250,0.5461774982
275.29300,-0.3694057249
275.29350,-0.06421131716
275.29400,1.156566314
275.29450,3.292927168
275.29500,4.513704798
275.29550,3.903315983
275.29600,2.682538352
275.29650,1.766955129
275.29700,1.156566314
275.29750,0.8513719059
275.29800,0.2409830905
275.29850,-0.6746001326
275.29900,-1.895377763
275.29950,-2.505766579
275.30000,-2.505766579
275.30050,-2.505766579
275.30100,-3.72654421
275.30150,-6.168099471
275.30200,-7.69407151
275.30250,-6.473293879
275.30300,-4.031738617
275.30350,-2.200572171
275.30400,-1.284988948
275.30450,-0.06421131716
275.30500,0.8513719059
275.30550,0.8513719059
275.30600,-0.3694057249
275.30650,-1.895377763
275.30700,-1.590183356
275.30750,-0.6746001326
275.30800,-0.6746001326
275.30850,-1.590183356
275.30900,-2.200572171
275.30950,-2.200572171
275.31000,-1.284988948
275.31050,-0.06421131716
275.31100,0.8513719059
275.31150,1.156566314
275.31200,0.2409830905
275.31250,-0.06421131716
275.31300,0.8513719059
275.31350,2.377343944
275.31400,2.682538352
275.31450,2.377343944
275.31500,2.682538352
275.31550,2.98773276
275.31600,2.98773276
275.31650,2.98773276
275.31700,3.598121575
275.31750,3.903315983
275.31800,3.292927168
275.31850,2.072149537
275.31900,1.156566314
275.31950,1.461760721
275.32000,1.766955129
275.32050,1.156566314
275.32100,-0.06421131716
275.32150,-0.3694057249
275.32200,-0.06421131716
275.32250,-0.06421131716
275.32300,-0.06421131716
275.32350,-1.590183356
275.32400,-3.421349802
275.32450,-4.336933025
275.32500,-4.031738617
275.32550,-3.421349802
275.32600,-3.421349802
275.32650,-4.031738617
275.32700,-4.336933025
275.32750,-4.031738617
275.32800,-3.72654421
275.32850,-3.72654421
275.32900,-4.031738617
275.32950,-3.72654421
275.33000,-3.421349802
275.33050,-2.810960986
275.33100,-1.590183356
275.33150,-0.6746001326
275.33200,-0.9797945403
275.33250,-1.895377763
275.33300,-1.895377763
275.33350,-0.3694057249
275.33400,0.8513719059
275.33450,1.156566314
275.33500,0.5461774982
275.33550,0.2409830905
275.33600,0.5461774982
275.33650,1.461760721
275.33700,1.766955129
275.33750,0.8513719059
275.33800,-0.06421131716
275.33850,-0.06421131716
275.33900,0.8513719059
275.33950,2.072149537
275.34000,2.377343944
275.34050,1.766955129
275.34100,1.156566314
275.34150,-0.3694057249
275.34200,-2.505766579
275.34250,-3.72654421
275.34300,-3.421349802
275.34350,-3.116155394
275.34400,-4.336933025
275.34450,-6.168099471
275.34500,-6.778488287
275.34550,-5.557710656
275.34600,-4.642127433
275.34650,-3.72654421
275.34700,-3.116155394
275.34750,-2.810960986
275.34800,-2.810960986
275.34850,-3.421349802
275.34900,-3.421349802
275.34950,-1.895377763
275.35000,-0.06421131716
275.35050,1.461760721
275.35100,3.292927168
275.35150,4.818899206
275.35200,5.429288021
275.35250,4.513704798
275.35300,2.682538352
275.35350,1.461760721
275.35400,2.072149537
275.35450,3.903315983
275.35500,6.039676837
275.35550,6.95526006
275.35600,6.650065652
275.35650,6.344871245
275.35700,6.344871245
275.35750,6.344871245
275.35800,5.429288021
275.35850,3.903315983
275.35900,2.377343944
275.35950,1.461760721
275.36000,0.2409830905
275.36050,-0.3694057249
275.36100,-1.284988948
275.36150,-2.810960986
275.36200,-4.642127433
275.36250,-5.862905063
275.36300,-5.557710656
275.36350,-4.94732184
275.36400,-5.252516248
275.36450,-5.862905063
275.36500,-6.168099471
275.36550,-5.862905063
275.36600,-5.557710656
275.36650,-5.252516248
275.36700,-5.252516248
275.36750,-4.94732184
275.36800,-4.642127433
275.36850,-3.421349802
275.36900,-1.590183356
275.36950,-0.3694057249
275.37000,0.2409830905
275.37050,0.8513719059
275.37100,0.8513719059
275.37150,0.5461774982
275.37200,0.2409830905
275.37250,0.5461774982
275.37300,1.461760721
275.37350,1.461760721
275.37400,1.156566314
275.37450,2.072149537
275.37500,3.292927168
275.37550,3.598121575
275.37600,2.98773276
275.37650,2.377343944
275.37700,2.682538352
275.37750,2.98773276
275.37800,3.292927168
275.37850,3.903315983
275.37900,3.903315983
275.37950,2.98773276
275.38000,0.8513719059
275.38050,-0.3694057249
275.38100,-0.6746001326
275.38150,-0.6746001326
275.38200,-0.9797945403
275.38250,-1.284988948
275.38300,-1.284988948
275.38350,-1.284988948
275.38400,-1.895377763
275.38450,-2.505766579
275.38500,-2.810960986
275.38550,-2.505766579
275.38600,-2.200572171
275.38650,-1.895377763
275.38700,-1.895377763
275.38750,-1.895377763
275.38800,-2.200572171
275.38850,-2.200572171
275.38900,-1.895377763
275.38950,-1.284988948
275.39000,-1.590183356
275.39050,-1.590183356
275.39100,-0.6746001326
275.39150,1.461760721
275.39200,2.682538352
275.39250,2.072149537
275.39300,0.5461774982
275.39350,0.2409830905
275.39400,1.461760721
275.39450,2.682538352
275.39500,2.682538352
275.39550,2.072149537
275.39600,1.766955129
275.39650,1.766955129
275.39700,1.766955129
275.39750,1.766955129
275.39800,1.766955129
275.39850,2.072149537
275.39900,1.461760721
275.39950,0.5461774982
275.40000,-0.3694057249
275.40050,-0.6746001326
275.40100,-0.6746001326
275.40150,-0.06421131716
275.40200,0.8513719059
275.40250,2.682538352
275.40300,4.208510391
275.40350,3.598121575
275.40400,1.766955129
275.40450,-0.06421131716
275.40500,-0.9797945403
275.40550,-0.6746001326
275.40600,-0.3694057249
275.40650,-0.06421131716
275.40700,0.2409830905
275.40750,0.2409830905
275.40800,-0.06421131716
275.40850,-0.9797945403
275.40900,-0.9797945403
275.40950,-0.3694057249
275.41000,0.5461774982
275.41050,0.8513719059
275.41100,1.156566314
275.41150,2.072149537
275.41200,3.292927168
275.41250,3.903315983
275.41300,3.598121575
275.41350,3.598121575
275.41400,3.903315983
275.41450,4.513704798
275.41500,5.124093614
275.41550,5.429288021
275.41600,4.818899206
275.41650,3.598121575
275.41700,2.377343944
275.41750,1.766955129
275.41800,1.766955129
275.41850,1.461760721
275.41900,1.156566314
275.41950,1.461760721
275.42000,1.766955129
275.42050,0.8513719059
275.42100,-0.3694057249
275.42150,-1.590183356
275.42200,-2.200572171
275.42250,-1.895377763
275.42300,-1.284988948
275.42350,-0.3694057249
275.42400,-0.3694057249
275.42450,-1.284988948
275.42500,-2.505766579
275.42550,-2.505766579
275.42600,-2.505766579
275.42650,-2.810960986
275.42700,-3.421349802
275.42750,-3.72654421
275.42800,-3.116155394
275.42850,-2.810960986
275.42900,-3.116155394
275.42950,-3.72654421
275.43000,-3.72654421
275.43050,-1.895377763
275.43100,-0.06421131716
275.43150,1.766955129
275.43200,2.377343944
275.43250,2.072149537
275.43300,1.766955129
275.43350,1.766955129
275.43400,1.461760721
275.43450,1.156566314
275.43500,1.156566314
275.43550,1.461760721
275.43600,1.461760721
275.43650,1.461760721
275.43700,1.461760721
275.43750,1.766955129
275.43800,1.766955129
275.43850,1.461760721
275.43900,0.5461774982
275.43950,-0.06421131716
275.44000,-0.6746001326
275.44050,-0.3694057249
275.44100,-0.06421131716
275.44150,-0.06421131716
275.44200,-0.6746001326
275.44250,-1.895377763
275.44300,-4.031738617
275.44350,-6.168099471
275.44400,-7.083682694
275.44450,-6.778488287
275.44500,-5.557710656
275.44550,-4.642127433
275.44600,-4.94732184
275.44650,-5.557710656
275.44700,-4.94732184
275.44750,-3.72654421
275.44800,-2.810960986
275.44850,-2.810960986
275.44900,-2.810960986
275.44950,-2.200572171
275.45000,-0.9797945403
275.45050,-0.06421131716
275.45100,0.5461774982
275.45150,0.8513719059
275.45200,1.461760721
275.45250,2.072149537
275.45300,2.98773276
275.45350,3.903315983
275.45400,4.818899206
275.45450,5.429288021
275.45500,6.039676837
275.45550,6.650065652
275.45600,7.260454468
275.45650,7.260454468
275.45700,6.650065652
275.45750,5.124093614
275.45800,3.903315983
275.45850,3.292927168
275.45900,3.598121575
275.45950,3.598121575
275.46000,2.682538352
275.46050,0.8513719059
275.46100,-0.3694057249
275.46150,-0.9797945403
275.46200,-1.590183356
275.46250,-2.505766579
275.46300,-3.72654421
275.46350,-4.031738617
275.46400,-4.336933025
275.46450,-5.252516248
275.46500,-6.168099471
275.46550,-5.862905063
275.46600,-4.336933025
275.46650,-2.810960986
275.46700,-2.505766579
275.46750,-3.116155394
275.46800,-2.810960986
275.46850,-1.590183356
275.46900,-1.284988948
275.46950,-1.590183356
275.47000,-2.505766579
275.47050,-2.810960986
275.47100,-2.200572171
275.47150,-0.6746001326
275.47200,0.2409830905
275.47250,1.461760721
275.47300,2.072149537
275.47350,2.377343944
275.47400,2.682538352
275.47450,2.072149537
275.47500,1.156566314
275.47550,0.5461774982
275.47600,0.8513719059
275.47650,2.072149537
275.47700,3.598121575
275.47750,5.429288021
275.47800,6.344871245
275.47850,4.818899206
275.47900,2.682538352
275.47950,1.461760721
275.48000,1.766955129
275.48050,1.461760721
275.48100,-0.06421131716
275.48150,-1.895377763
275.48200,-3.116155394
275.48250,-3.72654421
275.48300,-4.336933025
275.48350,-4.336933025
275.48400,-4.031738617
275.48450,-3.421349802
275.48500,-3.421349802
275.48550,-3.421349802
275.48600,-3.72654421
275.48650,-4.336933025
275.48700,-4.642127433
275.48750,-4.031738617
275.48800,-2.505766579
275.48850,-1.284988948
275.48900,-0.9797945403
275.48950,-0.9797945403
275.49000,-0.3694057249
275.49050,0.2409830905
275.49100,1.156566314
275.49150,1.766955129
275.49200,1.156566314
275.49250,0.2409830905
275.49300,-0.06421131716
275.49350,0.5461774982
275.49400,0.8513719059
275.49450,0.5461774982
275.49500,0.2409830905
275.49550,1.766955129
275.49600,3.598121575
275.49650,3.292927168
275.49700,2.072149537
275.49750,1.766955129
275.49800,2.682538352
275.49850,2.072149537
275.49900,-0.06421131716
275.49950,-1.284988948
275.50000,-0.6746001326
275.50050,-0.3694057249
275.50100,-1.895377763
275.50150,-3.421349802
275.50200,-2.810960986
275.50250,-1.895377763
275.50300,-3.116155394
275.50350,-5.862905063
275.50400,-6.778488287
275.50450,-5.862905063
275.50500,-5.252516248
275.50550,-5.557710656
275.50600,-5.862905063
275.50650,-6.168099471
275.50700,-5.862905063
275.50750,-4.94732184
275.50800,-3.116155394
275.50850,-2.200572171
275.50900,-3.72654421
275.50950,-5.862905063
275.51000,-6.168099471
275.51050,-3.72654421
275.51100,-1.284988948
275.51150,-1.590183356
275.51200,-2.505766579
275.51250,-2.200572171
275.51300,-0.6746001326
275.51350,0.2409830905
275.51400,0.5461774982
275.51450,0.5461774982
275.51500,0.8513719059
275.51550,2.072149537
275.51600,2.98773276
275.51650,4.208510391
275.51700,4.513704798
275.51750,4.818899206
275.51800,4.513704798
275.51850,3.292927168
275.51900,1.766955129
275.51950,0.8513719059
275.52000,0.5461774982
275.52050,-0.06421131716
275.52100,-0.06421131716
275.52150,-0.06421131716
275.52200,-0.06421131716
275.52250,-0.9797945403
275.52300,-3.116155394
275.52350,-4.336933025
275.52400,-3.421349802
275.52450,-2.505766579
275.52500,-3.421349802
275.52550,-4.94732184
275.52600,-4.336933025
275.52650,-2.810960986
275.52700,-1.590183356
275.52750,-1.590183356
275.52800,-1.284988948
275.52850,-0.9797945403
275.52900,-0.6746001326
275.52950,-0.6746001326
275.53000,-0.06421131716
275.53050,1.461760721
275.53100,3.292927168
275.53150,4.208510391
275.53200,4.208510391
275.53250,4.208510391
275.53300,4.513704798
275.53350,5.124093614
275.53400,6.039676837
275.53450,6.95526006
275.53500,6.95526006
275.53550,6.650065652
275.53600,6.95526006
275.53650,7.870843283
275.53700,8.481232098
275.53750,7.870843283
275.53800,6.650065652
275.53850,5.429288021
275.53900,5.429288021
275.53950,5.429288021
275.54000,5.124093614
275.54050,3.903315983
275.54100,2.377343944
275.54150,1.461760721
275.54200,0.8513719059
275.54250,0.2409830905
275.54300,-0.3694057249
275.54350,-1.284988948
275.54400,-1.895377763
275.54450,-2.505766579
275.54500,-3.116155394
275.54550,-3.116155394
275.54600,-2.810960986
275.54650,-2.810960986
275.54700,-3.116155394
275.54750,-2.505766579
275.54800,-0.6746001326
275.54850,0.5461774982
275.54900,0.8513719059
275.54950,0.5461774982
275.55000,0.5461774982
275.55050,1.766955129
275.55100,2.682538352
275.55150,2.682538352
275.55200,2.072149537
275.55250,1.461760721
275.55300,1.461760721
275.55350,2.072149537
275.55400,3.292927168
275.55450,4.513704798
275.55500,5.124093614
275.55550,4.818899206
275.55600,3.903315983
275.55650,2.682538352
275.55700,1.766955129
275.55750,1.156566314
275.55800,1.156566314
275.55850,2.072149537
275.55900,2.98773276
275.55950,2.682538352
275.56000,1.461760721
275.56050,-0.06421131716
275.56100,-0.6746001326
275.56150,-0.6746001326
275.56200,-1.284988948
275.56250,-2.200572171
275.56300,-3.116155394
275.56350,-3.116155394
275.56400,-3.421349802
275.56450,-3.421349802
275.56500,-3.116155394
275.56550,-2.505766579
275.56600,-2.505766579
275.56650,-2.200572171
275.56700,-1.895377763
275.56750,-1.284988948
275.56800,-0.6746001326
275.56850,0.2409830905
275.56900,0.8513719059
275.56950,0.5461774982
275.57000,-0.3694057249
275.57050,-0.3694057249
275.57100,1.156566314
275.57150,2.98773276
275.57200,2.98773276
275.57250,1.461760721
275.57300,1.156566314
275.57350,2.682538352
275.57400,4.818899206
275.57450,5.734482429
275.57500,5.734482429
275.57550,5.734482429
275.57600,5.429288021
275.57650,4.513704798
275.57700,3.903315983
275.57750,3.903315983
275.57800,3.598121575
275.57850,2.98773276
275.57900,2.072149537
275.57950,1.461760721
275.58000,-0.06421131716
275.58050,-2.505766579
275.58100,-4.336933025
275.58150,-3.116155394
275.58200,-0.3694057249
275.58250,-0.06421131716
275.58300,-2.200572171
275.58350,-4.642127433
275.58400,-4.642127433
275.58450,-4.031738617
275.58500,-4.642127433
275.58550,-5.557710656
275.58600,-5.557710656
275.58650,-4.336933025
275.58700,-3.72654421
275.58750,-4.031738617
275.58800,-3.421349802
275.58850,-2.200572171
275.58900,-1.284988948
275.58950,-1.590183356
275.59000,-2.810960986
275.59050,-3.72654421
275.59100,-3.116155394
275.59150,-0.9797945403
275.59200,1.156566314
275.59250,1.766955129
275.59300,0.5461774982
275.59350,-0.3694057249
275.59400,-0.6746001326
275.59450,0.2409830905
275.59500,1.156566314
275.59550,1.461760721
275.59600,1.766955129
275.59650,1.766955129
275.59700,1.156566314
275.59750,0.2409830905
275.59800,-0.06421131716
275.59850,0.2409830905
275.59900,1.156566314
275.59950,2.072149537
275.60000,2.98773276
275.60050,3.292927168
275.60100,2.377343944
275.60150,0.8513719059
275.60200,0.2409830905
275.60250,0.2409830905
275.60300,-0.6746001326
275.60350,-3.116155394
275.60400,-4.94732184
275.60450,-4.94732184
275.60500,-3.72654421
275.60550,-3.72654421
275.60600,-5.252516248
275.60650,-7.388877102
275.60700,-8.304460325
275.60750,-7.999265917
275.60800,-6.473293879
275.60850,-5.252516248
275.60900,-4.642127433
275.60950,-3.72654421
275.61000,-1.895377763
275.61050,0.2409830905
275.61100,1.156566314
275.61150,0.5461774982
275.61200,-0.06421131716
275.61250,-0.06421131716
275.61300,0.2409830905
275.61350,0.5461774982
275.61400,1.156566314
275.61450,1.766955129
275.61500,1.461760721
275.61550,0.8513719059
275.61600,1.156566314
275.61650,2.377343944
275.61700,2.377343944
275.61750,1.461760721
275.61800,1.156566314
275.61850,2.377343944
275.61900,2.682538352
275.61950,0.5461774982
275.62000,-2.200572171
275.62050,-3.421349802
275.62100,-1.895377763
275.62150,-0.06421131716
275.62200,1.461760721
275.62250,2.072149537
275.62300,2.377343944
275.62350,1.156566314
275.62400,-0.3694057249
275.62450,-1.895377763
275.62500,-2.505766579
275.62550,-2.810960986
275.62600,-2.810960986
275.62650,-2.505766579
275.62700,-2.200572171
275.62750,-2.505766579
275.62800,-2.810960986
275.62850,-2.200572171
275.62900,-0.9797945403
275.62950,-0.3694057249
275.63000,-0.3694057249
275.63050,-0.06421131716
275.63100,0.8513719059
275.63150,1.461760721
275.63200,1.461760721
275.63250,2.072149537
275.63300,2.98773276
275.63350,3.292927168
275.63400,2.682538352
275.63450,1.766955129
275.63500,1.766955129
275.63550,2.682538352
275.63600,3.903315983
275.63650,4.513704798
275.63700,3.903315983
275.63750,2.682538352
275.63800,1.766955129
275.63850,1.766955129
275.63900,1.766955129
275.63950,1.156566314
275.64000,0.5461774982
275.64050,0.5461774982
275.64100,0.8513719059
275.64150,0.2409830905
275.64200,-0.3694057249
275.64250,-0.3694057249
275.64300,0.5461774982
275.64350,0.5461774982
275.64400,-1.895377763
275.64450,-4.642127433
275.64500,-5.252516248
275.64550,-4.642127433
275.64600,-4.94732184
275.64650,-5.557710656
275.64700,-4.336933025
275.64750,-1.895377763
275.64800,-0.9797945403
275.64850,-1.895377763
275.64900,-2.200572171
275.64950,-1.284988948
275.65000,-0.3694057249
275.65050,-0.3694057249
275.65100,-0.3694057249
275.65150,0.8513719059
275.65200,2.377343944
275.65250,2.072149537
275.65300,1.156566314
275.65350,0.5461774982
275.65400,0.8513719059
275.65450,0.8513719059
275.65500,1.461760721
275.65550,2.377343944
275.65600,2.377343944
275.65650,1.461760721
275.65700,0.8513719059
275.65750,1.461760721
275.65800,1.766955129
275.65850,1.461760721
275.65900,0.8513719059
275.65950,0.5461774982
275.66000,0.2409830905
275.66050,-0.3694057249
275.66100,-0.9797945403
275.66150,-1.590183356
275.66200,-2.810960986
275.66250,-4.031738617
275.66300,-4.642127433
275.66350,-5.252516248
275.66400,-7.083682694
275.66450,-8.304460325
275.66500,-6.168099471
275.66550,-2.200572171
275.66600,-0.6746001326
275.66650,-2.505766579
275.66700,-4.031738617
275.66750,-3.421349802
275.66800,-1.895377763
275.66850,-2.505766579
275.66900,-3.72654421
275.66950,-3.421349802
275.67000,-1.895377763
275.67050,-0.6746001326
275.67100,-0.3694057249
275.67150,0.2409830905
275.67200,1.156566314
275.67250,1.766955129
275.67300,1.766955129
275.67350,2.072149537
275.67400,2.377343944
275.67450,2.072149537
275.67500,2.072149537
275.67550,2.682538352
275.67600,2.682538352
275.67650,1.461760721
275.67700,0.8513719059
275.67750,0.8513719059
275.67800,1.461760721
275.67850,0.8513719059
275.67900,-0.06421131716
275.67950,-0.06421131716
275.68000,-0.6746001326
275.68050,-2.200572171
275.68100,-3.72654421
275.68150,-3.72654421
275.68200,-2.810960986
275.68250,-2.810960986
275.68300,-4.336933025
275.68350,-5.557710656
275.68400,-5.557710656
275.68450,-4.94732184
275.68500,-4.336933025
275.68550,-3.421349802
275.68600,-2.200572171
275.68650,-0.9797945403
275.68700,-1.284988948
275.68750,-1.590183356
275.68800,-1.284988948
275.68850,-0.06421131716
275.68900,0.2409830905
275.68950,-0.06421131716
275.69000,-0.6746001326
275.69050,-0.3694057249
275.69100,0.5461774982
275.69150,2.377343944
275.69200,3.292927168
275.69250,3.292927168
275.69300,2.682538352
275.69350,2.682538352
275.69400,3.292927168
275.69450,3.903315983
275.69500,3.598121575
275.69550,3.903315983
275.69600,5.124093614
275.69650,6.039676837
275.69700,5.429288021
275.69750,3.903315983
275.69800,3.292927168
275.69850,3.292927168
275.69900,2.682538352
275.69950,2.072149537
275.70000,1.766955129
275.70050,2.072149537
275.70100,0.8513719059
275.70150,-0.9797945403
275.70200,-2.200572171
275.70250,-0.9797945403
275.70300,-0.06421131716
275.70350,-1.590183356
275.70400,-3.72654421
275.70450,-4.031738617
275.70500,-2.810960986
275.70550,-2.200572171
275.70600,-3.116155394
275.70650,-3.421349802
275.70700,-2.505766579
275.70750,-0.9797945403
275.70800,-0.06421131716
275.70850,-0.06421131716
275.70900,-0.3694057249
275.70950,-0.3694057249
275.71000,-0.9797945403
275.71050,-1.284988948
275.71100,-0.9797945403
275.71150,-0.3694057249
275.71200,-0.06421131716
275.71250,0.5461774982
275.71300,1.461760721
275.71350,2.98773276
275.71400,5.429288021
275.71450,8.786426506
275.71500,12.75395381
275.71550,14.89031466
275.71600,13.97473144
275.71650,11.53317618
275.71700,10.00720414
275.71750,10.31239854
275.71800,10.92278736
275.71850,9.396815322
275.71900,6.650065652
275.71950,4.513704798
275.72000,3.292927168
275.72050,2.377343944
275.72100,0.8513719059
275.72150,-0.3694057249
275.72200,-0.6746001326
275.72250,-0.6746001326
275.72300,-0.06421131716
275.72350,-0.06421131716
275.72400,-0.3694057249
275.72450,-2.200572171
275.72500,-4.336933025
275.72550,-5.252516248
275.72600,-4.336933025
275.72650,-3.421349802
275.72700,-3.421349802
275.72750,-3.421349802
275.72800,-3.116155394
275.72850,-2.505766579
275.72900,-1.895377763
275.72950,-1.895377763
275.73000,-1.895377763
275.73050,-1.590183356
275.73100,-0.9797945403
275.73150,-0.3694057249
275.73200,-0.06421131716
275.73250,-0.3694057249
275.73300,-0.6746001326
275.73350,-0.06421131716
275.73400,0.8513719059
275.73450,1.461760721
275.73500,1.766955129
275.73550,2.072149537
275.73600,2.377343944
275.73650,1.766955129
275.73700,0.5461774982
275.73750,-0.3694057249
275.73800,-0.06421131716
275.73850,0.5461774982
275.73900,0.8513719059
275.73950,0.2409830905
275.74000,-0.3694057249
275.74050,-0.6746001326
275.74100,-0.9797945403
275.74150,-2.200572171
275.74200,-3.421349802
275.74250,-4.336933025
275.74300,-4.642127433
275.74350,-4.336933025
275.74400,-4.031738617
275.74450,-3.421349802
275.74500,-2.505766579
275.74550,-1.590183356
275.74600,-2.200572171
275.74650,-3.421349802
275.74700,-4.031738617
275.74750,-3.116155394
275.74800,-2.505766579
275.74850,-2.505766579
275.74900,-2.505766579
275.74950,-1.284988948
275.75000,-0.06421131716
275.75050,0.5461774982
275.75100,0.8513719059
275.75150,1.766955129
275.75200,2.682538352
275.75250,2.072149537
275.75300,1.461760721
275.75350,2.377343944
275.75400,3.598121575
275.75450,3.598121575
275.75500,2.072149537
275.75550,1.766955129
275.75600,3.292927168
275.75650,3.903315983
275.75700,2.682538352
275.75750,1.766955129
275.75800,2.072149537
275.75850,2.072149537
275.75900,0.5461774982
275.75950,-0.9797945403
275.76000,-1.895377763
275.76050,-1.590183356
275.76100,-0.9797945403
275.76150,-0.6746001326
275.76200,-0.6746001326
275.76250,-1.590183356
275.76300,-3.116155394
275.76350,-3.72654421
275.76400,-3.116155394
275.76450,-1.895377763
275.76500,-0.9797945403
275.76550,-0.3694057249
275.76600,-0.06421131716
275.76650,-0.3694057249
275.76700,-1.590183356
275.76750,-2.200572171
275.76800,-1.895377763
275.76850,-1.895377763
275.76900,-3.421349802
275.76950,-4.336933025
275.77000,-3.116155394
275.77050,-1.284988948
275.77100,-0.6746001326
275.77150,-1.284988948
275.77200,-0.9797945403
275.77250,-0.06421131716
275.77300,0.2409830905
275.77350,-0.3694057249
275.77400,-0.9797945403
275.77450,-0.06421131716
275.77500,1.461760721
275.77550,2.377343944
275.77600,2.682538352
275.77650,2.377343944
275.77700,2.072149537
275.77750,1.766955129
275.77800,1.156566314
275.77850,0.2409830905
275.77900,-0.3694057249
275.77950,-0.6746001326
275.78000,-0.06421131716
275.78050,-0.06421131716
275.78100,-0.06421131716
275.78150,-1.590183356
275.78200,-2.505766579
275.78250,-3.116155394
275.78300,-3.116155394
275.78350,-3.116155394
275.78400,-3.116155394
275.78450,-3.116155394
275.78500,-3.421349802
275.78550,-3.421349802
275.78600,-2.810960986
275.78650,-2.200572171
275.78700,-1.590183356
275.78750,-1.590183356
275.78800,-1.895377763
275.78850,-1.895377763
275.78900,-1.895377763
275.78950,-1.590183356
275.79000,-0.06421131716
275.79050,1.766955129
275.79100,2.072149537
275.79150,0.8513719059
275.79200,-0.06421131716
275.79250,0.8513719059
275.79300,2.377343944
275.79350,2.682538352
275.79400,2.072149537
275.79450,2.682538352
275.79500,3.903315983
275.79550,4.208510391
275.79600,3.598121575
275.79650,2.682538352
275.79700,3.292927168
275.79750,3.598121575
275.79800,2.98773276
275.79850,1.461760721
275.79900,0.5461774982
275.79950,1.461760721
275.80000,2.98773276
275.80050,3.598121575
275.80100,2.682538352
275.80150,0.5461774982
275.80200,-0.9797945403
275.80250,-1.895377763
275.80300,-2.200572171
275.80350,-2.505766579
275.80400,-2.810960986
275.80450,-2.810960986
275.80500,-2.505766579
275.80550,-2.505766579
275.80600,-2.200572171
275.80650,-1.590183356
275.80700,-1.590183356
275.80750,-2.505766579
275.80800,-2.810960986
275.80850,-0.9797945403
275.80900,0.8513719059
275.80950,0.8513719059
275.81000,-0.9797945403
275.81050,-2.505766579
275.81100,-1.895377763
275.81150,-0.06421131716
275.81200,1.156566314
275.81250,2.072149537
275.81300,2.682538352
275.81350,2.682538352
275.81400,2.377343944
275.81450,2.682538352
275.81500,3.598121575
275.81550,4.513704798
275.81600,5.429288021
275.81650,5.734482429
275.81700,5.429288021
275.81750,4.208510391
275.81800,2.377343944
275.81850,2.072149537
275.81900,2.377343944
275.81950,1.156566314
275.82000,-1.590183356
275.82050,-4.336933025
275.82100,-4.94732184
275.82150,-4.031738617
275.82200,-4.031738617
275.82250,-4.642127433
275.82300,-5.862905063
275.82350,-6.168099471
275.82400,-5.252516248
275.82450,-3.421349802
275.82500,-0.9797945403
275.82550,0.2409830905
275.82600,0.5461774982
275.82650,0.5461774982
275.82700,0.8513719059
275.82750,0.8513719059
275.82800,0.8513719059
275.82850,0.5461774982
275.82900,-0.06421131716
275.82950,-0.6746001326
275.83000,-1.590183356
275.83050,-1.284988948
275.83100,-0.06421131716
275.83150,-0.06421131716
275.83200,0.2409830905
275.83250,1.156566314
275.83300,3.292927168
275.83350,4.818899206
275.83400,5.429288021
275.83450,5.124093614
275.83500,5.429288021
275.83550,5.429288021
275.83600,4.208510391
275.83650,3.292927168
275.83700,3.598121575
275.83750,4.513704798
275.83800,4.208510391
275.83850,2.377343944
275.83900,1.156566314
275.83950,1.156566314
275.84000,1.461760721
275.84050,1.156566314
275.84100,0.2409830905
275.84150,-0.06421131716
275.84200,-0.6746001326
275.84250,-1.895377763
275.84300,-3.116155394
275.84350,-4.031738617
275.84400,-4.031738617
275.84450,-4.94732184
275.84500,-6.473293879
275.84550,-7.999265917
275.84600,-8.914849141
275.84650,-9.220043548
275.84700,-9.830432364
275.84750,-9.525237956
275.84800,-7.69407151
275.84850,-5.862905063
275.84900,-4.642127433
275.84950,-3.72654421
275.85000,-1.895377763
275.85050,0.2409830905
275.85100,1.461760721
275.85150,0.8513719059
275.85200,-0.06421131716
275.85250,0.2409830905
275.85300,2.072149537
275.85350,3.903315983
275.85400,4.208510391
275.85450,3.903315983
275.85500,4.208510391
275.85550,5.124093614
275.85600,6.039676837
275.85650,6.039676837
275.85700,5.124093614
275.85750,4.513704798
275.85800,4.208510391
275.85850,3.903315983
275.85900,2.377343944
275.85950,0.5461774982
275.86000,-0.3694057249
275.86050,-0.9797945403
275.86100,-1.284988948
275.86150,-1.590183356
275.86200,-2.200572171
275.86250,-2.810960986
275.86300,-4.031738617
275.86350,-4.94732184
275.86400,-4.94732184
275.86450,-4.642127433
275.86500,-5.557710656
275.86550,-6.473293879
275.86600,-6.168099471
275.86650,-4.642127433
275.86700,-3.72654421
275.86750,-3.72654421
275.86800,-3.421349802
275.86850,-2.200572171
275.86900,-1.590183356
275.86950,-1.895377763
275.87000,-2.200572171
275.87050,-1.284988948
275.87100,0.5461774982
275.87150,2.377343944
275.87200,3.292927168
275.87250,3.292927168
275.87300,2.98773276
275.87350,3.292927168
275.87400,4.208510391
275.87450,5.124093614
275.87500,5.429288021
275.87550,4.513704798
275.87600,3.598121575
275.87650,3.903315983
275.87700,4.208510391
275.87750,2.98773276
275.87800,1.156566314
275.87850,0.5461774982
275.87900,1.461760721
275.87950,2.377343944
275.88000,1.766955129
275.88050,0.2409830905
275.88100,-0.6746001326
275.88150,-1.284988948
275.88200,-1.284988948
275.88250,-0.6746001326
275.88300,-0.06421131716
275.88350,-0.06421131716
275.88400,-0.9797945403
275.88450,-2.200572171
275.88500,-2.200572171
275.88550,-1.895377763
275.88600,-2.810960986
275.88650,-3.72654421
275.88700,-4.031738617
275.88750,-3.421349802
275.88800,-2.505766579
275.88850,-1.284988948
275.88900,-0.06421131716
275.88950,1.461760721
275.89000,1.156566314
275.89050,0.5461774982
275.89100,0.2409830905
275.89150,0.5461774982
275.89200,0.8513719059
275.89250,0.5461774982
275.89300,1.156566314
275.89350,2.682538352
275.89400,3.903315983
275.89450,4.208510391
275.89500,4.208510391
275.89550,4.818899206
275.89600,4.818899206
275.89650,3.292927168
275.89700,1.156566314
275.89750,0.2409830905
275.89800,1.156566314
275.89850,2.377343944
275.89900,2.682538352
275.89950,2.072149537
275.90000,0.8513719059
275.90050,-0.06421131716
275.90100,-0.9797945403
275.90150,-1.590183356
275.90200,-2.200572171
275.90250,-2.810960986
275.90300,-3.72654421
275.90350,-4.031738617
275.90400,-4.336933025
275.90450,-4.336933025
275.90500,-4.031738617
275.90550,-2.810960986
275.90600,-2.200572171
275.90650,-3.116155394
275.90700,-4.642127433
275.90750,-4.94732184
275.90800,-3.72654421
275.90850,-2.200572171
275.90900,-2.505766579
275.90950,-3.72654421
275.91000,-4.336933025
275.91050,-3.421349802
275.91100,-1.895377763
275.91150,-0.06421131716
275.91200,1.156566314
275.91250,1.461760721
275.91300,0.8513719059
275.91350,1.156566314
275.91400,2.072149537
275.91450,2.377343944
275.91500,1.461760721
275.91550,0.5461774982
275.91600,0.8513719059
275.91650,1.766955129
275.91700,1.766955129
275.91750,1.461760721
275.91800,0.8513719059
275.91850,0.2409830905
275.91900,-0.3694057249
275.91950,-1.895377763
275.92000,-3.116155394
275.92050,-4.94732184
275.92100,-7.388877102
275.92150,-8.609654733
275.92200,-7.999265917
275.92250,-6.473293879
275.92300,-5.557710656
275.92350,-5.252516248
275.92400,-3.116155394
275.92450,-0.06421131716
275.92500,2.072149537
275.92550,2.072149537
275.92600,0.8513719059
275.92650,0.8513719059
275.92700,0.8513719059
275.92750,-0.3694057249
275.92800,-2.200572171
275.92850,-2.810960986
275.92900,-1.590183356
275.92950,-0.9797945403
275.93000,-0.6746001326
275.93050,-0.06421131716
275.93100,1.766955129
275.93150,3.598121575
275.93200,3.903315983
275.93250,2.98773276
275.93300,2.98773276
275.93350,3.292927168
275.93400,3.598121575
275.93450,3.292927168
275.93500,3.292927168
275.93550,3.598121575
275.93600,3.292927168
275.93650,2.682538352
275.93700,2.377343944
275.93750,2.98773276
275.93800,2.98773276
275.93850,2.377343944
275.93900,1.766955129
275.93950,2.072149537
275.94000,2.682538352
275.94050,2.072149537
275.94100,-0.06421131716
275.94150,-2.505766579
275.94200,-3.116155394
275.94250,-2.810960986
275.94300,-2.810960986
275.94350,-3.421349802
275.94400,-4.031738617
275.94450,-4.031738617
275.94500,-3.116155394
275.94550,-2.200572171
275.94600,-2.505766579
275.94650,-3.72654421
275.94700,-4.94732184
275.94750,-5.252516248
275.94800,-4.031738617
275.94850,-2.505766579
275.94900,-0.9797945403
275.94950,-0.3694057249
275.95000,-0.06421131716
275.95050,0.2409830905
275.95100,0.2409830905
275.95150,0.8513719059
275.95200,2.072149537
275.95250,3.903315983
275.95300,5.429288021
275.95350,6.650065652
275.95400,7.260454468
275.95450,6.344871245
275.95500,5.429288021
275.95550,5.124093614
275.95600,6.039676837
275.95650,6.344871245
275.95700,5.124093614
275.95750,3.903315983
275.95800,3.903315983
275.95850,4.818899206
275.95900,4.513704798
275.95950,3.292927168
275.96000,2.377343944
275.96050,1.766955129
275.96100,1.461760721
275.96150,0.5461774982
275.96200,0.2409830905
275.96250,0.5461774982
275.96300,0.8513719059
275.96350,-0.06421131716
275.96400,-0.9797945403
275.96450,-2.200572171
275.96500,-2.505766579
275.96550,-1.895377763
275.96600,-0.3694057249
275.96650,0.8513719059
275.96700,1.461760721
275.96750,0.8513719059
275.96800,0.2409830905
275.96850,0.2409830905
275.96900,1.156566314
275.96950,1.766955129
275.97000,2.072149537
275.97050,2.072149537
275.97100,2.377343944
275.97150,3.292927168
275.97200,4.513704798
275.97250,4.513704798
275.97300,2.98773276
275.97350,1.766955129
275.97400,2.377343944
275.97450,4.208510391
275.97500,5.429288021
275.97550,5.429288021
275.97600,5.429288021
275.97650,5.734482429
275.97700,5.734482429
275.97750,5.124093614
275.97800,4.513704798
275.97850,4.513704798
275.97900,3.903315983
275.97950,2.072149537
275.98000,0.5461774982
275.98050,-0.06421131716
275.98100,-0.6746001326
275.98150,-2.200572171
275.98200,-3.72654421
275.98250,-4.336933025
275.98300,-4.642127433
275.98350,-5.252516248
275.98400,-5.252516248
275.98450,-4.031738617
275.98500,-1.895377763
275.98550,-2.200572171
275.98600,-4.642127433
275.98650,-5.862905063
275.98700,-4.94732184
275.98750,-3.72654421
275.98800,-3.72654421
275.98850,-4.336933025
275.98900,-3.72654421
275.98950,-3.116155394
275.99000,-3.421349802
275.99050,-4.031738617
275.99100,-2.810960986
275.99150,-0.06421131716
275.99200,2.377343944
275.99250,2.072149537
275.99300,0.8513719059
275.99350,1.156566314
275.99400,2.98773276
275.99450,3.598121575
275.99500,2.98773276
275.99550,1.461760721
275.99600,0.2409830905
275.99650,-0.06421131716
275.99700,-0.06421131716
275.99750,-0.06421131716
275.99800,0.2409830905
275.99850,-0.06421131716
275.99900,-0.3694057249
275.99950,-1.284988948
276.00000,-2.505766579
276.00050,-4.031738617
276.00100,-5.557710656
276.00150,-5.862905063
276.00200,-5.252516248
276.00250,-5.862905063
276.00300,-7.388877102
276.00350,-7.69407151
276.00400,-5.557710656
276.00450,-2.810960986
276.00500,-0.6746001326
276.00550,0.5461774982
276.00600,1.461760721
276.00650,1.766955129
276.00700,0.8513719059
276.00750,0.2409830905
276.00800,1.156566314
276.00850,2.072149537
276.00900,1.156566314
276.00950,-0.06421131716
276.01000,-0.06421131716
276.01050,0.8513719059
276.01100,2.072149537
276.01150,2.072149537
276.01200,2.072149537
276.01250,2.377343944
276.01300,2.072149537
276.01350,2.682538352
276.01400,4.513704798
276.01450,6.650065652
276.01500,6.650065652
276.01550,4.208510391
276.01600,2.072149537
276.01650,2.377343944
276.01700,3.598121575
276.01750,3.903315983
276.01800,3.292927168
276.01850,2.377343944
276.01900,1.766955129
276.01950,0.8513719059
276.02000,-0.3694057249
276.02050,-1.895377763
276.02100,-2.505766579
276.02150,-2.505766579
276.02200,-2.200572171
276.02250,-1.895377763
276.02300,-2.200572171
276.02350,-3.116155394
276.02400,-4.031738617
276.02450,-4.642127433
276.02500,-4.642127433
276.02550,-4.336933025
276.02600,-3.72654421
276.02650,-3.116155394
276.02700,-2.810960986
276.02750,-2.810960986
276.02800,-4.031738617
276.02850,-4.94732184
276.02900,-4.642127433
276.02950,-3.421349802
276.03000,-2.810960986
276.03050,-2.810960986
276.03100,-2.505766579
276.03150,-1.590183356
276.03200,-0.6746001326
276.03250,-0.3694057249
276.03300,-0.06421131716
276.03350,0.5461774982
276.03400,1.156566314
276.03450,1.156566314
276.03500,1.156566314
276.03550,2.072149537
276.03600,2.98773276
276.03650,2.682538352
276.03700,2.072149537
276.03750,1.156566314
276.03800,0.5461774982
276.03850,0.5461774982
276.03900,-0.06421131716
276.03950,-1.590183356
276.04000,-3.421349802
276.04050,-4.94732184
276.04100,-5.862905063
276.04150,-7.69407151
276.04200,-8.914849141
276.04250,-8.609654733
276.04300,-6.168099471
276.04350,-4.031738617
276.04400,-3.72654421
276.04450,-2.810960986
276.04500,-0.06421131716
276.04550,2.377343944
276.04600,2.377343944
276.04650,1.461760721
276.04700,1.461760721
276.04750,1.766955129
276.04800,0.2409830905
276.04850,-2.505766579
276.04900,-3.421349802
276.04950,-1.590183356
276.05000,-0.06421131716
276.05050,-0.06421131716
276.05100,-0.06421131716
276.05150,0.5461774982
276.05200,1.461760721
276.05250,1.461760721
276.05300,2.072149537
276.05350,2.682538352
276.05400,2.377343944
276.05450,1.156566314
276.05500,1.156566314
276.05550,2.682538352
276.05600,3.903315983
276.05650,3.292927168
276.05700,2.98773276
276.05750,3.292927168
276.05800,2.98773276
276.05850,0.5461774982
276.05900,-0.9797945403
276.05950,-0.6746001326
276.06000,-0.06421131716
276.06050,-0.6746001326
276.06100,-2.200572171
276.06150,-2.505766579
276.06200,-2.200572171
276.06250,-2.505766579
276.06300,-3.72654421
276.06350,-4.94732184
276.06400,-5.557710656
276.06450,-5.252516248
276.06500,-3.421349802
276.06550,-1.590183356
276.06600,-1.284988948
276.06650,-2.200572171
276.06700,-1.895377763
276.06750,-0.6746001326
276.06800,-0.9797945403
276.06850,-3.421349802
276.06900,-3.72654421
276.06950,-0.6746001326
276.07000,1.766955129
276.07050,0.8513719059
276.07100,-1.284988948
276.07150,-0.3694057249
276.07200,2.98773276
276.07250,5.124093614
276.07300,4.208510391
276.07350,3.903315983
276.07400,5.429288021
276.07450,6.344871245
276.07500,4.818899206
276.07550,2.98773276
276.07600,2.377343944
276.07650,2.377343944
276.07700,1.766955129
276.07750,1.461760721
276.07800,1.461760721
276.07850,0.8513719059
276.07900,-0.3694057249
276.07950,-1.284988948
276.08000,-0.9797945403
276.08050,-0.3694057249
276.08100,-0.6746001326
276.08150,-1.284988948
276.08200,-1.284988948
276.08250,-2.200572171
276.08300,-3.421349802
276.08350,-3.72654421
276.08400,-2.810960986
276.08450,-2.200572171
276.08500,-2.810960986
276.08550,-3.116155394
276.08600,-1.895377763
276.08650,-0.6746001326
276.08700,-1.590183356
276.08750,-3.116155394
276.08800,-3.116155394
276.08850,-1.284988948
276.08900,-0.06421131716
276.08950,-0.06421131716
276.09000,-0.06421131716
276.09050,1.461760721
276.09100,2.98773276
276.09150,3.598121575
276.09200,3.292927168
276.09250,2.98773276
276.09300,3.598121575
276.09350,5.124093614
276.09400,6.039676837
276.09450,4.818899206
276.09500,2.377343944
276.09550,0.5461774982
276.09600,-0.06421131716
276.09650,0.5461774982
276.09700,0.2409830905
276.09750,-0.3694057249
276.09800,-0.9797945403
276.09850,-0.6746001326
276.09900,-0.3694057249
276.09950,-0.6746001326
276.10000,-0.6746001326
276.10050,0.2409830905
276.10100,2.377343944
276.10150,4.208510391
276.10200,4.513704798
276.10250,2.682538352
276.10300,-0.3694057249
276.10350,-2.810960986
276.10400,-2.505766579
276.10450,-1.284988948
276.10500,-0.3694057249
276.10550,-0.9797945403
276.10600,-0.9797945403
276.10650,-0.06421131716
276.10700,0.8513719059
276.10750,0.8513719059
276.10800,0.2409830905
276.10850,-0.06421131716
276.10900,-0.06421131716
276.10950,-0.06421131716
276.11000,1.156566314
276.11050,2.377343944
276.11100,2.377343944
276.11150,0.8513719059
276.11200,-0.06421131716
276.11250,0.8513719059
276.11300,2.072149537
276.11350,2.072149537
276.11400,2.072149537
276.11450,3.292927168
276.11500,5.124093614
276.11550,4.818899206
276.11600,3.292927168
276.11650,2.98773276
276.11700,3.292927168
276.11750,2.682538352
276.11800,0.5461774982
276.11850,-0.6746001326
276.11900,-0.6746001326
276.11950,-1.284988948
276.12000,-3.421349802
276.12050,-4.336933025
276.12100,-1.895377763
276.12150,0.2409830905
276.12200,-0.06421131716
276.12250,-2.505766579
276.12300,-4.031738617
276.12350,-4.031738617
276.12400,-5.252516248
276.12450,-6.168099471
276.12500,-4.94732184
276.12550,-1.590183356
276.12600,-0.3694057249
276.12650,-2.200572171
276.12700,-3.116155394
276.12750,-1.895377763
276.12800,-0.6746001326
276.12850,-1.284988948
276.12900,-3.116155394
276.12950,-3.116155394
276.13000,-1.895377763
276.13050,-1.590183356
276.13100,-2.505766579
276.13150,-2.200572171
276.13200,-0.9797945403
276.13250,-0.06421131716
276.13300,0.8513719059
276.13350,2.072149537
276.13400,2.682538352
276.13450,2.682538352
276.13500,2.98773276
276.13550,4.513704798
276.13600,6.650065652
276.13650,6.95526006
276.13700,5.124093614
276.13750,3.292927168
276.13800,2.682538352
276.13850,3.292927168
276.13900,3.598121575
276.13950,3.598121575
276.14000,2.98773276
276.14050,1.766955129
276.14100,0.2409830905
276.14150,-0.6746001326
276.14200,-1.284988948
276.14250,-1.590183356
276.14300,-2.200572171
276.14350,-3.116155394
276.14400,-4.031738617
276.14450,-4.642127433
276.14500,-4.94732184
276.14550,-4.94732184
276.14600,-4.642127433
276.14650,-4.94732184
276.14700,-5.557710656
276.14750,-5.252516248
276.14800,-4.336933025
276.14850,-3.116155394
276.14900,-2.810960986
276.14950,-2.505766579
276.15000,-1.590183356
276.15050,-0.3694057249
276.15100,-0.3694057249
276.15150,-0.9797945403
276.15200,-0.3694057249
276.15250,0.8513719059
276.15300,1.766955129
276.15350,1.156566314
276.15400,1.156566314
276.15450,2.377343944
276.15500,2.98773276
276.15550,2.377343944
276.15600,1.766955129
276.15650,2.682538352
276.15700,2.682538352
276.15750,1.156566314
276.15800,-0.3694057249
276.15850,-0.6746001326
276.15900,-0.06421131716
276.15950,0.5461774982
276.16000,-0.06421131716
276.16050,-0.6746001326
276.16100,-0.9797945403
276.16150,-1.590183356
276.16200,-2.200572171
276.16250,-2.810960986
276.16300,-2.810960986
276.16350,-3.116155394
276.16400,-3.72654421
276.16450,-4.031738617
276.16500,-3.72654421
276.16550,-4.031738617
276.16600,-4.031738617
276.16650,-4.031738617
276.16700,-3.421349802
276.16750,-1.895377763
276.16800,-0.6746001326
276.16850,-0.06421131716
276.16900,-0.3694057249
276.16950,-0.6746001326
276.17000,0.8513719059
276.17050,3.903315983
276.17100,6.039676837
276.17150,5.429288021
276.17200,3.903315983
276.17250,3.903315983
276.17300,5.124093614
276.17350,6.344871245
276.17400,6.95526006
276.17450,7.260454468
276.17500,7.260454468
276.17550,6.650065652
276.17600,6.344871245
276.17650,6.95526006
276.17700,7.565648875
276.17750,7.260454468
276.17800,5.734482429
276.17850,4.208510391
276.17900,2.682538352
276.17950,0.8513719059
276.18000,-0.9797945403
276.18050,-1.590183356
276.18100,-1.284988948
276.18150,-1.284988948
276.18200,-1.895377763
276.18250,-2.505766579
276.18300,-3.116155394
276.18350,-3.421349802
276.18400,-2.505766579
276.18450,-0.9797945403
276.18500,0.5461774982
276.18550,0.5461774982
276.18600,-0.06421131716
276.18650,0.5461774982
276.18700,2.072149537
276.18750,3.598121575
276.18800,3.292927168
276.18850,2.377343944
276.18900,1.156566314
276.18950,0.5461774982
276.19000,0.8513719059
276.19050,1.461760721
276.19100,1.766955129
276.19150,1.766955129
276.19200,1.766955129
276.19250,2.98773276
276.19300,4.208510391
276.19350,4.208510391
276.19400,3.598121575
276.19450,3.598121575
276.19500,4.208510391
276.19550,4.513704798
276.19600,4.208510391
276.19650,4.208510391
276.19700,4.513704798
276.19750,3.598121575
276.19800,1.766955129
276.19850,0.2409830905
276.19900,-0.06421131716
276.19950,-0.06421131716
276.20000,-0.6746001326
276.20050,-1.590183356
276.20100,-2.810960986
276.20150,-3.421349802
276.20200,-3.116155394
276.20250,-1.590183356
276.20300,-0.3694057249
276.20350,-0.6746001326
276.20400,-1.895377763
276.20450,-2.810960986
276.20500,-3.116155394
276.20550,-3.421349802
276.20600,-4.94732184
276.20650,-5.862905063
276.20700,-5.862905063
276.20750,-4.94732184
276.20800,-3.72654421
276.20850,-2.200572171
276.20900,-1.284988948
276.20950,-1.590183356
276.21000,-3.116155394
276.21050,-3.421349802
276.21100,-1.284988948
276.21150,1.461760721
276.21200,2.98773276
276.21250,2.682538352
276.21300,2.072149537
276.21350,2.377343944
276.21400,3.292927168
276.21450,3.903315983
276.21500,3.598121575
276.21550,3.292927168
276.21600,2.98773276
276.21650,2.682538352
276.21700,2.377343944
276.21750,1.766955129
276.21800,1.461760721
276.21850,1.156566314
276.21900,0.2409830905
276.21950,-0.06421131716
276.22000,-0.06421131716
276.22050,0.2409830905
276.22100,0.2409830905
276.22150,-0.06421131716
276.22200,-0.6746001326
276.22250,-1.590183356
276.22300,-3.116155394
276.22350,-4.642127433
276.22400,-5.252516248
276.22450,-5.252516248
276.22500,-5.557710656
276.22550,-6.473293879
276.22600,-6.778488287
276.22650,-6.168099471
276.22700,-5.862905063
276.22750,-5.862905063
276.22800,-5.557710656
276.22850,-2.810960986
276.22900,-0.06421131716
276.22950,0.8513719059
276.23000,-0.06421131716
276.23050,-0.6746001326
276.23100,-0.06421131716
276.23150,1.766955129
276.23200,2.682538352
276.23250,2.377343944
276.23300,2.072149537
276.23350,1.766955129
276.23400,1.156566314
276.23450,0.8513719059
276.23500,0.2409830905
276.23550,-0.06421131716
276.23600,-0.6746001326
276.23650,-0.6746001326
276.23700,-0.3694057249
276.23750,-0.06421131716
276.23800,-0.06421131716
276.23850,-0.06421131716
276.23900,-0.06421131716
276.23950,-0.06421131716
276.24000,-1.284988948
276.24050,-2.505766579
276.24100,-2.505766579
276.24150,-1.895377763
276.24200,-1.895377763
276.24250,-2.505766579
276.24300,-2.810960986
276.24350,-2.505766579
276.24400,-1.895377763
276.24450,-2.505766579
276.24500,-3.116155394
276.24550,-3.116155394
276.24600,-2.200572171
276.24650,-1.895377763
276.24700,-1.284988948
276.24750,-0.3694057249
276.24800,0.2409830905
276.24850,-0.06421131716
276.24900,-1.284988948
276.24950,-2.200572171
276.25000,-1.895377763
276.25050,-0.9797945403
276.25100,-0.3694057249
276.25150,-0.6746001326
276.25200,-1.284988948
276.25250,-1.590183356
276.25300,-1.590183356
276.25350,-1.284988948
276.25400,-1.895377763
276.25450,-2.810960986
276.25500,-1.895377763
276.25550,0.8513719059
276.25600,3.598121575
276.25650,4.208510391
276.25700,2.682538352
276.25750,1.461760721
276.25800,1.461760721
276.25850,0.8513719059
276.25900,-0.3694057249
276.25950,-0.9797945403
276.26000,-0.6746001326
276.26050,-0.3694057249
276.26100,-1.895377763
276.26150,-4.336933025
276.26200,-4.94732184
276.26250,-4.031738617
276.26300,-3.421349802
276.26350,-4.336933025
276.26400,-5.557710656
276.26450,-5.862905063
276.26500,-5.252516248
276.26550,-4.94732184
276.26600,-4.642127433
276.26650,-3.72654421
276.26700,-3.116155394
276.26750,-3.72654421
276.26800,-4.642127433
276.26850,-4.642127433
276.26900,-2.810960986
276.26950,-0.06421131716
276.27000,0.5461774982
276.27050,-0.06421131716
276.27100,-0.3694057249
276.27150,0.8513719059
276.27200,2.98773276
276.27250,3.903315983
276.27300,3.903315983
276.27350,3.903315983
276.27400,4.818899206
276.27450,5.734482429
276.27500,6.039676837
276.27550,5.734482429
276.27600,5.124093614
276.27650,3.903315983
276.27700,2.377343944
276.27750,1.156566314
276.27800,1.156566314
276.27850,1.461760721
276.27900,1.156566314
276.27950,0.5461774982
276.28000,0.8513719059
276.28050,2.072149537
276.28100,3.598121575
276.28150,3.903315983
276.28200,2.377343944
276.28250,0.2409830905
276.28300,-0.6746001326
276.28350,-0.6746001326
276.28400,0.2409830905
276.28450,0.8513719059
276.28500,0.2409830905
276.28550,-0.9797945403
276.28600,-1.895377763
276.28650,-2.505766579
276.28700,-3.116155394
276.28750,-3.72654421
276.28800,-3.116155394
276.28850,-1.895377763
276.28900,-0.06421131716
276.28950,1.156566314
276.29000,2.682538352
276.29050,4.513704798
276.29100,5.429288021
276.29150,5.429288021
276.29200,5.124093614
276.29250,4.208510391
276.29300,3.903315983
276.29350,4.818899206
276.29400,7.870843283
276.29450,10.00720414
276.29500,10.00720414
276.29550,8.481232098
276.29600,8.176037691
276.29650,8.481232098
276.29700,8.176037691
276.29750,6.344871245
276.29800,3.903315983
276.29850,1.461760721
276.29900,-0.06421131716
276.29950,-0.06421131716
276.30000,0.8513719059
276.30050,1.766955129
276.30100,0.2409830905
276.30150,-1.895377763
276.30200,-2.505766579
276.30250,-2.200572171
276.30300,-3.116155394
276.30350,-5.557710656
276.30400,-6.473293879
276.30450,-4.94732184
276.30500,-3.72654421
276.30550,-4.336933025
276.30600,-5.252516248
276.30650,-4.336933025
276.30700,-2.810960986
276.30750,-2.810960986
276.30800,-3.72654421
276.30850,-4.031738617
276.30900,-3.421349802
276.30950,-2.505766579
276.31000,-2.200572171
276.31050,-2.200572171
276.31100,-2.200572171
276.31150,-1.590183356
276.31200,-0.06421131716
276.31250,1.156566314
276.31300,0.5461774982
276.31350,-0.3694057249
276.31400,-0.3694057249
276.31450,1.461760721
276.31500,3.903315983
276.31550,5.124093614
276.31600,5.429288021
276.31650,5.734482429
276.31700,4.818899206
276.31750,2.98773276
276.31800,1.461760721
276.31850,1.461760721
276.31900,1.461760721
276.31950,0.2409830905
276.32000,-1.590183356
276.32050,-3.72654421
276.32100,-4.336933025
276.32150,-3.72654421
276.32200,-3.421349802
276.32250,-4.94732184
276.32300,-6.473293879
276.32350,-7.388877102
276.32400,-6.473293879
276.32450,-5.862905063
276.32500,-5.557710656
276.32550,-5.862905063
276.32600,-5.557710656
276.32650,-5.557710656
276.32700,-4.94732184
276.32750,-3.72654421
276.32800,-2.810960986
276.32850,-3.116155394
276.32900,-4.031738617
276.32950,-3.421349802
276.33000,-1.590183356
276.33050,-0.06421131716
276.33100,0.2409830905
276.33150,0.2409830905
276.33200,0.2409830905
276.33250,0.5461774982
276.33300,1.156566314
276.33350,1.766955129
276.33400,2.072149537
276.33450,2.072149537
276.33500,2.072149537
276.33550,2.377343944
276.33600,2.682538352
276.33650,2.682538352
276.33700,2.377343944
276.33750,2.072149537
276.33800,1.766955129
276.33850,0.8513719059
276.33900,0.2409830905
276.33950,0.2409830905
276.34000,-0.06421131716
276.34050,-0.6746001326
276.34100,-1.895377763
276.34150,-2.505766579
276.34200,-2.810960986
276.34250,-4.031738617
276.34300,-5.557710656
276.34350,-5.862905063
276.34400,-4.94732184
276.34450,-3.72654421
276.34500,-3.421349802
276.34550,-3.421349802
276.34600,-3.421349802
276.34650,-3.72654421
276.34700,-4.031738617
276.34750,-3.421349802
276.34800,-2.810960986
276.34850,-2.200572171
276.34900,-1.284988948
276.34950,-0.3694057249
276.35000,0.5461774982
276.35050,1.156566314
276.35100,2.072149537
276.35150,2.682538352
276.35200,2.682538352
276.35250,1.461760721
276.35300,1.461760721
276.35350,2.682538352
276.35400,5.124093614
276.35450,6.344871245
276.35500,6.344871245
276.35550,6.344871245
276.35600,6.650065652
276.35650,5.734482429
276.35700,5.124093614
276.35750,5.124093614
276.35800,5.734482429
276.35850,5.124093614
276.35900,2.682538352
276.35950,-0.06421131716
276.36000,-0.6746001326
276.36050,-0.6746001326
276.36100,-1.284988948
276.36150,-2.505766579
276.36200,-3.116155394
276.36250,-2.810960986
276.36300,-3.421349802
276.36350,-4.94732184
276.36400,-5.557710656
276.36450,-3.72654421
276.36500,-2.200572171
276.36550,-2.810960986
276.36600,-4.642127433
276.36650,-4.642127433
276.36700,-2.200572171
276.36750,-0.3694057249
276.36800,-1.284988948
276.36850,-2.810960986
276.36900,-2.810960986
276.36950,-0.9797945403
276.37000,0.2409830905
276.37050,0.5461774982
276.37100,0.8513719059
276.37150,1.461760721
276.37200,2.072149537
276.37250,2.377343944
276.37300,3.292927168
276.37350,4.208510391
276.37400,4.513704798
276.37450,3.903315983
276.37500,3.903315983
276.37550,4.513704798
276.37600,5.429288021
276.37650,5.124093614
276.37700,2.98773276
276.37750,0.8513719059
276.37800,-0.06421131716
276.37850,-0.3694057249
276.37900,-0.9797945403
276.37950,-1.284988948
276.38000,-0.9797945403
276.38050,-0.3694057249
276.38100,-0.6746001326
276.38150,-2.200572171
276.38200,-3.116155394
276.38250,-2.200572171
276.38300,-0.06421131716
276.38350,1.766955129
276.38400,1.766955129
276.38450,0.5461774982
276.38500,-0.06421131716
276.38550,0.8513719059
276.38600,2.072149537
276.38650,1.461760721
276.38700,-1.284988948
276.38750,-4.336933025
276.38800,-4.642127433
276.38850,-2.505766579
276.38900,-0.06421131716
276.38950,1.156566314
276.39000,1.766955129
276.39050,2.682538352
276.39100,3.598121575
276.39150,3.903315983
276.39200,2.98773276
276.39250,2.072149537
276.39300,2.072149537
276.39350,2.98773276
276.39400,3.903315983
276.39450,4.513704798
276.39500,4.818899206
276.39550,5.429288021
276.39600,5.734482429
276.39650,4.513704798
276.39700,2.98773276
276.39750,2.682538352
276.39800,3.598121575
276.39850,4.513704798
276.39900,4.208510391
276.39950,2.072149537
276.40000,0.2409830905
276.40050,-0.9797945403
276.40100,-1.590183356
276.40150,-1.284988948
276.40200,-0.9797945403
276.40250,-1.284988948
276.40300,-3.116155394
276.40350,-4.031738617
276.40400,-3.116155394
276.40450,-1.284988948
276.40500,-1.590183356
276.40550,-3.421349802
276.40600,-3.72654421
276.40650,-1.284988948
276.40700,1.461760721
276.40750,2.072149537
276.40800,0.8513719059
276.40850,0.5461774982
276.40900,1.461760721
276.40950,2.072149537
276.41000,1.156566314
276.41050,0.5461774982
276.41100,1.156566314
276.41150,2.377343944
276.41200,2.98773276
276.41250,3.292927168
276.41300,5.124093614
276.41350,7.565648875
276.41400,7.565648875
276.41450,5.124093614
276.41500,3.598121575
276.41550,4.818899206
276.41600,6.344871245
276.41650,6.039676837
276.41700,4.513704798
276.41750,3.903315983
276.41800,4.818899206
276.41850,4.208510391
276.41900,1.461760721
276.41950,-0.6746001326
276.42000,-0.3694057249
276.42050,0.2409830905
276.42100,-0.06421131716
276.42150,-1.895377763
276.42200,-3.116155394
276.42250,-3.421349802
276.42300,-4.031738617
276.42350,-4.336933025
276.42400,-4.031738617
276.42450,-3.421349802
276.42500,-3.116155394
276.42550,-3.72654421
276.42600,-4.031738617
276.42650,-4.336933025
276.42700,-5.557710656
276.42750,-6.778488287
276.42800,-7.083682694
276.42850,-4.94732184
276.42900,-2.200572171
276.42950,-0.9797945403
276.43000,-0.9797945403
276.43050,-0.3694057249
276.43100,1.156566314
276.43150,3.292927168
276.43200,3.598121575
276.43250,2.682538352
276.43300,2.072149537
276.43350,2.682538352
276.43400,2.682538352
276.43450,1.766955129
276.43500,1.156566314
276.43550,1.461760721
276.43600,2.072149537
276.43650,1.461760721
276.43700,-0.06421131716
276.43750,-0.06421131716
276.43800,-0.06421131716
276.43850,-0.6746001326
276.43900,-2.505766579
276.43950,-3.421349802
276.44000,-3.421349802
276.44050,-3.72654421
276.44100,-5.252516248
276.44150,-6.473293879
276.44200,-6.473293879
276.44250,-5.862905063
276.44300,-5.862905063
276.44350,-6.168099471
276.44400,-5.252516248
276.44450,-3.72654421
276.44500,-3.72654421
276.44550,-4.94732184
276.44600,-5.862905063
276.44650,-5.862905063
276.44700,-6.168099471
276.44750,-6.473293879
276.44800,-5.862905063
276.44850,-4.031738617
276.44900,-2.505766579
276.44950,-2.505766579
276.45000,-2.505766579
276.45050,-1.590183356
276.45100,-0.3694057249
276.45150,-0.06421131716
276.45200,0.8513719059
276.45250,2.072149537
276.45300,3.292927168
276.45350,3.292927168
276.45400,3.903315983
276.45450,5.124093614
276.45500,5.124093614
276.45550,2.98773276
276.45600,1.156566314
276.45650,1.461760721
276.45700,2.98773276
276.45750,2.98773276
276.45800,2.072149537
276.45850,2.072149537
276.45900,1.766955129
276.45950,-0.06421131716
276.46000,-3.116155394
276.46050,-3.72654421
276.46100,-1.284988948
276.46150,-0.06421131716
276.46200,-1.284988948
276.46250,-4.642127433
276.46300,-6.473293879
276.46350,-6.473293879
276.46400,-5.252516248
276.46450,-2.810960986
276.46500,-0.3694057249
276.46550,0.2409830905
276.46600,-0.9797945403
276.46650,-2.810960986
276.46700,-3.72654421
276.46750,-3.72654421
276.46800,-4.031738617
276.46850,-3.421349802
276.46900,-1.284988948
276.46950,-0.06421131716
276.47000,0.5461774982
276.47050,-0.06421131716
276.47100,-0.06421131716
276.47150,0.5461774982
276.47200,1.766955129
276.47250,3.292927168
276.47300,4.513704798
276.47350,4.818899206
276.47400,3.903315983
276.47450,2.98773276
276.47500,3.292927168
276.47550,3.598121575
276.47600,2.98773276
276.47650,1.766955129
276.47700,1.461760721
276.47750,1.461760721
276.47800,1.461760721
276.47850,0.8513719059
276.47900,-0.06421131716
276.47950,-0.9797945403
276.48000,-1.895377763
276.48050,-3.116155394
276.48100,-4.336933025
276.48150,-5.252516248
276.48200,-5.557710656
276.48250,-4.642127433
276.48300,-3.421349802
276.48350,-2.810960986
276.48400,-3.421349802
276.48450,-4.031738617
276.48500,-4.031738617
276.48550,-3.421349802
276.48600,-3.116155394
276.48650,-2.810960986
276.48700,-1.895377763
276.48750,0.2409830905
276.48800,2.072149537
276.48850,2.377343944
276.48900,1.156566314
276.48950,-0.06421131716
276.49000,0.8513719059
276.49050,2.98773276
276.49100,4.513704798
276.49150,4.208510391
276.49200,2.682538352
276.49250,2.072149537
276.49300,2.682538352
276.49350,3.292927168
276.49400,2.377343944
276.49450,2.072149537
276.49500,2.98773276
276.49550,4.513704798
276.49600,4.208510391
276.49650,3.292927168
276.49700,2.98773276
276.49750,3.292927168
276.49800,3.292927168
276.49850,2.072149537
276.49900,1.156566314
276.49950,1.156566314
276.50000,1.461760721
276.50050,1.461760721
276.50100,1.156566314
276.50150,-0.06421131716
276.50200,-1.895377763
276.50250,-3.72654421
276.50300,-4.94732184
276.50350,-5.557710656
276.50400,-6.168099471
276.50450,-6.473293879
276.50500,-4.94732184
276.50550,-3.116155394
276.50600,-3.116155394
276.50650,-4.642127433
276.50700,-4.336933025
276.50750,-1.895377763
276.50800,0.2409830905
276.50850,0.5461774982
276.50900,0.2409830905
276.50950,0.8513719059
276.51000,1.461760721
276.51050,1.156566314
276.51100,0.5461774982
276.51150,0.8513719059
276.51200,1.766955129
276.51250,2.072149537
276.51300,2.072149537
276.51350,2.98773276
276.51400,3.598121575
276.51450,3.903315983
276.51500,3.903315983
276.51550,4.513704798
276.51600,4.208510391
276.51650,2.98773276
276.51700,2.072149537
276.51750,2.682538352
276.51800,2.98773276
276.51850,0.8513719059
276.51900,-0.9797945403
276.51950,-0.9797945403
276.52000,-0.06421131716
276.52050,-0.06421131716
276.52100,-0.9797945403
276.52150,-1.590183356
276.52200,-1.895377763
276.52250,-2.505766579
276.52300,-3.116155394
276.52350,-2.505766579
276.52400,-1.284988948
276.52450,-0.9797945403
276.52500,-1.590183356
276.52550,-1.895377763
276.52600,-1.895377763
276.52650,-2.200572171
276.52700,-2.810960986
276.52750,-2.810960986
276.52800,-2.200572171
276.52850,-1.895377763
276.52900,-2.505766579
276.52950,-2.505766579
276.53000,-0.9797945403
276.53050,0.8513719059
276.53100,2.072149537
276.53150,1.461760721
276.53200,0.8513719059
276.53250,1.461760721
276.53300,3.292927168
276.53350,4.513704798
276.53400,4.513704798
276.53450,3.903315983
276.53500,3.598121575
276.53550,3.598121575
276.53600,4.208510391
276.53650,4.818899206
276.53700,5.429288021
276.53750,5.124093614
276.53800,3.598121575
276.53850,2.072149537
276.53900,1.156566314
276.53950,1.461760721
276.54000,1.461760721
276.54050,1.461760721
276.54100,1.766955129
276.54150,1.156566314
276.54200,-0.3694057249
276.54250,-2.200572171
276.54300,-3.421349802
276.54350,-3.421349802
276.54400,-3.116155394
276.54450,-3.116155394
276.54500,-3.116155394
276.54550,-2.810960986
276.54600,-2.810960986
276.54650,-2.200572171
276.54700,-0.9797945403
276.54750,0.5461774982
276.54800,2.072149537
276.54850,3.292927168
276.54900,2.98773276
276.54950,1.461760721
276.55000,-0.06421131716
276.55050,0.2409830905
276.55100,1.766955129
276.55150,2.377343944
276.55200,1.461760721
276.55250,0.5461774982
276.55300,0.5461774982
276.55350,0.5461774982
276.55400,-0.3694057249
276.55450,-1.590183356
276.55500,-0.3694057249
276.55550,2.377343944
276.55600,4.513704798
276.55650,4.208510391
276.55700,3.292927168
276.55750,2.98773276
276.55800,3.598121575
276.55850,2.98773276
276.55900,0.8513719059
276.55950,-1.284988948
276.56000,-3.421349802
276.56050,-4.031738617
276.56100,-3.72654421
276.56150,-3.421349802
276.56200,-3.72654421
276.56250,-4.642127433
276.56300,-5.252516248
276.56350,-5.252516248
276.56400,-4.94732184
276.56450,-3.421349802
276.56500,-1.895377763
276.56550,-0.9797945403
276.56600,-0.9797945403
276.56650,-1.590183356
276.56700,-0.9797945403
276.56750,0.2409830905
276.56800,1.766955129
276.56850,2.377343944
276.56900,1.766955129
276.56950,1.461760721
276.57000,2.377343944
276.57050,3.292927168
276.57100,2.682538352
276.57150,0.2409830905
276.57200,-2.810960986
276.57250,-4.642127433
276.57300,-4.94732184
276.57350,-4.031738617
276.57400,-2.505766579
276.57450,-0.06421131716
276.57500,1.766955129
276.57550,1.766955129
276.57600,0.5461774982
276.57650,-0.06421131716
276.57700,1.156566314
276.57750,3.598121575
276.57800,5.429288021
276.57850,5.429288021
276.57900,4.208510391
276.57950,1.766955129
276.58000,-0.3694057249
276.58050,-1.895377763
276.58100,-1.895377763
276.58150,-0.9797945403
276.58200,-0.9797945403
276.58250,-1.590183356
276.58300,-2.200572171
276.58350,-3.116155394
276.58400,-4.336933025
276.58450,-5.862905063
276.58500,-6.778488287
276.58550,-6.778488287
276.58600,-5.862905063
276.58650,-4.94732184
276.58700,-3.72654421
276.58750,-2.505766579
276.58800,-1.284988948
276.58850,-0.06421131716
276.58900,1.766955129
276.58950,2.98773276
276.59000,3.598121575
276.59050,3.292927168
276.59100,2.98773276
276.59150,2.682538352
276.59200,2.377343944
276.59250,2.377343944
276.59300,2.98773276
276.59350,4.208510391
276.59400,4.818899206
276.59450,3.903315983
276.59500,3.292927168
276.59550,3.598121575
276.59600,4.208510391
276.59650,4.513704798
276.59700,4.208510391
276.59750,4.208510391
276.59800,4.208510391
276.59850,3.292927168
276.59900,2.072149537
276.59950,0.5461774982
276.60000,-0.06421131716
276.60050,-0.6746001326
276.60100,-0.6746001326
276.60150,-0.9797945403
276.60200,-2.200572171
276.60250,-3.72654421
276.60300,-4.642127433
276.60350,-4.336933025
276.60400,-4.336933025
276.60450,-4.94732184
276.60500,-6.168099471
276.60550,-7.083682694
276.60600,-6.778488287
276.60650,-6.168099471
276.60700,-4.94732184
276.60750,-3.72654421
276.60800,-2.810960986
276.60850,-1.895377763
276.60900,-0.9797945403
276.60950,0.2409830905
276.61000,1.461760721
276.61050,1.766955129
276.61100,1.461760721
276.61150,1.461760721
276.61200,2.377343944
276.61250,2.682538352
276.61300,2.072149537
276.61350,1.766955129
276.61400,2.377343944
276.61450,2.98773276
276.61500,2.682538352
276.61550,1.766955129
276.61600,1.766955129
276.61650,2.682538352
276.61700,2.682538352
276.61750,1.156566314
276.61800,-0.6746001326
276.61850,-1.284988948
276.61900,-1.284988948
276.61950,-1.590183356
276.62000,-2.200572171
276.62050,-2.505766579
276.62100,-2.810960986
276.62150,-3.116155394
276.62200,-3.421349802
276.62250,-3.421349802
276.62300,-3.72654421
276.62350,-4.031738617
276.62400,-4.642127433
276.62450,-5.252516248
276.62500,-4.94732184
276.62550,-4.336933025
276.62600,-3.72654421
276.62650,-2.505766579
276.62700,-1.284988948
276.62750,-0.3694057249
276.62800,-0.3694057249
276.62850,-0.9797945403
276.62900,-0.9797945403
276.62950,-0.06421131716
276.63000,1.156566314
276.63050,1.461760721
276.63100,1.156566314
276.63150,1.156566314
276.63200,2.072149537
276.63250,3.598121575
276.63300,4.513704798
276.63350,4.818899206
276.63400,4.818899206
276.63450,4.208510391
276.63500,3.903315983
276.63550,3.598121575
276.63600,3.598121575
276.63650,3.292927168
276.63700,2.98773276
276.63750,2.377343944
276.63800,2.072149537
276.63850,1.156566314
276.63900,-0.3694057249
276.63950,-2.200572171
276.64000,-2.810960986
276.64050,-2.200572171
276.64100,-1.284988948
276.64150,-1.590183356
276.64200,-2.810960986
276.64250,-4.642127433
276.64300,-5.252516248
276.64350,-4.94732184
276.64400,-3.72654421
276.64450,-3.116155394
276.64500,-3.72654421
276.64550,-4.94732184
276.64600,-4.642127433
276.64650,-1.895377763
276.64700,2.072149537
276.64750,4.513704798
276.64800,4.513704798
276.64850,3.292927168
276.64900,2.377343944
276.64950,1.766955129
276.65000,1.461760721
276.65050,1.461760721
276.65100,2.682538352
276.65150,3.598121575
276.65200,2.98773276
276.65250,1.156566314
276.65300,0.8513719059
276.65350,2.072149537
276.65400,2.682538352
276.65450,1.156566314
276.65500,0.2409830905
276.65550,2.072149537
276.65600,4.818899206
276.65650,5.734482429
276.65700,5.124093614
276.65750,4.818899206
276.65800,5.124093614
276.65850,4.818899206
276.65900,3.903315983
276.65950,3.598121575
276.66000,4.513704798
276.66050,4.513704798
276.66100,3.292927168
276.66150,2.072149537
276.66200,0.8513719059
276.66250,-0.06421131716
276.66300,-1.895377763
276.66350,-3.116155394
276.66400,-4.031738617
276.66450,-4.94732184
276.66500,-5.252516248
276.66550,-4.031738617
276.66600,-2.200572171
276.66650,-2.505766579
276.66700,-5.862905063
276.66750,-8.914849141
276.66800,-9.220043548
276.66850,-7.388877102
276.66900,-4.94732184
276.66950,-3.116155394
276.67000,-2.200572171
276.67050,-2.200572171
276.67100,-2.200572171
276.67150,-0.6746001326
276.67200,2.682538352
276.67250,5.734482429
276.67300,6.039676837
276.67350,4.513704798
276.67400,2.98773276
276.67450,2.072149537
276.67500,0.2409830905
276.67550,-0.6746001326
276.67600,-0.06421131716
276.67650,0.8513719059
276.67700,0.5461774982
276.67750,-0.3694057249
276.67800,-0.3694057249
276.67850,0.2409830905
276.67900,0.2409830905
276.67950,-1.590183356
276.68000,-3.421349802
276.68050,-3.421349802
276.68100,-2.505766579
276.68150,-2.505766579
276.68200,-3.116155394
276.68250,-3.116155394
276.68300,-3.116155394
276.68350,-4.642127433
276.68400,-6.778488287
276.68450,-7.083682694
276.68500,-4.642127433
276.68550,-2.810960986
276.68600,-3.421349802
276.68650,-4.94732184
276.68700,-4.94732184
276.68750,-3.116155394
276.68800,-1.895377763
276.68850,-1.284988948
276.68900,-0.06421131716
276.68950,1.766955129
276.69000,2.682538352
276.69050,1.766955129
276.69100,1.156566314
276.69150,2.682538352
276.69200,5.429288021
276.69250,6.650065652
276.69300,6.650065652
276.69350,6.650065652
276.69400,6.95526006
276.69450,6.039676837
276.69500,4.818899206
276.69550,4.513704798
276.69600,5.429288021
276.69650,5.734482429
276.69700,4.818899206
276.69750,3.903315983
276.69800,3.903315983
276.69850,4.208510391
276.69900,3.292927168
276.69950,1.461760721
276.70000,0.2409830905
276.70050,-0.06421131716
276.70100,-0.06421131716
276.70150,-0.9797945403
276.70200,-1.284988948
276.70250,-1.590183356
276.70300,-1.895377763
276.70350,-3.116155394
276.70400,-3.421349802
276.70450,-2.810960986
276.70500,-2.810960986
276.70550,-4.336933025
276.70600,-5.557710656
276.70650,-4.642127433
276.70700,-2.505766579
276.70750,-0.9797945403
276.70800,-1.284988948
276.70850,-1.284988948
276.70900,-0.06421131716
276.70950,1.461760721
276.71000,2.072149537
276.71050,2.682538352
276.71100,4.208510391
276.71150,5.734482429
276.71200,6.039676837
276.71250,5.429288021
276.71300,5.124093614
276.71350,5.734482429
276.71400,5.734482429
276.71450,4.818899206
276.71500,4.818899206
276.71550,5.429288021
276.71600,5.734482429
276.71650,4.513704798
276.71700,2.377343944
276.71750,0.8513719059
276.71800,-0.06421131716
276.71850,-1.284988948
276.71900,-3.116155394
276.71950,-4.031738617
276.72000,-4.336933025
276.72050,-4.031738617
276.72100,-3.72654421
276.72150,-3.72654421
276.72200,-3.421349802
276.72250,-4.031738617
276.72300,-4.94732184
276.72350,-4.94732184
276.72400,-2.810960986
276.72450,-0.06421131716
276.72500,1.156566314
276.72550,0.2409830905
276.72600,-0.6746001326
276.72650,-0.9797945403
276.72700,-0.3694057249
276.72750,-0.3694057249
276.72800,-0.6746001326
276.72850,-0.3694057249
276.72900,-0.3694057249
276.72950,-0.06421131716
276.73000,0.5461774982
276.73050,2.377343944
276.73100,3.598121575
276.73150,3.292927168
276.73200,2.377343944
276.73250,2.98773276
276.73300,3.903315983
276.73350,3.598121575
276.73400,2.682538352
276.73450,2.377343944
276.73500,3.598121575
276.73550,3.598121575
276.73600,2.377343944
276.73650,0.8513719059
276.73700,0.5461774982
276.73750,0.8513719059
276.73800,0.5461774982
276.73850,-0.3694057249
276.73900,-1.284988948
276.73950,-2.505766579
276.74000,-4.336933025
276.74050,-4.94732184
276.74100,-4.031738617
276.74150,-2.200572171
276.74200,-1.590183356
276.74250,-2.200572171
276.74300,-3.116155394
276.74350,-3.421349802
276.74400,-4.031738617
276.74450,-4.336933025
276.74500,-4.336933025
276.74550,-4.336933025
276.74600,-4.642127433
276.74650,-5.252516248
276.74700,-5.252516248
276.74750,-4.642127433
276.74800,-3.72654421
276.74850,-3.421349802
276.74900,-3.421349802
276.74950,-3.72654421
276.75000,-3.421349802
276.75050,-2.200572171
276.75100,-1.284988948
276.75150,-0.3694057249
276.75200,-0.3694057249
276.75250,-0.06421131716
276.75300,0.5461774982
276.75350,0.2409830905
276.75400,-0.3694057249
276.75450,-0.06421131716
276.75500,0.8513719059
276.75550,1.156566314
276.75600,0.5461774982
276.75650,0.2409830905
276.75700,1.461760721
276.75750,2.377343944
276.75800,1.766955129
276.75850,0.5461774982
276.75900,-0.06421131716
276.75950,-0.6746001326
276.76000,-1.590183356
276.76050,-2.505766579
276.76100,-2.810960986
276.76150,-3.116155394
276.76200,-3.72654421
276.76250,-4.336933025
276.76300,-4.94732184
276.76350,-6.168099471
276.76400,-7.69407151
276.76450,-7.69407151
276.76500,-5.862905063
276.76550,-3.72654421
276.76600,-2.505766579
276.76650,-1.590183356
276.76700,-0.06421131716
276.76750,1.156566314
276.76800,0.5461774982
276.76850,-0.06421131716
276.76900,0.5461774982
276.76950,1.766955129
276.77000,2.072149537
276.77050,1.766955129
276.77100,2.072149537
276.77150,3.292927168
276.77200,4.513704798
276.77250,5.429288021
276.77300,5.429288021
276.77350,4.818899206
276.77400,3.598121575
276.77450,2.682538352
276.77500,3.292927168
276.77550,4.208510391
276.77600,4.818899206
276.77650,4.513704798
276.77700,4.818899206
276.77750,4.818899206
276.77800,3.903315983
276.77850,2.682538352
276.77900,1.766955129
276.77950,1.766955129
276.78000,1.766955129
276.78050,0.8513719059
276.78100,-0.3694057249
276.78150,-1.590183356
276.78200,-2.810960986
276.78250,-3.72654421
276.78300,-4.031738617
276.78350,-3.72654421
276.78400,-3.116155394
276.78450,-2.200572171
276.78500,-1.895377763
276.78550,-2.200572171
276.78600,-2.200572171
276.78650,-2.505766579
276.78700,-3.116155394
276.78750,-3.72654421
276.78800,-3.72654421
276.78850,-2.810960986
276.78900,-1.590183356
276.78950,-0.6746001326
276.79000,-0.06421131716
276.79050,0.8513719059
276.79100,1.766955129
276.79150,2.377343944
276.79200,3.292927168
276.79250,4.208510391
276.79300,5.124093614
276.79350,4.818899206
276.79400,4.208510391
276.79450,4.208510391
276.79500,4.513704798
276.79550,4.513704798
276.79600,5.124093614
276.79650,5.734482429
276.79700,5.734482429
276.79750,3.292927168
276.79800,-0.6746001326
276.79850,-4.336933025
276.79900,-5.557710656
276.79950,-4.94732184
276.80000,-3.72654421
276.80050,-3.421349802
276.80100,-4.031738617
276.80150,-4.031738617
276.80200,-2.810960986
276.80250,-0.06421131716
276.80300,1.766955129
276.80350,0.5461774982
276.80400,-1.895377763
276.80450,-3.116155394
276.80500,-2.200572171
276.80550,-1.590183356
276.80600,-2.810960986
276.80650,-3.116155394
276.80700,-1.590183356
276.80750,-0.6746001326
276.80800,-2.505766579
276.80850,-4.642127433
276.80900,-3.72654421
276.80950,-1.284988948
276.81000,-0.9797945403
276.81050,-2.200572171
276.81100,-1.895377763
276.81150,0.2409830905
276.81200,1.461760721
276.81250,0.8513719059
276.81300,0.8513719059
276.81350,2.682538352
276.81400,4.208510391
276.81450,3.903315983
276.81500,2.98773276
276.81550,3.292927168
276.81600,3.903315983
276.81650,3.903315983
276.81700,2.98773276
276.81750,2.377343944
276.81800,2.072149537
276.81850,1.766955129
276.81900,1.156566314
276.81950,-0.06421131716
276.82000,-1.895377763
276.82050,-3.421349802
276.82100,-3.116155394
276.82150,-2.200572171
276.82200,-1.590183356
276.82250,-1.284988948
276.82300,-0.3694057249
276.82350,0.5461774982
276.82400,0.5461774982
276.82450,-0.3694057249
276.82500,-0.6746001326
276.82550,-0.06421131716
276.82600,-0.3694057249
276.82650,-0.9797945403
276.82700,-1.284988948
276.82750,-0.06421131716
276.82800,0.5461774982
276.82850,0.8513719059
276.82900,1.766955129
276.82950,2.98773276
276.83000,3.292927168
276.83050,2.072149537
276.83100,1.766955129
276.83150,2.377343944
276.83200,3.292927168
276.83250,3.292927168
276.83300,2.682538352
276.83350,2.98773276
276.83400,3.598121575
276.83450,3.292927168
276.83500,2.682538352
276.83550,2.377343944
276.83600,2.682538352
276.83650,2.98773276
276.83700,3.903315983
276.83750,5.124093614
276.83800,5.734482429
276.83850,4.208510391
276.83900,1.156566314
276.83950,-0.9797945403
276.84000,-0.6746001326
276.84050,0.8513719059
276.84100,2.072149537
276.84150,1.461760721
276.84200,0.5461774982
276.84250,-0.06421131716
276.84300,-0.6746001326
276.84350,-1.284988948
276.84400,-1.895377763
276.84450,-2.505766579
276.84500,-3.72654421
276.84550,-4.336933025
276.84600,-4.336933025
276.84650,-3.72654421
276.84700,-3.421349802
276.84750,-3.421349802
276.84800,-3.116155394
276.84850,-3.116155394
276.84900,-3.421349802
276.84950,-3.116155394
276.85000,-0.9797945403
276.85050,1.461760721
276.85100,2.682538352
276.85150,1.766955129
276.85200,0.8513719059
276.85250,1.461760721
276.85300,2.377343944
276.85350,1.766955129
276.85400,-0.06421131716
276.85450,-1.895377763
276.85500,-0.9797945403
276.85550,1.766955129
276.85600,4.513704798
276.85650,5.429288021
276.85700,4.513704798
276.85750,2.377343944
276.85800,0.5461774982
276.85850,0.2409830905
276.85900,0.2409830905
276.85950,-0.3694057249
276.86000,-2.200572171
276.86050,-2.810960986
276.86100,-1.590183356
276.86150,-0.06421131716
276.86200,-0.06421131716
276.86250,-1.590183356
276.86300,-3.116155394
276.86350,-3.421349802
276.86400,-2.810960986
276.86450,-2.810960986
276.86500,-3.116155394
276.86550,-3.116155394
276.86600,-2.505766579
276.86650,-1.895377763
276.86700,-2.200572171
276.86750,-2.810960986
276.86800,-3.421349802
276.86850,-3.72654421
276.86900,-2.200572171
276.86950,-0.06421131716
276.87000,1.461760721
276.87050,1.461760721
276.87100,1.156566314
276.87150,1.461760721
276.87200,2.98773276
276.87250,3.292927168
276.87300,2.98773276
276.87350,2.98773276
276.87400,3.903315983
276.87450,4.513704798
276.87500,3.903315983
276.87550,2.682538352
276.87600,1.766955129
276.87650,2.072149537
276.87700,2.682538352
276.87750,2.98773276
276.87800,2.377343944
276.87850,0.5461774982
276.87900,-1.284988948
276.87950,-2.200572171
276.88000,-2.505766579
276.88050,-2.200572171
276.88100,-2.200572171
276.88150,-2.505766579
276.88200,-3.116155394
276.88250,-3.72654421
276.88300,-3.116155394
276.88350,-0.9797945403
276.88400,0.2409830905
276.88450,0.2409830905
276.88500,-0.3694057249
276.88550,-0.6746001326
276.88600,-0.6746001326
276.88650,-1.284988948
276.88700,-1.590183356
276.88750,-1.590183356
276.88800,-1.590183356
276.88850,-2.200572171
276.88900,-3.421349802
276.88950,-2.810960986
276.89000,-0.9797945403
276.89050,-0.06421131716
276.89100,-0.06421131716
276.89150,-0.06421131716
276.89200,0.5461774982
276.89250,0.2409830905
276.89300,-0.6746001326
276.89350,-1.590183356
276.89400,-1.590183356
276.89450,-0.9797945403
276.89500,-0.6746001326
276.89550,-0.06421131716
276.89600,0.8513719059
276.89650,0.8513719059
276.89700,-0.06421131716
276.89750,-0.06421131716
276.89800,1.156566314
276.89850,1.461760721
276.89900,-0.06421131716
276.89950,-1.895377763
276.90000,-3.116155394
276.90050,-3.72654421
276.90100,-5.557710656
276.90150,-7.388877102
276.90200,-7.69407151
276.90250,-6.473293879
276.90300,-5.862905063
276.90350,-6.778488287
276.90400,-7.083682694
276.90450,-5.252516248
276.90500,-2.810960986
276.90550,-1.284988948
276.90600,-0.9797945403
276.90650,-1.895377763
276.90700,-2.200572171
276.90750,-1.590183356
276.90800,-1.284988948
276.90850,-1.590183356
276.90900,-3.421349802
276.90950,-4.94732184
276.91000,-4.94732184
276.91050,-3.421349802
276.91100,-1.590183356
276.91150,-0.6746001326
276.91200,-0.06421131716
276.91250,1.156566314
276.91300,2.377343944
276.91350,2.377343944
276.91400,1.766955129
276.91450,1.766955129
276.91500,2.682538352
276.91550,4.513704798
276.91600,5.734482429
276.91650,6.039676837
276.91700,5.429288021
276.91750,5.124093614
276.91800,4.818899206
276.91850,4.208510391
276.91900,3.598121575
276.91950,2.682538352
276.92000,2.072149537
276.92050,1.461760721
276.92100,0.8513719059
276.92150,-0.06421131716
276.92200,-0.9797945403
276.92250,-2.200572171
276.92300,-2.505766579
276.92350,-2.505766579
276.92400,-2.505766579
276.92450,-3.72654421
276.92500,-4.94732184
276.92550,-4.94732184
276.92600,-3.116155394
276.92650,-0.9797945403
276.92700,-0.06421131716
276.92750,0.8513719059
276.92800,2.377343944
276.92850,4.513704798
276.92900,5.734482429
276.92950,6.344871245
276.93000,6.039676837
276.93050,5.734482429
276.93100,5.429288021
276.93150,4.208510391
276.93200,3.292927168
276.93250,2.682538352
276.93300,3.598121575
276.93350,4.513704798
276.93400,4.818899206
276.93450,5.124093614
276.93500,6.039676837
276.93550,6.344871245
276.93600,4.818899206
276.93650,1.766955129
276.93700,-0.06421131716
276.93750,0.8513719059
276.93800,3.292927168
276.93850,4.513704798
276.93900,4.208510391
276.93950,2.98773276
276.94000,0.8513719059
276.94050,-0.9797945403
276.94100,-2.810960986
276.94150,-4.336933025
276.94200,-5.252516248
276.94250,-5.862905063
276.94300,-5.862905063
276.94350,-6.168099471
276.94400,-6.778488287
276.94450,-7.999265917
276.94500,-9.220043548
276.94550,-8.914849141
276.94600,-7.388877102
276.94650,-4.642127433
276.94700,-1.590183356
276.94750,0.2409830905
276.94800,1.156566314
276.94850,1.461760721
276.94900,1.461760721
276.94950,1.461760721
276.95000,1.461760721
276.95050,1.766955129
276.95100,2.377343944
276.95150,2.98773276
276.95200,3.292927168
276.95250,3.598121575
276.95300,3.903315983
276.95350,4.208510391
276.95400,3.903315983
276.95450,2.682538352
276.95500,1.461760721
276.95550,0.8513719059
276.95600,0.8513719059
276.95650,0.8513719059
276.95700,0.5461774982
276.95750,0.2409830905
276.95800,0.2409830905
276.95850,-0.06421131716
276.95900,-1.284988948
276.95950,-3.72654421
276.96000,-4.94732184
276.96050,-4.031738617
276.96100,-2.810960986
276.96150,-3.116155394
276.96200,-4.031738617
276.96250,-3.116155394
276.96300,-0.6746001326
276.96350,-0.06421131716
276.96400,-1.284988948
276.96450,-2.810960986
276.96500,-2.200572171
276.96550,-0.6746001326
276.96600,-0.3694057249
276.96650,-0.9797945403
276.96700,-0.9797945403
276.96750,-0.6746001326
276.96800,-0.6746001326
276.96850,-0.9797945403
276.96900,-0.6746001326
276.96950,0.2409830905
276.97000,0.8513719059
276.97050,1.156566314
276.97100,1.461760721
276.97150,2.377343944
276.97200,2.98773276
276.97250,3.903315983
276.97300,5.429288021
276.97350,6.344871245
276.97400,6.039676837
276.97450,5.124093614
276.97500,5.429288021
276.97550,6.344871245
276.97600,5.734482429
276.97650,3.903315983
276.97700,2.682538352
276.97750,2.377343944
276.97800,1.461760721
276.97850,-0.06421131716
276.97900,-1.590183356
276.97950,-1.590183356
276.98000,-1.590183356
276.98050,-2.810960986
276.98100,-4.031738617
276.98150,-3.72654421
276.98200,-3.116155394
276.98250,-2.810960986
276.98300,-3.421349802
276.98350,-4.031738617
276.98400,-4.031738617
276.98450,-4.031738617
276.98500,-3.116155394
276.98550,-2.200572171
276.98600,-1.895377763
276.98650,-1.895377763
276.98700,-1.590183356
276.98750,-0.6746001326
276.98800,-0.3694057249
276.98850,-0.9797945403
276.98900,-0.9797945403
276.98950,-0.06421131716
276.99000,1.156566314
276.99050,1.461760721
276.99100,1.766955129
276.99150,2.377343944
276.99200,3.292927168
276.99250,3.903315983
276.99300,3.903315983
276.99350,3.598121575
276.99400,2.377343944
276.99450,0.5461774982
276.99500,-0.06421131716
276.99550,2.072149537
276.99600,5.124093614
276.99650,6.039676837
276.99700,4.513704798
276.99750,2.682538352
276.99800,2.682538352
276.99850,2.377343944
276.99900,1.156566314
276.99950,-0.3694057249
277.00000,-0.9797945403
277.00050,-0.6746001326
277.00100,-0.6746001326
277.00150,-1.895377763
277.00200,-2.810960986
277.00250,-2.200572171
277.00300,-0.9797945403
277.00350,-0.6746001326
277.00400,-1.284988948
277.00450,-1.590183356
277.00500,-1.284988948
277.00550,-0.9797945403
277.00600,-0.6746001326
277.00650,-0.3694057249
277.00700,-0.06421131716
277.00750,-0.3694057249
277.00800,-0.06421131716
277.00850,1.461760721
277.00900,3.598121575
277.00950,3.292927168
277.01000,0.5461774982
277.01050,-1.284988948
277.01100,-0.6746001326
277.01150,0.8513719059
277.01200,1.766955129
277.01250,1.766955129
277.01300,1.766955129
277.01350,2.072149537
277.01400,2.072149537
277.01450,1.766955129
277.01500,0.8513719059
277.01550,-0.06421131716
277.01600,-0.6746001326
277.01650,-0.6746001326
277.01700,-0.3694057249
277.01750,-0.6746001326
277.01800,-2.200572171
277.01850,-2.810960986
277.01900,-2.200572171
277.01950,-1.895377763
277.02000,-3.116155394
277.02050,-4.94732184
277.02100,-5.252516248
277.02150,-4.336933025
277.02200,-4.94732184
277.02250,-6.473293879
277.02300,-6.778488287
277.02350,-4.94732184
277.02400,-3.421349802
277.02450,-3.421349802
277.02500,-4.031738617
277.02550,-4.336933025
277.02600,-4.031738617
277.02650,-4.336933025
277.02700,-3.72654421
277.02750,-1.590183356
277.02800,1.461760721
277.02850,4.513704798
277.02900,6.95526006
277.02950,8.176037691
277.03000,7.870843283
277.03050,6.344871245
277.03100,5.734482429
277.03150,5.734482429
277.03200,4.513704798
277.03250,2.98773276
277.03300,2.682538352
277.03350,3.598121575
277.03400,3.292927168
277.03450,1.156566314
277.03500,-0.06421131716
277.03550,-0.06421131716
277.03600,-0.06421131716
277.03650,-0.3694057249
277.03700,-0.3694057249
277.03750,-0.06421131716
277.03800,-0.06421131716
277.03850,-1.284988948
277.03900,-1.284988948
277.03950,1.156566314
277.04000,3.292927168
277.04050,2.682538352
277.04100,0.5461774982
277.04150,-0.6746001326
277.04200,-0.9797945403
277.04250,-1.895377763
277.04300,-4.031738617
277.04350,-5.557710656
277.04400,-5.862905063
277.04450,-4.94732184
277.04500,-4.336933025
277.04550,-4.336933025
277.04600,-4.031738617
277.04650,-2.810960986
277.04700,-0.6746001326
277.04750,1.156566314
277.04800,2.072149537
277.04850,1.766955129
277.04900,1.461760721
277.04950,1.766955129
277.05000,2.072149537
277.05050,2.377343944
277.05100,2.072149537
277.05150,2.377343944
277.05200,2.682538352
277.05250,2.377343944
277.05300,1.461760721
277.05350,0.5461774982
277.05400,0.8513719059
277.05450,1.766955129
277.05500,2.682538352
277.05550,2.98773276
277.05600,3.292927168
277.05650,2.98773276
277.05700,1.461760721
277.05750,-0.6746001326
277.05800,-2.505766579
277.05850,-2.200572171
277.05900,-1.284988948
277.05950,-1.895377763
277.06000,-4.031738617
277.06050,-4.94732184
277.06100,-4.031738617
277.06150,-3.116155394
277.06200,-3.72654421
277.06250,-5.252516248
277.06300,-5.557710656
277.06350,-4.94732184
277.06400,-4.031738617
277.06450,-4.031738617
277.06500,-4.031738617
277.06550,-3.421349802
277.06600,-3.116155394
277.06650,-2.810960986
277.06700,-2.200572171
277.06750,-1.284988948
277.06800,-0.6746001326
277.06850,-0.6746001326
277.06900,-0.3694057249
277.06950,-0.06421131716
277.07000,0.5461774982
277.07050,0.5461774982
277.07100,0.8513719059
277.07150,2.072149537
277.07200,2.98773276
277.07250,2.682538352
277.07300,1.461760721
277.07350,0.8513719059
277.07400,1.156566314
277.07450,1.766955129
277.07500,2.377343944
277.07550,2.98773276
277.07600,3.598121575
277.07650,3.598121575
277.07700,2.377343944
277.07750,0.5461774982
277.07800,-0.06421131716
277.07850,-0.06421131716
277.07900,-0.06421131716
277.07950,-0.06421131716
277.08000,-0.3694057249
277.08050,-0.06421131716
277.08100,0.2409830905
277.08150,-0.9797945403
277.08200,-3.421349802
277.08250,-5.252516248
277.08300,-5.862905063
277.08350,-4.94732184
277.08400,-3.72654421
277.08450,-2.505766579
277.08500,-1.590183356
277.08550,-0.6746001326
277.08600,-0.06421131716
277.08650,0.2409830905
277.08700,-0.3694057249
277.08750,-1.590183356
277.08800,-1.895377763
277.08850,-1.284988948
277.08900,-0.6746001326
277.08950,-0.3694057249
277.09000,-0.9797945403
277.09050,-1.284988948
277.09100,-0.9797945403
277.09150,-0.06421131716
277.09200,-0.06421131716
277.09250,-0.9797945403
277.09300,-0.9797945403
277.09350,-0.3694057249
277.09400,0.2409830905
277.09450,0.2409830905
277.09500,0.8513719059
277.09550,2.98773276
277.09600,5.429288021
277.09650,6.344871245
277.09700,5.124093614
277.09750,3.292927168
277.09800,1.461760721
277.09850,-0.06421131716
277.09900,-1.895377763
277.09950,-2.505766579
277.10000,-1.284988948
277.10050,-0.06421131716
277.10100,-0.6746001326
277.10150,-2.200572171
277.10200,-3.116155394
277.10250,-3.116155394
277.10300,-3.116155394
277.10350,-3.116155394
277.10400,-3.421349802
277.10450,-3.421349802
277.10500,-3.72654421
277.10550,-4.94732184
277.10600,-6.473293879
277.10650,-6.778488287
277.10700,-6.168099471
277.10750,-4.336933025
277.10800,-1.590183356
277.10850,1.461760721
277.10900,4.208510391
277.10950,5.124093614
277.11000,6.039676837
277.11050,7.260454468
277.11100,8.176037691
277.11150,7.565648875
277.11200,5.124093614
277.11250,3.292927168
277.11300,3.292927168
277.11350,3.292927168
277.11400,2.682538352
277.11450,1.461760721
277.11500,0.2409830905
277.11550,-0.06421131716
277.11600,-0.06421131716
277.11650,-0.06421131716
277.11700,-0.06421131716
277.11750,-0.9797945403
277.11800,-1.895377763
277.11850,-1.895377763
277.11900,-1.895377763
277.11950,-2.810960986
277.12000,-4.031738617
277.12050,-4.031738617
277.12100,-2.810960986
277.12150,-2.200572171
277.12200,-2.505766579
277.12250,-2.810960986
277.12300,-2.810960986
277.12350,-3.116155394
277.12400,-4.031738617
277.12450,-4.642127433
277.12500,-4.642127433
277.12550,-4.336933025
277.12600,-4.031738617
277.12650,-3.421349802
277.12700,-2.200572171
277.12750,-0.9797945403
277.12800,-0.6746001326
277.12850,-0.3694057249
277.12900,0.2409830905
277.12950,1.766955129
277.13000,3.292927168
277.13050,4.208510391
277.13100,4.513704798
277.13150,4.818899206
277.13200,5.429288021
277.13250,5.734482429
277.13300,6.95526006
277.13350,7.870843283
277.13400,8.481232098
277.13450,7.870843283
277.13500,6.344871245
277.13550,4.513704798
277.13600,3.292927168
277.13650,2.682538352
277.13700,2.682538352
277.13750,2.682538352
277.13800,2.072149537
277.13850,0.5461774982
277.13900,-1.284988948
277.13950,-2.505766579
277.14000,-1.895377763
277.14050,-0.9797945403
277.14100,-1.895377763
277.14150,-3.72654421
277.14200,-4.94732184
277.14250,-4.642127433
277.14300,-4.642127433
277.14350,-5.557710656
277.14400,-5.557710656
277.14450,-3.421349802
277.14500,-1.284988948
277.14550,-1.284988948
277.14600,-1.895377763
277.14650,-0.9797945403
277.14700,1.156566314
277.14750,2.377343944
277.14800,1.766955129
277.14850,1.766955129
277.14900,2.682538352
277.14950,2.682538352
277.15000,1.766955129
277.15050,1.461760721
277.15100,2.682538352
277.15150,2.98773276
277.15200,2.377343944
277.15250,1.766955129
277.15300,2.682538352
277.15350,3.903315983
277.15400,3.903315983
277.15450,4.208510391
277.15500,5.124093614
277.15550,5.734482429
277.15600,5.124093614
277.15650,4.208510391
277.15700,3.903315983
277.15750,3.292927168
277.15800,1.461760721
277.15850,-0.06421131716
277.15900,-0.6746001326
277.15950,-0.3694057249
277.16000,-0.6746001326
277.16050,-1.590183356
277.16100,-2.200572171
277.16150,-2.505766579
277.16200,-2.505766579
277.16250,-2.200572171
277.16300,-2.505766579
277.16350,-3.421349802
277.16400,-4.031738617
277.16450,-3.421349802
277.16500,-1.284988948
277.16550,-0.06421131716
277.16600,-0.6746001326
277.16650,-0.6746001326
277.16700,0.8513719059
277.16750,2.682538352
277.16800,2.377343944
277.16850,0.8513719059
277.16900,0.2409830905
277.16950,1.766955129
277.17000,3.292927168
277.17050,4.208510391
277.17100,4.208510391
277.17150,4.818899206
277.17200,5.429288021
277.17250,5.734482429
277.17300,5.734482429
277.17350,5.124093614
277.17400,4.208510391
277.17450,3.292927168
277.17500,3.292927168
277.17550,3.903315983
277.17600,3.903315983
277.17650,3.292927168
277.17700,2.682538352
277.17750,2.682538352
277.17800,2.682538352
277.17850,2.072149537
277.17900,1.156566314
277.17950,0.2409830905
277.18000,-0.3694057249
277.18050,-0.6746001326
277.18100,-1.284988948
277.18150,-1.895377763
277.18200,-3.421349802
277.18250,-5.252516248
277.18300,-5.862905063
277.18350,-5.252516248
277.18400,-4.336933025
277.18450,-4.336933025
277.18500,-4.642127433
277.18550,-4.642127433
277.18600,-4.031738617
277.18650,-3.421349802
277.18700,-3.116155394
277.18750,-2.505766579
277.18800,-1.590183356
277.18850,-0.3694057249
277.18900,0.5461774982
277.18950,2.377343944
277.19000,3.598121575
277.19050,3.903315983
277.19100,2.682538352
277.19150,1.461760721
277.19200,1.461760721
277.19250,2.072149537
277.19300,2.377343944
277.19350,1.461760721
277.19400,0.2409830905
277.19450,0.2409830905
277.19500,2.682538352
277.19550,6.344871245
277.19600,6.95526006
277.19650,4.513704798
277.19700,2.072149537
277.19750,2.072149537
277.19800,2.682538352
277.19850,0.8513719059
277.19900,-2.505766579
277.19950,-4.94732184
277.20000,-4.336933025
277.20050,-3.72654421
277.20100,-5.252516248
277.20150,-7.69407151
277.20200,-9.220043548
277.20250,-10.13562677
277.20300,-10.13562677
277.20350,-8.914849141
277.20400,-6.778488287
277.20450,-5.252516248
277.20500,-4.94732184
277.20550,-3.72654421
277.20600,-1.590183356
277.20650,0.2409830905
277.20700,1.156566314
277.20750,0.8513719059
277.20800,0.8513719059
277.20850,0.2409830905
277.20900,-0.9797945403
277.20950,-1.895377763
277.21000,-1.284988948
277.21050,-0.3694057249
277.21100,-0.06421131716
277.21150,-0.06421131716
277.21200,0.8513719059
277.21250,2.072149537
277.21300,3.292927168
277.21350,4.513704798
277.21400,6.344871245
277.21450,6.344871245
277.21500,4.513704798
277.21550,1.461760721
277.21600,-0.06421131716
277.21650,-0.6746001326
277.21700,-0.9797945403
277.21750,-2.505766579
277.21800,-4.031738617
277.21850,-5.252516248
277.21900,-5.557710656
277.21950,-4.94732184
277.22000,-4.336933025
277.22050,-4.642127433
277.22100,-4.94732184
277.22150,-4.94732184
277.22200,-4.94732184
277.22250,-5.862905063
277.22300,-6.168099471
277.22350,-4.94732184
277.22400,-2.810960986
277.22450,-2.505766579
277.22500,-5.252516248
277.22550,-8.609654733
277.22600,-8.914849141
277.22650,-5.862905063
277.22700,-2.810960986
277.22750,-1.590183356
277.22800,-2.505766579
277.22850,-3.421349802
277.22900,-3.421349802
277.22950,-2.810960986
277.23000,-1.895377763
277.23050,-0.6746001326
277.23100,0.5461774982
277.23150,1.766955129
277.23200,2.377343944
277.23250,3.292927168
277.23300,4.208510391
277.23350,5.124093614
277.23400,5.124093614
277.23450,5.124093614
277.23500,5.124093614
277.23550,5.124093614
277.23600,4.818899206
277.23650,3.903315983
277.23700,3.292927168
277.23750,2.377343944
277.23800,0.5461774982
277.23850,-0.9797945403
277.23900,-0.9797945403
277.23950,-0.06421131716
277.24000,0.2409830905
277.24050,-0.6746001326
277.24100,-2.200572171
277.24150,-3.116155394
277.24200,-3.421349802
277.24250,-4.336933025
277.24300,-5.557710656
277.24350,-5.252516248
277.24400,-3.72654421
277.24450,-2.505766579
277.24500,-1.590183356
277.24550,-0.6746001326
277.24600,0.2409830905
277.24650,1.461760721
277.24700,2.377343944
277.24750,3.292927168
277.24800,3.903315983
277.24850,3.598121575
277.24900,2.682538352
277.24950,2.377343944
277.25000,2.98773276
277.25050,2.682538352
277.25100,2.072149537
277.25150,2.072149537
277.25200,3.903315983
277.25250,5.734482429
277.25300,6.344871245
277.25350,6.039676837
277.25400,6.344871245
277.25450,6.95526006
277.25500,6.039676837
277.25550,4.208510391
277.25600,2.98773276
277.25650,3.598121575
277.25700,4.513704798
277.25750,3.598121575
277.25800,1.766955129
277.25850,-0.06421131716
277.25900,-0.9797945403
277.25950,-1.895377763
277.26000,-1.590183356
277.26050,-0.6746001326
277.26100,-1.590183356
277.26150,-4.336933025
277.26200,-7.388877102
277.26250,-8.304460325
277.26300,-7.388877102
277.26350,-6.168099471
277.26400,-4.94732184
277.26450,-2.810960986
277.26500,-0.6746001326
277.26550,-0.06421131716
277.26600,-0.6746001326
277.26650,-0.06421131716
277.26700,3.292927168
277.26750,6.650065652
277.26800,7.565648875
277.26850,5.429288021
277.26900,3.292927168
277.26950,2.682538352
277.27000,3.903315983
277.27050,5.734482429
277.27100,6.95526006
277.27150,6.650065652
277.27200,5.734482429
277.27250,5.124093614
277.27300,6.039676837
277.27350,6.95526006
277.27400,6.344871245
277.27450,4.513704798
277.27500,3.292927168
277.27550,2.98773276
277.27600,2.377343944
277.27650,0.5461774982
277.27700,-0.9797945403
277.27750,-1.590183356
277.27800,-1.284988948
277.27850,-0.9797945403
277.27900,-0.9797945403
277.27950,-0.6746001326
277.28000,-0.6746001326
277.28050,-2.810960986
277.28100,-6.778488287
277.28150,-8.609654733
277.28200,-7.388877102
277.28250,-4.94732184
277.28300,-4.031738617
277.28350,-4.336933025
277.28400,-3.72654421
277.28450,-1.895377763
277.28500,-0.6746001326
277.28550,-0.9797945403
277.28600,-0.9797945403
277.28650,-0.06421131716
277.28700,1.461760721
277.28750,1.461760721
277.28800,0.5461774982
277.28850,-0.06421131716
277.28900,0.2409830905
277.28950,0.8513719059
277.29000,1.461760721
277.29050,1.766955129
277.29100,2.072149537
277.29150,2.682538352
277.29200,3.292927168
277.29250,3.903315983
277.29300,4.513704798
277.29350,4.513704798
277.29400,3.903315983
277.29450,3.598121575
277.29500,4.513704798
277.29550,5.734482429
277.29600,6.039676837
277.29650,4.818899206
277.29700,2.682538352
277.29750,0.8513719059
277.29800,-0.3694057249
277.29850,-1.590183356
277.29900,-3.421349802
277.29950,-4.94732184
277.30000,-5.862905063
277.30050,-5.862905063
277.30100,-5.252516248
277.30150,-4.94732184
277.30200,-5.862905063
277.30250,-8.304460325
277.30300,-10.13562677
277.30350,-10.13562677
277.30400,-8.304460325
277.30450,-6.168099471
277.30500,-4.336933025
277.30550,-2.505766579
277.30600,-1.895377763
277.30650,-3.72654421
277.30700,-7.388877102
277.30750,-8.914849141
277.30800,-7.083682694
277.30850,-4.642127433
277.30900,-4.336933025
277.30950,-4.94732184
277.31000,-3.421349802
277.31050,-0.9797945403
277.31100,-0.06421131716
277.31150,-1.284988948
277.31200,-1.590183356
277.31250,-0.06421131716
277.31300,0.5461774982
277.31350,0.8513719059
277.31400,1.156566314
277.31450,1.766955129
277.31500,2.072149537
277.31550,1.461760721
277.31600,0.5461774982
277.31650,-0.06421131716
277.31700,-0.3694057249
277.31750,-1.590183356
277.31800,-1.895377763
277.31850,-0.9797945403
277.31900,-0.3694057249
277.31950,-1.284988948
277.32000,-2.505766579
277.32050,-3.421349802
277.32100,-4.642127433
277.32150,-5.862905063
277.32200,-7.083682694
277.32250,-8.304460325
277.32300,-9.220043548
277.32350,-8.304460325
277.32400,-5.862905063
277.32450,-2.505766579
277.32500,-0.3694057249
277.32550,0.5461774982
277.32600,1.461760721
277.32650,2.682538352
277.32700,3.292927168
277.32750,2.377343944
277.32800,0.8513719059
277.32850,-0.06421131716
277.32900,-0.06421131716
277.32950,-0.06421131716
277.33000,0.8513719059
277.33050,1.461760721
277.33100,0.5461774982
277.33150,-0.9797945403
277.33200,-1.284988948
277.33250,0.2409830905
277.33300,3.598121575
277.33350,6.039676837
277.33400,7.260454468
277.33450,8.176037691
277.33500,9.396815322
277.33550,10.61759295
277.33600,11.22798177
277.33650,10.92278736
277.33700,9.091620914
277.33750,7.565648875
277.33800,6.95526006
277.33850,7.260454468
277.33900,6.650065652
277.33950,4.818899206
277.34000,2.682538352
277.34050,1.461760721
277.34100,1.461760721
277.34150,0.8513719059
277.34200,-0.6746001326
277.34250,-3.116155394
277.34300,-3.72654421
277.34350,-2.810960986
277.34400,-1.895377763
277.34450,-2.200572171
277.34500,-3.421349802
277.34550,-3.116155394
277.34600,-1.895377763
277.34650,-0.6746001326
277.34700,-0.06421131716
277.34750,-0.06421131716
277.34800,0.8513719059
277.34850,1.461760721
277.34900,1.461760721
277.34950,0.2409830905
277.35000,-0.06421131716
277.35050,0.5461774982
277.35100,2.072149537
277.35150,3.598121575
277.35200,3.903315983
277.35250,3.598121575
277.35300,3.292927168
277.35350,3.292927168
277.35400,2.682538352
277.35450,1.766955129
277.35500,1.766955129
277.35550,3.292927168
277.35600,4.513704798
277.35650,4.513704798
277.35700,3.292927168
277.35750,2.072149537
277.35800,0.8513719059
277.35850,0.2409830905
277.35900,-0.06421131716
277.35950,-0.6746001326
277.36000,-1.590183356
277.36050,-2.200572171
277.36100,-1.590183356
277.36150,-1.284988948
277.36200,-2.200572171
277.36250,-3.72654421
277.36300,-4.94732184
277.36350,-5.557710656
277.36400,-6.473293879
277.36450,-6.778488287
277.36500,-5.862905063
277.36550,-3.421349802
277.36600,-1.895377763
277.36650,-2.200572171
277.36700,-2.505766579
277.36750,-2.505766579
277.36800,-2.505766579
277.36850,-2.505766579
277.36900,-2.200572171
277.36950,-1.284988948
277.37000,-1.284988948
277.37050,-3.116155394
277.37100,-4.031738617
277.37150,-3.116155394
277.37200,-1.895377763
277.37250,-1.590183356
277.37300,-0.6746001326
277.37350,1.461760721
277.37400,3.903315983
277.37450,4.513704798
277.37500,3.598121575
277.37550,3.903315983
277.37600,5.734482429
277.37650,6.344871245
277.37700,4.513704798
277.37750,2.682538352
277.37800,2.377343944
277.37850,2.377343944
277.37900,0.5461774982
277.37950,-2.810960986
277.38000,-6.778488287
277.38050,-9.220043548
277.38100,-8.914849141
277.38150,-7.083682694
277.38200,-5.252516248
277.38250,-4.336933025
277.38300,-3.421349802
277.38350,-3.116155394
277.38400,-4.031738617
277.38450,-5.252516248
277.38500,-5.557710656
277.38550,-3.421349802
277.38600,-1.284988948
277.38650,-0.6746001326
277.38700,-1.590183356
277.38750,-2.200572171
277.38800,-1.590183356
277.38850,-0.6746001326
277.38900,-0.06421131716
277.38950,0.5461774982
277.39000,1.766955129
277.39050,2.072149537
277.39100,2.072149537
277.39150,2.98773276
277.39200,4.208510391
277.39250,3.598121575
277.39300,0.8513719059
277.39350,-1.284988948
277.39400,-0.6746001326
277.39450,2.072149537
277.39500,4.818899206
277.39550,4.818899206
277.39600,2.682538352
277.39650,1.156566314
277.39700,1.156566314
277.39750,2.377343944
277.39800,3.292927168
277.39850,3.598121575
277.39900,3.292927168
277.39950,2.98773276
277.40000,3.292927168
277.40050,3.292927168
277.40100,2.072149537
277.40150,0.5461774982
277.40200,0.2409830905
277.40250,0.8513719059
277.40300,1.461760721
277.40350,1.156566314
277.40400,0.5461774982
277.40450,0.5461774982
277.40500,0.2409830905
277.40550,-0.9797945403
277.40600,-2.505766579
277.40650,-2.505766579
277.40700,-0.9797945403
277.40750,-0.06421131716
277.40800,-0.3694057249
277.40850,-0.9797945403
277.40900,0.2409830905
277.40950,3.292927168
277.41000,5.124093614
277.41050,4.513704798
277.41100,3.292927168
277.41150,3.598121575
277.41200,4.818899206
277.41250,5.734482429
277.41300,6.039676837
277.41350,7.565648875
277.41400,9.702009729
277.41450,11.22798177
277.41500,10.61759295
277.41550,9.396815322
277.41600,8.176037691
277.41650,6.039676837
277.41700,3.598121575
277.41750,2.377343944
277.41800,2.682538352
277.41850,2.98773276
277.41900,1.461760721
277.41950,-0.9797945403
277.42000,-2.505766579
277.42050,-0.9797945403
277.42100,0.5461774982
277.42150,-0.06421131716
277.42200,-2.810960986
277.42250,-4.642127433
277.42300,-4.642127433
277.42350,-4.336933025
277.42400,-4.336933025
277.42450,-4.336933025
277.42500,-3.421349802
277.42550,-1.895377763
277.42600,-1.284988948
277.42650,-1.284988948
277.42700,-1.895377763
277.42750,-2.810960986
277.42800,-4.336933025
277.42850,-4.94732184
277.42900,-4.336933025
277.42950,-2.505766579
277.43000,-0.9797945403
277.43050,-0.3694057249
277.43100,-0.06421131716
277.43150,1.461760721
277.43200,2.682538352
277.43250,3.598121575
277.43300,3.292927168
277.43350,2.377343944
277.43400,1.461760721
277.43450,0.2409830905
277.43500,-0.3694057249
277.43550,-1.284988948
277.43600,-1.590183356
277.43650,-1.284988948
277.43700,-0.6746001326
277.43750,-0.6746001326
277.43800,-1.590183356
277.43850,-2.810960986
277.43900,-3.421349802
277.43950,-3.72654421
277.44000,-4.642127433
277.44050,-6.168099471
277.44100,-7.083682694
277.44150,-6.168099471
277.44200,-4.94732184
277.44250,-4.031738617
277.44300,-3.421349802
277.44350,-4.031738617
277.44400,-5.252516248
277.44450,-5.862905063
277.44500,-4.94732184
277.44550,-4.336933025
277.44600,-5.252516248
277.44650,-6.473293879
277.44700,-5.252516248
277.44750,-2.200572171
277.44800,-0.06421131716
277.44850,0.2409830905
277.44900,-0.06421131716
277.44950,-0.06421131716
277.45000,1.461760721
277.45050,2.98773276
277.45100,3.598121575
277.45150,3.903315983
277.45200,3.903315983
277.45250,3.598121575
277.45300,2.682538352
277.45350,2.072149537
277.45400,2.682538352
277.45450,3.903315983
277.45500,4.818899206
277.45550,5.429288021
277.45600,5.429288021
277.45650,5.429288021
277.45700,4.513704798
277.45750,2.98773276
277.45800,1.156566314
277.45850,-0.06421131716
277.45900,-0.9797945403
277.45950,-2.200572171
277.46000,-3.116155394
277.46050,-3.421349802
277.46100,-3.421349802
277.46150,-4.642127433
277.46200,-6.168099471
277.46250,-6.778488287
277.46300,-5.862905063
277.46350,-5.557710656
277.46400,-6.778488287
277.46450,-7.999265917
277.46500,-8.304460325
277.46550,-7.69407151
277.46600,-6.168099471
277.46650,-3.421349802
277.46700,-0.3694057249
277.46750,-0.06421131716
277.46800,-2.505766579
277.46850,-5.252516248
277.46900,-4.94732184
277.46950,-2.505766579
277.47000,-0.9797945403
277.47050,-0.6746001326
277.47100,-0.3694057249
277.47150,-0.06421131716
277.47200,-0.3694057249
277.47250,-1.284988948
277.47300,-0.9797945403
277.47350,-0.06421131716
277.47400,-0.06421131716
277.47450,-0.3694057249
277.47500,1.461760721
277.47550,5.429288021
277.47600,7.565648875
277.47650,6.650065652
277.47700,5.124093614
277.47750,5.429288021
277.47800,6.039676837
277.47850,5.124093614
277.47900,2.98773276
277.47950,2.072149537
277.48000,1.766955129
277.48050,0.5461774982
277.48100,-0.6746001326
277.48150,-0.9797945403
277.48200,-0.6746001326
277.48250,-1.284988948
277.48300,-2.505766579
277.48350,-2.810960986
277.48400,-2.200572171
277.48450,-2.200572171
277.48500,-2.200572171
277.48550,-1.895377763
277.48600,-0.9797945403
277.48650,-0.9797945403
277.48700,-1.590183356
277.48750,-2.505766579
277.48800,-2.810960986
277.48850,-1.895377763
277.48900,-0.06421131716
277.48950,1.156566314
277.49000,1.156566314
277.49050,0.5461774982
277.49100,0.8513719059
277.49150,2.98773276
277.49200,4.513704798
277.49250,4.208510391
277.49300,2.98773276
277.49350,3.292927168
277.49400,4.513704798
277.49450,5.124093614
277.49500,4.208510391
277.49550,3.292927168
277.49600,1.766955129
277.49650,0.5461774982
277.49700,-0.06421131716
277.49750,0.8513719059
277.49800,0.8513719059
277.49850,-0.6746001326
277.49900,-2.810960986
277.49950,-1.284988948
277.50000,1.766955129
277.50050,2.682538352
277.50100,-0.06421131716
277.50150,-3.116155394
277.50200,-2.810960986
277.50250,-1.590183356
277.50300,-2.810960986
277.50350,-5.252516248
277.50400,-4.642127433
277.50450,-1.895377763
277.50500,-0.6746001326
277.50550,-1.590183356
277.50600,-2.200572171
277.50650,-0.9797945403
277.50700,0.2409830905
277.50750,0.2409830905
277.50800,0.5461774982
277.50850,1.766955129
277.50900,2.682538352
277.50950,2.072149537
277.51000,1.461760721
277.51050,2.682538352
277.51100,3.598121575
277.51150,2.98773276
277.51200,1.461760721
277.51250,2.377343944
277.51300,4.818899206
277.51350,5.429288021
277.51400,4.208510391
277.51450,3.598121575
277.51500,4.818899206
277.51550,6.344871245
277.51600,6.039676837
277.51650,4.818899206
277.51700,3.598121575
277.51750,2.377343944
277.51800,1.156566314
277.51850,0.2409830905
277.51900,-0.06421131716
277.51950,-0.6746001326
277.52000,-2.200572171
277.52050,-3.116155394
277.52100,-2.505766579
277.52150,-2.505766579
277.52200,-4.642127433
277.52250,-6.168099471
277.52300,-4.94732184
277.52350,-2.810960986
277.52400,-2.505766579
277.52450,-3.72654421
277.52500,-3.72654421
277.52550,-1.590183356
277.52600,-0.06421131716
277.52650,-0.06421131716
277.52700,-0.06421131716
277.52750,1.766955129
277.52800,3.598121575
277.52850,3.292927168
277.52900,1.461760721
277.52950,0.5461774982
277.53000,1.156566314
277.53050,2.377343944
277.53100,2.98773276
277.53150,2.98773276
277.53200,2.98773276
277.53250,2.98773276
277.53300,2.98773276
277.53350,3.292927168
277.53400,4.208510391
277.53450,5.734482429
277.53500,5.734482429
277.53550,3.903315983
277.53600,2.072149537
277.53650,0.8513719059
277.53700,0.2409830905
277.53750,-1.895377763
277.53800,-4.642127433
277.53850,-4.642127433
277.53900,-2.505766579
277.53950,-0.6746001326
277.54000,-1.895377763
277.54050,-4.642127433
277.54100,-6.168099471
277.54150,-5.862905063
277.54200,-5.557710656
277.54250,-5.252516248
277.54300,-5.557710656
277.54350,-5.862905063
277.54400,-5.862905063
277.54450,-4.94732184
277.54500,-3.72654421
277.54550,-2.810960986
277.54600,-2.810960986
277.54650,-2.810960986
277.54700,-1.895377763
277.54750,-0.6746001326
277.54800,-0.3694057249
277.54850,-0.9797945403
277.54900,-1.284988948
277.54950,-0.06421131716
277.55000,2.377343944
277.55050,3.598121575
277.55100,2.98773276
277.55150,2.377343944
277.55200,2.682538352
