"type","name","time_units","begin_time","frequency","count","units"
"signal","Ultium EMG-Ultium EMG.EMG 1","s",329.92000,2000,22000,"uV"

"time","value"
329.92000,9.324520394
329.92050,6.882965133
329.92100,5.96738191
329.92150,5.96738191
329.92200,6.577770725
329.92250,7.798548356
329.92300,8.714131579
329.92350,8.714131579
329.92400,6.882965133
329.92450,3.831021056
329.92500,0.4738825711
329.92550,-1.662478283
329.92600,-3.188450321
329.92650,-4.409227952
329.92700,-5.630005583
329.92750,-6.545588806
329.92800,-6.850783214
329.92850,-6.545588806
329.92900,-7.766366437
329.92950,-10.2079217
329.93000,-10.51311611
329.93050,-8.376755252
329.93100,-5.324811175
329.93150,-4.409227952
329.93200,-5.019616768
329.93250,-4.409227952
329.93300,-2.578061506
329.93350,-1.052089467
329.93400,0.4738825711
329.93450,1.694660202
329.93500,1.389465794
329.93550,-0.7468950597
329.93600,-3.493644729
329.93650,-2.883255914
329.93700,0.7790769788
329.93750,6.882965133
329.93800,12.37646447
329.93850,15.42840855
329.93900,14.81801973
329.93950,11.76607566
329.94000,9.324520394
329.94050,8.408937171
329.94100,7.493353948
329.94150,6.272576317
329.94200,5.356993094
329.94250,5.662187502
329.94300,5.356993094
329.94350,3.525826648
329.94400,1.99985461
329.94450,1.694660202
329.94500,1.694660202
329.94550,-0.1365062443
329.94600,-1.662478283
329.94650,-2.578061506
329.94700,-3.188450321
329.94750,-5.019616768
329.94800,-6.850783214
329.94850,-8.071560845
329.94900,-8.071560845
329.94950,-8.376755252
329.95000,-9.292338475
329.95050,-10.2079217
329.95100,-10.81831051
329.95150,-10.2079217
329.95200,-7.461172029
329.95250,-2.883255914
329.95300,1.084271386
329.95350,2.915437833
329.95400,2.915437833
329.95450,2.915437833
329.95500,3.525826648
329.95550,4.136215463
329.95600,5.051798687
329.95650,6.577770725
329.95700,8.103742764
329.95750,8.408937171
329.95800,7.798548356
329.95850,7.798548356
329.95900,9.629714802
329.95950,12.07127006
329.96000,11.76607566
329.96050,9.324520394
329.96100,6.577770725
329.96150,5.96738191
329.96200,5.96738191
329.96250,3.831021056
329.96300,0.7790769788
329.96350,-0.1365062443
329.96400,0.7790769788
329.96450,0.4738825711
329.96500,-2.883255914
329.96550,-7.461172029
329.96600,-10.51311611
329.96650,-12.03908814
329.96700,-12.64947696
329.96750,-12.64947696
329.96800,-12.34428255
329.96850,-12.95467137
329.96900,-13.87025459
329.96950,-13.87025459
329.97000,-12.64947696
329.97050,-11.42869933
329.97100,-11.12350492
329.97150,-9.292338475
329.97200,-5.630005583
329.97250,-1.357283875
329.97300,0.1686881634
329.97350,0.7790769788
329.97400,1.99985461
329.97450,5.051798687
329.97500,7.188159541
329.97550,8.103742764
329.97600,7.188159541
329.97650,5.662187502
329.97700,5.051798687
329.97750,5.96738191
329.97800,7.493353948
329.97850,8.408937171
329.97900,8.408937171
329.97950,8.714131579
329.98000,9.324520394
329.98050,8.408937171
329.98100,6.272576317
329.98150,3.525826648
329.98200,1.694660202
329.98250,0.1686881634
329.98300,-1.357283875
329.98350,-2.272867098
329.98400,-1.967672691
329.98450,-2.578061506
329.98500,-4.104033544
329.98550,-6.545588806
329.98600,-8.071560845
329.98650,-9.292338475
329.98700,-10.51311611
329.98750,-11.12350492
329.98800,-10.51311611
329.98850,-9.902727291
329.98900,-9.597532883
329.98950,-8.987144068
329.99000,-7.766366437
329.99050,-6.545588806
329.99100,-7.766366437
329.99150,-9.292338475
329.99200,-8.68194966
329.99250,-5.324811175
329.99300,-2.272867098
329.99350,-1.052089467
329.99400,-0.441700652
329.99450,0.1686881634
329.99500,1.084271386
329.99550,1.694660202
329.99600,1.694660202
329.99650,2.610243425
329.99700,5.356993094
329.99750,10.24010362
329.99800,15.73360296
329.99850,19.09074144
329.99900,19.70113026
329.99950,17.25957499
330.00000,13.5972421
330.00050,9.629714802
330.00100,5.662187502
330.00150,3.22063224
330.00200,1.99985461
330.00250,1.99985461
330.00300,2.305049017
330.00350,2.305049017
330.00400,2.610243425
330.00450,1.99985461
330.00500,-0.1365062443
330.00550,-2.578061506
330.00600,-4.104033544
330.00650,-5.019616768
330.00700,-5.630005583
330.00750,-6.545588806
330.00800,-7.766366437
330.00850,-9.597532883
330.00900,-12.34428255
330.00950,-14.48064341
330.01000,-13.56506018
330.01050,-10.81831051
330.01100,-8.987144068
330.01150,-8.68194966
330.01200,-8.376755252
330.01250,-6.545588806
330.01300,-4.409227952
330.01350,-3.493644729
330.01400,-3.493644729
330.01450,-2.578061506
330.01500,-0.1365062443
330.01550,3.22063224
330.01600,5.662187502
330.01650,7.798548356
330.01700,10.24010362
330.01750,12.07127006
330.01800,12.07127006
330.01850,10.24010362
330.01900,7.798548356
330.01950,7.188159541
330.02000,7.493353948
330.02050,7.798548356
330.02100,6.882965133
330.02150,5.662187502
330.02200,3.525826648
330.02250,0.7790769788
330.02300,-2.883255914
330.02350,-5.630005583
330.02400,-6.850783214
330.02450,-6.545588806
330.02500,-7.155977621
330.02550,-8.376755252
330.02600,-9.292338475
330.02650,-10.2079217
330.02700,-10.51311611
330.02750,-10.2079217
330.02800,-9.902727291
330.02850,-9.292338475
330.02900,-9.292338475
330.02950,-9.597532883
330.03000,-8.987144068
330.03050,-7.461172029
330.03100,-5.935199991
330.03150,-5.324811175
330.03200,-5.324811175
330.03250,-4.71442236
330.03300,-2.883255914
330.03350,-0.7468950597
330.03400,0.1686881634
330.03450,-0.1365062443
330.03500,-0.1365062443
330.03550,-0.1365062443
330.03600,1.694660202
330.03650,5.051798687
330.03700,8.103742764
330.03750,8.714131579
330.03800,8.103742764
330.03850,7.798548356
330.03900,9.324520394
330.03950,10.54529803
330.04000,9.629714802
330.04050,7.798548356
330.04100,6.577770725
330.04150,6.577770725
330.04200,5.662187502
330.04250,2.305049017
330.04300,-1.052089467
330.04350,-2.272867098
330.04400,-1.357283875
330.04450,-1.967672691
330.04500,-4.409227952
330.04550,-6.545588806
330.04600,-6.850783214
330.04650,-5.935199991
330.04700,-4.71442236
330.04750,-3.188450321
330.04800,-1.662478283
330.04850,-0.7468950597
330.04900,-1.052089467
330.04950,-2.578061506
330.05000,-3.798839137
330.05050,-4.104033544
330.05100,-3.798839137
330.05150,-3.188450321
330.05200,-2.578061506
330.05250,-1.967672691
330.05300,-1.052089467
330.05350,-0.1365062443
330.05400,1.084271386
330.05450,2.305049017
330.05500,4.441409871
330.05550,6.882965133
330.05600,9.019325987
330.05650,10.24010362
330.05700,11.15568684
330.05750,13.29204769
330.05800,16.03879736
330.05850,16.64918618
330.05900,13.5972421
330.05950,9.93490921
330.06000,9.019325987
330.06050,9.93490921
330.06100,9.019325987
330.06150,6.577770725
330.06200,5.356993094
330.06250,6.577770725
330.06300,8.103742764
330.06350,7.188159541
330.06400,4.746604279
330.06450,3.22063224
330.06500,3.22063224
330.06550,2.610243425
330.06600,0.4738825711
330.06650,-1.662478283
330.06700,-3.493644729
330.06750,-5.019616768
330.06800,-6.545588806
330.06850,-7.766366437
330.06900,-8.68194966
330.06950,-9.902727291
330.07000,-11.73389374
330.07050,-12.95467137
330.07100,-12.03908814
330.07150,-9.597532883
330.07200,-7.461172029
330.07250,-5.630005583
330.07300,-3.798839137
330.07350,-1.662478283
330.07400,-0.1365062443
330.07450,0.1686881634
330.07500,0.4738825711
330.07550,1.084271386
330.07600,1.99985461
330.07650,2.610243425
330.07700,3.22063224
330.07750,4.136215463
330.07800,4.746604279
330.07850,5.051798687
330.07900,5.051798687
330.07950,5.356993094
330.08000,5.356993094
330.08050,5.96738191
330.08100,6.882965133
330.08150,7.798548356
330.08200,7.798548356
330.08250,6.882965133
330.08300,5.356993094
330.08350,3.831021056
330.08400,2.610243425
330.08450,1.389465794
330.08500,0.4738825711
330.08550,-0.1365062443
330.08600,-1.662478283
330.08650,-3.493644729
330.08700,-4.71442236
330.08750,-6.240394398
330.08800,-8.071560845
330.08850,-8.987144068
330.08900,-8.68194966
330.08950,-8.071560845
330.09000,-9.292338475
330.09050,-10.51311611
330.09100,-10.81831051
330.09150,-9.597532883
330.09200,-8.071560845
330.09250,-6.545588806
330.09300,-3.188450321
330.09350,0.4738825711
330.09400,2.305049017
330.09450,1.99985461
330.09500,1.99985461
330.09550,2.915437833
330.09600,3.831021056
330.09650,3.22063224
330.09700,2.915437833
330.09750,3.831021056
330.09800,5.051798687
330.09850,5.356993094
330.09900,5.051798687
330.09950,5.051798687
330.10000,5.356993094
330.10050,5.662187502
330.10100,5.662187502
330.10150,5.356993094
330.10200,3.831021056
330.10250,1.99985461
330.10300,0.4738825711
330.10350,-0.1365062443
330.10400,-1.662478283
330.10450,-3.798839137
330.10500,-5.630005583
330.10550,-7.766366437
330.10600,-10.81831051
330.10650,-13.87025459
330.10700,-14.48064341
330.10750,-13.25986578
330.10800,-12.34428255
330.10850,-11.73389374
330.10900,-9.597532883
330.10950,-5.935199991
330.11000,-4.409227952
330.11050,-6.240394398
330.11100,-7.461172029
330.11150,-5.019616768
330.11200,-1.967672691
330.11250,-1.967672691
330.11300,-3.493644729
330.11350,-2.883255914
330.11400,0.1686881634
330.11450,2.915437833
330.11500,3.525826648
330.11550,3.831021056
330.11600,5.356993094
330.11650,7.798548356
330.11700,9.629714802
330.11750,9.93490921
330.11800,9.324520394
330.11850,9.324520394
330.11900,10.24010362
330.11950,11.76607566
330.12000,11.76607566
330.12050,9.629714802
330.12100,6.882965133
330.12150,6.577770725
330.12200,7.188159541
330.12250,5.051798687
330.12300,0.4738825711
330.12350,-3.493644729
330.12400,-5.630005583
330.12450,-7.461172029
330.12500,-9.902727291
330.12550,-11.73389374
330.12600,-11.12350492
330.12650,-9.292338475
330.12700,-9.597532883
330.12750,-11.73389374
330.12800,-13.87025459
330.12850,-13.25986578
330.12900,-12.03908814
330.12950,-12.03908814
330.13000,-13.56506018
330.13050,-13.87025459
330.13100,-12.34428255
330.13150,-9.597532883
330.13200,-7.155977621
330.13250,-5.019616768
330.13300,-2.272867098
330.13350,-0.441700652
330.13400,-0.1365062443
330.13450,-0.1365062443
330.13500,1.084271386
330.13550,3.831021056
330.13600,6.577770725
330.13650,7.493353948
330.13700,6.272576317
330.13750,4.441409871
330.13800,2.915437833
330.13850,2.915437833
330.13900,3.525826648
330.13950,4.136215463
330.14000,4.746604279
330.14050,5.662187502
330.14100,6.577770725
330.14150,6.882965133
330.14200,6.272576317
330.14250,5.96738191
330.14300,6.272576317
330.14350,6.272576317
330.14400,4.441409871
330.14450,2.305049017
330.14500,1.389465794
330.14550,1.084271386
330.14600,-0.1365062443
330.14650,-2.883255914
330.14700,-5.630005583
330.14750,-6.850783214
330.14800,-6.850783214
330.14850,-6.850783214
330.14900,-7.461172029
330.14950,-7.461172029
330.15000,-7.461172029
330.15050,-7.766366437
330.15100,-8.071560845
330.15150,-7.766366437
330.15200,-6.850783214
330.15250,-6.240394398
330.15300,-5.324811175
330.15350,-4.104033544
330.15400,-2.883255914
330.15450,-2.272867098
330.15500,-1.967672691
330.15550,-0.1365062443
330.15600,2.305049017
330.15650,3.831021056
330.15700,2.610243425
330.15750,0.4738825711
330.15800,-0.1365062443
330.15850,1.084271386
330.15900,2.305049017
330.15950,3.22063224
330.16000,4.441409871
330.16050,5.051798687
330.16100,4.441409871
330.16150,3.831021056
330.16200,4.746604279
330.16250,6.272576317
330.16300,6.272576317
330.16350,2.915437833
330.16400,-0.7468950597
330.16450,-1.357283875
330.16500,0.7790769788
330.16550,3.22063224
330.16600,2.915437833
330.16650,1.084271386
330.16700,-0.1365062443
330.16750,-1.662478283
330.16800,-3.798839137
330.16850,-5.630005583
330.16900,-5.630005583
330.16950,-4.104033544
330.17000,-3.798839137
330.17050,-5.019616768
330.17100,-5.935199991
330.17150,-5.630005583
330.17200,-5.324811175
330.17250,-5.019616768
330.17300,-4.104033544
330.17350,-1.662478283
330.17400,0.1686881634
330.17450,1.084271386
330.17500,1.694660202
330.17550,2.610243425
330.17600,3.525826648
330.17650,4.136215463
330.17700,5.051798687
330.17750,7.188159541
330.17800,10.54529803
330.17850,12.98685329
330.17900,12.98685329
330.17950,11.15568684
330.18000,8.714131579
330.18050,7.188159541
330.18100,7.798548356
330.18150,9.019325987
330.18200,8.714131579
330.18250,8.103742764
330.18300,7.798548356
330.18350,7.798548356
330.18400,6.882965133
330.18450,4.746604279
330.18500,2.305049017
330.18550,0.1686881634
330.18600,-1.357283875
330.18650,-3.188450321
330.18700,-5.019616768
330.18750,-6.545588806
330.18800,-6.545588806
330.18850,-5.019616768
330.18900,-2.272867098
330.18950,-0.441700652
330.19000,-0.1365062443
330.19050,-0.1365062443
330.19100,0.7790769788
330.19150,1.694660202
330.19200,2.305049017
330.19250,2.610243425
330.19300,3.22063224
330.19350,3.831021056
330.19400,3.525826648
330.19450,3.525826648
330.19500,5.051798687
330.19550,7.493353948
330.19600,9.019325987
330.19650,9.324520394
330.19700,9.93490921
330.19750,10.24010362
330.19800,10.54529803
330.19850,10.85049243
330.19900,10.24010362
330.19950,8.103742764
330.20000,4.746604279
330.20050,3.22063224
330.20100,5.051798687
330.20150,6.882965133
330.20200,5.96738191
330.20250,3.22063224
330.20300,0.7790769788
330.20350,-0.7468950597
330.20400,-3.188450321
330.20450,-5.019616768
330.20500,-4.409227952
330.20550,-2.578061506
330.20600,-2.578061506
330.20650,-5.019616768
330.20700,-7.155977621
330.20750,-8.987144068
330.20800,-10.51311611
330.20850,-11.73389374
330.20900,-11.12350492
330.20950,-9.597532883
330.21000,-8.68194966
330.21050,-8.376755252
330.21100,-7.461172029
330.21150,-6.545588806
330.21200,-7.155977621
330.21250,-8.071560845
330.21300,-7.461172029
330.21350,-4.409227952
330.21400,-1.052089467
330.21450,0.7790769788
330.21500,1.389465794
330.21550,1.99985461
330.21600,2.610243425
330.21650,2.915437833
330.21700,3.831021056
330.21750,5.051798687
330.21800,5.96738191
330.21850,7.188159541
330.21900,7.798548356
330.21950,8.103742764
330.22000,7.188159541
330.22050,5.356993094
330.22100,2.915437833
330.22150,1.084271386
330.22200,-0.1365062443
330.22250,-1.052089467
330.22300,-1.357283875
330.22350,-2.578061506
330.22400,-5.324811175
330.22450,-8.376755252
330.22500,-9.292338475
330.22550,-8.68194966
330.22600,-7.766366437
330.22650,-6.240394398
330.22700,-3.798839137
330.22750,-0.7468950597
330.22800,0.1686881634
330.22850,-0.7468950597
330.22900,-3.493644729
330.22950,-5.630005583
330.23000,-5.630005583
330.23050,-4.409227952
330.23100,-3.798839137
330.23150,-4.104033544
330.23200,-5.019616768
330.23250,-4.71442236
330.23300,-3.798839137
330.23350,-3.493644729
330.23400,-3.188450321
330.23450,-2.272867098
330.23500,-0.7468950597
330.23550,0.1686881634
330.23600,0.7790769788
330.23650,2.305049017
330.23700,4.441409871
330.23750,5.96738191
330.23800,5.662187502
330.23850,4.441409871
330.23900,4.441409871
330.23950,4.746604279
330.24000,4.136215463
330.24050,3.22063224
330.24100,2.915437833
330.24150,2.915437833
330.24200,2.610243425
330.24250,1.694660202
330.24300,0.7790769788
330.24350,0.7790769788
330.24400,0.7790769788
330.24450,0.7790769788
330.24500,0.1686881634
330.24550,-1.357283875
330.24600,-3.493644729
330.24650,-5.324811175
330.24700,-5.935199991
330.24750,-6.240394398
330.24800,-6.545588806
330.24850,-6.240394398
330.24900,-5.935199991
330.24950,-6.240394398
330.25000,-6.850783214
330.25050,-6.545588806
330.25100,-5.324811175
330.25150,-3.798839137
330.25200,-2.883255914
330.25250,-1.662478283
330.25300,-0.441700652
330.25350,0.7790769788
330.25400,1.694660202
330.25450,3.22063224
330.25500,4.746604279
330.25550,5.051798687
330.25600,4.441409871
330.25650,4.441409871
330.25700,5.356993094
330.25750,5.96738191
330.25800,6.272576317
330.25850,7.188159541
330.25900,7.188159541
330.25950,5.662187502
330.26000,3.22063224
330.26050,2.610243425
330.26100,3.831021056
330.26150,4.746604279
330.26200,3.22063224
330.26250,0.4738825711
330.26300,-0.7468950597
330.26350,-2.272867098
330.26400,-3.493644729
330.26450,-4.71442236
330.26500,-4.71442236
330.26550,-5.324811175
330.26600,-7.461172029
330.26650,-10.2079217
330.26700,-11.12350492
330.26750,-10.51311611
330.26800,-9.597532883
330.26850,-10.2079217
330.26900,-11.42869933
330.26950,-11.73389374
330.27000,-11.12350492
330.27050,-10.2079217
330.27100,-9.597532883
330.27150,-8.987144068
330.27200,-7.461172029
330.27250,-4.71442236
330.27300,-3.188450321
330.27350,-3.798839137
330.27400,-3.798839137
330.27450,-0.7468950597
330.27500,2.610243425
330.27550,3.831021056
330.27600,2.915437833
330.27650,3.525826648
330.27700,6.272576317
330.27750,8.714131579
330.27800,9.019325987
330.27850,8.408937171
330.27900,9.019325987
330.27950,9.93490921
330.28000,9.93490921
330.28050,9.019325987
330.28100,7.188159541
330.28150,5.96738191
330.28200,5.356993094
330.28250,4.441409871
330.28300,2.305049017
330.28350,-0.1365062443
330.28400,-1.662478283
330.28450,-1.662478283
330.28500,-1.662478283
330.28550,-2.883255914
330.28600,-4.409227952
330.28650,-5.019616768
330.28700,-5.630005583
330.28750,-6.850783214
330.28800,-8.376755252
330.28850,-8.68194966
330.28900,-8.376755252
330.28950,-8.68194966
330.29000,-9.902727291
330.29050,-9.597532883
330.29100,-7.766366437
330.29150,-5.935199991
330.29200,-5.324811175
330.29250,-5.019616768
330.29300,-3.798839137
330.29350,-2.272867098
330.29400,-1.357283875
330.29450,-0.7468950597
330.29500,0.4738825711
330.29550,4.136215463
330.29600,8.103742764
330.29650,10.54529803
330.29700,10.85049243
330.29750,10.54529803
330.29800,10.54529803
330.29850,10.54529803
330.29900,8.714131579
330.29950,6.272576317
330.30000,5.356993094
330.30050,6.272576317
330.30100,7.493353948
330.30150,7.493353948
330.30200,6.882965133
330.30250,6.882965133
330.30300,6.882965133
330.30350,5.96738191
330.30400,3.22063224
330.30450,-0.7468950597
330.30500,-5.019616768
330.30550,-7.155977621
330.30600,-6.850783214
330.30650,-5.630005583
330.30700,-5.324811175
330.30750,-6.545588806
330.30800,-7.766366437
330.30850,-8.071560845
330.30900,-8.071560845
330.30950,-8.68194966
330.31000,-9.292338475
330.31050,-9.597532883
330.31100,-9.902727291
330.31150,-9.902727291
330.31200,-8.68194966
330.31250,-6.545588806
330.31300,-5.019616768
330.31350,-5.324811175
330.31400,-5.935199991
330.31450,-4.409227952
330.31500,-0.441700652
330.31550,3.525826648
330.31600,7.188159541
330.31650,11.15568684
330.31700,15.73360296
330.31750,18.78554703
330.31800,18.78554703
330.31850,16.95438059
330.31900,15.73360296
330.31950,15.73360296
330.32000,14.51282533
330.32050,12.07127006
330.32100,10.54529803
330.32150,11.46088125
330.32200,12.98685329
330.32250,12.37646447
330.32300,8.714131579
330.32350,5.051798687
330.32400,2.305049017
330.32450,0.4738825711
330.32500,-0.1365062443
330.32550,-0.441700652
330.32600,-1.967672691
330.32650,-4.104033544
330.32700,-6.850783214
330.32750,-8.376755252
330.32800,-9.597532883
330.32850,-11.12350492
330.32900,-11.42869933
330.32950,-9.902727291
330.33000,-7.766366437
330.33050,-6.850783214
330.33100,-6.850783214
330.33150,-5.935199991
330.33200,-4.409227952
330.33250,-4.104033544
330.33300,-4.104033544
330.33350,-2.272867098
330.33400,1.084271386
330.33450,3.22063224
330.33500,3.525826648
330.33550,3.831021056
330.33600,5.051798687
330.33650,6.577770725
330.33700,6.882965133
330.33750,7.188159541
330.33800,7.493353948
330.33850,7.493353948
330.33900,7.188159541
330.33950,8.103742764
330.34000,9.324520394
330.34050,8.714131579
330.34100,5.662187502
330.34150,2.915437833
330.34200,2.610243425
330.34250,3.831021056
330.34300,3.22063224
330.34350,0.7790769788
330.34400,-1.662478283
330.34450,-3.493644729
330.34500,-5.019616768
330.34550,-5.935199991
330.34600,-5.935199991
330.34650,-5.019616768
330.34700,-4.71442236
330.34750,-5.324811175
330.34800,-5.935199991
330.34850,-7.155977621
330.34900,-8.376755252
330.34950,-9.597532883
330.35000,-8.987144068
330.35050,-7.461172029
330.35100,-6.545588806
330.35150,-6.850783214
330.35200,-6.240394398
330.35250,-4.409227952
330.35300,-2.578061506
330.35350,-1.662478283
330.35400,-0.1365062443
330.35450,1.694660202
330.35500,3.525826648
330.35550,3.525826648
330.35600,3.525826648
330.35650,4.746604279
330.35700,5.96738191
330.35750,6.272576317
330.35800,6.577770725
330.35850,7.798548356
330.35900,8.714131579
330.35950,8.408937171
330.36000,7.798548356
330.36050,6.882965133
330.36100,5.96738191
330.36150,4.136215463
330.36200,2.305049017
330.36250,1.694660202
330.36300,1.389465794
330.36350,1.694660202
330.36400,2.610243425
330.36450,3.831021056
330.36500,3.22063224
330.36550,0.1686881634
330.36600,-3.188450321
330.36650,-5.935199991
330.36700,-7.766366437
330.36750,-9.597532883
330.36800,-9.292338475
330.36850,-6.850783214
330.36900,-4.409227952
330.36950,-4.409227952
330.37000,-5.935199991
330.37050,-6.240394398
330.37100,-5.630005583
330.37150,-5.324811175
330.37200,-5.630005583
330.37250,-5.019616768
330.37300,-4.71442236
330.37350,-5.324811175
330.37400,-6.240394398
330.37450,-4.409227952
330.37500,-1.357283875
330.37550,-0.441700652
330.37600,-1.357283875
330.37650,-1.967672691
330.37700,-0.1365062443
330.37750,1.694660202
330.37800,2.610243425
330.37850,3.22063224
330.37900,4.441409871
330.37950,5.051798687
330.38000,4.441409871
330.38050,4.136215463
330.38100,4.136215463
330.38150,3.525826648
330.38200,1.99985461
330.38250,0.1686881634
330.38300,-1.357283875
330.38350,-3.493644729
330.38400,-5.019616768
330.38450,-5.019616768
330.38500,-4.104033544
330.38550,-4.71442236
330.38600,-6.850783214
330.38650,-8.987144068
330.38700,-9.292338475
330.38750,-9.597532883
330.38800,-11.12350492
330.38850,-12.95467137
330.38900,-13.56506018
330.38950,-13.25986578
330.39000,-12.03908814
330.39050,-10.51311611
330.39100,-8.987144068
330.39150,-8.68194966
330.39200,-8.987144068
330.39250,-7.766366437
330.39300,-4.71442236
330.39350,-1.967672691
330.39400,-0.7468950597
330.39450,-0.441700652
330.39500,0.7790769788
330.39550,2.915437833
330.39600,5.051798687
330.39650,7.188159541
330.39700,9.93490921
330.39750,11.76607566
330.39800,12.37646447
330.39850,11.76607566
330.39900,11.46088125
330.39950,11.15568684
330.40000,9.629714802
330.40050,7.493353948
330.40100,5.051798687
330.40150,3.831021056
330.40200,2.915437833
330.40250,2.305049017
330.40300,1.99985461
330.40350,1.694660202
330.40400,0.1686881634
330.40450,-1.662478283
330.40500,-3.493644729
330.40550,-4.104033544
330.40600,-4.409227952
330.40650,-5.630005583
330.40700,-7.461172029
330.40750,-8.376755252
330.40800,-8.071560845
330.40850,-7.461172029
330.40900,-7.461172029
330.40950,-8.071560845
330.41000,-7.461172029
330.41050,-5.935199991
330.41100,-4.71442236
330.41150,-5.019616768
330.41200,-5.324811175
330.41250,-3.798839137
330.41300,-1.357283875
330.41350,0.1686881634
330.41400,1.694660202
330.41450,3.525826648
330.41500,5.356993094
330.41550,7.188159541
330.41600,8.408937171
330.41650,8.714131579
330.41700,8.714131579
330.41750,8.714131579
330.41800,9.629714802
330.41850,11.15568684
330.41900,12.37646447
330.41950,12.68165888
330.42000,12.07127006
330.42050,10.85049243
330.42100,9.324520394
330.42150,7.798548356
330.42200,6.882965133
330.42250,6.882965133
330.42300,5.96738191
330.42350,3.22063224
330.42400,-0.1365062443
330.42450,-3.798839137
330.42500,-5.935199991
330.42550,-6.545588806
330.42600,-5.630005583
330.42650,-4.409227952
330.42700,-5.019616768
330.42750,-7.766366437
330.42800,-10.81831051
330.42850,-12.03908814
330.42900,-11.42869933
330.42950,-9.292338475
330.43000,-7.155977621
330.43050,-5.324811175
330.43100,-4.409227952
330.43150,-3.798839137
330.43200,-2.883255914
330.43250,-1.662478283
330.43300,-0.441700652
330.43350,-0.1365062443
330.43400,-0.441700652
330.43450,-0.441700652
330.43500,0.7790769788
330.43550,3.22063224
330.43600,5.051798687
330.43650,5.96738191
330.43700,6.272576317
330.43750,6.882965133
330.43800,7.493353948
330.43850,7.798548356
330.43900,7.798548356
330.43950,8.103742764
330.44000,7.798548356
330.44050,6.882965133
330.44100,6.272576317
330.44150,6.272576317
330.44200,6.882965133
330.44250,6.882965133
330.44300,5.96738191
330.44350,4.136215463
330.44400,2.610243425
330.44450,1.084271386
330.44500,-0.1365062443
330.44550,-1.967672691
330.44600,-3.493644729
330.44650,-5.019616768
330.44700,-7.155977621
330.44750,-9.292338475
330.44800,-10.51311611
330.44850,-9.597532883
330.44900,-8.071560845
330.44950,-7.461172029
330.45000,-7.766366437
330.45050,-8.071560845
330.45100,-6.850783214
330.45150,-5.019616768
330.45200,-3.798839137
330.45250,-1.967672691
330.45300,-0.1365062443
330.45350,1.694660202
330.45400,2.305049017
330.45450,1.99985461
330.45500,2.915437833
330.45550,4.441409871
330.45600,5.356993094
330.45650,5.662187502
330.45700,5.96738191
330.45750,7.188159541
330.45800,8.714131579
330.45850,9.019325987
330.45900,8.408937171
330.45950,8.103742764
330.46000,8.714131579
330.46050,8.408937171
330.46100,6.577770725
330.46150,3.525826648
330.46200,2.305049017
330.46250,3.22063224
330.46300,3.525826648
330.46350,1.694660202
330.46400,-0.441700652
330.46450,-1.052089467
330.46500,-0.1365062443
330.46550,-0.1365062443
330.46600,-0.7468950597
330.46650,-1.967672691
330.46700,-2.578061506
330.46750,-4.104033544
330.46800,-6.545588806
330.46850,-8.071560845
330.46900,-7.766366437
330.46950,-6.850783214
330.47000,-6.240394398
330.47050,-5.630005583
330.47100,-4.104033544
330.47150,-3.493644729
330.47200,-3.188450321
330.47250,-1.967672691
330.47300,0.1686881634
330.47350,1.389465794
330.47400,0.7790769788
330.47450,0.1686881634
330.47500,1.694660202
330.47550,3.831021056
330.47600,5.356993094
330.47650,5.662187502
330.47700,5.356993094
330.47750,5.051798687
330.47800,4.136215463
330.47850,3.525826648
330.47900,3.831021056
330.47950,4.136215463
330.48000,4.136215463
330.48050,3.831021056
330.48100,3.831021056
330.48150,3.22063224
330.48200,2.610243425
330.48250,2.610243425
330.48300,2.305049017
330.48350,1.084271386
330.48400,-0.1365062443
330.48450,-0.7468950597
330.48500,-1.052089467
330.48550,-2.578061506
330.48600,-5.630005583
330.48650,-7.155977621
330.48700,-7.155977621
330.48750,-6.850783214
330.48800,-7.766366437
330.48850,-8.376755252
330.48900,-8.376755252
330.48950,-8.376755252
330.49000,-8.68194966
330.49050,-8.376755252
330.49100,-7.766366437
330.49150,-8.071560845
330.49200,-8.68194966
330.49250,-7.461172029
330.49300,-4.104033544
330.49350,-0.7468950597
330.49400,0.1686881634
330.49450,0.4738825711
330.49500,1.99985461
330.49550,4.441409871
330.49600,5.662187502
330.49650,5.96738191
330.49700,5.96738191
330.49750,6.577770725
330.49800,8.103742764
330.49850,9.629714802
330.49900,10.85049243
330.49950,10.54529803
330.50000,9.324520394
330.50050,8.103742764
330.50100,8.103742764
330.50150,8.103742764
330.50200,6.272576317
330.50250,3.22063224
330.50300,1.084271386
330.50350,0.7790769788
330.50400,0.1686881634
330.50450,-1.662478283
330.50500,-5.019616768
330.50550,-6.240394398
330.50600,-5.324811175
330.50650,-5.019616768
330.50700,-7.461172029
330.50750,-10.51311611
330.50800,-11.42869933
330.50850,-9.902727291
330.50900,-9.597532883
330.50950,-11.12350492
330.51000,-12.03908814
330.51050,-10.51311611
330.51100,-8.071560845
330.51150,-7.461172029
330.51200,-7.766366437
330.51250,-6.850783214
330.51300,-4.104033544
330.51350,-1.357283875
330.51400,-0.1365062443
330.51450,1.389465794
330.51500,3.525826648
330.51550,5.356993094
330.51600,5.356993094
330.51650,5.356993094
330.51700,6.272576317
330.51750,8.103742764
330.51800,8.103742764
330.51850,7.493353948
330.51900,7.798548356
330.51950,9.324520394
330.52000,9.629714802
330.52050,7.798548356
330.52100,5.662187502
330.52150,4.746604279
330.52200,4.746604279
330.52250,4.746604279
330.52300,4.136215463
330.52350,3.525826648
330.52400,1.99985461
330.52450,0.1686881634
330.52500,-1.357283875
330.52550,-2.578061506
330.52600,-4.409227952
330.52650,-5.935199991
330.52700,-5.935199991
330.52750,-5.935199991
330.52800,-7.766366437
330.52850,-10.81831051
330.52900,-11.42869933
330.52950,-8.68194966
330.53000,-5.935199991
330.53050,-5.630005583
330.53100,-6.545588806
330.53150,-6.545588806
330.53200,-4.71442236
330.53250,-3.188450321
330.53300,-1.967672691
330.53350,-1.052089467
330.53400,-0.7468950597
330.53450,-1.357283875
330.53500,-1.967672691
330.53550,-1.357283875
330.53600,0.1686881634
330.53650,2.305049017
330.53700,4.746604279
330.53750,6.882965133
330.53800,8.103742764
330.53850,7.798548356
330.53900,7.493353948
330.53950,8.103742764
330.54000,9.019325987
330.54050,8.714131579
330.54100,7.798548356
330.54150,6.272576317
330.54200,5.051798687
330.54250,4.441409871
330.54300,4.441409871
330.54350,4.441409871
330.54400,2.915437833
330.54450,0.4738825711
330.54500,-0.441700652
330.54550,-0.441700652
330.54600,-0.441700652
330.54650,-2.272867098
330.54700,-5.324811175
330.54750,-7.461172029
330.54800,-8.071560845
330.54850,-8.376755252
330.54900,-9.597532883
330.54950,-10.81831051
330.55000,-11.12350492
330.55050,-10.2079217
330.55100,-9.292338475
330.55150,-8.376755252
330.55200,-7.766366437
330.55250,-6.545588806
330.55300,-5.019616768
330.55350,-3.493644729
330.55400,-2.272867098
330.55450,-1.052089467
330.55500,0.1686881634
330.55550,1.389465794
330.55600,1.389465794
330.55650,1.694660202
330.55700,2.915437833
330.55750,4.746604279
330.55800,5.356993094
330.55850,4.441409871
330.55900,3.831021056
330.55950,5.356993094
330.56000,7.188159541
330.56050,7.493353948
330.56100,5.96738191
330.56150,4.441409871
330.56200,3.831021056
330.56250,3.22063224
330.56300,1.694660202
330.56350,0.4738825711
330.56400,0.1686881634
330.56450,-0.1365062443
330.56500,-0.7468950597
330.56550,-2.883255914
330.56600,-4.104033544
330.56650,-4.409227952
330.56700,-4.409227952
330.56750,-4.71442236
330.56800,-5.935199991
330.56850,-7.766366437
330.56900,-8.68194966
330.56950,-8.071560845
330.57000,-7.155977621
330.57050,-7.461172029
330.57100,-7.766366437
330.57150,-7.461172029
330.57200,-5.630005583
330.57250,-4.104033544
330.57300,-3.798839137
330.57350,-3.493644729
330.57400,-1.967672691
330.57450,-0.1365062443
330.57500,0.4738825711
330.57550,1.084271386
330.57600,2.610243425
330.57650,4.441409871
330.57700,5.051798687
330.57750,5.356993094
330.57800,5.662187502
330.57850,5.96738191
330.57900,5.96738191
330.57950,5.356993094
330.58000,5.051798687
330.58050,5.051798687
330.58100,4.746604279
330.58150,3.22063224
330.58200,1.694660202
330.58250,0.1686881634
330.58300,-0.1365062443
330.58350,-0.7468950597
330.58400,-1.052089467
330.58450,-1.967672691
330.58500,-3.798839137
330.58550,-5.935199991
330.58600,-6.850783214
330.58650,-6.850783214
330.58700,-6.545588806
330.58750,-5.935199991
330.58800,-4.71442236
330.58850,-3.493644729
330.58900,-3.798839137
330.58950,-5.019616768
330.59000,-5.324811175
330.59050,-4.71442236
330.59100,-4.71442236
330.59150,-5.019616768
330.59200,-4.104033544
330.59250,-0.441700652
330.59300,2.915437833
330.59350,3.525826648
330.59400,2.610243425
330.59450,2.610243425
330.59500,3.831021056
330.59550,4.441409871
330.59600,4.746604279
330.59650,5.356993094
330.59700,6.272576317
330.59750,6.272576317
330.59800,5.356993094
330.59850,5.051798687
330.59900,5.662187502
330.59950,6.272576317
330.60000,6.882965133
330.60050,6.882965133
330.60100,5.662187502
330.60150,4.136215463
330.60200,3.525826648
330.60250,3.831021056
330.60300,3.831021056
330.60350,1.99985461
330.60400,-0.1365062443
330.60450,-1.662478283
330.60500,-3.493644729
330.60550,-5.019616768
330.60600,-3.188450321
330.60650,1.99985461
330.60700,6.577770725
330.60750,4.746604279
330.60800,-1.357283875
330.60850,-6.545588806
330.60900,-8.376755252
330.60950,-9.597532883
330.61000,-12.03908814
330.61050,-12.95467137
330.61100,-9.902727291
330.61150,-5.324811175
330.61200,-1.967672691
330.61250,-0.7468950597
330.61300,-0.1365062443
330.61350,0.7790769788
330.61400,1.694660202
330.61450,2.915437833
330.61500,5.051798687
330.61550,6.882965133
330.61600,7.798548356
330.61650,7.188159541
330.61700,5.96738191
330.61750,5.051798687
330.61800,5.051798687
330.61850,5.96738191
330.61900,6.577770725
330.61950,5.662187502
330.62000,3.525826648
330.62050,2.610243425
330.62100,4.136215463
330.62150,7.188159541
330.62200,9.629714802
330.62250,10.24010362
330.62300,9.324520394
330.62350,7.798548356
330.62400,5.356993094
330.62450,1.99985461
330.62500,-0.1365062443
330.62550,-1.357283875
330.62600,-1.357283875
330.62650,-1.662478283
330.62700,-3.188450321
330.62750,-5.324811175
330.62800,-7.766366437
330.62850,-9.292338475
330.62900,-9.902727291
330.62950,-10.2079217
330.63000,-10.2079217
330.63050,-9.597532883
330.63100,-8.68194966
330.63150,-7.766366437
330.63200,-7.461172029
330.63250,-6.545588806
330.63300,-5.324811175
330.63350,-4.409227952
330.63400,-4.409227952
330.63450,-4.409227952
330.63500,-2.578061506
330.63550,0.7790769788
330.63600,3.831021056
330.63650,5.662187502
330.63700,8.103742764
330.63750,11.15568684
330.63800,12.98685329
330.63850,12.37646447
330.63900,10.54529803
330.63950,10.24010362
330.64000,10.85049243
330.64050,10.54529803
330.64100,8.408937171
330.64150,5.96738191
330.64200,4.441409871
330.64250,3.525826648
330.64300,2.305049017
330.64350,1.084271386
330.64400,-0.1365062443
330.64450,-1.662478283
330.64500,-3.188450321
330.64550,-4.409227952
330.64600,-5.324811175
330.64650,-6.240394398
330.64700,-7.461172029
330.64750,-8.376755252
330.64800,-8.68194966
330.64850,-8.987144068
330.64900,-9.292338475
330.64950,-9.292338475
330.65000,-8.376755252
330.65050,-7.155977621
330.65100,-5.630005583
330.65150,-4.104033544
330.65200,-2.272867098
330.65250,-1.052089467
330.65300,-0.1365062443
330.65350,0.7790769788
330.65400,1.99985461
330.65450,2.610243425
330.65500,2.305049017
330.65550,1.694660202
330.65600,1.99985461
330.65650,3.525826648
330.65700,5.051798687
330.65750,5.96738191
330.65800,5.662187502
330.65850,4.746604279
330.65900,3.831021056
330.65950,3.831021056
330.66000,4.746604279
330.66050,5.051798687
330.66100,4.136215463
330.66150,2.915437833
330.66200,1.99985461
330.66250,1.694660202
330.66300,0.4738825711
330.66350,-1.662478283
330.66400,-4.409227952
330.66450,-6.545588806
330.66500,-7.461172029
330.66550,-7.766366437
330.66600,-8.68194966
330.66650,-9.597532883
330.66700,-10.2079217
330.66750,-10.51311611
330.66800,-11.73389374
330.66850,-13.25986578
330.66900,-13.87025459
330.66950,-12.95467137
330.67000,-12.34428255
330.67050,-12.34428255
330.67100,-12.34428255
330.67150,-10.81831051
330.67200,-8.376755252
330.67250,-6.545588806
330.67300,-4.71442236
330.67350,-1.662478283
330.67400,0.4738825711
330.67450,1.084271386
330.67500,0.7790769788
330.67550,1.99985461
330.67600,5.662187502
330.67650,8.103742764
330.67700,8.103742764
330.67750,8.103742764
330.67800,9.324520394
330.67850,11.46088125
330.67900,11.76607566
330.67950,10.24010362
330.68000,8.103742764
330.68050,6.882965133
330.68100,6.272576317
330.68150,5.96738191
330.68200,5.662187502
330.68250,5.051798687
330.68300,3.831021056
330.68350,2.610243425
330.68400,1.694660202
330.68450,1.084271386
330.68500,0.1686881634
330.68550,-1.052089467
330.68600,-3.493644729
330.68650,-5.935199991
330.68700,-7.461172029
330.68750,-7.461172029
330.68800,-6.240394398
330.68850,-4.71442236
330.68900,-3.493644729
330.68950,-2.883255914
330.69000,-2.883255914
330.69050,-2.578061506
330.69100,-1.357283875
330.69150,0.4738825711
330.69200,1.99985461
330.69250,1.694660202
330.69300,1.084271386
330.69350,2.305049017
330.69400,4.441409871
330.69450,5.96738191
330.69500,6.577770725
330.69550,6.882965133
330.69600,7.493353948
330.69650,8.103742764
330.69700,8.408937171
330.69750,9.019325987
330.69800,9.93490921
330.69850,10.24010362
330.69900,9.019325987
330.69950,7.798548356
330.70000,6.577770725
330.70050,4.746604279
330.70100,2.610243425
330.70150,1.694660202
330.70200,1.99985461
330.70250,1.694660202
330.70300,-0.441700652
330.70350,-2.883255914
330.70400,-4.104033544
330.70450,-3.493644729
330.70500,-3.493644729
330.70550,-4.409227952
330.70600,-5.019616768
330.70650,-5.324811175
330.70700,-5.630005583
330.70750,-5.630005583
330.70800,-5.630005583
330.70850,-5.935199991
330.70900,-7.155977621
330.70950,-8.987144068
330.71000,-9.597532883
330.71050,-9.292338475
330.71100,-7.766366437
330.71150,-5.935199991
330.71200,-3.188450321
330.71250,-1.052089467
330.71300,0.1686881634
330.71350,1.99985461
330.71400,4.746604279
330.71450,6.272576317
330.71500,5.96738191
330.71550,5.96738191
330.71600,8.103742764
330.71650,11.15568684
330.71700,11.15568684
330.71750,8.714131579
330.71800,6.882965133
330.71850,6.882965133
330.71900,6.272576317
330.71950,4.441409871
330.72000,3.525826648
330.72050,3.525826648
330.72100,3.831021056
330.72150,2.610243425
330.72200,0.4738825711
330.72250,-1.662478283
330.72300,-5.630005583
330.72350,-8.987144068
330.72400,-8.376755252
330.72450,-3.493644729
330.72500,0.4738825711
330.72550,1.084271386
330.72600,-0.1365062443
330.72650,-1.357283875
330.72700,-3.798839137
330.72750,-7.155977621
330.72800,-9.902727291
330.72850,-10.51311611
330.72900,-9.902727291
330.72950,-10.2079217
330.73000,-10.2079217
330.73050,-8.68194966
330.73100,-6.850783214
330.73150,-6.240394398
330.73200,-6.545588806
330.73250,-5.935199991
330.73300,-4.104033544
330.73350,-2.883255914
330.73400,-2.883255914
330.73450,-2.578061506
330.73500,-0.441700652
330.73550,2.610243425
330.73600,5.662187502
330.73650,7.188159541
330.73700,6.577770725
330.73750,5.96738191
330.73800,5.96738191
330.73850,5.96738191
330.73900,5.662187502
330.73950,5.356993094
330.74000,5.96738191
330.74050,6.272576317
330.74100,5.96738191
330.74150,5.662187502
330.74200,7.188159541
330.74250,8.714131579
330.74300,8.714131579
330.74350,6.882965133
330.74400,5.051798687
330.74450,3.831021056
330.74500,2.610243425
330.74550,1.389465794
330.74600,0.1686881634
330.74650,-0.7468950597
330.74700,-3.493644729
330.74750,-5.935199991
330.74800,-6.545588806
330.74850,-5.630005583
330.74900,-5.324811175
330.74950,-6.545588806
330.75000,-7.155977621
330.75050,-6.240394398
330.75100,-5.630005583
330.75150,-6.545588806
330.75200,-6.850783214
330.75250,-5.324811175
330.75300,-1.967672691
330.75350,0.1686881634
330.75400,1.389465794
330.75450,1.99985461
330.75500,2.305049017
330.75550,2.305049017
330.75600,2.610243425
330.75650,3.22063224
330.75700,4.746604279
330.75750,6.577770725
330.75800,8.103742764
330.75850,8.714131579
330.75900,8.408937171
330.75950,8.408937171
330.76000,9.324520394
330.76050,9.629714802
330.76100,8.714131579
330.76150,6.882965133
330.76200,5.356993094
330.76250,4.136215463
330.76300,2.305049017
330.76350,0.7790769788
330.76400,-0.1365062443
330.76450,-1.357283875
330.76500,-2.578061506
330.76550,-5.019616768
330.76600,-7.461172029
330.76650,-8.987144068
330.76700,-10.2079217
330.76750,-11.42869933
330.76800,-12.95467137
330.76850,-14.48064341
330.76900,-14.78583781
330.76950,-14.175449
330.77000,-13.56506018
330.77050,-13.25986578
330.77100,-11.42869933
330.77150,-6.545588806
330.77200,-0.7468950597
330.77250,2.305049017
330.77300,3.525826648
330.77350,4.136215463
330.77400,5.051798687
330.77450,6.272576317
330.77500,7.493353948
330.77550,9.629714802
330.77600,11.15568684
330.77650,10.24010362
330.77700,9.019325987
330.77750,9.93490921
330.77800,12.37646447
330.77850,12.98685329
330.77900,10.85049243
330.77950,9.324520394
330.78000,9.019325987
330.78050,8.714131579
330.78100,6.577770725
330.78150,4.441409871
330.78200,3.22063224
330.78250,2.305049017
330.78300,0.1686881634
330.78350,-1.357283875
330.78400,-2.272867098
330.78450,-2.578061506
330.78500,-4.104033544
330.78550,-5.935199991
330.78600,-6.240394398
330.78650,-6.240394398
330.78700,-6.850783214
330.78750,-8.68194966
330.78800,-9.597532883
330.78850,-10.2079217
330.78900,-10.81831051
330.78950,-11.42869933
330.79000,-11.42869933
330.79050,-10.2079217
330.79100,-9.292338475
330.79150,-8.987144068
330.79200,-8.376755252
330.79250,-7.155977621
330.79300,-5.935199991
330.79350,-5.019616768
330.79400,-3.798839137
330.79450,-1.967672691
330.79500,-0.1365062443
330.79550,1.389465794
330.79600,1.99985461
330.79650,1.99985461
330.79700,2.305049017
330.79750,2.610243425
330.79800,2.610243425
330.79850,2.610243425
330.79900,2.610243425
330.79950,3.22063224
330.80000,3.831021056
330.80050,3.831021056
330.80100,3.525826648
330.80150,2.610243425
330.80200,1.389465794
330.80250,1.084271386
330.80300,2.610243425
330.80350,4.441409871
330.80400,4.441409871
330.80450,1.99985461
330.80500,-0.441700652
330.80550,-1.357283875
330.80600,-1.052089467
330.80650,-2.272867098
330.80700,-4.71442236
330.80750,-5.935199991
330.80800,-5.019616768
330.80850,-5.019616768
330.80900,-6.240394398
330.80950,-7.766366437
330.81000,-8.071560845
330.81050,-7.766366437
330.81100,-8.071560845
330.81150,-8.68194966
330.81200,-8.071560845
330.81250,-6.545588806
330.81300,-5.324811175
330.81350,-4.409227952
330.81400,-3.188450321
330.81450,-1.357283875
330.81500,0.4738825711
330.81550,2.915437833
330.81600,4.441409871
330.81650,5.051798687
330.81700,5.662187502
330.81750,6.882965133
330.81800,8.714131579
330.81850,9.324520394
330.81900,9.019325987
330.81950,9.019325987
330.82000,9.019325987
330.82050,8.714131579
330.82100,7.798548356
330.82150,6.577770725
330.82200,5.662187502
330.82250,4.136215463
330.82300,2.305049017
330.82350,0.1686881634
330.82400,-0.7468950597
330.82450,-1.662478283
330.82500,-2.883255914
330.82550,-3.493644729
330.82600,-3.798839137
330.82650,-4.409227952
330.82700,-5.324811175
330.82750,-5.935199991
330.82800,-6.545588806
330.82850,-7.766366437
330.82900,-9.292338475
330.82950,-8.987144068
330.83000,-7.155977621
330.83050,-5.935199991
330.83100,-6.240394398
330.83150,-6.545588806
330.83200,-5.935199991
330.83250,-4.409227952
330.83300,-2.578061506
330.83350,-0.7468950597
330.83400,0.7790769788
330.83450,1.694660202
330.83500,1.99985461
330.83550,2.305049017
330.83600,3.831021056
330.83650,5.051798687
330.83700,5.662187502
330.83750,5.96738191
330.83800,6.882965133
330.83850,8.103742764
330.83900,8.714131579
330.83950,8.103742764
330.84000,7.798548356
330.84050,7.493353948
330.84100,7.188159541
330.84150,6.577770725
330.84200,5.051798687
330.84250,3.525826648
330.84300,1.694660202
330.84350,0.1686881634
330.84400,-1.052089467
330.84450,-2.578061506
330.84500,-4.104033544
330.84550,-5.324811175
330.84600,-6.240394398
330.84650,-6.850783214
330.84700,-7.766366437
330.84750,-9.292338475
330.84800,-10.81831051
330.84850,-12.03908814
330.84900,-11.42869933
330.84950,-9.597532883
330.85000,-6.850783214
330.85050,-4.104033544
330.85100,-2.272867098
330.85150,-1.662478283
330.85200,-1.357283875
330.85250,-1.357283875
330.85300,-1.052089467
330.85350,-1.052089467
330.85400,-1.052089467
330.85450,0.1686881634
330.85500,3.22063224
330.85550,5.96738191
330.85600,6.577770725
330.85650,5.662187502
330.85700,5.96738191
330.85750,8.103742764
330.85800,9.93490921
330.85850,10.24010362
330.85900,9.629714802
330.85950,9.019325987
330.86000,9.019325987
330.86050,8.714131579
330.86100,7.493353948
330.86150,6.272576317
330.86200,5.051798687
330.86250,3.831021056
330.86300,1.99985461
330.86350,-0.1365062443
330.86400,-1.662478283
330.86450,-3.493644729
330.86500,-5.324811175
330.86550,-7.461172029
330.86600,-8.987144068
330.86650,-10.2079217
330.86700,-10.51311611
330.86750,-10.51311611
330.86800,-9.597532883
330.86850,-8.071560845
330.86900,-6.850783214
330.86950,-7.155977621
330.87000,-8.987144068
330.87050,-10.2079217
330.87100,-9.292338475
330.87150,-7.766366437
330.87200,-6.240394398
330.87250,-5.630005583
330.87300,-4.71442236
330.87350,-3.798839137
330.87400,-3.493644729
330.87450,-3.493644729
330.87500,-3.798839137
330.87550,-3.798839137
330.87600,-2.272867098
330.87650,-0.1365062443
330.87700,2.915437833
330.87750,5.662187502
330.87800,8.103742764
330.87850,9.629714802
330.87900,10.54529803
330.87950,10.24010362
330.88000,9.629714802
330.88050,9.019325987
330.88100,9.019325987
330.88150,7.798548356
330.88200,5.356993094
330.88250,3.22063224
330.88300,2.305049017
330.88350,1.99985461
330.88400,1.084271386
330.88450,-0.1365062443
330.88500,-1.662478283
330.88550,-3.188450321
330.88600,-3.798839137
330.88650,-3.798839137
330.88700,-4.71442236
330.88750,-7.155977621
330.88800,-10.2079217
330.88850,-11.42869933
330.88900,-8.68194966
330.88950,-3.798839137
330.89000,0.7790769788
330.89050,3.525826648
330.89100,3.22063224
330.89150,1.694660202
330.89200,1.084271386
330.89250,2.610243425
330.89300,4.746604279
330.89350,5.662187502
330.89400,5.051798687
330.89450,4.746604279
330.89500,5.96738191
330.89550,8.103742764
330.89600,9.324520394
330.89650,8.714131579
330.89700,8.103742764
330.89750,8.714131579
330.89800,10.24010362
330.89850,11.46088125
330.89900,10.54529803
330.89950,8.103742764
330.90000,6.272576317
330.90050,6.272576317
330.90100,6.577770725
330.90150,6.272576317
330.90200,4.136215463
330.90250,1.99985461
330.90300,-0.1365062443
330.90350,-1.052089467
330.90400,-1.662478283
330.90450,-3.188450321
330.90500,-5.019616768
330.90550,-6.545588806
330.90600,-6.545588806
330.90650,-6.545588806
330.90700,-6.850783214
330.90750,-7.766366437
330.90800,-8.071560845
330.90850,-7.461172029
330.90900,-7.155977621
330.90950,-7.461172029
330.91000,-7.155977621
330.91050,-6.240394398
330.91100,-5.324811175
330.91150,-4.104033544
330.91200,-2.578061506
330.91250,-0.1365062443
330.91300,1.99985461
330.91350,3.831021056
330.91400,5.356993094
330.91450,6.272576317
330.91500,6.577770725
330.91550,6.577770725
330.91600,8.103742764
330.91650,9.324520394
330.91700,9.324520394
330.91750,9.019325987
330.91800,10.54529803
330.91850,13.5972421
330.91900,13.90243651
330.91950,11.15568684
330.92000,8.408937171
330.92050,8.408937171
330.92100,8.714131579
330.92150,7.493353948
330.92200,5.051798687
330.92250,4.136215463
330.92300,4.136215463
330.92350,2.915437833
330.92400,1.084271386
330.92450,-0.441700652
330.92500,-2.272867098
330.92550,-5.019616768
330.92600,-7.461172029
330.92650,-8.68194966
330.92700,-8.68194966
330.92750,-9.597532883
330.92800,-10.51311611
330.92850,-10.2079217
330.92900,-8.68194966
330.92950,-7.766366437
330.93000,-8.376755252
330.93050,-9.902727291
330.93100,-10.51311611
330.93150,-10.2079217
330.93200,-8.987144068
330.93250,-7.155977621
330.93300,-5.324811175
330.93350,-4.104033544
330.93400,-2.883255914
330.93450,-1.052089467
330.93500,1.389465794
330.93550,2.305049017
330.93600,1.084271386
330.93650,-0.441700652
330.93700,-0.1365062443
330.93750,1.99985461
330.93800,3.22063224
330.93850,1.99985461
330.93900,0.7790769788
330.93950,1.389465794
330.94000,2.915437833
330.94050,2.915437833
330.94100,1.99985461
330.94150,1.99985461
330.94200,2.610243425
330.94250,2.305049017
330.94300,0.7790769788
330.94350,-0.1365062443
330.94400,-1.357283875
330.94450,-3.798839137
330.94500,-6.850783214
330.94550,-8.071560845
330.94600,-7.155977621
330.94650,-6.850783214
330.94700,-8.376755252
330.94750,-9.597532883
330.94800,-8.071560845
330.94850,-5.630005583
330.94900,-5.630005583
330.94950,-7.155977621
330.95000,-7.155977621
330.95050,-5.935199991
330.95100,-4.71442236
330.95150,-5.019616768
330.95200,-5.019616768
330.95250,-3.493644729
330.95300,-2.272867098
330.95350,-1.357283875
330.95400,-0.1365062443
330.95450,2.610243425
330.95500,6.577770725
330.95550,8.714131579
330.95600,8.714131579
330.95650,8.408937171
330.95700,8.714131579
330.95750,9.629714802
330.95800,10.24010362
330.95850,10.54529803
330.95900,11.15568684
330.95950,11.76607566
330.96000,11.15568684
330.96050,9.324520394
330.96100,7.493353948
330.96150,5.96738191
330.96200,4.746604279
330.96250,2.610243425
330.96300,0.7790769788
330.96350,-0.1365062443
330.96400,-0.441700652
330.96450,-2.578061506
330.96500,-5.019616768
330.96550,-5.630005583
330.96600,-5.019616768
330.96650,-5.630005583
330.96700,-7.766366437
330.96750,-9.902727291
330.96800,-10.81831051
330.96850,-11.12350492
330.96900,-11.12350492
330.96950,-10.51311611
330.97000,-8.987144068
330.97050,-7.461172029
330.97100,-7.155977621
330.97150,-7.155977621
330.97200,-6.240394398
330.97250,-4.104033544
330.97300,-2.578061506
330.97350,-1.662478283
330.97400,-0.7468950597
330.97450,1.389465794
330.97500,4.441409871
330.97550,7.798548356
330.97600,10.54529803
330.97650,12.07127006
330.97700,12.37646447
330.97750,11.46088125
330.97800,9.93490921
330.97850,8.103742764
330.97900,8.103742764
330.97950,9.93490921
330.98000,10.85049243
330.98050,9.019325987
330.98100,5.96738191
330.98150,4.136215463
330.98200,3.831021056
330.98250,2.610243425
330.98300,-0.1365062443
330.98350,-1.357283875
330.98400,-0.7468950597
330.98450,-0.7468950597
330.98500,-3.188450321
330.98550,-5.935199991
330.98600,-6.545588806
330.98650,-5.935199991
330.98700,-7.155977621
330.98750,-9.597532883
330.98800,-11.12350492
330.98850,-12.34428255
330.98900,-13.56506018
330.98950,-13.56506018
330.99000,-10.51311611
330.99050,-5.935199991
330.99100,-3.798839137
330.99150,-4.71442236
330.99200,-5.019616768
330.99250,-4.104033544
330.99300,-3.798839137
330.99350,-5.324811175
330.99400,-6.545588806
330.99450,-6.545588806
330.99500,-6.545588806
330.99550,-8.68194966
330.99600,-9.597532883
330.99650,-6.850783214
330.99700,-1.357283875
330.99750,3.22063224
330.99800,6.577770725
330.99850,9.324520394
330.99900,11.46088125
330.99950,12.37646447
331.00000,12.37646447
331.00050,12.37646447
331.00100,11.76607566
331.00150,9.93490921
331.00200,7.798548356
331.00250,6.882965133
331.00300,6.882965133
331.00350,5.96738191
331.00400,2.610243425
331.00450,-0.7468950597
331.00500,-2.272867098
331.00550,-1.357283875
331.00600,-0.1365062443
331.00650,-0.1365062443
331.00700,-1.967672691
331.00750,-3.188450321
331.00800,-3.188450321
331.00850,-1.967672691
331.00900,-1.357283875
331.00950,-1.967672691
331.01000,-3.798839137
331.01050,-6.545588806
331.01100,-8.987144068
331.01150,-9.292338475
331.01200,-7.155977621
331.01250,-4.104033544
331.01300,-2.272867098
331.01350,-1.357283875
331.01400,-0.1365062443
331.01450,2.305049017
331.01500,4.441409871
331.01550,4.746604279
331.01600,4.136215463
331.01650,4.746604279
331.01700,6.882965133
331.01750,8.408937171
331.01800,8.714131579
331.01850,8.408937171
331.01900,8.714131579
331.01950,8.408937171
331.02000,7.493353948
331.02050,5.356993094
331.02100,3.525826648
331.02150,1.389465794
331.02200,-0.1365062443
331.02250,-0.7468950597
331.02300,-0.1365062443
331.02350,-0.441700652
331.02400,-2.578061506
331.02450,-4.71442236
331.02500,-5.630005583
331.02550,-5.324811175
331.02600,-6.545588806
331.02650,-8.376755252
331.02700,-9.292338475
331.02750,-8.987144068
331.02800,-8.987144068
331.02850,-9.597532883
331.02900,-8.987144068
331.02950,-6.850783214
331.03000,-5.324811175
331.03050,-5.630005583
331.03100,-5.630005583
331.03150,-4.104033544
331.03200,-1.967672691
331.03250,-1.052089467
331.03300,-0.441700652
331.03350,-0.1365062443
331.03400,0.7790769788
331.03450,1.694660202
331.03500,3.22063224
331.03550,5.96738191
331.03600,7.188159541
331.03650,5.662187502
331.03700,4.136215463
331.03750,5.051798687
331.03800,7.188159541
331.03850,7.493353948
331.03900,5.356993094
331.03950,3.22063224
331.04000,2.305049017
331.04050,1.99985461
331.04100,1.389465794
331.04150,0.7790769788
331.04200,-0.1365062443
331.04250,-1.357283875
331.04300,-2.578061506
331.04350,-2.883255914
331.04400,-2.883255914
331.04450,-3.188450321
331.04500,-3.798839137
331.04550,-3.798839137
331.04600,-3.798839137
331.04650,-4.71442236
331.04700,-5.324811175
331.04750,-4.409227952
331.04800,-2.578061506
331.04850,-2.272867098
331.04900,-3.798839137
331.04950,-5.324811175
331.05000,-5.630005583
331.05050,-5.630005583
331.05100,-6.545588806
331.05150,-7.766366437
331.05200,-7.766366437
331.05250,-6.240394398
331.05300,-5.324811175
331.05350,-4.71442236
331.05400,-3.798839137
331.05450,-1.967672691
331.05500,-0.1365062443
331.05550,1.99985461
331.05600,3.831021056
331.05650,5.356993094
331.05700,6.577770725
331.05750,8.408937171
331.05800,9.93490921
331.05850,10.54529803
331.05900,9.324520394
331.05950,8.408937171
331.06000,8.408937171
331.06050,9.019325987
331.06100,8.103742764
331.06150,6.577770725
331.06200,5.96738191
331.06250,7.188159541
331.06300,7.188159541
331.06350,5.356993094
331.06400,2.305049017
331.06450,-0.1365062443
331.06500,-1.967672691
331.06550,-3.188450321
331.06600,-3.493644729
331.06650,-3.798839137
331.06700,-4.71442236
331.06750,-7.155977621
331.06800,-9.902727291
331.06850,-11.42869933
331.06900,-11.42869933
331.06950,-10.51311611
331.07000,-10.2079217
331.07050,-10.2079217
331.07100,-9.902727291
331.07150,-8.376755252
331.07200,-5.630005583
331.07250,-3.188450321
331.07300,-2.883255914
331.07350,-3.493644729
331.07400,-2.578061506
331.07450,0.4738825711
331.07500,3.831021056
331.07550,5.356993094
331.07600,5.96738191
331.07650,7.493353948
331.07700,8.408937171
331.07750,8.103742764
331.07800,7.493353948
331.07850,7.493353948
331.07900,8.408937171
331.07950,8.714131579
331.08000,8.408937171
331.08050,8.714131579
331.08100,9.019325987
331.08150,8.103742764
331.08200,7.493353948
331.08250,7.188159541
331.08300,7.188159541
331.08350,5.96738191
331.08400,3.831021056
331.08450,2.305049017
331.08500,1.389465794
331.08550,-0.1365062443
331.08600,-1.967672691
331.08650,-2.272867098
331.08700,-1.967672691
331.08750,-3.188450321
331.08800,-5.935199991
331.08850,-6.850783214
331.08900,-5.324811175
331.08950,-4.104033544
331.09000,-4.71442236
331.09050,-5.324811175
331.09100,-4.409227952
331.09150,-2.578061506
331.09200,-1.967672691
331.09250,-1.357283875
331.09300,-0.441700652
331.09350,1.084271386
331.09400,2.305049017
331.09450,3.831021056
331.09500,5.662187502
331.09550,6.882965133
331.09600,6.272576317
331.09650,5.96738191
331.09700,6.882965133
331.09750,9.019325987
331.09800,9.93490921
331.09850,9.629714802
331.09900,8.408937171
331.09950,7.188159541
331.10000,5.356993094
331.10050,3.525826648
331.10100,2.305049017
331.10150,1.389465794
331.10200,0.4738825711
331.10250,-0.1365062443
331.10300,-1.357283875
331.10350,-2.883255914
331.10400,-5.630005583
331.10450,-8.071560845
331.10500,-8.68194966
331.10550,-7.461172029
331.10600,-6.850783214
331.10650,-7.461172029
331.10700,-8.376755252
331.10750,-9.292338475
331.10800,-9.597532883
331.10850,-8.987144068
331.10900,-7.766366437
331.10950,-7.155977621
331.11000,-8.071560845
331.11050,-8.987144068
331.11100,-8.68194966
331.11150,-6.850783214
331.11200,-5.935199991
331.11250,-5.630005583
331.11300,-4.71442236
331.11350,-1.967672691
331.11400,1.084271386
331.11450,3.22063224
331.11500,5.356993094
331.11550,8.408937171
331.11600,11.15568684
331.11650,12.07127006
331.11700,11.76607566
331.11750,10.85049243
331.11800,10.85049243
331.11850,10.54529803
331.11900,9.324520394
331.11950,8.103742764
331.12000,8.103742764
331.12050,8.103742764
331.12100,7.188159541
331.12150,5.356993094
331.12200,3.22063224
331.12250,1.99985461
331.12300,1.084271386
331.12350,0.1686881634
331.12400,-0.1365062443
331.12450,-0.1365062443
331.12500,-0.7468950597
331.12550,-1.662478283
331.12600,-1.967672691
331.12650,-1.662478283
331.12700,-1.662478283
331.12750,-2.578061506
331.12800,-3.798839137
331.12850,-4.71442236
331.12900,-5.324811175
331.12950,-5.935199991
331.13000,-6.850783214
331.13050,-6.850783214
331.13100,-5.630005583
331.13150,-3.798839137
331.13200,-3.188450321
331.13250,-3.493644729
331.13300,-3.798839137
331.13350,-2.272867098
331.13400,-0.1365062443
331.13450,0.7790769788
331.13500,1.694660202
331.13550,3.22063224
331.13600,4.441409871
331.13650,4.441409871
331.13700,2.915437833
331.13750,1.99985461
331.13800,2.610243425
331.13850,3.525826648
331.13900,2.915437833
331.13950,1.084271386
331.14000,-0.7468950597
331.14050,-1.357283875
331.14100,-0.1365062443
331.14150,1.084271386
331.14200,1.99985461
331.14250,1.389465794
331.14300,-0.441700652
331.14350,-2.272867098
331.14400,-2.883255914
331.14450,-3.493644729
331.14500,-4.409227952
331.14550,-5.630005583
331.14600,-5.630005583
331.14650,-5.324811175
331.14700,-5.935199991
331.14750,-7.461172029
331.14800,-8.376755252
331.14850,-8.68194966
331.14900,-8.987144068
331.14950,-9.292338475
331.15000,-9.292338475
331.15050,-8.071560845
331.15100,-5.935199991
331.15150,-3.798839137
331.15200,-3.188450321
331.15250,-2.883255914
331.15300,-1.357283875
331.15350,1.084271386
331.15400,3.525826648
331.15450,4.746604279
331.15500,6.272576317
331.15550,8.103742764
331.15600,9.324520394
331.15650,9.019325987
331.15700,8.408937171
331.15750,9.019325987
331.15800,9.629714802
331.15850,8.714131579
331.15900,7.188159541
331.15950,6.882965133
331.16000,7.798548356
331.16050,8.103742764
331.16100,6.577770725
331.16150,5.662187502
331.16200,6.272576317
331.16250,5.96738191
331.16300,2.915437833
331.16350,-1.052089467
331.16400,-3.493644729
331.16450,-3.798839137
331.16500,-3.798839137
331.16550,-5.324811175
331.16600,-6.545588806
331.16650,-6.545588806
331.16700,-6.850783214
331.16750,-8.376755252
331.16800,-10.81831051
331.16850,-12.34428255
331.16900,-12.34428255
331.16950,-12.34428255
331.17000,-12.34428255
331.17050,-12.34428255
331.17100,-11.42869933
331.17150,-10.51311611
331.17200,-10.2079217
331.17250,-10.81831051
331.17300,-10.81831051
331.17350,-9.292338475
331.17400,-7.155977621
331.17450,-5.324811175
331.17500,-3.798839137
331.17550,-1.662478283
331.17600,0.7790769788
331.17650,4.136215463
331.17700,7.798548356
331.17750,11.15568684
331.17800,12.98685329
331.17850,12.68165888
331.17900,11.15568684
331.17950,10.54529803
331.18000,10.85049243
331.18050,11.15568684
331.18100,10.24010362
331.18150,8.714131579
331.18200,7.493353948
331.18250,5.662187502
331.18300,3.22063224
331.18350,1.389465794
331.18400,0.7790769788
331.18450,0.4738825711
331.18500,-0.7468950597
331.18550,-3.493644729
331.18600,-5.019616768
331.18650,-5.324811175
331.18700,-5.630005583
331.18750,-6.545588806
331.18800,-7.461172029
331.18850,-7.155977621
331.18900,-6.240394398
331.18950,-6.240394398
331.19000,-7.461172029
331.19050,-8.376755252
331.19100,-7.461172029
331.19150,-5.324811175
331.19200,-3.188450321
331.19250,-1.662478283
331.19300,-1.052089467
331.19350,-1.052089467
331.19400,-1.357283875
331.19450,-1.357283875
331.19500,-0.1365062443
331.19550,1.694660202
331.19600,3.831021056
331.19650,4.746604279
331.19700,5.662187502
331.19750,8.103742764
331.19800,10.85049243
331.19850,11.46088125
331.19900,10.24010362
331.19950,8.714131579
331.20000,7.798548356
331.20050,6.272576317
331.20100,4.136215463
331.20150,3.22063224
331.20200,4.136215463
331.20250,4.441409871
331.20300,2.915437833
331.20350,1.084271386
331.20400,-0.1365062443
331.20450,-0.7468950597
331.20500,-1.967672691
331.20550,-2.578061506
331.20600,-1.967672691
331.20650,-1.967672691
331.20700,-3.493644729
331.20750,-4.104033544
331.20800,-3.188450321
331.20850,-1.967672691
331.20900,-2.883255914
331.20950,-4.104033544
331.21000,-3.493644729
331.21050,-1.357283875
331.21100,-0.1365062443
331.21150,0.1686881634
331.21200,0.1686881634
331.21250,-0.7468950597
331.21300,-2.578061506
331.21350,-3.798839137
331.21400,-3.188450321
331.21450,-1.662478283
331.21500,-0.7468950597
331.21550,-0.441700652
331.21600,-0.1365062443
331.21650,0.7790769788
331.21700,1.084271386
331.21750,0.7790769788
331.21800,0.7790769788
331.21850,1.389465794
331.21900,1.389465794
331.21950,1.99985461
331.22000,3.525826648
331.22050,4.441409871
331.22100,3.831021056
331.22150,1.99985461
331.22200,0.4738825711
331.22250,-0.1365062443
331.22300,-1.052089467
331.22350,-1.357283875
331.22400,-0.7468950597
331.22450,-1.052089467
331.22500,-3.188450321
331.22550,-5.324811175
331.22600,-5.324811175
331.22650,-3.798839137
331.22700,-4.104033544
331.22750,-5.935199991
331.22800,-7.461172029
331.22850,-7.155977621
331.22900,-6.850783214
331.22950,-7.766366437
331.23000,-8.68194966
331.23050,-8.071560845
331.23100,-6.850783214
331.23150,-6.240394398
331.23200,-5.019616768
331.23250,-3.188450321
331.23300,-1.357283875
331.23350,-0.7468950597
331.23400,-0.7468950597
331.23450,-0.1365062443
331.23500,1.389465794
331.23550,2.305049017
331.23600,2.915437833
331.23650,4.136215463
331.23700,6.272576317
331.23750,7.493353948
331.23800,7.188159541
331.23850,6.272576317
331.23900,6.577770725
331.23950,7.493353948
331.24000,7.493353948
331.24050,6.272576317
331.24100,4.746604279
331.24150,3.525826648
331.24200,1.389465794
331.24250,-0.7468950597
331.24300,-2.578061506
331.24350,-2.272867098
331.24400,-1.357283875
331.24450,-1.967672691
331.24500,-4.409227952
331.24550,-6.850783214
331.24600,-7.461172029
331.24650,-6.850783214
331.24700,-6.545588806
331.24750,-7.766366437
331.24800,-9.292338475
331.24850,-10.2079217
331.24900,-10.2079217
331.24950,-10.2079217
331.25000,-9.902727291
331.25050,-9.902727291
331.25100,-8.987144068
331.25150,-7.155977621
331.25200,-5.019616768
331.25250,-2.578061506
331.25300,-0.441700652
331.25350,0.4738825711
331.25400,0.7790769788
331.25450,1.389465794
331.25500,3.525826648
331.25550,5.96738191
331.25600,6.577770725
331.25650,5.96738191
331.25700,6.272576317
331.25750,8.103742764
331.25800,10.24010362
331.25850,12.07127006
331.25900,13.90243651
331.25950,16.34399177
331.26000,17.5647694
331.26050,16.64918618
331.26100,14.20763092
331.26150,10.85049243
331.26200,8.103742764
331.26250,5.96738191
331.26300,5.662187502
331.26350,5.356993094
331.26400,4.136215463
331.26450,1.99985461
331.26500,-0.1365062443
331.26550,-1.052089467
331.26600,-1.052089467
331.26650,-1.052089467
331.26700,-1.967672691
331.26750,-4.104033544
331.26800,-5.935199991
331.26850,-6.850783214
331.26900,-7.155977621
331.26950,-7.461172029
331.27000,-8.376755252
331.27050,-8.376755252
331.27100,-7.461172029
331.27150,-6.240394398
331.27200,-5.935199991
331.27250,-5.324811175
331.27300,-4.409227952
331.27350,-2.883255914
331.27400,-1.357283875
331.27450,-0.1365062443
331.27500,1.389465794
331.27550,2.915437833
331.27600,4.746604279
331.27650,6.882965133
331.27700,8.714131579
331.27750,8.714131579
331.27800,7.188159541
331.27850,6.882965133
331.27900,9.019325987
331.27950,11.76607566
331.28000,11.76607566
331.28050,9.93490921
331.28100,8.408937171
331.28150,7.798548356
331.28200,5.96738191
331.28250,3.525826648
331.28300,2.915437833
331.28350,4.441409871
331.28400,5.051798687
331.28450,3.831021056
331.28500,1.99985461
331.28550,0.7790769788
331.28600,-0.1365062443
331.28650,-2.272867098
331.28700,-4.409227952
331.28750,-5.630005583
331.28800,-5.935199991
331.28850,-7.155977621
331.28900,-8.071560845
331.28950,-7.766366437
331.29000,-6.240394398
331.29050,-5.935199991
331.29100,-6.545588806
331.29150,-6.545588806
331.29200,-5.019616768
331.29250,-3.493644729
331.29300,-2.578061506
331.29350,-1.662478283
331.29400,-0.1365062443
331.29450,1.694660202
331.29500,2.305049017
331.29550,1.694660202
331.29600,1.99985461
331.29650,3.831021056
331.29700,6.272576317
331.29750,7.493353948
331.29800,7.798548356
331.29850,6.882965133
331.29900,5.96738191
331.29950,5.356993094
331.30000,5.356993094
331.30050,5.051798687
331.30100,4.441409871
331.30150,2.915437833
331.30200,1.694660202
331.30250,1.084271386
331.30300,0.4738825711
331.30350,-0.7468950597
331.30400,-3.188450321
331.30450,-5.324811175
331.30500,-6.240394398
331.30550,-6.240394398
331.30600,-7.155977621
331.30650,-8.987144068
331.30700,-10.81831051
331.30750,-11.42869933
331.30800,-11.42869933
331.30850,-12.34428255
331.30900,-13.25986578
331.30950,-13.56506018
331.31000,-12.64947696
331.31050,-12.34428255
331.31100,-12.03908814
331.31150,-11.73389374
331.31200,-10.51311611
331.31250,-8.68194966
331.31300,-6.850783214
331.31350,-5.019616768
331.31400,-3.798839137
331.31450,-2.578061506
331.31500,-1.357283875
331.31550,-0.1365062443
331.31600,0.4738825711
331.31650,1.084271386
331.31700,2.915437833
331.31750,5.662187502
331.31800,8.408937171
331.31850,10.24010362
331.31900,11.15568684
331.31950,12.07127006
331.32000,12.98685329
331.32050,14.20763092
331.32100,14.51282533
331.32150,12.37646447
331.32200,8.714131579
331.32250,5.662187502
331.32300,5.051798687
331.32350,5.662187502
331.32400,5.96738191
331.32450,4.746604279
331.32500,3.22063224
331.32550,1.084271386
331.32600,-0.7468950597
331.32650,-2.883255914
331.32700,-4.104033544
331.32750,-4.71442236
331.32800,-4.409227952
331.32850,-4.409227952
331.32900,-5.019616768
331.32950,-5.935199991
331.33000,-7.155977621
331.33050,-7.766366437
331.33100,-7.155977621
331.33150,-5.630005583
331.33200,-4.104033544
331.33250,-2.883255914
331.33300,-1.967672691
331.33350,-1.662478283
331.33400,-1.662478283
331.33450,-1.052089467
331.33500,0.7790769788
331.33550,2.915437833
331.33600,3.22063224
331.33650,1.99985461
331.33700,0.7790769788
331.33750,1.389465794
331.33800,3.22063224
331.33850,4.136215463
331.33900,3.831021056
331.33950,2.610243425
331.34000,1.99985461
331.34050,1.389465794
331.34100,0.1686881634
331.34150,-0.7468950597
331.34200,-1.662478283
331.34250,-1.662478283
331.34300,-1.052089467
331.34350,0.1686881634
331.34400,1.389465794
331.34450,1.084271386
331.34500,-0.441700652
331.34550,-1.052089467
331.34600,-0.441700652
331.34650,-0.7468950597
331.34700,-3.188450321
331.34750,-6.240394398
331.34800,-7.155977621
331.34850,-5.935199991
331.34900,-4.71442236
331.34950,-3.798839137
331.35000,-3.493644729
331.35050,-4.104033544
331.35100,-5.630005583
331.35150,-5.935199991
331.35200,-3.493644729
331.35250,-0.441700652
331.35300,-0.1365062443
331.35350,-1.357283875
331.35400,-1.357283875
331.35450,1.389465794
331.35500,4.746604279
331.35550,5.96738191
331.35600,5.96738191
331.35650,6.577770725
331.35700,6.882965133
331.35750,5.051798687
331.35800,1.99985461
331.35850,0.4738825711
331.35900,2.305049017
331.35950,5.662187502
331.36000,7.493353948
331.36050,6.577770725
331.36100,4.136215463
331.36150,2.915437833
331.36200,2.610243425
331.36250,2.610243425
331.36300,1.694660202
331.36350,0.1686881634
331.36400,-1.357283875
331.36450,-3.798839137
331.36500,-5.630005583
331.36550,-6.240394398
331.36600,-6.240394398
331.36650,-7.461172029
331.36700,-10.2079217
331.36750,-11.73389374
331.36800,-11.73389374
331.36850,-10.81831051
331.36900,-9.902727291
331.36950,-8.376755252
331.37000,-6.545588806
331.37050,-5.630005583
331.37100,-5.324811175
331.37150,-4.104033544
331.37200,-1.357283875
331.37250,1.389465794
331.37300,3.525826648
331.37350,4.136215463
331.37400,4.136215463
331.37450,3.525826648
331.37500,2.915437833
331.37550,2.915437833
331.37600,3.525826648
331.37650,3.831021056
331.37700,3.525826648
331.37750,4.136215463
331.37800,5.96738191
331.37850,7.188159541
331.37900,7.188159541
331.37950,6.272576317
331.38000,5.96738191
331.38050,6.577770725
331.38100,7.188159541
331.38150,6.882965133
331.38200,5.051798687
331.38250,2.610243425
331.38300,0.4738825711
331.38350,-0.441700652
331.38400,-1.357283875
331.38450,-2.578061506
331.38500,-3.798839137
331.38550,-4.71442236
331.38600,-5.630005583
331.38650,-7.155977621
331.38700,-8.68194966
331.38750,-8.987144068
331.38800,-8.071560845
331.38850,-7.461172029
331.38900,-7.461172029
331.38950,-7.155977621
331.39000,-5.630005583
331.39050,-4.409227952
331.39100,-4.104033544
331.39150,-3.493644729
331.39200,-2.578061506
331.39250,-1.052089467
331.39300,-0.441700652
331.39350,-0.1365062443
331.39400,0.7790769788
331.39450,2.915437833
331.39500,4.441409871
331.39550,5.96738191
331.39600,6.882965133
331.39650,6.882965133
331.39700,6.272576317
331.39750,5.96738191
331.39800,6.577770725
331.39850,7.798548356
331.39900,7.798548356
331.39950,5.96738191
331.40000,4.441409871
331.40050,4.136215463
331.40100,4.746604279
331.40150,3.831021056
331.40200,2.305049017
331.40250,1.084271386
331.40300,0.7790769788
331.40350,-0.1365062443
331.40400,-1.357283875
331.40450,-2.272867098
331.40500,-2.578061506
331.40550,-3.188450321
331.40600,-4.104033544
331.40650,-5.019616768
331.40700,-4.409227952
331.40750,-4.409227952
331.40800,-5.935199991
331.40850,-7.766366437
331.40900,-8.376755252
331.40950,-7.461172029
331.41000,-6.545588806
331.41050,-6.240394398
331.41100,-5.935199991
331.41150,-5.019616768
331.41200,-3.493644729
331.41250,-2.272867098
331.41300,-1.357283875
331.41350,-0.7468950597
331.41400,-0.7468950597
331.41450,-0.1365062443
331.41500,2.305049017
331.41550,5.051798687
331.41600,5.96738191
331.41650,5.356993094
331.41700,5.96738191
331.41750,8.103742764
331.41800,9.324520394
331.41850,9.019325987
331.41900,8.103742764
331.41950,8.714131579
331.42000,9.019325987
331.42050,8.408937171
331.42100,7.188159541
331.42150,7.188159541
331.42200,7.493353948
331.42250,7.188159541
331.42300,6.272576317
331.42350,6.272576317
331.42400,5.96738191
331.42450,4.136215463
331.42500,1.694660202
331.42550,0.7790769788
331.42600,0.4738825711
331.42650,-0.441700652
331.42700,-2.883255914
331.42750,-4.104033544
331.42800,-3.493644729
331.42850,-3.493644729
331.42900,-5.324811175
331.42950,-7.766366437
331.43000,-8.68194966
331.43050,-7.766366437
331.43100,-6.850783214
331.43150,-6.850783214
331.43200,-7.461172029
331.43250,-7.766366437
331.43300,-6.850783214
331.43350,-4.71442236
331.43400,-1.052089467
331.43450,1.99985461
331.43500,3.831021056
331.43550,4.441409871
331.43600,5.051798687
331.43650,5.051798687
331.43700,4.441409871
331.43750,3.831021056
331.43800,4.441409871
331.43850,5.051798687
331.43900,4.746604279
331.43950,3.831021056
331.44000,5.051798687
331.44050,8.408937171
331.44100,11.76607566
331.44150,11.15568684
331.44200,7.188159541
331.44250,3.22063224
331.44300,1.389465794
331.44350,1.389465794
331.44400,1.99985461
331.44450,1.99985461
331.44500,1.389465794
331.44550,0.4738825711
331.44600,-0.7468950597
331.44650,-1.662478283
331.44700,-2.578061506
331.44750,-2.578061506
331.44800,-2.272867098
331.44850,-2.578061506
331.44900,-2.883255914
331.44950,-3.798839137
331.45000,-4.104033544
331.45050,-3.188450321
331.45100,-2.272867098
331.45150,-1.967672691
331.45200,-2.272867098
331.45250,-1.967672691
331.45300,-1.357283875
331.45350,-0.7468950597
331.45400,-0.7468950597
331.45450,-0.1365062443
331.45500,1.084271386
331.45550,1.694660202
331.45600,2.305049017
331.45650,3.22063224
331.45700,4.441409871
331.45750,4.441409871
331.45800,3.22063224
331.45850,2.915437833
331.45900,3.831021056
331.45950,3.525826648
331.46000,1.99985461
331.46050,0.7790769788
331.46100,1.084271386
331.46150,1.084271386
331.46200,-0.1365062443
331.46250,-1.357283875
331.46300,-1.357283875
331.46350,-0.7468950597
331.46400,-1.662478283
331.46450,-3.493644729
331.46500,-3.493644729
331.46550,-2.272867098
331.46600,-2.578061506
331.46650,-4.71442236
331.46700,-6.850783214
331.46750,-7.461172029
331.46800,-8.071560845
331.46850,-8.987144068
331.46900,-9.292338475
331.46950,-8.68194966
331.47000,-9.292338475
331.47050,-10.2079217
331.47100,-9.292338475
331.47150,-5.019616768
331.47200,-0.7468950597
331.47250,1.084271386
331.47300,1.99985461
331.47350,4.136215463
331.47400,6.882965133
331.47450,6.577770725
331.47500,4.136215463
331.47550,2.610243425
331.47600,4.136215463
331.47650,5.96738191
331.47700,5.662187502
331.47750,4.746604279
331.47800,5.96738191
331.47850,8.714131579
331.47900,9.629714802
331.47950,8.408937171
331.48000,6.272576317
331.48050,4.136215463
331.48100,1.99985461
331.48150,-0.1365062443
331.48200,-1.662478283
331.48250,-1.357283875
331.48300,-0.441700652
331.48350,-0.1365062443
331.48400,-1.357283875
331.48450,-3.493644729
331.48500,-5.935199991
331.48550,-7.461172029
331.48600,-8.071560845
331.48650,-8.376755252
331.48700,-9.902727291
331.48750,-11.42869933
331.48800,-11.42869933
331.48850,-10.81831051
331.48900,-10.2079217
331.48950,-10.51311611
331.49000,-10.51311611
331.49050,-9.597532883
331.49100,-7.461172029
331.49150,-5.324811175
331.49200,-4.104033544
331.49250,-4.409227952
331.49300,-4.71442236
331.49350,-4.409227952
331.49400,-2.883255914
331.49450,-1.052089467
331.49500,0.1686881634
331.49550,1.084271386
331.49600,1.694660202
331.49650,2.610243425
331.49700,3.22063224
331.49750,4.441409871
331.49800,5.662187502
331.49850,5.662187502
331.49900,4.441409871
331.49950,3.22063224
331.50000,2.305049017
331.50050,1.084271386
331.50100,0.1686881634
331.50150,0.1686881634
331.50200,0.7790769788
331.50250,1.084271386
331.50300,0.7790769788
331.50350,-0.1365062443
331.50400,-1.662478283
331.50450,-3.798839137
331.50500,-5.019616768
331.50550,-5.019616768
331.50600,-4.104033544
331.50650,-4.409227952
331.50700,-5.630005583
331.50750,-6.545588806
331.50800,-7.155977621
331.50850,-7.766366437
331.50900,-9.292338475
331.50950,-10.51311611
331.51000,-10.2079217
331.51050,-9.597532883
331.51100,-9.597532883
331.51150,-10.51311611
331.51200,-10.2079217
331.51250,-8.376755252
331.51300,-6.240394398
331.51350,-4.104033544
331.51400,-2.578061506
331.51450,-0.441700652
331.51500,1.694660202
331.51550,3.831021056
331.51600,5.96738191
331.51650,8.103742764
331.51700,9.93490921
331.51750,10.85049243
331.51800,11.15568684
331.51850,11.15568684
331.51900,11.15568684
331.51950,10.24010362
331.52000,8.714131579
331.52050,6.882965133
331.52100,5.356993094
331.52150,3.525826648
331.52200,2.305049017
331.52250,1.99985461
331.52300,1.99985461
331.52350,0.7790769788
331.52400,-1.662478283
331.52450,-3.188450321
331.52500,-2.578061506
331.52550,-2.272867098
331.52600,-4.104033544
331.52650,-6.240394398
331.52700,-6.850783214
331.52750,-6.545588806
331.52800,-6.545588806
331.52850,-8.071560845
331.52900,-9.902727291
331.52950,-11.42869933
331.53000,-12.03908814
331.53050,-10.81831051
331.53100,-7.766366437
331.53150,-4.104033544
331.53200,-1.662478283
331.53250,-0.1365062443
331.53300,1.389465794
331.53350,3.22063224
331.53400,4.441409871
331.53450,6.272576317
331.53500,8.408937171
331.53550,9.324520394
331.53600,8.714131579
331.53650,9.019325987
331.53700,10.85049243
331.53750,12.68165888
331.53800,11.46088125
331.53850,9.324520394
331.53900,8.714131579
331.53950,9.629714802
331.54000,9.629714802
331.54050,8.103742764
331.54100,8.103742764
331.54150,9.324520394
331.54200,9.019325987
331.54250,6.272576317
331.54300,3.525826648
331.54350,2.305049017
331.54400,1.99985461
331.54450,0.4738825711
331.54500,-1.357283875
331.54550,-2.272867098
331.54600,-1.967672691
331.54650,-1.357283875
331.54700,-1.967672691
331.54750,-3.188450321
331.54800,-3.798839137
331.54850,-3.493644729
331.54900,-1.967672691
331.54950,-0.441700652
331.55000,-0.1365062443
331.55050,-0.1365062443
331.55100,0.1686881634
331.55150,0.7790769788
331.55200,0.4738825711
331.55250,-0.7468950597
331.55300,-1.662478283
331.55350,-1.052089467
331.55400,-0.1365062443
331.55450,-0.1365062443
331.55500,-1.052089467
331.55550,-1.662478283
331.55600,-1.052089467
331.55650,0.4738825711
331.55700,1.694660202
331.55750,2.610243425
331.55800,3.22063224
331.55850,3.831021056
331.55900,4.136215463
331.55950,4.441409871
331.56000,5.356993094
331.56050,6.882965133
331.56100,7.798548356
331.56150,6.272576317
331.56200,2.610243425
331.56250,-0.1365062443
331.56300,-0.1365062443
331.56350,0.7790769788
331.56400,1.389465794
331.56450,0.7790769788
331.56500,0.4738825711
331.56550,0.7790769788
331.56600,0.7790769788
331.56650,-0.7468950597
331.56700,-2.578061506
331.56750,-3.188450321
331.56800,-3.493644729
331.56850,-4.71442236
331.56900,-6.240394398
331.56950,-7.155977621
331.57000,-7.461172029
331.57050,-8.376755252
331.57100,-8.987144068
331.57150,-8.376755252
331.57200,-7.766366437
331.57250,-7.461172029
331.57300,-7.461172029
331.57350,-6.850783214
331.57400,-5.630005583
331.57450,-5.019616768
331.57500,-4.409227952
331.57550,-2.883255914
331.57600,-0.441700652
331.57650,1.084271386
331.57700,2.305049017
331.57750,4.441409871
331.57800,7.798548356
331.57850,9.629714802
331.57900,9.324520394
331.57950,8.408937171
331.58000,8.714131579
331.58050,9.019325987
331.58100,8.714131579
331.58150,8.103742764
331.58200,9.019325987
331.58250,9.629714802
331.58300,7.798548356
331.58350,4.136215463
331.58400,1.084271386
331.58450,-0.1365062443
331.58500,-0.441700652
331.58550,-1.357283875
331.58600,-2.272867098
331.58650,-3.493644729
331.58700,-5.324811175
331.58750,-7.766366437
331.58800,-9.597532883
331.58850,-10.51311611
331.58900,-12.34428255
331.58950,-14.175449
331.59000,-13.87025459
331.59050,-10.51311611
331.59100,-6.850783214
331.59150,-5.324811175
331.59200,-5.019616768
331.59250,-3.798839137
331.59300,-1.662478283
331.59350,-0.1365062443
331.59400,0.7790769788
331.59450,1.694660202
331.59500,3.22063224
331.59550,4.746604279
331.59600,5.96738191
331.59650,7.798548356
331.59700,9.324520394
331.59750,9.629714802
331.59800,9.019325987
331.59850,8.714131579
331.59900,9.629714802
331.59950,10.24010362
331.60000,10.24010362
331.60050,9.629714802
331.60100,8.714131579
331.60150,6.882965133
331.60200,5.051798687
331.60250,3.831021056
331.60300,3.525826648
331.60350,2.610243425
331.60400,-0.1365062443
331.60450,-2.578061506
331.60500,-4.104033544
331.60550,-4.409227952
331.60600,-4.409227952
331.60650,-5.935199991
331.60700,-8.68194966
331.60750,-11.12350492
331.60800,-11.42869933
331.60850,-10.51311611
331.60900,-9.902727291
331.60950,-11.12350492
331.61000,-12.03908814
331.61050,-10.51311611
331.61100,-7.461172029
331.61150,-5.324811175
331.61200,-5.019616768
331.61250,-4.409227952
331.61300,-2.578061506
331.61350,-0.1365062443
331.61400,1.694660202
331.61450,3.525826648
331.61500,4.746604279
331.61550,4.441409871
331.61600,3.831021056
331.61650,3.525826648
331.61700,4.136215463
331.61750,4.136215463
331.61800,3.22063224
331.61850,2.610243425
331.61900,2.610243425
331.61950,1.99985461
331.62000,0.7790769788
331.62050,-0.1365062443
331.62100,-0.441700652
331.62150,-0.1365062443
331.62200,1.084271386
331.62250,1.084271386
331.62300,-0.1365062443
331.62350,-3.493644729
331.62400,-5.630005583
331.62450,-5.019616768
331.62500,-2.883255914
331.62550,-2.578061506
331.62600,-3.798839137
331.62650,-3.798839137
331.62700,-2.272867098
331.62750,-1.357283875
331.62800,-1.357283875
331.62850,-0.7468950597
331.62900,0.1686881634
331.62950,0.1686881634
331.63000,-1.662478283
331.63050,-3.493644729
331.63100,-2.883255914
331.63150,-1.052089467
331.63200,0.1686881634
331.63250,1.084271386
331.63300,1.99985461
331.63350,2.915437833
331.63400,3.525826648
331.63450,4.746604279
331.63500,6.882965133
331.63550,7.798548356
331.63600,6.272576317
331.63650,3.831021056
331.63700,3.22063224
331.63750,4.746604279
331.63800,6.577770725
331.63850,7.798548356
331.63900,8.408937171
331.63950,8.408937171
331.64000,7.493353948
331.64050,5.356993094
331.64100,3.525826648
331.64150,3.22063224
331.64200,3.525826648
331.64250,2.305049017
331.64300,-0.1365062443
331.64350,-3.493644729
331.64400,-5.019616768
331.64450,-5.324811175
331.64500,-5.935199991
331.64550,-7.461172029
331.64600,-8.68194966
331.64650,-8.68194966
331.64700,-8.071560845
331.64750,-8.68194966
331.64800,-10.2079217
331.64850,-10.81831051
331.64900,-9.902727291
331.64950,-8.987144068
331.65000,-8.376755252
331.65050,-8.071560845
331.65100,-6.850783214
331.65150,-5.019616768
331.65200,-2.272867098
331.65250,-0.1365062443
331.65300,1.694660202
331.65350,2.305049017
331.65400,1.389465794
331.65450,1.084271386
331.65500,2.305049017
331.65550,4.136215463
331.65600,5.051798687
331.65650,5.051798687
331.65700,4.441409871
331.65750,3.831021056
331.65800,3.525826648
331.65850,3.831021056
331.65900,5.051798687
331.65950,6.272576317
331.66000,6.882965133
331.66050,5.96738191
331.66100,4.746604279
331.66150,3.831021056
331.66200,3.525826648
331.66250,3.22063224
331.66300,3.22063224
331.66350,3.22063224
331.66400,3.525826648
331.66450,3.525826648
331.66500,3.525826648
331.66550,3.22063224
331.66600,1.99985461
331.66650,-0.1365062443
331.66700,-2.578061506
331.66750,-3.798839137
331.66800,-4.409227952
331.66850,-4.71442236
331.66900,-5.935199991
331.66950,-7.766366437
331.67000,-9.292338475
331.67050,-10.2079217
331.67100,-9.597532883
331.67150,-8.071560845
331.67200,-6.240394398
331.67250,-5.324811175
331.67300,-4.71442236
331.67350,-3.798839137
331.67400,-2.578061506
331.67450,-1.662478283
331.67500,-1.357283875
331.67550,-0.7468950597
331.67600,0.4738825711
331.67650,2.305049017
331.67700,3.22063224
331.67750,2.610243425
331.67800,1.694660202
331.67850,1.389465794
331.67900,2.305049017
331.67950,3.22063224
331.68000,3.22063224
331.68050,2.915437833
331.68100,3.831021056
331.68150,4.746604279
331.68200,3.831021056
331.68250,1.084271386
331.68300,-0.1365062443
331.68350,0.7790769788
331.68400,1.99985461
331.68450,1.389465794
331.68500,-0.1365062443
331.68550,-1.967672691
331.68600,-2.883255914
331.68650,-3.493644729
331.68700,-3.798839137
331.68750,-3.188450321
331.68800,-2.883255914
331.68850,-3.798839137
331.68900,-4.409227952
331.68950,-3.798839137
331.69000,-3.188450321
331.69050,-3.493644729
331.69100,-4.409227952
331.69150,-5.019616768
331.69200,-5.324811175
331.69250,-5.324811175
331.69300,-4.71442236
331.69350,-3.493644729
331.69400,-1.967672691
331.69450,-0.441700652
331.69500,1.389465794
331.69550,3.831021056
331.69600,5.96738191
331.69650,6.882965133
331.69700,6.882965133
331.69750,7.493353948
331.69800,8.103742764
331.69850,8.103742764
331.69900,6.577770725
331.69950,5.662187502
331.70000,6.272576317
331.70050,8.103742764
331.70100,9.019325987
331.70150,7.798548356
331.70200,5.662187502
331.70250,4.746604279
331.70300,4.441409871
331.70350,3.22063224
331.70400,0.7790769788
331.70450,-0.441700652
331.70500,-0.441700652
331.70550,-0.7468950597
331.70600,-2.272867098
331.70650,-3.798839137
331.70700,-3.798839137
331.70750,-4.104033544
331.70800,-5.935199991
331.70850,-8.68194966
331.70900,-8.987144068
331.70950,-8.071560845
331.71000,-7.461172029
331.71050,-7.461172029
331.71100,-6.240394398
331.71150,-4.409227952
331.71200,-2.883255914
331.71250,-2.272867098
331.71300,-1.357283875
331.71350,-0.1365062443
331.71400,0.1686881634
331.71450,0.1686881634
331.71500,0.4738825711
331.71550,1.694660202
331.71600,2.915437833
331.71650,2.915437833
331.71700,2.915437833
331.71750,3.831021056
331.71800,4.746604279
331.71850,4.746604279
331.71900,3.525826648
331.71950,2.305049017
331.72000,1.99985461
331.72050,2.610243425
331.72100,2.915437833
331.72150,2.915437833
331.72200,3.22063224
331.72250,3.831021056
331.72300,3.831021056
331.72350,2.915437833
331.72400,1.084271386
331.72450,-0.7468950597
331.72500,-1.357283875
331.72550,-0.441700652
331.72600,-0.441700652
331.72650,-2.883255914
331.72700,-6.850783214
331.72750,-8.68194966
331.72800,-7.766366437
331.72850,-5.630005583
331.72900,-5.324811175
331.72950,-5.630005583
331.73000,-5.019616768
331.73050,-3.798839137
331.73100,-2.883255914
331.73150,-2.578061506
331.73200,-1.662478283
331.73250,-0.441700652
331.73300,-0.1365062443
331.73350,-0.1365062443
331.73400,0.1686881634
331.73450,1.99985461
331.73500,3.831021056
331.73550,5.356993094
331.73600,7.188159541
331.73650,8.714131579
331.73700,8.714131579
331.73750,7.493353948
331.73800,6.272576317
331.73850,6.577770725
331.73900,6.577770725
331.73950,5.356993094
331.74000,3.831021056
331.74050,2.915437833
331.74100,3.22063224
331.74150,2.915437833
331.74200,1.084271386
331.74250,-0.1365062443
331.74300,-0.1365062443
331.74350,1.694660202
331.74400,2.610243425
331.74450,1.084271386
331.74500,-1.052089467
331.74550,-1.662478283
331.74600,-1.052089467
331.74650,-1.052089467
331.74700,-2.883255914
331.74750,-5.324811175
331.74800,-6.850783214
331.74850,-8.071560845
331.74900,-8.987144068
331.74950,-9.902727291
331.75000,-9.902727291
331.75050,-9.902727291
331.75100,-9.597532883
331.75150,-7.766366437
331.75200,-4.104033544
331.75250,-0.441700652
331.75300,1.694660202
331.75350,2.915437833
331.75400,3.525826648
331.75450,3.525826648
331.75500,1.694660202
331.75550,-0.1365062443
331.75600,-0.1365062443
331.75650,1.389465794
331.75700,3.525826648
331.75750,4.441409871
331.75800,5.662187502
331.75850,7.798548356
331.75900,9.629714802
331.75950,8.714131579
331.76000,6.882965133
331.76050,6.577770725
331.76100,7.188159541
331.76150,6.272576317
331.76200,4.136215463
331.76250,2.305049017
331.76300,1.99985461
331.76350,1.694660202
331.76400,0.1686881634
331.76450,-1.357283875
331.76500,-3.188450321
331.76550,-5.324811175
331.76600,-6.850783214
331.76650,-6.545588806
331.76700,-5.019616768
331.76750,-4.71442236
331.76800,-6.240394398
331.76850,-8.68194966
331.76900,-10.2079217
331.76950,-10.2079217
331.77000,-9.597532883
331.77050,-9.292338475
331.77100,-9.597532883
331.77150,-10.2079217
331.77200,-9.597532883
331.77250,-6.545588806
331.77300,-2.578061506
331.77350,0.1686881634
331.77400,2.610243425
331.77450,4.746604279
331.77500,5.96738191
331.77550,5.96738191
331.77600,5.662187502
331.77650,6.882965133
331.77700,8.408937171
331.77750,7.798548356
331.77800,5.662187502
331.77850,4.441409871
331.77900,6.272576317
331.77950,7.798548356
331.78000,6.882965133
331.78050,3.831021056
331.78100,1.389465794
331.78150,0.7790769788
331.78200,1.084271386
331.78250,1.694660202
331.78300,1.389465794
331.78350,0.7790769788
331.78400,-0.1365062443
331.78450,-1.052089467
331.78500,-2.272867098
331.78550,-4.104033544
331.78600,-6.240394398
331.78650,-7.766366437
331.78700,-8.376755252
331.78750,-8.987144068
331.78800,-8.987144068
331.78850,-8.376755252
331.78900,-7.155977621
331.78950,-7.766366437
331.79000,-9.902727291
331.79050,-10.2079217
331.79100,-7.766366437
331.79150,-4.409227952
331.79200,-3.493644729
331.79250,-4.104033544
331.79300,-3.798839137
331.79350,-1.662478283
331.79400,0.7790769788
331.79450,3.831021056
331.79500,7.493353948
331.79550,11.15568684
331.79600,11.46088125
331.79650,9.324520394
331.79700,7.188159541
331.79750,7.493353948
331.79800,8.408937171
331.79850,8.103742764
331.79900,6.577770725
331.79950,5.051798687
331.80000,4.136215463
331.80050,3.831021056
331.80100,3.22063224
331.80150,1.694660202
331.80200,-1.357283875
331.80250,-4.409227952
331.80300,-5.630005583
331.80350,-5.630005583
331.80400,-7.155977621
331.80450,-8.987144068
331.80500,-9.292338475
331.80550,-7.766366437
331.80600,-7.461172029
331.80650,-9.292338475
331.80700,-10.81831051
331.80750,-9.902727291
331.80800,-8.68194966
331.80850,-9.902727291
331.80900,-12.03908814
331.80950,-11.12350492
331.81000,-7.461172029
331.81050,-3.493644729
331.81100,-1.357283875
331.81150,-0.441700652
331.81200,-0.1365062443
331.81250,0.1686881634
331.81300,0.7790769788
331.81350,1.694660202
331.81400,3.22063224
331.81450,4.441409871
331.81500,5.662187502
331.81550,6.882965133
331.81600,7.493353948
331.81650,7.493353948
331.81700,6.882965133
331.81750,7.188159541
331.81800,7.493353948
331.81850,7.798548356
331.81900,7.798548356
331.81950,7.493353948
331.82000,6.882965133
331.82050,5.96738191
331.82100,5.96738191
331.82150,6.882965133
331.82200,6.577770725
331.82250,3.831021056
331.82300,1.084271386
331.82350,-0.1365062443
331.82400,-0.1365062443
331.82450,-0.1365062443
331.82500,-1.357283875
331.82550,-3.493644729
331.82600,-5.324811175
331.82650,-7.155977621
331.82700,-7.766366437
331.82750,-6.545588806
331.82800,-5.019616768
331.82850,-5.324811175
331.82900,-6.850783214
331.82950,-7.155977621
331.83000,-6.240394398
331.83050,-5.324811175
331.83100,-5.630005583
331.83150,-5.630005583
331.83200,-4.409227952
331.83250,-2.883255914
331.83300,-1.357283875
331.83350,-0.1365062443
331.83400,1.389465794
331.83450,2.610243425
331.83500,3.831021056
331.83550,5.662187502
331.83600,7.798548356
331.83650,8.103742764
331.83700,6.272576317
331.83750,5.662187502
331.83800,7.188159541
331.83850,8.714131579
331.83900,8.408937171
331.83950,7.798548356
331.84000,8.103742764
331.84050,8.408937171
331.84100,6.882965133
331.84150,5.051798687
331.84200,4.136215463
331.84250,4.136215463
331.84300,3.22063224
331.84350,2.305049017
331.84400,1.694660202
331.84450,1.084271386
331.84500,-1.052089467
331.84550,-4.104033544
331.84600,-5.324811175
331.84650,-4.71442236
331.84700,-4.104033544
331.84750,-4.409227952
331.84800,-4.104033544
331.84850,-2.883255914
331.84900,-1.967672691
331.84950,-1.967672691
331.85000,-1.967672691
331.85050,-1.052089467
331.85100,-0.441700652
331.85150,-1.662478283
331.85200,-3.493644729
331.85250,-3.188450321
331.85300,-1.662478283
331.85350,-1.052089467
331.85400,-1.357283875
331.85450,-0.7468950597
331.85500,1.694660202
331.85550,5.051798687
331.85600,6.577770725
331.85650,6.272576317
331.85700,5.662187502
331.85750,6.272576317
331.85800,7.798548356
331.85850,8.103742764
331.85900,6.577770725
331.85950,5.051798687
331.86000,4.746604279
331.86050,5.662187502
331.86100,5.662187502
331.86150,3.525826648
331.86200,0.4738825711
331.86250,-1.052089467
331.86300,-0.7468950597
331.86350,-0.7468950597
331.86400,-1.662478283
331.86450,-3.188450321
331.86500,-3.493644729
331.86550,-1.967672691
331.86600,-1.357283875
331.86650,-3.188450321
331.86700,-6.240394398
331.86750,-8.376755252
331.86800,-8.376755252
331.86850,-8.987144068
331.86900,-11.12350492
331.86950,-12.64947696
331.87000,-12.03908814
331.87050,-10.51311611
331.87100,-9.902727291
331.87150,-9.902727291
331.87200,-9.902727291
331.87250,-8.68194966
331.87300,-7.461172029
331.87350,-6.240394398
331.87400,-4.71442236
331.87450,-2.883255914
331.87500,-1.662478283
331.87550,-0.1365062443
331.87600,1.389465794
331.87650,2.915437833
331.87700,2.610243425
331.87750,1.99985461
331.87800,3.22063224
331.87850,4.746604279
331.87900,5.662187502
331.87950,5.96738191
331.88000,7.493353948
331.88050,9.629714802
331.88100,10.24010362
331.88150,9.324520394
331.88200,9.019325987
331.88250,9.324520394
331.88300,7.798548356
331.88350,3.831021056
331.88400,0.4738825711
331.88450,-0.1365062443
331.88500,-0.7468950597
331.88550,-2.883255914
331.88600,-5.019616768
331.88650,-6.240394398
331.88700,-6.240394398
331.88750,-5.630005583
331.88800,-4.71442236
331.88850,-4.409227952
331.88900,-5.324811175
331.88950,-6.545588806
331.89000,-6.545588806
331.89050,-5.324811175
331.89100,-4.409227952
331.89150,-4.104033544
331.89200,-3.188450321
331.89250,-1.662478283
331.89300,-1.357283875
331.89350,-2.578061506
331.89400,-2.272867098
331.89450,0.4738825711
331.89500,4.441409871
331.89550,6.577770725
331.89600,6.882965133
331.89650,7.493353948
331.89700,9.019325987
331.89750,10.54529803
331.89800,10.54529803
331.89850,10.85049243
331.89900,11.76607566
331.89950,12.68165888
331.90000,12.37646447
331.90050,11.46088125
331.90100,10.54529803
331.90150,9.629714802
331.90200,8.408937171
331.90250,6.882965133
331.90300,5.356993094
331.90350,4.441409871
331.90400,4.136215463
331.90450,2.915437833
331.90500,0.1686881634
331.90550,-3.188450321
331.90600,-6.240394398
331.90650,-7.155977621
331.90700,-8.071560845
331.90750,-10.2079217
331.90800,-13.25986578
331.90850,-14.175449
331.90900,-12.64947696
331.90950,-11.42869933
331.91000,-12.64947696
331.91050,-14.48064341
331.91100,-13.25986578
331.91150,-9.597532883
331.91200,-5.630005583
331.91250,-2.883255914
331.91300,-1.357283875
331.91350,-0.441700652
331.91400,-0.1365062443
331.91450,-0.1365062443
331.91500,1.389465794
331.91550,3.525826648
331.91600,4.746604279
331.91650,5.662187502
331.91700,6.882965133
331.91750,9.324520394
331.91800,10.85049243
331.91850,10.54529803
331.91900,9.324520394
331.91950,8.714131579
331.92000,7.798548356
331.92050,5.662187502
331.92100,3.22063224
331.92150,2.610243425
331.92200,3.831021056
331.92250,3.525826648
331.92300,1.084271386
331.92350,-1.357283875
331.92400,-1.967672691
331.92450,-0.7468950597
331.92500,-0.1365062443
331.92550,0.4738825711
331.92600,1.389465794
331.92650,1.99985461
331.92700,1.084271386
331.92750,-1.967672691
331.92800,-4.71442236
331.92850,-5.935199991
331.92900,-5.630005583
331.92950,-5.324811175
331.93000,-5.935199991
331.93050,-6.240394398
331.93100,-5.935199991
331.93150,-4.71442236
331.93200,-3.493644729
331.93250,-2.578061506
331.93300,-2.272867098
331.93350,-1.662478283
331.93400,-0.1365062443
331.93450,0.4738825711
331.93500,1.389465794
331.93550,2.305049017
331.93600,4.746604279
331.93650,7.188159541
331.93700,7.798548356
331.93750,6.577770725
331.93800,5.051798687
331.93850,5.662187502
331.93900,6.882965133
331.93950,7.188159541
331.94000,6.272576317
331.94050,5.356993094
331.94100,4.441409871
331.94150,3.22063224
331.94200,1.99985461
331.94250,0.7790769788
331.94300,-0.1365062443
331.94350,-2.272867098
331.94400,-3.798839137
331.94450,-4.104033544
331.94500,-5.019616768
331.94550,-8.071560845
331.94600,-11.73389374
331.94650,-13.56506018
331.94700,-13.56506018
331.94750,-12.64947696
331.94800,-11.73389374
331.94850,-10.2079217
331.94900,-9.597532883
331.94950,-10.51311611
331.95000,-12.03908814
331.95050,-11.73389374
331.95100,-9.902727291
331.95150,-8.376755252
331.95200,-6.850783214
331.95250,-4.409227952
331.95300,-1.967672691
331.95350,-0.1365062443
331.95400,1.389465794
331.95450,3.831021056
331.95500,5.96738191
331.95550,5.96738191
331.95600,4.441409871
331.95650,5.051798687
331.95700,7.188159541
331.95750,8.714131579
331.95800,8.714131579
331.95850,8.408937171
331.95900,8.408937171
331.95950,7.798548356
331.96000,6.577770725
331.96050,6.577770725
331.96100,7.493353948
331.96150,6.577770725
331.96200,4.441409871
331.96250,2.915437833
331.96300,2.915437833
331.96350,2.305049017
331.96400,0.1686881634
331.96450,-1.357283875
331.96500,-1.357283875
331.96550,-1.662478283
331.96600,-2.883255914
331.96650,-4.104033544
331.96700,-4.71442236
331.96750,-5.630005583
331.96800,-8.071560845
331.96850,-10.2079217
331.96900,-10.51311611
331.96950,-10.2079217
331.97000,-10.81831051
331.97050,-12.03908814
331.97100,-10.81831051
331.97150,-8.071560845
331.97200,-5.935199991
331.97250,-5.630005583
331.97300,-4.71442236
331.97350,-2.883255914
331.97400,-1.357283875
331.97450,-1.357283875
331.97500,-1.967672691
331.97550,-1.052089467
331.97600,-0.1365062443
331.97650,0.1686881634
331.97700,-0.1365062443
331.97750,-0.1365062443
331.97800,1.694660202
331.97850,4.136215463
331.97900,5.96738191
331.97950,7.493353948
331.98000,8.103742764
331.98050,6.882965133
331.98100,5.051798687
331.98150,4.746604279
331.98200,6.272576317
331.98250,7.798548356
331.98300,8.714131579
331.98350,8.714131579
331.98400,8.103742764
331.98450,5.662187502
331.98500,2.305049017
331.98550,-0.441700652
331.98600,-1.967672691
331.98650,-3.188450321
331.98700,-4.71442236
331.98750,-6.545588806
331.98800,-8.376755252
331.98850,-10.2079217
331.98900,-10.81831051
331.98950,-10.51311611
331.99000,-9.597532883
331.99050,-9.292338475
331.99100,-8.376755252
331.99150,-5.935199991
331.99200,-2.883255914
331.99250,-1.052089467
331.99300,-1.052089467
331.99350,-1.357283875
331.99400,-0.1365062443
331.99450,1.694660202
331.99500,3.22063224
331.99550,4.136215463
331.99600,5.356993094
331.99650,6.882965133
331.99700,8.103742764
331.99750,9.019325987
331.99800,9.629714802
331.99850,10.85049243
331.99900,12.07127006
331.99950,12.07127006
332.00000,10.54529803
332.00050,8.714131579
332.00100,7.798548356
332.00150,6.577770725
332.00200,4.746604279
332.00250,2.305049017
332.00300,0.1686881634
332.00350,-0.441700652
332.00400,-0.7468950597
332.00450,-0.7468950597
332.00500,-1.662478283
332.00550,-3.493644729
332.00600,-5.019616768
332.00650,-5.019616768
332.00700,-4.104033544
332.00750,-3.493644729
332.00800,-5.019616768
332.00850,-7.155977621
332.00900,-8.071560845
332.00950,-8.071560845
332.01000,-8.68194966
332.01050,-8.68194966
332.01100,-7.461172029
332.01150,-5.630005583
332.01200,-4.71442236
332.01250,-4.71442236
332.01300,-4.409227952
332.01350,-3.188450321
332.01400,-2.272867098
332.01450,-1.662478283
332.01500,-0.441700652
332.01550,1.389465794
332.01600,2.915437833
332.01650,3.525826648
332.01700,3.525826648
332.01750,3.831021056
332.01800,3.831021056
332.01850,4.136215463
332.01900,5.051798687
332.01950,5.356993094
332.02000,4.441409871
332.02050,3.525826648
332.02100,3.525826648
332.02150,3.831021056
332.02200,2.610243425
332.02250,0.4738825711
332.02300,-0.1365062443
332.02350,1.389465794
332.02400,2.610243425
332.02450,1.389465794
332.02500,-1.052089467
332.02550,-3.188450321
332.02600,-4.409227952
332.02650,-5.324811175
332.02700,-5.935199991
332.02750,-5.935199991
332.02800,-5.324811175
332.02850,-5.019616768
332.02900,-5.324811175
332.02950,-5.324811175
332.03000,-5.324811175
332.03050,-5.324811175
332.03100,-3.798839137
332.03150,-1.052089467
332.03200,0.7790769788
332.03250,1.694660202
332.03300,1.99985461
332.03350,3.525826648
332.03400,5.96738191
332.03450,6.577770725
332.03500,5.356993094
332.03550,4.441409871
332.03600,5.356993094
332.03650,6.272576317
332.03700,5.96738191
332.03750,4.136215463
332.03800,2.915437833
332.03850,3.22063224
332.03900,4.441409871
332.03950,5.051798687
332.04000,4.746604279
332.04050,4.136215463
332.04100,3.22063224
332.04150,2.305049017
332.04200,0.4738825711
332.04250,-1.967672691
332.04300,-4.104033544
332.04350,-4.104033544
332.04400,-3.188450321
332.04450,-3.188450321
332.04500,-5.324811175
332.04550,-6.850783214
332.04600,-6.850783214
332.04650,-5.935199991
332.04700,-5.630005583
332.04750,-5.324811175
332.04800,-5.324811175
332.04850,-5.935199991
332.04900,-7.461172029
332.04950,-7.766366437
332.05000,-6.240394398
332.05050,-4.71442236
332.05100,-4.71442236
332.05150,-5.324811175
332.05200,-4.409227952
332.05250,-3.798839137
332.05300,-4.71442236
332.05350,-5.324811175
332.05400,-3.188450321
332.05450,0.7790769788
332.05500,4.136215463
332.05550,5.662187502
332.05600,6.882965133
332.05650,8.408937171
332.05700,8.714131579
332.05750,7.493353948
332.05800,6.882965133
332.05850,8.714131579
332.05900,10.54529803
332.05950,10.54529803
332.06000,9.019325987
332.06050,7.798548356
332.06100,6.577770725
332.06150,4.136215463
332.06200,1.694660202
332.06250,0.7790769788
332.06300,1.694660202
332.06350,1.694660202
332.06400,-0.1365062443
332.06450,-2.272867098
332.06500,-3.798839137
332.06550,-4.409227952
332.06600,-5.324811175
332.06650,-5.630005583
332.06700,-5.935199991
332.06750,-6.545588806
332.06800,-7.766366437
332.06850,-7.766366437
332.06900,-6.850783214
332.06950,-5.630005583
332.07000,-5.935199991
332.07050,-6.850783214
332.07100,-6.240394398
332.07150,-3.493644729
332.07200,-1.052089467
332.07250,-0.1365062443
332.07300,-0.7468950597
332.07350,-0.7468950597
332.07400,-0.1365062443
332.07450,1.084271386
332.07500,2.305049017
332.07550,3.525826648
332.07600,4.441409871
332.07650,4.441409871
332.07700,4.136215463
332.07750,4.746604279
332.07800,6.272576317
332.07850,6.882965133
332.07900,5.96738191
332.07950,5.356993094
332.08000,5.356993094
332.08050,5.051798687
332.08100,3.22063224
332.08150,1.694660202
332.08200,1.99985461
332.08250,2.915437833
332.08300,1.694660202
332.08350,-0.441700652
332.08400,-1.357283875
332.08450,-0.7468950597
332.08500,-0.7468950597
332.08550,-2.578061506
332.08600,-4.409227952
332.08650,-5.630005583
332.08700,-6.240394398
332.08750,-7.461172029
332.08800,-8.987144068
332.08850,-9.597532883
332.08900,-9.292338475
332.08950,-8.68194966
332.09000,-7.766366437
332.09050,-7.155977621
332.09100,-6.850783214
332.09150,-6.240394398
332.09200,-4.409227952
332.09250,-1.662478283
332.09300,-0.1365062443
332.09350,0.4738825711
332.09400,1.694660202
332.09450,3.525826648
332.09500,4.746604279
332.09550,5.356993094
332.09600,6.882965133
332.09650,9.324520394
332.09700,10.54529803
332.09750,9.629714802
332.09800,8.714131579
332.09850,9.324520394
332.09900,10.54529803
332.09950,10.85049243
332.10000,9.93490921
332.10050,9.019325987
332.10100,8.408937171
332.10150,7.493353948
332.10200,7.493353948
332.10250,7.188159541
332.10300,5.662187502
332.10350,2.305049017
332.10400,-0.1365062443
332.10450,-0.1365062443
332.10500,-0.7468950597
332.10550,-3.188450321
332.10600,-5.630005583
332.10650,-6.240394398
332.10700,-5.935199991
332.10750,-6.545588806
332.10800,-8.071560845
332.10850,-9.292338475
332.10900,-10.81831051
332.10950,-11.73389374
332.11000,-11.12350492
332.11050,-8.987144068
332.11100,-6.545588806
332.11150,-6.240394398
332.11200,-6.240394398
332.11250,-4.71442236
332.11300,-1.357283875
332.11350,1.084271386
332.11400,2.610243425
332.11450,3.525826648
332.11500,4.136215463
332.11550,3.22063224
332.11600,3.22063224
332.11650,5.051798687
332.11700,7.798548356
332.11750,9.629714802
332.11800,9.93490921
332.11850,9.93490921
332.11900,10.24010362
332.11950,9.629714802
332.12000,8.408937171
332.12050,6.882965133
332.12100,6.272576317
332.12150,5.356993094
332.12200,4.441409871
332.12250,3.831021056
332.12300,2.915437833
332.12350,1.389465794
332.12400,-0.7468950597
332.12450,-2.883255914
332.12500,-4.104033544
332.12550,-4.104033544
332.12600,-4.104033544
332.12650,-4.104033544
332.12700,-4.104033544
332.12750,-4.409227952
332.12800,-5.019616768
332.12850,-5.630005583
332.12900,-5.630005583
332.12950,-5.324811175
332.13000,-5.324811175
332.13050,-5.630005583
332.13100,-5.935199991
332.13150,-5.630005583
332.13200,-4.71442236
332.13250,-3.493644729
332.13300,-2.883255914
332.13350,-2.272867098
332.13400,-1.357283875
332.13450,-0.441700652
332.13500,-0.1365062443
332.13550,-0.1365062443
332.13600,0.1686881634
332.13650,0.7790769788
332.13700,1.99985461
332.13750,4.136215463
332.13800,6.577770725
332.13850,8.103742764
332.13900,8.714131579
332.13950,9.324520394
332.14000,9.324520394
332.14050,7.798548356
332.14100,5.96738191
332.14150,5.051798687
332.14200,5.051798687
332.14250,4.746604279
332.14300,3.525826648
332.14350,2.305049017
332.14400,1.389465794
332.14450,-0.441700652
332.14500,-3.493644729
332.14550,-5.324811175
332.14600,-5.630005583
332.14650,-5.630005583
332.14700,-7.461172029
332.14750,-9.292338475
332.14800,-10.2079217
332.14850,-10.2079217
332.14900,-10.51311611
332.14950,-10.51311611
332.15000,-10.2079217
332.15050,-9.902727291
332.15100,-10.51311611
332.15150,-10.51311611
332.15200,-9.292338475
332.15250,-7.461172029
332.15300,-6.850783214
332.15350,-6.545588806
332.15400,-5.324811175
332.15450,-2.883255914
332.15500,-0.1365062443
332.15550,1.694660202
332.15600,2.610243425
332.15650,2.915437833
332.15700,3.525826648
332.15750,4.746604279
332.15800,6.272576317
332.15850,7.493353948
332.15900,7.798548356
332.15950,7.188159541
332.16000,7.188159541
332.16050,7.188159541
332.16100,7.188159541
332.16150,6.882965133
332.16200,6.272576317
332.16250,6.272576317
332.16300,7.188159541
332.16350,6.272576317
332.16400,2.915437833
332.16450,-1.662478283
332.16500,-3.798839137
332.16550,-3.493644729
332.16600,-3.188450321
332.16650,-4.71442236
332.16700,-6.545588806
332.16750,-7.461172029
332.16800,-8.987144068
332.16850,-12.64947696
332.16900,-15.09103222
332.16950,-12.95467137
332.17000,-8.376755252
332.17050,-5.324811175
332.17100,-4.409227952
332.17150,-2.578061506
332.17200,0.7790769788
332.17250,2.915437833
332.17300,3.22063224
332.17350,2.610243425
332.17400,3.525826648
332.17450,5.051798687
332.17500,6.272576317
332.17550,7.493353948
332.17600,8.408937171
332.17650,7.798548356
332.17700,6.272576317
332.17750,5.662187502
332.17800,6.577770725
332.17850,7.493353948
332.17900,7.188159541
332.17950,6.577770725
332.18000,6.882965133
332.18050,6.577770725
332.18100,4.746604279
332.18150,3.22063224
332.18200,3.831021056
332.18250,5.051798687
332.18300,5.356993094
332.18350,5.051798687
332.18400,5.051798687
332.18450,4.746604279
332.18500,3.22063224
332.18550,0.7790769788
332.18600,-0.7468950597
332.18650,-1.052089467
332.18700,-1.052089467
332.18750,-2.272867098
332.18800,-4.409227952
332.18850,-6.850783214
332.18900,-7.766366437
332.18950,-8.376755252
332.19000,-9.292338475
332.19050,-9.902727291
332.19100,-9.597532883
332.19150,-7.766366437
332.19200,-5.935199991
332.19250,-4.71442236
332.19300,-3.798839137
332.19350,-1.662478283
332.19400,0.1686881634
332.19450,1.084271386
332.19500,1.389465794
332.19550,2.305049017
332.19600,4.441409871
332.19650,6.272576317
332.19700,6.577770725
332.19750,6.272576317
332.19800,5.96738191
332.19850,6.577770725
332.19900,7.798548356
332.19950,9.019325987
332.20000,9.019325987
332.20050,7.493353948
332.20100,5.356993094
332.20150,3.831021056
332.20200,2.915437833
332.20250,1.99985461
332.20300,0.4738825711
332.20350,-0.441700652
332.20400,-2.272867098
332.20450,-4.71442236
332.20500,-7.461172029
332.20550,-9.597532883
332.20600,-11.42869933
332.20650,-13.25986578
332.20700,-14.78583781
332.20750,-14.78583781
332.20800,-12.64947696
332.20850,-10.51311611
332.20900,-9.597532883
332.20950,-9.902727291
332.21000,-10.2079217
332.21050,-9.292338475
332.21100,-7.461172029
332.21150,-5.630005583
332.21200,-4.104033544
332.21250,-2.272867098
332.21300,-0.7468950597
332.21350,-0.1365062443
332.21400,-0.1365062443
332.21450,0.4738825711
332.21500,1.694660202
332.21550,2.305049017
332.21600,1.99985461
332.21650,1.99985461
332.21700,3.831021056
332.21750,6.272576317
332.21800,7.798548356
332.21850,8.408937171
332.21900,9.019325987
332.21950,9.019325987
332.22000,7.188159541
332.22050,4.441409871
332.22100,3.22063224
332.22150,3.525826648
332.22200,2.305049017
332.22250,-0.1365062443
332.22300,-2.578061506
332.22350,-3.188450321
332.22400,-3.493644729
332.22450,-3.798839137
332.22500,-3.798839137
332.22550,-3.188450321
332.22600,-3.798839137
332.22650,-5.324811175
332.22700,-6.240394398
332.22750,-6.240394398
332.22800,-6.240394398
332.22850,-7.461172029
332.22900,-8.376755252
332.22950,-7.766366437
332.23000,-7.155977621
332.23050,-7.155977621
332.23100,-6.850783214
332.23150,-5.630005583
332.23200,-3.798839137
332.23250,-2.578061506
332.23300,-1.967672691
332.23350,-0.441700652
332.23400,1.389465794
332.23450,3.22063224
332.23500,3.831021056
332.23550,3.831021056
332.23600,3.831021056
332.23650,4.136215463
332.23700,4.746604279
332.23750,5.356993094
332.23800,5.96738191
332.23850,6.577770725
332.23900,7.188159541
332.23950,7.188159541
332.24000,6.272576317
332.24050,4.441409871
332.24100,2.915437833
332.24150,1.694660202
332.24200,1.389465794
332.24250,1.389465794
332.24300,1.694660202
332.24350,1.694660202
332.24400,1.084271386
332.24450,0.1686881634
332.24500,-0.1365062443
332.24550,-0.7468950597
332.24600,-2.272867098
332.24650,-4.104033544
332.24700,-5.324811175
332.24750,-5.630005583
332.24800,-6.850783214
332.24850,-9.292338475
332.24900,-11.12350492
332.24950,-11.12350492
332.25000,-9.597532883
332.25050,-9.902727291
332.25100,-11.73389374
332.25150,-12.95467137
332.25200,-10.81831051
332.25250,-6.850783214
332.25300,-3.493644729
332.25350,-1.357283875
332.25400,0.7790769788
332.25450,4.136215463
332.25500,7.798548356
332.25550,9.93490921
332.25600,10.85049243
332.25650,11.46088125
332.25700,12.07127006
332.25750,12.37646447
332.25800,12.68165888
332.25850,13.29204769
332.25900,14.51282533
332.25950,14.51282533
332.26000,12.07127006
332.26050,9.324520394
332.26100,7.493353948
332.26150,7.188159541
332.26200,6.882965133
332.26250,7.188159541
332.26300,8.103742764
332.26350,9.324520394
332.26400,8.714131579
332.26450,6.577770725
332.26500,3.525826648
332.26550,0.7790769788
332.26600,-1.052089467
332.26650,-2.578061506
332.26700,-3.798839137
332.26750,-4.409227952
332.26800,-5.630005583
332.26850,-7.155977621
332.26900,-8.376755252
332.26950,-8.68194966
332.27000,-8.376755252
332.27050,-7.461172029
332.27100,-6.545588806
332.27150,-5.935199991
332.27200,-5.324811175
332.27250,-4.104033544
332.27300,-1.967672691
332.27350,-0.1365062443
332.27400,1.084271386
332.27450,0.7790769788
332.27500,0.4738825711
332.27550,0.4738825711
332.27600,0.7790769788
332.27650,1.389465794
332.27700,3.22063224
332.27750,5.96738191
332.27800,8.103742764
332.27850,8.714131579
332.27900,8.714131579
332.27950,9.324520394
332.28000,9.93490921
332.28050,9.324520394
332.28100,7.493353948
332.28150,5.356993094
332.28200,4.136215463
332.28250,3.525826648
332.28300,2.610243425
332.28350,0.7790769788
332.28400,-1.052089467
332.28450,-3.798839137
332.28500,-5.630005583
332.28550,-6.545588806
332.28600,-6.240394398
332.28650,-6.240394398
332.28700,-6.545588806
332.28750,-7.155977621
332.28800,-8.071560845
332.28850,-9.292338475
332.28900,-11.12350492
332.28950,-12.34428255
332.29000,-11.73389374
332.29050,-9.292338475
332.29100,-5.935199991
332.29150,-2.883255914
332.29200,-0.1365062443
332.29250,1.99985461
332.29300,3.22063224
332.29350,2.610243425
332.29400,1.084271386
332.29450,0.4738825711
332.29500,1.389465794
332.29550,2.915437833
332.29600,3.831021056
332.29650,3.22063224
332.29700,3.22063224
332.29750,3.831021056
332.29800,5.356993094
332.29850,6.882965133
332.29900,8.408937171
332.29950,9.93490921
332.30000,9.019325987
332.30050,5.96738191
332.30100,2.915437833
332.30150,1.99985461
332.30200,2.915437833
332.30250,3.525826648
332.30300,2.915437833
332.30350,1.694660202
332.30400,-0.7468950597
332.30450,-4.409227952
332.30500,-7.766366437
332.30550,-8.68194966
332.30600,-8.68194966
332.30650,-8.68194966
332.30700,-9.292338475
332.30750,-8.376755252
332.30800,-6.545588806
332.30850,-6.545588806
332.30900,-9.292338475
332.30950,-11.12350492
332.31000,-9.597532883
332.31050,-6.240394398
332.31100,-4.104033544
332.31150,-3.798839137
332.31200,-3.493644729
332.31250,-2.883255914
332.31300,-3.188450321
332.31350,-4.71442236
332.31400,-5.935199991
332.31450,-5.324811175
332.31500,-2.578061506
332.31550,0.4738825711
332.31600,4.136215463
332.31650,6.882965133
332.31700,8.714131579
332.31750,9.019325987
332.31800,8.408937171
332.31850,8.103742764
332.31900,8.714131579
332.31950,9.324520394
332.32000,9.324520394
332.32050,8.103742764
332.32100,6.882965133
332.32150,6.272576317
332.32200,5.356993094
332.32250,3.525826648
332.32300,1.084271386
332.32350,-0.441700652
332.32400,-1.052089467
332.32450,-1.967672691
332.32500,-4.409227952
332.32550,-6.850783214
332.32600,-7.461172029
332.32650,-7.461172029
332.32700,-7.461172029
332.32750,-8.376755252
332.32800,-9.292338475
332.32850,-8.987144068
332.32900,-8.68194966
332.32950,-8.071560845
332.33000,-8.071560845
332.33050,-8.376755252
332.33100,-8.68194966
332.33150,-8.376755252
332.33200,-7.461172029
332.33250,-6.545588806
332.33300,-5.630005583
332.33350,-4.104033544
332.33400,-1.662478283
332.33450,0.7790769788
332.33500,1.694660202
332.33550,2.305049017
332.33600,3.831021056
332.33650,6.577770725
332.33700,9.324520394
332.33750,10.24010362
332.33800,9.93490921
332.33850,9.019325987
332.33900,7.798548356
332.33950,6.882965133
332.34000,6.272576317
332.34050,5.96738191
332.34100,5.051798687
332.34150,4.441409871
332.34200,4.136215463
332.34250,3.525826648
332.34300,2.610243425
332.34350,1.389465794
332.34400,0.7790769788
332.34450,0.1686881634
332.34500,-1.052089467
332.34550,-3.493644729
332.34600,-5.630005583
332.34650,-6.850783214
332.34700,-7.461172029
332.34750,-8.68194966
332.34800,-9.902727291
332.34850,-11.12350492
332.34900,-11.73389374
332.34950,-11.42869933
332.35000,-10.81831051
332.35050,-10.81831051
332.35100,-11.12350492
332.35150,-10.51311611
332.35200,-8.987144068
332.35250,-7.461172029
332.35300,-6.850783214
332.35350,-6.240394398
332.35400,-4.71442236
332.35450,-1.662478283
332.35500,0.1686881634
332.35550,1.694660202
332.35600,2.915437833
332.35650,4.746604279
332.35700,6.577770725
332.35750,7.798548356
332.35800,8.714131579
332.35850,10.24010362
332.35900,12.07127006
332.35950,12.68165888
332.36000,12.37646447
332.36050,11.46088125
332.36100,10.54529803
332.36150,9.629714802
332.36200,8.103742764
332.36250,6.272576317
332.36300,4.136215463
332.36350,2.305049017
332.36400,1.084271386
332.36450,0.4738825711
332.36500,-0.1365062443
332.36550,-1.357283875
332.36600,-3.798839137
332.36650,-5.935199991
332.36700,-6.850783214
332.36750,-6.850783214
332.36800,-7.155977621
332.36850,-8.071560845
332.36900,-8.68194966
332.36950,-8.376755252
332.37000,-7.766366437
332.37050,-7.155977621
332.37100,-6.240394398
332.37150,-4.104033544
332.37200,-2.272867098
332.37250,-1.662478283
332.37300,-1.357283875
332.37350,-0.7468950597
332.37400,0.4738825711
332.37450,2.305049017
332.37500,3.525826648
332.37550,4.136215463
332.37600,4.441409871
332.37650,4.441409871
332.37700,3.831021056
332.37750,3.831021056
332.37800,4.136215463
332.37850,4.746604279
332.37900,5.051798687
332.37950,5.356993094
332.38000,5.662187502
332.38050,6.272576317
332.38100,6.882965133
332.38150,6.577770725
332.38200,5.051798687
332.38250,2.610243425
332.38300,0.4738825711
332.38350,-0.441700652
332.38400,-1.357283875
332.38450,-3.188450321
332.38500,-4.71442236
332.38550,-5.630005583
332.38600,-5.630005583
332.38650,-5.935199991
332.38700,-5.935199991
332.38750,-4.71442236
332.38800,-1.967672691
332.38850,0.1686881634
332.38900,1.084271386
332.38950,1.389465794
332.39000,1.084271386
332.39050,0.1686881634
332.39100,-0.7468950597
332.39150,-0.7468950597
332.39200,0.7790769788
332.39250,2.305049017
332.39300,1.389465794
332.39350,0.1686881634
332.39400,1.084271386
332.39450,3.525826648
332.39500,5.356993094
332.39550,6.272576317
332.39600,7.798548356
332.39650,9.629714802
332.39700,9.93490921
332.39750,9.019325987
332.39800,9.019325987
332.39850,10.24010362
332.39900,10.54529803
332.39950,8.103742764
332.40000,5.356993094
332.40050,4.746604279
332.40100,6.272576317
332.40150,7.493353948
332.40200,6.882965133
332.40250,4.746604279
332.40300,3.22063224
332.40350,2.915437833
332.40400,2.305049017
332.40450,0.4738825711
332.40500,-2.272867098
332.40550,-4.409227952
332.40600,-5.019616768
332.40650,-5.324811175
332.40700,-6.240394398
332.40750,-6.545588806
332.40800,-5.935199991
332.40850,-5.324811175
332.40900,-6.545588806
332.40950,-7.766366437
332.41000,-8.071560845
332.41050,-7.155977621
332.41100,-6.545588806
332.41150,-5.324811175
332.41200,-2.272867098
332.41250,0.4738825711
332.41300,1.694660202
332.41350,1.389465794
332.41400,2.610243425
332.41450,4.441409871
332.41500,4.746604279
332.41550,3.525826648
332.41600,2.915437833
332.41650,4.136215463
332.41700,5.356993094
332.41750,5.356993094
332.41800,4.136215463
332.41850,3.831021056
332.41900,4.441409871
332.41950,5.662187502
332.42000,7.188159541
332.42050,8.103742764
332.42100,7.188159541
332.42150,5.662187502
332.42200,5.051798687
332.42250,5.051798687
332.42300,4.136215463
332.42350,1.99985461
332.42400,-0.1365062443
332.42450,-0.1365062443
332.42500,-0.1365062443
332.42550,-1.052089467
332.42600,-2.578061506
332.42650,-3.493644729
332.42700,-3.798839137
332.42750,-4.71442236
332.42800,-5.935199991
332.42850,-5.935199991
332.42900,-5.019616768
332.42950,-5.630005583
332.43000,-8.071560845
332.43050,-8.987144068
332.43100,-7.155977621
332.43150,-5.019616768
332.43200,-4.409227952
332.43250,-4.409227952
332.43300,-3.188450321
332.43350,-1.052089467
332.43400,-0.7468950597
332.43450,-1.967672691
332.43500,-2.883255914
332.43550,-1.967672691
332.43600,-0.441700652
332.43650,0.7790769788
332.43700,1.084271386
332.43750,0.1686881634
332.43800,-0.7468950597
332.43850,-0.441700652
332.43900,1.389465794
332.43950,3.525826648
332.44000,3.525826648
332.44050,1.99985461
332.44100,1.084271386
332.44150,1.99985461
332.44200,2.915437833
332.44250,2.610243425
332.44300,1.389465794
332.44350,-0.1365062443
332.44400,-2.272867098
332.44450,-4.71442236
332.44500,-5.935199991
332.44550,-6.850783214
332.44600,-7.461172029
332.44650,-8.68194966
332.44700,-9.902727291
332.44750,-11.42869933
332.44800,-12.95467137
332.44850,-13.56506018
332.44900,-12.64947696
332.44950,-11.12350492
332.45000,-10.2079217
332.45050,-10.81831051
332.45100,-10.81831051
332.45150,-9.597532883
332.45200,-7.461172029
332.45250,-5.019616768
332.45300,-3.188450321
332.45350,-1.967672691
332.45400,-0.441700652
332.45450,1.99985461
332.45500,6.272576317
332.45550,9.629714802
332.45600,10.54529803
332.45650,9.324520394
332.45700,8.714131579
332.45750,9.019325987
332.45800,9.629714802
332.45850,9.019325987
332.45900,8.103742764
332.45950,7.798548356
332.46000,6.882965133
332.46050,5.051798687
332.46100,2.915437833
332.46150,2.305049017
332.46200,2.915437833
332.46250,2.915437833
332.46300,0.7790769788
332.46350,-1.662478283
332.46400,-2.883255914
332.46450,-2.883255914
332.46500,-3.798839137
332.46550,-5.019616768
332.46600,-5.935199991
332.46650,-5.324811175
332.46700,-5.019616768
332.46750,-6.240394398
332.46800,-7.461172029
332.46850,-7.461172029
332.46900,-5.935199991
332.46950,-5.324811175
332.47000,-5.630005583
332.47050,-6.545588806
332.47100,-6.850783214
332.47150,-5.324811175
332.47200,-3.188450321
332.47250,-1.357283875
332.47300,-1.662478283
332.47350,-3.188450321
332.47400,-3.798839137
332.47450,-2.883255914
332.47500,-1.662478283
332.47550,-1.357283875
332.47600,-1.662478283
332.47650,-1.052089467
332.47700,-0.1365062443
332.47750,1.389465794
332.47800,2.915437833
332.47850,4.136215463
332.47900,4.746604279
332.47950,4.136215463
332.48000,3.22063224
332.48050,4.136215463
332.48100,6.272576317
332.48150,7.493353948
332.48200,6.577770725
332.48250,4.136215463
332.48300,2.915437833
332.48350,2.305049017
332.48400,1.99985461
332.48450,1.99985461
332.48500,1.99985461
332.48550,1.084271386
332.48600,-0.1365062443
332.48650,-0.441700652
332.48700,0.4738825711
332.48750,2.610243425
332.48800,3.831021056
332.48850,3.22063224
332.48900,1.694660202
332.48950,0.4738825711
332.49000,-0.1365062443
332.49050,-0.1365062443
332.49100,-1.662478283
332.49150,-4.409227952
332.49200,-6.545588806
332.49250,-7.155977621
332.49300,-5.630005583
332.49350,-4.409227952
332.49400,-3.798839137
332.49450,-3.188450321
332.49500,-1.967672691
332.49550,-0.1365062443
332.49600,2.610243425
332.49650,5.662187502
332.49700,7.798548356
332.49750,8.408937171
332.49800,7.798548356
332.49850,6.882965133
332.49900,6.272576317
332.49950,5.96738191
332.50000,5.662187502
332.50050,5.051798687
332.50100,4.136215463
332.50150,3.831021056
332.50200,5.051798687
332.50250,5.96738191
332.50300,4.746604279
332.50350,1.99985461
332.50400,0.4738825711
332.50450,1.389465794
332.50500,2.305049017
332.50550,0.4738825711
332.50600,-1.662478283
332.50650,-2.578061506
332.50700,-2.578061506
332.50750,-3.798839137
332.50800,-6.240394398
332.50850,-7.461172029
332.50900,-7.155977621
332.50950,-7.461172029
332.51000,-9.902727291
332.51050,-11.42869933
332.51100,-10.51311611
332.51150,-7.766366437
332.51200,-5.019616768
332.51250,-2.272867098
332.51300,0.1686881634
332.51350,1.694660202
332.51400,2.610243425
332.51450,3.22063224
332.51500,4.746604279
332.51550,5.662187502
332.51600,5.96738191
332.51650,7.188159541
332.51700,9.629714802
332.51750,10.54529803
332.51800,8.408937171
332.51850,5.96738191
332.51900,5.96738191
332.51950,7.188159541
332.52000,6.882965133
332.52050,5.662187502
332.52100,5.356993094
332.52150,5.662187502
332.52200,4.441409871
332.52250,1.694660202
332.52300,0.1686881634
332.52350,0.4738825711
332.52400,-0.1365062443
332.52450,-2.883255914
332.52500,-5.324811175
332.52550,-5.935199991
332.52600,-5.935199991
332.52650,-7.461172029
332.52700,-9.902727291
332.52750,-10.81831051
332.52800,-10.2079217
332.52850,-10.2079217
332.52900,-10.51311611
332.52950,-11.12350492
332.53000,-11.42869933
332.53050,-11.42869933
332.53100,-11.12350492
332.53150,-9.902727291
332.53200,-8.071560845
332.53250,-5.935199991
332.53300,-3.493644729
332.53350,-1.052089467
332.53400,0.4738825711
332.53450,1.694660202
332.53500,2.305049017
332.53550,2.610243425
332.53600,2.305049017
332.53650,2.610243425
332.53700,4.136215463
332.53750,6.577770725
332.53800,7.493353948
332.53850,6.577770725
332.53900,5.356993094
332.53950,5.051798687
332.54000,4.746604279
332.54050,3.831021056
332.54100,2.915437833
332.54150,2.305049017
332.54200,1.694660202
332.54250,0.7790769788
332.54300,0.7790769788
332.54350,1.389465794
332.54400,0.4738825711
332.54450,-1.662478283
332.54500,-3.188450321
332.54550,-2.272867098
332.54600,-1.357283875
332.54650,-2.578061506
332.54700,-5.019616768
332.54750,-6.240394398
332.54800,-6.240394398
332.54850,-7.155977621
332.54900,-7.766366437
332.54950,-6.545588806
332.55000,-4.104033544
332.55050,-2.883255914
332.55100,-3.188450321
332.55150,-4.104033544
332.55200,-3.798839137
332.55250,-3.188450321
332.55300,-2.578061506
332.55350,-1.967672691
332.55400,-0.7468950597
332.55450,-0.1365062443
332.55500,1.694660202
332.55550,4.441409871
332.55600,7.493353948
332.55650,8.408937171
332.55700,7.798548356
332.55750,7.188159541
332.55800,7.188159541
332.55850,7.493353948
332.55900,7.493353948
332.55950,7.493353948
332.56000,7.493353948
332.56050,6.577770725
332.56100,5.356993094
332.56150,4.746604279
332.56200,5.051798687
332.56250,5.356993094
332.56300,5.662187502
332.56350,5.662187502
332.56400,5.356993094
332.56450,3.525826648
332.56500,1.389465794
332.56550,0.1686881634
332.56600,-0.441700652
332.56650,-2.272867098
332.56700,-5.019616768
332.56750,-6.850783214
332.56800,-7.766366437
332.56850,-8.071560845
332.56900,-8.376755252
332.56950,-7.766366437
332.57000,-6.240394398
332.57050,-5.324811175
332.57100,-5.324811175
332.57150,-5.324811175
332.57200,-3.798839137
332.57250,-1.357283875
332.57300,-0.1365062443
332.57350,-0.1365062443
332.57400,-0.441700652
332.57450,-0.1365062443
332.57500,1.084271386
332.57550,2.915437833
332.57600,4.746604279
332.57650,5.356993094
332.57700,5.662187502
332.57750,6.272576317
332.57800,7.493353948
332.57850,8.408937171
332.57900,7.798548356
332.57950,5.96738191
332.58000,5.051798687
332.58050,4.746604279
332.58100,4.746604279
332.58150,3.831021056
332.58200,3.525826648
