"type","name","time_units","begin_time","frequency","count","units"
"signal","Ultium EMG-EXT.DIG. RT","s",329.92000,2000,22000,"uV"

"time","value"
329.92000,0.7908210914
329.92050,-1.345539762
329.92100,-4.092289432
329.92150,-4.092289432
329.92200,-1.65073417
329.92250,-0.1247621317
329.92300,-1.040345355
329.92350,-2.871511801
329.92400,-3.787095024
329.92450,-4.39748384
329.92500,-5.61826147
329.92550,-6.533844693
329.92600,-5.007872655
329.92650,-1.65073417
329.92700,0.4856266837
329.92750,1.096015499
329.92800,2.011598722
329.92850,3.537570761
329.92900,4.453153984
329.92950,4.147959576
329.93000,5.063542799
329.93050,6.894709245
329.93100,8.115486876
329.93150,6.589514838
329.93200,3.842765168
329.93250,2.31679313
329.93300,1.706404315
329.93350,0.7908210914
329.93400,-0.7351509471
329.93450,-3.787095024
329.93500,-8.059816732
329.93550,-12.33253844
329.93600,-14.46889929
329.93650,-13.85851048
329.93700,-11.11176081
329.93750,-7.144233509
329.93800,-2.566317393
329.93850,1.096015499
329.93900,2.927181945
329.93950,2.927181945
329.94000,2.927181945
329.94050,4.453153984
329.94100,7.199903653
329.94150,9.031070099
329.94200,9.946653322
329.94250,10.55704214
329.94300,10.25184773
329.94350,9.031070099
329.94400,8.420681284
329.94450,8.115486876
329.94500,6.894709245
329.94550,4.147959576
329.94600,1.096015499
329.94650,-0.4299565394
329.94700,-2.261122986
329.94750,-4.092289432
329.94800,-5.007872655
329.94850,-5.007872655
329.94900,-6.228650286
329.94950,-9.58578877
329.95000,-12.94292726
329.95050,-12.63773285
329.95100,-9.890983178
329.95150,-7.754622324
329.95200,-6.228650286
329.95250,-4.39748384
329.95300,-2.566317393
329.95350,-3.176706209
329.95400,-5.007872655
329.95450,-5.313067063
329.95500,-4.39748384
329.95550,-4.39748384
329.95600,-5.313067063
329.95650,-5.007872655
329.95700,-3.787095024
329.95750,-3.787095024
329.95800,-4.092289432
329.95850,-1.955928578
329.95900,2.621987538
329.95950,5.673931615
329.96000,4.147959576
329.96050,2.31679313
329.96100,2.621987538
329.96150,3.842765168
329.96200,2.621987538
329.96250,0.7908210914
329.96300,0.7908210914
329.96350,2.621987538
329.96400,2.621987538
329.96450,-0.1247621317
329.96500,-2.261122986
329.96550,-2.871511801
329.96600,-2.566317393
329.96650,-3.176706209
329.96700,-4.39748384
329.96750,-4.39748384
329.96800,-4.39748384
329.96850,-5.007872655
329.96900,-5.923455878
329.96950,-5.313067063
329.97000,-2.871511801
329.97050,-0.7351509471
329.97100,-0.1247621317
329.97150,-0.1247621317
329.97200,1.706404315
329.97250,4.758348392
329.97300,6.894709245
329.97350,8.115486876
329.97400,8.725875692
329.97450,9.336264507
329.97500,8.420681284
329.97550,5.368737207
329.97600,1.706404315
329.97650,-0.1247621317
329.97700,-0.1247621317
329.97750,0.4856266837
329.97800,0.4856266837
329.97850,0.4856266837
329.97900,1.096015499
329.97950,1.706404315
329.98000,2.621987538
329.98050,3.537570761
329.98100,4.147959576
329.98150,3.842765168
329.98200,2.927181945
329.98250,2.011598722
329.98300,1.096015499
329.98350,0.180432276
329.98400,-0.1247621317
329.98450,-0.7351509471
329.98500,-1.955928578
329.98550,-3.176706209
329.98600,-4.702678247
329.98650,-6.839039101
329.98700,-9.58578877
329.98750,-12.33253844
329.98800,-13.24812166
329.98850,-11.41695522
329.98900,-8.975399955
329.98950,-8.059816732
329.99000,-8.36501114
329.99050,-8.36501114
329.99100,-8.059816732
329.99150,-7.144233509
329.99200,-5.007872655
329.99250,-0.7351509471
329.99300,3.232376353
329.99350,4.758348392
329.99400,3.232376353
329.99450,2.011598722
329.99500,2.31679313
329.99550,2.927181945
329.99600,1.706404315
329.99650,1.096015499
329.99700,4.147959576
329.99750,10.55704214
329.99800,15.13495825
329.99850,14.82976385
329.99900,12.08301418
329.99950,9.336264507
330.00000,6.894709245
330.00050,3.537570761
330.00100,0.7908210914
330.00150,-0.1247621317
330.00200,0.7908210914
330.00250,1.706404315
330.00300,2.011598722
330.00350,1.706404315
330.00400,1.096015499
330.00450,-0.1247621317
330.00500,-0.1247621317
330.00550,0.180432276
330.00600,0.4856266837
330.00650,-0.1247621317
330.00700,-1.345539762
330.00750,-0.7351509471
330.00800,-0.1247621317
330.00850,-1.65073417
330.00900,-5.61826147
330.00950,-7.449427917
330.01000,-5.923455878
330.01050,-3.787095024
330.01100,-3.787095024
330.01150,-4.092289432
330.01200,-2.261122986
330.01250,0.4856266837
330.01300,1.706404315
330.01350,-0.1247621317
330.01400,-2.261122986
330.01450,-2.261122986
330.01500,-1.040345355
330.01550,0.180432276
330.01600,0.7908210914
330.01650,1.096015499
330.01700,1.401209907
330.01750,2.621987538
330.01800,3.537570761
330.01850,4.147959576
330.01900,5.063542799
330.01950,6.28432043
330.02000,7.505098061
330.02050,7.810292469
330.02100,6.894709245
330.02150,5.368737207
330.02200,3.537570761
330.02250,0.4856266837
330.02300,-2.871511801
330.02350,-4.702678247
330.02400,-4.092289432
330.02450,-1.955928578
330.02500,-1.955928578
330.02550,-3.481900616
330.02600,-4.39748384
330.02650,-2.566317393
330.02700,0.180432276
330.02750,2.31679313
330.02800,2.31679313
330.02850,1.401209907
330.02900,0.7908210914
330.02950,0.4856266837
330.03000,0.180432276
330.03050,0.180432276
330.03100,-0.1247621317
330.03150,-0.1247621317
330.03200,-1.040345355
330.03250,-1.955928578
330.03300,-2.871511801
330.03350,-4.092289432
330.03400,-5.313067063
330.03450,-6.533844693
330.03500,-6.228650286
330.03550,-4.702678247
330.03600,-2.566317393
330.03650,-1.040345355
330.03700,-0.4299565394
330.03750,-0.4299565394
330.03800,-0.1247621317
330.03850,0.4856266837
330.03900,0.4856266837
330.03950,-1.040345355
330.04000,-3.481900616
330.04050,-3.481900616
330.04100,-1.040345355
330.04150,1.096015499
330.04200,1.401209907
330.04250,1.401209907
330.04300,3.232376353
330.04350,5.368737207
330.04400,3.842765168
330.04450,-0.4299565394
330.04500,-4.702678247
330.04550,-5.61826147
330.04600,-4.702678247
330.04650,-3.787095024
330.04700,-2.871511801
330.04750,-1.65073417
330.04800,0.180432276
330.04850,2.011598722
330.04900,2.927181945
330.04950,1.706404315
330.05000,-0.4299565394
330.05050,-1.955928578
330.05100,-1.955928578
330.05150,-1.345539762
330.05200,-1.040345355
330.05250,-0.4299565394
330.05300,-0.1247621317
330.05350,0.180432276
330.05400,-0.1247621317
330.05450,-0.1247621317
330.05500,0.7908210914
330.05550,1.096015499
330.05600,-0.4299565394
330.05650,-2.871511801
330.05700,-3.481900616
330.05750,-1.65073417
330.05800,-0.4299565394
330.05850,-0.4299565394
330.05900,-1.345539762
330.05950,-1.345539762
330.06000,-0.1247621317
330.06050,1.706404315
330.06100,4.147959576
330.06150,5.368737207
330.06200,4.758348392
330.06250,4.147959576
330.06300,4.147959576
330.06350,4.453153984
330.06400,4.758348392
330.06450,5.979126022
330.06500,8.115486876
330.06550,9.031070099
330.06600,6.894709245
330.06650,3.232376353
330.06700,2.011598722
330.06750,2.31679313
330.06800,2.31679313
330.06850,1.096015499
330.06900,-0.1247621317
330.06950,-1.040345355
330.07000,-3.481900616
330.07050,-6.839039101
330.07100,-7.754622324
330.07150,-5.313067063
330.07200,-2.566317393
330.07250,-2.261122986
330.07300,-3.481900616
330.07350,-3.481900616
330.07400,-3.176706209
330.07450,-4.702678247
330.07500,-7.144233509
330.07550,-7.449427917
330.07600,-5.923455878
330.07650,-5.007872655
330.07700,-5.007872655
330.07750,-4.092289432
330.07800,-1.345539762
330.07850,1.096015499
330.07900,2.31679313
330.07950,3.232376353
330.08000,4.758348392
330.08050,5.979126022
330.08100,5.673931615
330.08150,4.453153984
330.08200,2.927181945
330.08250,1.706404315
330.08300,0.180432276
330.08350,-1.345539762
330.08400,-3.176706209
330.08450,-5.007872655
330.08500,-7.449427917
330.08550,-9.58578877
330.08600,-10.19617759
330.08650,-8.975399955
330.08700,-6.839039101
330.08750,-5.61826147
330.08800,-5.61826147
330.08850,-5.007872655
330.08900,-1.040345355
330.08950,6.894709245
330.09000,14.21937503
330.09050,15.74534707
330.09100,11.77781977
330.09150,7.810292469
330.09200,7.810292469
330.09250,9.641458915
330.09300,9.946653322
330.09350,7.199903653
330.09400,3.232376353
330.09450,0.180432276
330.09500,-0.7351509471
330.09550,-0.7351509471
330.09600,-0.4299565394
330.09650,-1.345539762
330.09700,-3.481900616
330.09750,-5.007872655
330.09800,-5.007872655
330.09850,-4.092289432
330.09900,-3.787095024
330.09950,-3.481900616
330.10000,-3.176706209
330.10050,-2.566317393
330.10100,-2.871511801
330.10150,-3.787095024
330.10200,-4.092289432
330.10250,-3.787095024
330.10300,-2.566317393
330.10350,-1.040345355
330.10400,-0.7351509471
330.10450,-1.345539762
330.10500,-2.261122986
330.10550,-1.345539762
330.10600,0.180432276
330.10650,0.4856266837
330.10700,-0.7351509471
330.10750,-2.261122986
330.10800,-2.261122986
330.10850,-1.345539762
330.10900,-0.4299565394
330.10950,-0.1247621317
330.11000,-0.1247621317
330.11050,-1.65073417
330.11100,-2.871511801
330.11150,-1.955928578
330.11200,1.096015499
330.11250,2.621987538
330.11300,0.7908210914
330.11350,-0.7351509471
330.11400,0.4856266837
330.11450,3.232376353
330.11500,4.147959576
330.11550,3.842765168
330.11600,4.453153984
330.11650,6.589514838
330.11700,6.894709245
330.11750,4.453153984
330.11800,2.011598722
330.11850,2.31679313
330.11900,4.453153984
330.11950,5.673931615
330.12000,5.063542799
330.12050,3.537570761
330.12100,2.621987538
330.12150,1.401209907
330.12200,-0.1247621317
330.12250,-2.261122986
330.12300,-3.481900616
330.12350,-3.787095024
330.12400,-3.176706209
330.12450,-3.787095024
330.12500,-5.007872655
330.12550,-6.228650286
330.12600,-6.533844693
330.12650,-5.61826147
330.12700,-4.39748384
330.12750,-3.176706209
330.12800,-1.65073417
330.12850,1.096015499
330.12900,3.842765168
330.12950,4.758348392
330.13000,2.621987538
330.13050,-0.1247621317
330.13100,-0.4299565394
330.13150,1.706404315
330.13200,3.537570761
330.13250,1.706404315
330.13300,-1.65073417
330.13350,-5.007872655
330.13400,-8.36501114
330.13450,-10.8065664
330.13500,-10.50137199
330.13550,-5.61826147
330.13600,-0.1247621317
330.13650,1.096015499
330.13700,-0.4299565394
330.13750,-1.955928578
330.13800,-1.345539762
330.13850,-0.7351509471
330.13900,-1.040345355
330.13950,-0.4299565394
330.14000,1.706404315
330.14050,2.927181945
330.14100,1.706404315
330.14150,0.4856266837
330.14200,1.706404315
330.14250,4.453153984
330.14300,5.673931615
330.14350,5.368737207
330.14400,5.368737207
330.14450,7.505098061
330.14500,9.641458915
330.14550,9.031070099
330.14600,5.673931615
330.14650,1.401209907
330.14700,-1.040345355
330.14750,-2.261122986
330.14800,-2.566317393
330.14850,-2.261122986
330.14900,-2.261122986
330.14950,-2.871511801
330.15000,-3.787095024
330.15050,-4.092289432
330.15100,-2.261122986
330.15150,0.180432276
330.15200,1.706404315
330.15250,1.096015499
330.15300,-0.1247621317
330.15350,-0.1247621317
330.15400,0.4856266837
330.15450,0.7908210914
330.15500,0.180432276
330.15550,-0.1247621317
330.15600,-0.1247621317
330.15650,-0.1247621317
330.15700,-0.1247621317
330.15750,-0.4299565394
330.15800,-1.345539762
330.15850,-1.65073417
330.15900,-1.65073417
330.15950,-1.345539762
330.16000,-0.1247621317
330.16050,0.4856266837
330.16100,1.401209907
330.16150,2.011598722
330.16200,2.31679313
330.16250,2.31679313
330.16300,0.7908210914
330.16350,-1.65073417
330.16400,-3.787095024
330.16450,-3.481900616
330.16500,-1.345539762
330.16550,-0.4299565394
330.16600,-1.040345355
330.16650,-1.65073417
330.16700,-0.7351509471
330.16750,0.180432276
330.16800,0.180432276
330.16850,-0.1247621317
330.16900,0.4856266837
330.16950,2.31679313
330.17000,2.621987538
330.17050,0.7908210914
330.17100,-1.040345355
330.17150,-2.261122986
330.17200,-2.261122986
330.17250,-2.261122986
330.17300,-2.871511801
330.17350,-4.092289432
330.17400,-5.61826147
330.17450,-6.533844693
330.17500,-6.533844693
330.17550,-5.007872655
330.17600,-2.261122986
330.17650,0.180432276
330.17700,1.706404315
330.17750,2.011598722
330.17800,3.232376353
330.17850,6.589514838
330.17900,9.946653322
330.17950,10.25184773
330.18000,7.505098061
330.18050,5.368737207
330.18100,5.368737207
330.18150,6.894709245
330.18200,6.894709245
330.18250,5.368737207
330.18300,3.842765168
330.18350,2.927181945
330.18400,2.31679313
330.18450,1.401209907
330.18500,0.180432276
330.18550,-0.1247621317
330.18600,-0.4299565394
330.18650,-1.65073417
330.18700,-4.092289432
330.18750,-5.923455878
330.18800,-5.61826147
330.18850,-2.261122986
330.18900,0.7908210914
330.18950,2.31679313
330.19000,2.621987538
330.19050,2.927181945
330.19100,3.842765168
330.19150,3.537570761
330.19200,2.31679313
330.19250,2.011598722
330.19300,2.927181945
330.19350,2.621987538
330.19400,-0.1247621317
330.19450,-2.871511801
330.19500,-4.702678247
330.19550,-5.007872655
330.19600,-4.702678247
330.19650,-4.092289432
330.19700,-3.176706209
330.19750,-2.261122986
330.19800,-1.65073417
330.19850,-0.1247621317
330.19900,2.621987538
330.19950,3.232376353
330.20000,0.4856266837
330.20050,-2.871511801
330.20100,-3.481900616
330.20150,-1.040345355
330.20200,1.096015499
330.20250,1.706404315
330.20300,0.180432276
330.20350,-1.345539762
330.20400,-3.481900616
330.20450,-4.39748384
330.20500,-3.787095024
330.20550,-1.65073417
330.20600,0.4856266837
330.20650,0.7908210914
330.20700,-1.040345355
330.20750,-4.39748384
330.20800,-7.449427917
330.20850,-9.280594363
330.20900,-9.890983178
330.20950,-9.280594363
330.21000,-8.36501114
330.21050,-7.449427917
330.21100,-6.839039101
330.21150,-5.313067063
330.21200,-2.261122986
330.21250,1.096015499
330.21300,4.453153984
330.21350,6.894709245
330.21400,8.420681284
330.21450,10.25184773
330.21500,12.9985974
330.21550,15.44015266
330.21600,14.82976385
330.21650,9.946653322
330.21700,4.147959576
330.21750,1.401209907
330.21800,2.011598722
330.21850,3.537570761
330.21900,3.842765168
330.21950,2.621987538
330.22000,1.401209907
330.22050,0.7908210914
330.22100,0.4856266837
330.22150,0.7908210914
330.22200,0.7908210914
330.22250,0.4856266837
330.22300,0.180432276
330.22350,-0.1247621317
330.22400,-1.040345355
330.22450,-3.787095024
330.22500,-7.449427917
330.22550,-9.890983178
330.22600,-9.280594363
330.22650,-7.144233509
330.22700,-5.923455878
330.22750,-5.61826147
330.22800,-5.313067063
330.22850,-4.39748384
330.22900,-4.092289432
330.22950,-4.702678247
330.23000,-5.007872655
330.23050,-4.092289432
330.23100,-2.566317393
330.23150,-1.345539762
330.23200,-1.65073417
330.23250,-2.261122986
330.23300,-2.566317393
330.23350,-1.955928578
330.23400,-1.65073417
330.23450,-1.955928578
330.23500,-2.566317393
330.23550,-2.566317393
330.23600,-1.955928578
330.23650,-1.040345355
330.23700,-1.040345355
330.23750,-1.345539762
330.23800,-0.7351509471
330.23850,-0.1247621317
330.23900,-0.7351509471
330.23950,-2.566317393
330.24000,-3.787095024
330.24050,-3.481900616
330.24100,-2.261122986
330.24150,-1.65073417
330.24200,-1.345539762
330.24250,-0.4299565394
330.24300,0.180432276
330.24350,-0.1247621317
330.24400,-0.1247621317
330.24450,1.096015499
330.24500,3.537570761
330.24550,4.147959576
330.24600,1.706404315
330.24650,-0.1247621317
330.24700,-0.1247621317
330.24750,1.401209907
330.24800,1.401209907
330.24850,-0.1247621317
330.24900,-1.345539762
330.24950,-0.4299565394
330.25000,1.401209907
330.25050,3.232376353
330.25100,3.537570761
330.25150,2.927181945
330.25200,1.706404315
330.25250,0.7908210914
330.25300,0.7908210914
330.25350,0.7908210914
330.25400,-0.1247621317
330.25450,-0.4299565394
330.25500,-0.1247621317
330.25550,-0.1247621317
330.25600,-0.4299565394
330.25650,-1.345539762
330.25700,-2.566317393
330.25750,-2.871511801
330.25800,-2.566317393
330.25850,-1.345539762
330.25900,1.096015499
330.25950,3.232376353
330.26000,3.842765168
330.26050,3.842765168
330.26100,4.147959576
330.26150,4.758348392
330.26200,4.758348392
330.26250,3.232376353
330.26300,1.706404315
330.26350,1.096015499
330.26400,0.4856266837
330.26450,-0.1247621317
330.26500,-0.4299565394
330.26550,-0.1247621317
330.26600,0.7908210914
330.26650,0.7908210914
330.26700,0.180432276
330.26750,-0.1247621317
330.26800,0.4856266837
330.26850,1.706404315
330.26900,2.011598722
330.26950,0.7908210914
330.27000,-0.4299565394
330.27050,-0.7351509471
330.27100,-0.4299565394
330.27150,-0.4299565394
330.27200,-1.040345355
330.27250,-0.7351509471
330.27300,-0.1247621317
330.27350,-0.1247621317
330.27400,-0.1247621317
330.27450,0.180432276
330.27500,2.31679313
330.27550,3.842765168
330.27600,3.842765168
330.27650,3.842765168
330.27700,4.758348392
330.27750,5.063542799
330.27800,3.232376353
330.27850,0.7908210914
330.27900,0.7908210914
330.27950,2.927181945
330.28000,4.147959576
330.28050,3.537570761
330.28100,2.621987538
330.28150,2.621987538
330.28200,2.31679313
330.28250,1.096015499
330.28300,-0.1247621317
330.28350,-0.7351509471
330.28400,-1.040345355
330.28450,-1.955928578
330.28500,-2.261122986
330.28550,-1.65073417
330.28600,-0.4299565394
330.28650,-0.7351509471
330.28700,-1.345539762
330.28750,-1.345539762
330.28800,-0.1247621317
330.28850,0.180432276
330.28900,0.180432276
330.28950,-0.1247621317
330.29000,-0.1247621317
330.29050,-1.65073417
330.29100,-3.481900616
330.29150,-5.007872655
330.29200,-5.007872655
330.29250,-5.313067063
330.29300,-5.923455878
330.29350,-5.923455878
330.29400,-5.313067063
330.29450,-4.39748384
330.29500,-3.787095024
330.29550,-2.566317393
330.29600,-0.1247621317
330.29650,2.31679313
330.29700,3.842765168
330.29750,5.673931615
330.29800,8.725875692
330.29850,11.47262536
330.29900,10.25184773
330.29950,5.673931615
330.30000,2.31679313
330.30050,2.621987538
330.30100,4.758348392
330.30150,5.673931615
330.30200,4.758348392
330.30250,3.537570761
330.30300,3.232376353
330.30350,2.927181945
330.30400,1.401209907
330.30450,-0.1247621317
330.30500,-1.955928578
330.30550,-3.481900616
330.30600,-3.787095024
330.30650,-2.566317393
330.30700,-0.1247621317
330.30750,1.401209907
330.30800,0.4856266837
330.30850,-1.955928578
330.30900,-4.39748384
330.30950,-5.007872655
330.31000,-5.61826147
330.31050,-6.533844693
330.31100,-8.36501114
330.31150,-9.890983178
330.31200,-10.8065664
330.31250,-10.8065664
330.31300,-9.58578877
330.31350,-6.839039101
330.31400,-3.787095024
330.31450,-0.1247621317
330.31500,3.537570761
330.31550,8.115486876
330.31600,11.16743095
330.31650,12.08301418
330.31700,11.77781977
330.31750,11.16743095
330.31800,9.336264507
330.31850,5.979126022
330.31900,2.31679313
330.31950,0.7908210914
330.32000,0.180432276
330.32050,-1.955928578
330.32100,-6.228650286
330.32150,-8.059816732
330.32200,-5.923455878
330.32250,-2.871511801
330.32300,-1.955928578
330.32350,-3.176706209
330.32400,-4.092289432
330.32450,-3.787095024
330.32500,-2.871511801
330.32550,-1.65073417
330.32600,-0.4299565394
330.32650,-0.1247621317
330.32700,-0.7351509471
330.32750,-2.871511801
330.32800,-5.007872655
330.32850,-6.839039101
330.32900,-6.839039101
330.32950,-4.702678247
330.33000,-2.261122986
330.33050,-2.566317393
330.33100,-5.007872655
330.33150,-6.533844693
330.33200,-5.007872655
330.33250,-3.176706209
330.33300,-3.481900616
330.33350,-4.39748384
330.33400,-3.176706209
330.33450,-0.4299565394
330.33500,0.7908210914
330.33550,1.401209907
330.33600,2.621987538
330.33650,4.758348392
330.33700,5.368737207
330.33750,4.147959576
330.33800,2.621987538
330.33850,1.706404315
330.33900,0.4856266837
330.33950,-0.7351509471
330.34000,-1.040345355
330.34050,-0.1247621317
330.34100,-0.4299565394
330.34150,-1.65073417
330.34200,-1.345539762
330.34250,0.7908210914
330.34300,2.927181945
330.34350,2.011598722
330.34400,-0.7351509471
330.34450,-2.871511801
330.34500,-2.871511801
330.34550,-1.955928578
330.34600,-0.7351509471
330.34650,-0.4299565394
330.34700,-1.040345355
330.34750,-2.566317393
330.34800,-2.871511801
330.34850,-1.65073417
330.34900,-0.7351509471
330.34950,-1.65073417
330.35000,-3.176706209
330.35050,-2.871511801
330.35100,-1.65073417
330.35150,-1.65073417
330.35200,-2.871511801
330.35250,-3.787095024
330.35300,-3.176706209
330.35350,-2.261122986
330.35400,-1.955928578
330.35450,-1.65073417
330.35500,-1.345539762
330.35550,-1.65073417
330.35600,-3.481900616
330.35650,-5.007872655
330.35700,-4.092289432
330.35750,-1.65073417
330.35800,-1.040345355
330.35850,-2.566317393
330.35900,-2.871511801
330.35950,-0.7351509471
330.36000,1.706404315
330.36050,1.706404315
330.36100,-0.1247621317
330.36150,-1.345539762
330.36200,-1.345539762
330.36250,-1.040345355
330.36300,-1.65073417
330.36350,-1.955928578
330.36400,-1.040345355
330.36450,1.096015499
330.36500,2.31679313
330.36550,2.011598722
330.36600,1.706404315
330.36650,2.011598722
330.36700,3.232376353
330.36750,4.147959576
330.36800,5.368737207
330.36850,8.725875692
330.36900,12.9985974
330.36950,15.13495825
330.37000,13.60898621
330.37050,9.031070099
330.37100,5.368737207
330.37150,4.147959576
330.37200,4.147959576
330.37250,3.842765168
330.37300,2.621987538
330.37350,1.096015499
330.37400,-0.1247621317
330.37450,-0.4299565394
330.37500,-0.1247621317
330.37550,-0.7351509471
330.37600,-2.566317393
330.37650,-3.176706209
330.37700,-1.955928578
330.37750,-0.4299565394
330.37800,-0.1247621317
330.37850,-0.4299565394
330.37900,-0.4299565394
330.37950,-0.1247621317
330.38000,0.4856266837
330.38050,0.4856266837
330.38100,1.096015499
330.38150,1.401209907
330.38200,1.401209907
330.38250,0.7908210914
330.38300,-0.1247621317
330.38350,-0.1247621317
330.38400,-0.4299565394
330.38450,-0.1247621317
330.38500,0.4856266837
330.38550,1.401209907
330.38600,0.4856266837
330.38650,-1.040345355
330.38700,-2.566317393
330.38750,-3.176706209
330.38800,-3.787095024
330.38850,-5.007872655
330.38900,-5.313067063
330.38950,-4.702678247
330.39000,-4.092289432
330.39050,-4.702678247
330.39100,-5.61826147
330.39150,-5.313067063
330.39200,-3.787095024
330.39250,-2.261122986
330.39300,-1.955928578
330.39350,-2.261122986
330.39400,-1.955928578
330.39450,-1.040345355
330.39500,-0.4299565394
330.39550,-0.1247621317
330.39600,1.096015499
330.39650,2.621987538
330.39700,3.842765168
330.39750,3.842765168
330.39800,2.927181945
330.39850,2.927181945
330.39900,2.927181945
330.39950,2.011598722
330.40000,0.7908210914
330.40050,-0.1247621317
330.40100,-0.1247621317
330.40150,-0.1247621317
330.40200,-0.4299565394
330.40250,-0.4299565394
330.40300,-0.1247621317
330.40350,0.4856266837
330.40400,0.4856266837
330.40450,-0.1247621317
330.40500,-0.1247621317
330.40550,-0.1247621317
330.40600,0.7908210914
330.40650,2.011598722
330.40700,2.927181945
330.40750,2.31679313
330.40800,1.401209907
330.40850,0.4856266837
330.40900,0.180432276
330.40950,0.180432276
330.41000,0.7908210914
330.41050,1.706404315
330.41100,2.31679313
330.41150,2.011598722
330.41200,1.706404315
330.41250,2.011598722
330.41300,2.621987538
330.41350,3.232376353
330.41400,3.842765168
330.41450,4.453153984
330.41500,4.147959576
330.41550,2.927181945
330.41600,2.31679313
330.41650,2.621987538
330.41700,2.927181945
330.41750,2.621987538
330.41800,2.011598722
330.41850,2.011598722
330.41900,2.011598722
330.41950,2.011598722
330.42000,2.011598722
330.42050,2.621987538
330.42100,2.621987538
330.42150,2.31679313
330.42200,2.927181945
330.42250,5.063542799
330.42300,6.28432043
330.42350,4.453153984
330.42400,0.7908210914
330.42450,-2.566317393
330.42500,-4.39748384
330.42550,-4.092289432
330.42600,-3.176706209
330.42650,-1.955928578
330.42700,-1.65073417
330.42750,-3.176706209
330.42800,-5.923455878
330.42850,-7.754622324
330.42900,-8.059816732
330.42950,-6.839039101
330.43000,-5.007872655
330.43050,-2.871511801
330.43100,-1.040345355
330.43150,-0.1247621317
330.43200,-0.1247621317
330.43250,0.4856266837
330.43300,0.4856266837
330.43350,-0.4299565394
330.43400,-1.955928578
330.43450,-1.955928578
330.43500,-1.040345355
330.43550,-0.4299565394
330.43600,-0.7351509471
330.43650,-0.1247621317
330.43700,0.180432276
330.43750,-0.1247621317
330.43800,-1.65073417
330.43850,-2.871511801
330.43900,-1.955928578
330.43950,-0.4299565394
330.44000,-0.4299565394
330.44050,-1.65073417
330.44100,-1.65073417
330.44150,-0.1247621317
330.44200,2.011598722
330.44250,2.927181945
330.44300,3.232376353
330.44350,3.842765168
330.44400,3.842765168
330.44450,2.011598722
330.44500,-0.7351509471
330.44550,-2.566317393
330.44600,-2.566317393
330.44650,-1.040345355
330.44700,-0.1247621317
330.44750,-0.1247621317
330.44800,-0.4299565394
330.44850,-0.7351509471
330.44900,-1.040345355
330.44950,-1.040345355
330.45000,-1.040345355
330.45050,-1.345539762
330.45100,-1.65073417
330.45150,-1.65073417
330.45200,-1.040345355
330.45250,-0.1247621317
330.45300,0.180432276
330.45350,-0.1247621317
330.45400,-0.1247621317
330.45450,0.180432276
330.45500,1.096015499
330.45550,1.401209907
330.45600,1.096015499
330.45650,1.096015499
330.45700,1.401209907
330.45750,2.31679313
330.45800,3.232376353
330.45850,3.537570761
330.45900,2.927181945
330.45950,2.011598722
330.46000,1.706404315
330.46050,2.621987538
330.46100,2.927181945
330.46150,0.7908210914
330.46200,-1.955928578
330.46250,-3.176706209
330.46300,-1.955928578
330.46350,-0.4299565394
330.46400,-1.040345355
330.46450,-2.261122986
330.46500,-1.955928578
330.46550,-0.4299565394
330.46600,0.180432276
330.46650,-0.1247621317
330.46700,-0.7351509471
330.46750,-1.040345355
330.46800,-0.7351509471
330.46850,-1.040345355
330.46900,-1.955928578
330.46950,-2.871511801
330.47000,-4.39748384
330.47050,-5.313067063
330.47100,-5.007872655
330.47150,-3.176706209
330.47200,-1.040345355
330.47250,-0.1247621317
330.47300,-1.040345355
330.47350,-2.871511801
330.47400,-4.39748384
330.47450,-4.39748384
330.47500,-3.787095024
330.47550,-2.871511801
330.47600,-1.345539762
330.47650,-0.4299565394
330.47700,-0.4299565394
330.47750,-0.4299565394
330.47800,-0.1247621317
330.47850,1.096015499
330.47900,1.096015499
330.47950,-0.7351509471
330.48000,-1.955928578
330.48050,-1.040345355
330.48100,0.7908210914
330.48150,2.011598722
330.48200,2.011598722
330.48250,2.927181945
330.48300,4.147959576
330.48350,4.147959576
330.48400,3.232376353
330.48450,2.621987538
330.48500,2.927181945
330.48550,3.537570761
330.48600,2.621987538
330.48650,0.7908210914
330.48700,-0.1247621317
330.48750,-1.040345355
330.48800,-1.65073417
330.48850,-1.955928578
330.48900,-1.65073417
330.48950,-1.040345355
330.49000,-0.1247621317
330.49050,0.4856266837
330.49100,0.7908210914
330.49150,-0.1247621317
330.49200,-1.65073417
330.49250,-2.871511801
330.49300,-2.566317393
330.49350,-1.955928578
330.49400,-1.345539762
330.49450,-1.65073417
330.49500,-1.65073417
330.49550,-1.345539762
330.49600,-0.4299565394
330.49650,0.7908210914
330.49700,1.401209907
330.49750,1.401209907
330.49800,1.401209907
330.49850,2.011598722
330.49900,3.232376353
330.49950,3.537570761
330.50000,3.232376353
330.50050,3.232376353
330.50100,3.537570761
330.50150,3.537570761
330.50200,3.232376353
330.50250,2.927181945
330.50300,3.232376353
330.50350,3.842765168
330.50400,2.927181945
330.50450,1.096015499
330.50500,-0.1247621317
330.50550,-0.1247621317
330.50600,-0.7351509471
330.50650,-2.566317393
330.50700,-4.092289432
330.50750,-3.481900616
330.50800,-2.261122986
330.50850,-2.261122986
330.50900,-3.787095024
330.50950,-4.092289432
330.51000,-2.566317393
330.51050,-1.345539762
330.51100,-1.955928578
330.51150,-2.566317393
330.51200,-2.261122986
330.51250,-1.65073417
330.51300,-1.65073417
330.51350,-1.955928578
330.51400,-2.261122986
330.51450,-1.955928578
330.51500,-1.040345355
330.51550,0.4856266837
330.51600,2.011598722
330.51650,2.011598722
330.51700,0.7908210914
330.51750,-0.1247621317
330.51800,0.180432276
330.51850,0.7908210914
330.51900,0.4856266837
330.51950,0.180432276
330.52000,-0.1247621317
330.52050,-1.040345355
330.52100,-1.65073417
330.52150,-1.040345355
330.52200,0.180432276
330.52250,1.096015499
330.52300,0.4856266837
330.52350,-0.1247621317
330.52400,0.180432276
330.52450,0.7908210914
330.52500,-0.1247621317
330.52550,-1.040345355
330.52600,-1.040345355
330.52650,-0.4299565394
330.52700,-0.1247621317
330.52750,-0.7351509471
330.52800,-0.7351509471
330.52850,-0.4299565394
330.52900,-0.4299565394
330.52950,-1.345539762
330.53000,-1.345539762
330.53050,-1.040345355
330.53100,-1.040345355
330.53150,-1.955928578
330.53200,-2.871511801
330.53250,-2.261122986
330.53300,-1.040345355
330.53350,-1.65073417
330.53400,-4.092289432
330.53450,-5.61826147
330.53500,-5.007872655
330.53550,-2.566317393
330.53600,-0.7351509471
330.53650,-0.1247621317
330.53700,0.7908210914
330.53750,2.31679313
330.53800,3.232376353
330.53850,2.927181945
330.53900,2.011598722
330.53950,1.401209907
330.54000,1.401209907
330.54050,1.401209907
330.54100,0.7908210914
330.54150,-0.1247621317
330.54200,-0.7351509471
330.54250,-0.7351509471
330.54300,-0.1247621317
330.54350,-0.1247621317
330.54400,-0.1247621317
330.54450,-0.4299565394
330.54500,-0.4299565394
330.54550,0.180432276
330.54600,1.096015499
330.54650,1.096015499
330.54700,1.096015499
330.54750,1.096015499
330.54800,1.401209907
330.54850,1.401209907
330.54900,0.180432276
330.54950,-0.4299565394
330.55000,-0.7351509471
330.55050,-1.345539762
330.55100,-2.261122986
330.55150,-2.871511801
330.55200,-2.566317393
330.55250,-2.566317393
330.55300,-2.566317393
330.55350,-2.566317393
330.55400,-1.65073417
330.55450,-1.345539762
330.55500,-1.65073417
330.55550,-1.345539762
330.55600,0.180432276
330.55650,1.401209907
330.55700,1.096015499
330.55750,0.4856266837
330.55800,1.401209907
330.55850,2.621987538
330.55900,1.401209907
330.55950,-1.345539762
330.56000,-2.871511801
330.56050,-1.955928578
330.56100,-0.4299565394
330.56150,0.4856266837
330.56200,1.706404315
330.56250,2.927181945
330.56300,2.927181945
330.56350,1.096015499
330.56400,-0.4299565394
330.56450,-1.040345355
330.56500,-0.7351509471
330.56550,-0.1247621317
330.56600,1.706404315
330.56650,2.927181945
330.56700,2.31679313
330.56750,1.401209907
330.56800,0.7908210914
330.56850,1.096015499
330.56900,0.4856266837
330.56950,-0.4299565394
330.57000,-1.345539762
330.57050,-1.040345355
330.57100,-1.040345355
330.57150,-1.955928578
330.57200,-2.871511801
330.57250,-3.176706209
330.57300,-2.871511801
330.57350,-2.871511801
330.57400,-2.871511801
330.57450,-2.566317393
330.57500,-2.871511801
330.57550,-3.176706209
330.57600,-2.566317393
330.57650,-1.955928578
330.57700,-1.65073417
330.57750,-1.65073417
330.57800,-1.65073417
330.57850,-1.65073417
330.57900,-1.955928578
330.57950,-1.955928578
330.58000,-1.040345355
330.58050,0.180432276
330.58100,0.7908210914
330.58150,0.4856266837
330.58200,0.7908210914
330.58250,2.011598722
330.58300,2.011598722
330.58350,1.401209907
330.58400,0.7908210914
330.58450,-0.1247621317
330.58500,-1.65073417
330.58550,-5.007872655
330.58600,-7.754622324
330.58650,-8.36501114
330.58700,-6.839039101
330.58750,-5.007872655
330.58800,-3.176706209
330.58850,-1.65073417
330.58900,-0.7351509471
330.58950,-0.1247621317
330.59000,0.180432276
330.59050,0.4856266837
330.59100,0.180432276
330.59150,-0.1247621317
330.59200,-0.1247621317
330.59250,-0.1247621317
330.59300,0.180432276
330.59350,0.180432276
330.59400,-0.1247621317
330.59450,-0.1247621317
330.59500,-0.4299565394
330.59550,-0.1247621317
330.59600,-0.1247621317
330.59650,-1.040345355
330.59700,-3.481900616
330.59750,-5.313067063
330.59800,-5.007872655
330.59850,-2.871511801
330.59900,-1.345539762
330.59950,-0.1247621317
330.60000,1.706404315
330.60050,3.842765168
330.60100,5.063542799
330.60150,5.368737207
330.60200,6.589514838
330.60250,8.115486876
330.60300,7.199903653
330.60350,3.842765168
330.60400,0.4856266837
330.60450,-0.1247621317
330.60500,1.401209907
330.60550,5.063542799
330.60600,10.25184773
330.60650,16.35573588
330.60700,19.10248555
330.60750,16.66093029
330.60800,11.47262536
330.60850,6.894709245
330.60900,3.232376353
330.60950,-0.7351509471
330.61000,-5.007872655
330.61050,-6.228650286
330.61100,-2.261122986
330.61150,2.31679313
330.61200,3.842765168
330.61250,1.096015499
330.61300,-1.65073417
330.61350,-2.871511801
330.61400,-1.955928578
330.61450,-1.040345355
330.61500,-0.4299565394
330.61550,-0.1247621317
330.61600,0.180432276
330.61650,-0.1247621317
330.61700,-1.040345355
330.61750,-0.1247621317
330.61800,2.621987538
330.61850,5.673931615
330.61900,5.368737207
330.61950,0.4856266837
330.62000,-5.007872655
330.62050,-6.839039101
330.62100,-2.871511801
330.62150,3.232376353
330.62200,7.199903653
330.62250,6.28432043
330.62300,2.011598722
330.62350,-1.65073417
330.62400,-3.481900616
330.62450,-3.481900616
330.62500,-2.871511801
330.62550,-1.65073417
330.62600,-0.7351509471
330.62650,-0.4299565394
330.62700,-0.7351509471
330.62750,-0.4299565394
330.62800,-0.1247621317
330.62850,0.4856266837
330.62900,1.096015499
330.62950,1.706404315
330.63000,2.621987538
330.63050,3.537570761
330.63100,3.842765168
330.63150,3.537570761
330.63200,2.927181945
330.63250,0.7908210914
330.63300,-1.65073417
330.63350,-3.787095024
330.63400,-4.092289432
330.63450,-3.481900616
330.63500,-3.481900616
330.63550,-4.702678247
330.63600,-5.61826147
330.63650,-4.39748384
330.63700,-1.040345355
330.63750,1.401209907
330.63800,2.927181945
330.63850,2.927181945
330.63900,2.621987538
330.63950,2.31679313
330.64000,2.011598722
330.64050,2.011598722
330.64100,1.706404315
330.64150,1.401209907
330.64200,1.096015499
330.64250,1.401209907
330.64300,0.7908210914
330.64350,-0.1247621317
330.64400,-0.7351509471
330.64450,-0.4299565394
330.64500,-0.1247621317
330.64550,-0.1247621317
330.64600,-0.7351509471
330.64650,0.180432276
330.64700,1.401209907
330.64750,0.4856266837
330.64800,-1.345539762
330.64850,-2.261122986
330.64900,-1.040345355
330.64950,-0.4299565394
330.65000,-0.7351509471
330.65050,-0.7351509471
330.65100,0.180432276
330.65150,1.706404315
330.65200,1.706404315
330.65250,0.7908210914
330.65300,0.180432276
330.65350,0.180432276
330.65400,-0.1247621317
330.65450,-0.1247621317
330.65500,-0.1247621317
330.65550,-0.1247621317
330.65600,-0.4299565394
330.65650,-1.040345355
330.65700,-1.65073417
330.65750,-2.261122986
330.65800,-2.566317393
330.65850,-2.261122986
330.65900,-1.955928578
330.65950,-2.566317393
330.66000,-3.787095024
330.66050,-4.702678247
330.66100,-4.092289432
330.66150,-2.871511801
330.66200,-1.040345355
330.66250,-0.1247621317
330.66300,-0.4299565394
330.66350,-1.345539762
330.66400,-1.955928578
330.66450,-1.65073417
330.66500,-1.955928578
330.66550,-2.566317393
330.66600,-2.566317393
330.66650,-1.345539762
330.66700,-0.1247621317
330.66750,-0.4299565394
330.66800,-1.65073417
330.66850,-1.955928578
330.66900,-1.345539762
330.66950,-0.7351509471
330.67000,-0.7351509471
330.67050,-1.040345355
330.67100,-1.65073417
330.67150,-1.955928578
330.67200,-1.345539762
330.67250,0.7908210914
330.67300,3.537570761
330.67350,3.537570761
330.67400,1.706404315
330.67450,1.096015499
330.67500,2.621987538
330.67550,3.842765168
330.67600,3.232376353
330.67650,2.621987538
330.67700,3.537570761
330.67750,4.147959576
330.67800,3.842765168
330.67850,3.232376353
330.67900,3.232376353
330.67950,2.011598722
330.68000,-0.1247621317
330.68050,-1.040345355
330.68100,-0.1247621317
330.68150,0.7908210914
330.68200,1.401209907
330.68250,2.011598722
330.68300,2.621987538
330.68350,2.927181945
330.68400,2.011598722
330.68450,1.401209907
330.68500,2.011598722
330.68550,2.927181945
330.68600,2.621987538
330.68650,1.706404315
330.68700,1.401209907
330.68750,1.096015499
330.68800,-0.1247621317
330.68850,-1.040345355
330.68900,-1.65073417
330.68950,-1.040345355
330.69000,-0.7351509471
330.69050,-0.4299565394
330.69100,-0.1247621317
330.69150,-0.1247621317
330.69200,-0.4299565394
330.69250,-0.4299565394
330.69300,-0.1247621317
330.69350,-0.4299565394
330.69400,-1.65073417
330.69450,-2.566317393
330.69500,-1.955928578
330.69550,-1.345539762
330.69600,-1.345539762
330.69650,-2.261122986
330.69700,-2.261122986
330.69750,-1.955928578
330.69800,-1.955928578
330.69850,-1.955928578
330.69900,-1.65073417
330.69950,-1.65073417
330.70000,-2.261122986
330.70050,-3.481900616
330.70100,-3.787095024
330.70150,-2.871511801
330.70200,-1.65073417
330.70250,-1.345539762
330.70300,-1.65073417
330.70350,-2.871511801
330.70400,-3.481900616
330.70450,-2.261122986
330.70500,0.180432276
330.70550,2.011598722
330.70600,1.096015499
330.70650,-0.7351509471
330.70700,-2.566317393
330.70750,-3.787095024
330.70800,-5.313067063
330.70850,-7.144233509
330.70900,-8.059816732
330.70950,-7.449427917
330.71000,-5.923455878
330.71050,-4.702678247
330.71100,-3.481900616
330.71150,-2.261122986
330.71200,-0.4299565394
330.71250,1.401209907
330.71300,3.537570761
330.71350,4.453153984
330.71400,4.758348392
330.71450,4.453153984
330.71500,4.453153984
330.71550,4.147959576
330.71600,3.232376353
330.71650,1.096015499
330.71700,-0.7351509471
330.71750,-1.345539762
330.71800,-0.1247621317
330.71850,1.096015499
330.71900,1.401209907
330.71950,1.401209907
330.72000,2.621987538
330.72050,4.758348392
330.72100,5.979126022
330.72150,5.368737207
330.72200,3.537570761
330.72250,1.096015499
330.72300,-2.566317393
330.72350,-6.228650286
330.72400,-7.449427917
330.72450,-5.007872655
330.72500,-1.65073417
330.72550,-0.7351509471
330.72600,-2.566317393
330.72650,-5.313067063
330.72700,-7.449427917
330.72750,-7.754622324
330.72800,-6.228650286
330.72850,-4.702678247
330.72900,-4.702678247
330.72950,-5.61826147
330.73000,-5.313067063
330.73050,-3.176706209
330.73100,-1.345539762
330.73150,-1.345539762
330.73200,-1.345539762
330.73250,-0.1247621317
330.73300,0.4856266837
330.73350,0.180432276
330.73400,-0.1247621317
330.73450,2.011598722
330.73500,5.368737207
330.73550,7.505098061
330.73600,7.199903653
330.73650,5.673931615
330.73700,3.842765168
330.73750,1.401209907
330.73800,-1.345539762
330.73850,-3.176706209
330.73900,-3.481900616
330.73950,-2.566317393
330.74000,-2.261122986
330.74050,-4.092289432
330.74100,-5.61826147
330.74150,-5.007872655
330.74200,-1.955928578
330.74250,0.4856266837
330.74300,2.011598722
330.74350,2.31679313
330.74400,2.621987538
330.74450,2.31679313
330.74500,1.096015499
330.74550,0.180432276
330.74600,0.180432276
330.74650,-0.1247621317
330.74700,-1.65073417
330.74750,-3.176706209
330.74800,-2.566317393
330.74850,-0.4299565394
330.74900,0.4856266837
330.74950,1.096015499
330.75000,2.31679313
330.75050,3.232376353
330.75100,2.927181945
330.75150,1.401209907
330.75200,0.7908210914
330.75250,0.4856266837
330.75300,-0.1247621317
330.75350,-0.1247621317
330.75400,0.4856266837
330.75450,2.011598722
330.75500,2.31679313
330.75550,0.7908210914
330.75600,-1.345539762
330.75650,-2.871511801
330.75700,-3.176706209
330.75750,-2.566317393
330.75800,-1.955928578
330.75850,-1.345539762
330.75900,-1.040345355
330.75950,-1.345539762
330.76000,-1.345539762
330.76050,-1.040345355
330.76100,-1.65073417
330.76150,-1.955928578
330.76200,-1.040345355
330.76250,0.180432276
330.76300,0.4856266837
330.76350,-0.7351509471
330.76400,-1.955928578
330.76450,-1.040345355
330.76500,0.4856266837
330.76550,0.7908210914
330.76600,-0.7351509471
330.76650,-2.261122986
330.76700,-1.955928578
330.76750,-1.040345355
330.76800,-0.7351509471
330.76850,-1.040345355
330.76900,-1.040345355
330.76950,-0.1247621317
330.77000,0.7908210914
330.77050,1.401209907
330.77100,2.31679313
330.77150,3.842765168
330.77200,5.673931615
330.77250,5.979126022
330.77300,5.368737207
330.77350,4.758348392
330.77400,5.368737207
330.77450,6.28432043
330.77500,6.894709245
330.77550,5.673931615
330.77600,4.453153984
330.77650,4.758348392
330.77700,5.979126022
330.77750,6.589514838
330.77800,5.979126022
330.77850,5.063542799
330.77900,5.063542799
330.77950,4.758348392
330.78000,3.537570761
330.78050,2.31679313
330.78100,1.706404315
330.78150,1.706404315
330.78200,1.401209907
330.78250,0.7908210914
330.78300,0.4856266837
330.78350,0.180432276
330.78400,-0.1247621317
330.78450,-0.4299565394
330.78500,-0.1247621317
330.78550,-0.1247621317
330.78600,-0.4299565394
330.78650,-0.7351509471
330.78700,-0.4299565394
330.78750,-0.4299565394
330.78800,-2.566317393
330.78850,-4.702678247
330.78900,-4.39748384
330.78950,-2.261122986
330.79000,-1.955928578
330.79050,-2.871511801
330.79100,-3.176706209
330.79150,-1.040345355
330.79200,0.180432276
330.79250,-0.1247621317
330.79300,-1.955928578
330.79350,-2.566317393
330.79400,-2.566317393
330.79450,-1.955928578
330.79500,-1.65073417
330.79550,-0.7351509471
330.79600,-0.1247621317
330.79650,-0.4299565394
330.79700,-1.345539762
330.79750,-1.65073417
330.79800,-1.955928578
330.79850,-2.871511801
330.79900,-4.092289432
330.79950,-4.092289432
330.80000,-2.871511801
330.80050,-1.040345355
330.80100,-0.1247621317
330.80150,-0.1247621317
330.80200,-0.1247621317
330.80250,0.180432276
330.80300,1.096015499
330.80350,1.401209907
330.80400,0.7908210914
330.80450,0.4856266837
330.80500,0.7908210914
330.80550,2.31679313
330.80600,3.232376353
330.80650,2.621987538
330.80700,1.401209907
330.80750,0.7908210914
330.80800,2.011598722
330.80850,2.927181945
330.80900,3.232376353
330.80950,2.927181945
330.81000,2.927181945
330.81050,2.927181945
330.81100,2.011598722
330.81150,0.7908210914
330.81200,0.7908210914
330.81250,2.011598722
330.81300,2.31679313
330.81350,0.7908210914
330.81400,-1.345539762
330.81450,-2.566317393
330.81500,-1.65073417
330.81550,-0.1247621317
330.81600,0.4856266837
330.81650,0.180432276
330.81700,-0.1247621317
330.81750,0.180432276
330.81800,0.7908210914
330.81850,1.401209907
330.81900,2.31679313
330.81950,3.537570761
330.82000,4.453153984
330.82050,3.842765168
330.82100,2.31679313
330.82150,0.180432276
330.82200,-0.1247621317
330.82250,-0.1247621317
330.82300,-0.4299565394
330.82350,-1.65073417
330.82400,-2.566317393
330.82450,-2.566317393
330.82500,-2.261122986
330.82550,-2.261122986
330.82600,-2.566317393
330.82650,-2.566317393
330.82700,-1.65073417
330.82750,-0.4299565394
330.82800,-0.1247621317
330.82850,-0.4299565394
330.82900,-0.7351509471
330.82950,-0.4299565394
330.83000,0.180432276
330.83050,-0.1247621317
330.83100,-1.65073417
330.83150,-2.566317393
330.83200,-2.261122986
330.83250,-2.261122986
330.83300,-2.566317393
330.83350,-2.261122986
330.83400,-0.7351509471
330.83450,1.096015499
330.83500,1.706404315
330.83550,1.401209907
330.83600,0.7908210914
330.83650,0.7908210914
330.83700,0.4856266837
330.83750,-0.1247621317
330.83800,-0.1247621317
330.83850,-0.1247621317
330.83900,0.4856266837
330.83950,0.4856266837
330.84000,1.096015499
330.84050,2.011598722
330.84100,2.011598722
330.84150,1.706404315
330.84200,1.401209907
330.84250,0.7908210914
330.84300,-0.1247621317
330.84350,-0.4299565394
330.84400,-0.4299565394
330.84450,-0.1247621317
330.84500,-1.040345355
330.84550,-2.566317393
330.84600,-3.481900616
330.84650,-3.176706209
330.84700,-2.871511801
330.84750,-3.787095024
330.84800,-4.702678247
330.84850,-5.007872655
330.84900,-4.702678247
330.84950,-3.481900616
330.85000,-1.040345355
330.85050,1.401209907
330.85100,3.232376353
330.85150,3.537570761
330.85200,2.621987538
330.85250,0.4856266837
330.85300,-1.345539762
330.85350,-2.261122986
330.85400,-0.7351509471
330.85450,0.7908210914
330.85500,0.4856266837
330.85550,-1.040345355
330.85600,-1.955928578
330.85650,-0.7351509471
330.85700,0.4856266837
330.85750,1.706404315
330.85800,2.621987538
330.85850,3.842765168
330.85900,4.758348392
330.85950,4.453153984
330.86000,3.842765168
330.86050,2.621987538
330.86100,1.096015499
330.86150,-0.1247621317
330.86200,-1.345539762
330.86250,-1.65073417
330.86300,-1.955928578
330.86350,-2.566317393
330.86400,-2.871511801
330.86450,-2.871511801
330.86500,-2.566317393
330.86550,-2.871511801
330.86600,-3.787095024
330.86650,-4.39748384
330.86700,-4.092289432
330.86750,-2.871511801
330.86800,-1.65073417
330.86850,-1.345539762
330.86900,-1.65073417
330.86950,-1.955928578
330.87000,-2.566317393
330.87050,-3.481900616
330.87100,-4.092289432
330.87150,-3.787095024
330.87200,-2.566317393
330.87250,-1.65073417
330.87300,-1.345539762
330.87350,-1.955928578
330.87400,-2.566317393
330.87450,-2.871511801
330.87500,-2.566317393
330.87550,-2.261122986
330.87600,-1.65073417
330.87650,-1.345539762
330.87700,-1.040345355
330.87750,-0.1247621317
330.87800,0.4856266837
330.87850,0.7908210914
330.87900,0.180432276
330.87950,-0.1247621317
330.88000,-0.1247621317
330.88050,-0.1247621317
330.88100,-0.1247621317
330.88150,-1.040345355
330.88200,-2.871511801
330.88250,-3.176706209
330.88300,-1.345539762
330.88350,0.7908210914
330.88400,1.096015499
330.88450,-0.1247621317
330.88500,-1.040345355
330.88550,0.180432276
330.88600,2.011598722
330.88650,1.096015499
330.88700,-2.871511801
330.88750,-8.36501114
330.88800,-12.63773285
330.88850,-14.16370489
330.88900,-12.33253844
330.88950,-8.670205547
330.89000,-5.313067063
330.89050,-4.092289432
330.89100,-4.092289432
330.89150,-3.176706209
330.89200,-1.345539762
330.89250,0.180432276
330.89300,1.706404315
330.89350,3.232376353
330.89400,3.842765168
330.89450,3.537570761
330.89500,2.927181945
330.89550,3.537570761
330.89600,5.063542799
330.89650,6.589514838
330.89700,6.589514838
330.89750,6.589514838
330.89800,6.589514838
330.89850,5.368737207
330.89900,2.621987538
330.89950,0.180432276
330.90000,0.180432276
330.90050,1.401209907
330.90100,1.706404315
330.90150,0.4856266837
330.90200,-0.7351509471
330.90250,-0.7351509471
330.90300,-0.1247621317
330.90350,-0.4299565394
330.90400,-1.65073417
330.90450,-2.871511801
330.90500,-3.481900616
330.90550,-3.176706209
330.90600,-2.871511801
330.90650,-1.955928578
330.90700,-1.040345355
330.90750,-0.4299565394
330.90800,-0.1247621317
330.90850,-0.1247621317
330.90900,-0.1247621317
330.90950,-0.7351509471
330.91000,-1.040345355
330.91050,-0.7351509471
330.91100,-0.7351509471
330.91150,-0.7351509471
330.91200,0.7908210914
330.91250,3.537570761
330.91300,6.28432043
330.91350,7.199903653
330.91400,6.894709245
330.91450,5.368737207
330.91500,3.842765168
330.91550,2.31679313
330.91600,0.4856266837
330.91650,-1.345539762
330.91700,-2.871511801
330.91750,-3.176706209
330.91800,-1.955928578
330.91850,-1.345539762
330.91900,-2.566317393
330.91950,-3.787095024
330.92000,-3.481900616
330.92050,-0.7351509471
330.92100,1.401209907
330.92150,1.401209907
330.92200,-0.1247621317
330.92250,-0.7351509471
330.92300,-0.1247621317
330.92350,1.401209907
330.92400,2.927181945
330.92450,3.232376353
330.92500,2.621987538
330.92550,1.706404315
330.92600,1.096015499
330.92650,0.7908210914
330.92700,0.7908210914
330.92750,-0.1247621317
330.92800,-0.7351509471
330.92850,-1.345539762
330.92900,-1.040345355
330.92950,-0.7351509471
330.93000,-0.7351509471
330.93050,-1.65073417
330.93100,-2.261122986
330.93150,-2.261122986
330.93200,-2.261122986
330.93250,-1.955928578
330.93300,-1.345539762
330.93350,-0.1247621317
330.93400,1.401209907
330.93450,1.706404315
330.93500,1.706404315
330.93550,1.706404315
330.93600,2.011598722
330.93650,1.706404315
330.93700,0.180432276
330.93750,-0.4299565394
330.93800,-0.1247621317
330.93850,0.180432276
330.93900,1.096015499
330.93950,1.401209907
330.94000,1.096015499
330.94050,0.180432276
330.94100,-0.1247621317
330.94150,0.4856266837
330.94200,2.011598722
330.94250,2.621987538
330.94300,1.706404315
330.94350,0.7908210914
330.94400,-0.1247621317
330.94450,-0.7351509471
330.94500,-1.955928578
330.94550,-2.261122986
330.94600,-1.65073417
330.94650,-1.040345355
330.94700,-0.7351509471
330.94750,-0.1247621317
330.94800,0.4856266837
330.94850,0.4856266837
330.94900,-0.1247621317
330.94950,-0.1247621317
330.95000,0.180432276
330.95050,0.7908210914
330.95100,0.4856266837
330.95150,-0.1247621317
330.95200,0.7908210914
330.95250,2.621987538
330.95300,2.621987538
330.95350,0.7908210914
330.95400,-0.1247621317
330.95450,0.4856266837
330.95500,2.011598722
330.95550,1.706404315
330.95600,0.7908210914
330.95650,1.096015499
330.95700,2.927181945
330.95750,4.453153984
330.95800,4.147959576
330.95850,3.232376353
330.95900,2.927181945
330.95950,2.927181945
330.96000,2.621987538
330.96050,1.706404315
330.96100,1.096015499
330.96150,1.096015499
330.96200,2.011598722
330.96250,2.31679313
330.96300,2.011598722
330.96350,0.7908210914
330.96400,0.180432276
330.96450,0.7908210914
330.96500,1.706404315
330.96550,1.401209907
330.96600,-0.1247621317
330.96650,-1.040345355
330.96700,-1.040345355
330.96750,-0.7351509471
330.96800,-1.040345355
330.96850,-1.345539762
330.96900,-0.7351509471
330.96950,-0.4299565394
330.97000,-0.1247621317
330.97050,0.180432276
330.97100,1.096015499
330.97150,1.401209907
330.97200,1.706404315
330.97250,2.621987538
330.97300,3.842765168
330.97350,2.927181945
330.97400,0.4856266837
330.97450,0.180432276
330.97500,2.621987538
330.97550,4.758348392
330.97600,3.537570761
330.97650,1.401209907
330.97700,1.096015499
330.97750,1.401209907
330.97800,0.4856266837
330.97850,-0.1247621317
330.97900,1.706404315
330.97950,4.453153984
330.98000,5.063542799
330.98050,3.537570761
330.98100,2.31679313
330.98150,2.621987538
330.98200,2.31679313
330.98250,1.401209907
330.98300,1.096015499
330.98350,1.706404315
330.98400,1.096015499
330.98450,-0.4299565394
330.98500,-1.65073417
330.98550,-2.261122986
330.98600,-3.176706209
330.98650,-4.702678247
330.98700,-5.313067063
330.98750,-4.702678247
330.98800,-4.39748384
330.98850,-5.007872655
330.98900,-4.39748384
330.98950,-1.345539762
330.99000,2.927181945
330.99050,7.199903653
330.99100,9.031070099
330.99150,8.420681284
330.99200,5.368737207
330.99250,2.927181945
330.99300,1.706404315
330.99350,1.706404315
330.99400,-0.1247621317
330.99450,-3.787095024
330.99500,-8.059816732
330.99550,-10.50137199
330.99600,-10.50137199
330.99650,-9.58578877
330.99700,-7.754622324
330.99750,-5.313067063
330.99800,-2.261122986
330.99850,0.7908210914
330.99900,3.537570761
330.99950,4.758348392
331.00000,3.842765168
331.00050,2.011598722
331.00100,1.096015499
331.00150,1.706404315
331.00200,2.927181945
331.00250,2.927181945
331.00300,1.706404315
331.00350,-0.1247621317
331.00400,-1.345539762
331.00450,-1.955928578
331.00500,-1.955928578
331.00550,-1.345539762
331.00600,0.180432276
331.00650,2.621987538
331.00700,4.453153984
331.00750,5.368737207
331.00800,5.673931615
331.00850,6.589514838
331.00900,8.115486876
331.00950,9.031070099
331.01000,7.810292469
331.01050,4.758348392
331.01100,2.31679313
331.01150,2.011598722
331.01200,2.31679313
331.01250,1.096015499
331.01300,-0.7351509471
331.01350,-1.65073417
331.01400,-0.4299565394
331.01450,1.401209907
331.01500,2.621987538
331.01550,2.621987538
331.01600,1.096015499
331.01650,-0.4299565394
331.01700,-1.040345355
331.01750,-0.1247621317
331.01800,1.706404315
331.01850,1.401209907
331.01900,-0.4299565394
331.01950,-2.871511801
331.02000,-4.092289432
331.02050,-5.007872655
331.02100,-6.228650286
331.02150,-7.449427917
331.02200,-7.449427917
331.02250,-7.144233509
331.02300,-7.144233509
331.02350,-7.449427917
331.02400,-8.670205547
331.02450,-9.280594363
331.02500,-8.670205547
331.02550,-5.923455878
331.02600,-4.092289432
331.02650,-5.007872655
331.02700,-6.839039101
331.02750,-7.144233509
331.02800,-5.61826147
331.02850,-4.702678247
331.02900,-5.007872655
331.02950,-4.39748384
331.03000,-2.566317393
331.03050,-1.345539762
331.03100,-2.261122986
331.03150,-3.176706209
331.03200,-3.481900616
331.03250,-3.481900616
331.03300,-4.39748384
331.03350,-4.39748384
331.03400,-3.176706209
331.03450,-2.261122986
331.03500,-2.566317393
331.03550,-3.481900616
331.03600,-3.176706209
331.03650,-2.261122986
331.03700,-1.65073417
331.03750,-1.345539762
331.03800,-1.345539762
331.03850,-1.955928578
331.03900,-2.566317393
331.03950,-2.566317393
331.04000,-1.955928578
331.04050,-1.955928578
331.04100,-2.261122986
331.04150,-1.955928578
331.04200,-0.7351509471
331.04250,-0.7351509471
331.04300,-2.566317393
331.04350,-4.39748384
331.04400,-3.481900616
331.04450,-1.040345355
331.04500,-0.7351509471
331.04550,-1.955928578
331.04600,-2.566317393
331.04650,-1.65073417
331.04700,-0.7351509471
331.04750,-0.7351509471
331.04800,-0.7351509471
331.04850,-0.1247621317
331.04900,0.4856266837
331.04950,0.180432276
331.05000,-0.7351509471
331.05050,-1.345539762
331.05100,-1.65073417
331.05150,-1.955928578
331.05200,-1.955928578
331.05250,-1.955928578
331.05300,-2.261122986
331.05350,-2.871511801
331.05400,-3.176706209
331.05450,-2.871511801
331.05500,-2.566317393
331.05550,-1.65073417
331.05600,-0.7351509471
331.05650,0.4856266837
331.05700,1.706404315
331.05750,2.31679313
331.05800,2.31679313
331.05850,1.096015499
331.05900,-0.1247621317
331.05950,0.180432276
331.06000,2.011598722
331.06050,3.842765168
331.06100,3.842765168
331.06150,2.621987538
331.06200,2.621987538
331.06250,3.842765168
331.06300,3.842765168
331.06350,2.31679313
331.06400,1.096015499
331.06450,1.096015499
331.06500,1.401209907
331.06550,1.096015499
331.06600,0.180432276
331.06650,0.180432276
331.06700,0.4856266837
331.06750,0.180432276
331.06800,-0.1247621317
331.06850,-0.4299565394
331.06900,-0.4299565394
331.06950,-0.7351509471
331.07000,-1.345539762
331.07050,-1.65073417
331.07100,-1.65073417
331.07150,-1.040345355
331.07200,-0.1247621317
331.07250,0.4856266837
331.07300,-0.1247621317
331.07350,-1.955928578
331.07400,-2.566317393
331.07450,-1.345539762
331.07500,-0.1247621317
331.07550,0.7908210914
331.07600,0.7908210914
331.07650,0.4856266837
331.07700,0.7908210914
331.07750,1.401209907
331.07800,2.011598722
331.07850,2.31679313
331.07900,2.927181945
331.07950,3.537570761
331.08000,5.063542799
331.08050,5.979126022
331.08100,5.673931615
331.08150,4.758348392
331.08200,5.063542799
331.08250,5.979126022
331.08300,6.28432043
331.08350,5.368737207
331.08400,3.842765168
331.08450,3.232376353
331.08500,3.842765168
331.08550,4.453153984
331.08600,4.147959576
331.08650,3.537570761
331.08700,2.621987538
331.08750,2.31679313
331.08800,2.31679313
331.08850,2.31679313
331.08900,2.011598722
331.08950,0.7908210914
331.09000,-0.1247621317
331.09050,-0.1247621317
331.09100,-0.1247621317
331.09150,-0.1247621317
331.09200,-0.4299565394
331.09250,-1.345539762
331.09300,-1.040345355
331.09350,0.180432276
331.09400,0.7908210914
331.09450,-0.1247621317
331.09500,-0.7351509471
331.09550,-0.1247621317
331.09600,0.7908210914
331.09650,0.4856266837
331.09700,-1.040345355
331.09750,-1.65073417
331.09800,-0.4299565394
331.09850,0.4856266837
331.09900,0.180432276
331.09950,-1.040345355
331.10000,-1.345539762
331.10050,-0.4299565394
331.10100,-0.1247621317
331.10150,0.4856266837
331.10200,0.7908210914
331.10250,1.096015499
331.10300,1.096015499
331.10350,0.7908210914
331.10400,1.401209907
331.10450,1.706404315
331.10500,0.7908210914
331.10550,-0.7351509471
331.10600,-1.345539762
331.10650,-0.1247621317
331.10700,1.401209907
331.10750,1.401209907
331.10800,0.180432276
331.10850,-1.040345355
331.10900,-1.65073417
331.10950,-1.040345355
331.11000,-0.4299565394
331.11050,-0.1247621317
331.11100,-0.4299565394
331.11150,-0.7351509471
331.11200,-1.040345355
331.11250,-1.040345355
331.11300,-1.345539762
331.11350,-0.7351509471
331.11400,-0.1247621317
331.11450,1.096015499
331.11500,1.706404315
331.11550,1.706404315
331.11600,2.31679313
331.11650,3.232376353
331.11700,2.927181945
331.11750,1.706404315
331.11800,0.7908210914
331.11850,0.7908210914
331.11900,0.7908210914
331.11950,0.180432276
331.12000,-0.4299565394
331.12050,-0.7351509471
331.12100,-1.345539762
331.12150,-2.261122986
331.12200,-3.176706209
331.12250,-3.176706209
331.12300,-1.65073417
331.12350,-0.7351509471
331.12400,-1.040345355
331.12450,-1.955928578
331.12500,-2.566317393
331.12550,-2.566317393
331.12600,-1.345539762
331.12650,-0.1247621317
331.12700,-0.1247621317
331.12750,-1.040345355
331.12800,-1.040345355
331.12850,-0.1247621317
331.12900,1.401209907
331.12950,1.401209907
331.13000,0.180432276
331.13050,-0.1247621317
331.13100,-0.1247621317
331.13150,-0.4299565394
331.13200,-1.955928578
331.13250,-2.871511801
331.13300,-2.871511801
331.13350,-2.871511801
331.13400,-3.176706209
331.13450,-2.566317393
331.13500,-0.4299565394
331.13550,0.7908210914
331.13600,0.4856266837
331.13650,-0.1247621317
331.13700,-0.1247621317
331.13750,1.096015499
331.13800,2.011598722
331.13850,1.096015499
331.13900,-0.7351509471
331.13950,-3.481900616
331.14000,-5.61826147
331.14050,-5.007872655
331.14100,-2.566317393
331.14150,-0.1247621317
331.14200,0.7908210914
331.14250,1.096015499
331.14300,0.7908210914
331.14350,0.4856266837
331.14400,0.180432276
331.14450,0.180432276
331.14500,0.7908210914
331.14550,1.096015499
331.14600,1.096015499
331.14650,2.011598722
331.14700,2.927181945
331.14750,2.011598722
331.14800,0.180432276
331.14850,-1.345539762
331.14900,-1.65073417
331.14950,-1.65073417
331.15000,-1.65073417
331.15050,-1.040345355
331.15100,-0.1247621317
331.15150,-0.4299565394
331.15200,-2.261122986
331.15250,-3.481900616
331.15300,-2.871511801
331.15350,-1.65073417
331.15400,-1.040345355
331.15450,-0.4299565394
331.15500,-0.1247621317
331.15550,0.180432276
331.15600,-0.1247621317
331.15650,-0.4299565394
331.15700,0.4856266837
331.15750,1.706404315
331.15800,1.401209907
331.15850,0.180432276
331.15900,0.4856266837
331.15950,1.706404315
331.16000,3.232376353
331.16050,3.842765168
331.16100,3.537570761
331.16150,3.232376353
331.16200,2.621987538
331.16250,2.31679313
331.16300,2.31679313
331.16350,0.7908210914
331.16400,-1.345539762
331.16450,-2.871511801
331.16500,-1.65073417
331.16550,0.180432276
331.16600,0.4856266837
331.16650,-0.7351509471
331.16700,-1.955928578
331.16750,-1.345539762
331.16800,-0.4299565394
331.16850,-1.345539762
331.16900,-2.871511801
331.16950,-3.176706209
331.17000,-1.65073417
331.17050,-0.1247621317
331.17100,0.180432276
331.17150,0.7908210914
331.17200,1.401209907
331.17250,1.706404315
331.17300,1.706404315
331.17350,1.706404315
331.17400,1.401209907
331.17450,0.7908210914
331.17500,-0.1247621317
331.17550,-1.345539762
331.17600,-1.040345355
331.17650,-0.1247621317
331.17700,1.096015499
331.17750,1.706404315
331.17800,2.011598722
331.17850,2.927181945
331.17900,4.147959576
331.17950,5.368737207
331.18000,5.979126022
331.18050,5.063542799
331.18100,3.842765168
331.18150,2.927181945
331.18200,3.232376353
331.18250,3.232376353
331.18300,2.621987538
331.18350,2.011598722
331.18400,1.706404315
331.18450,0.4856266837
331.18500,-1.345539762
331.18550,-2.566317393
331.18600,-2.566317393
331.18650,-2.566317393
331.18700,-2.871511801
331.18750,-2.871511801
331.18800,-1.65073417
331.18850,-1.345539762
331.18900,-2.566317393
331.18950,-2.871511801
331.19000,-1.345539762
331.19050,0.7908210914
331.19100,1.401209907
331.19150,-0.1247621317
331.19200,-1.65073417
331.19250,-2.261122986
331.19300,-2.871511801
331.19350,-3.481900616
331.19400,-3.176706209
331.19450,-2.871511801
331.19500,-2.871511801
331.19550,-2.871511801
331.19600,-2.261122986
331.19650,-1.040345355
331.19700,-1.040345355
331.19750,-1.955928578
331.19800,-2.261122986
331.19850,-1.65073417
331.19900,-1.345539762
331.19950,-2.566317393
331.20000,-4.39748384
331.20050,-4.39748384
331.20100,-3.481900616
331.20150,-3.176706209
331.20200,-4.092289432
331.20250,-5.313067063
331.20300,-5.007872655
331.20350,-4.092289432
331.20400,-3.176706209
331.20450,-2.261122986
331.20500,-1.65073417
331.20550,-1.65073417
331.20600,-2.566317393
331.20650,-2.566317393
331.20700,-0.7351509471
331.20750,2.31679313
331.20800,4.758348392
331.20850,4.758348392
331.20900,3.842765168
331.20950,3.232376353
331.21000,3.232376353
331.21050,4.147959576
331.21100,5.368737207
331.21150,6.28432043
331.21200,5.368737207
331.21250,2.927181945
331.21300,1.401209907
331.21350,1.401209907
331.21400,1.096015499
331.21450,-0.7351509471
331.21500,-2.871511801
331.21550,-3.787095024
331.21600,-4.092289432
331.21650,-4.702678247
331.21700,-5.923455878
331.21750,-6.228650286
331.21800,-5.61826147
331.21850,-5.007872655
331.21900,-4.39748384
331.21950,-3.481900616
331.22000,-2.871511801
331.22050,-3.176706209
331.22100,-4.39748384
331.22150,-4.702678247
331.22200,-4.092289432
331.22250,-3.481900616
331.22300,-2.566317393
331.22350,-1.65073417
331.22400,-1.040345355
331.22450,-1.040345355
331.22500,-1.65073417
331.22550,-1.65073417
331.22600,-1.65073417
331.22650,-2.261122986
331.22700,-2.261122986
331.22750,-1.345539762
331.22800,-0.1247621317
331.22850,-0.1247621317
331.22900,-0.4299565394
331.22950,0.4856266837
331.23000,2.31679313
331.23050,2.621987538
331.23100,2.31679313
331.23150,3.232376353
331.23200,5.368737207
331.23250,5.979126022
331.23300,3.842765168
331.23350,2.011598722
331.23400,1.706404315
331.23450,2.31679313
331.23500,2.011598722
331.23550,2.011598722
331.23600,4.147959576
331.23650,6.589514838
331.23700,6.894709245
331.23750,5.673931615
331.23800,5.368737207
331.23850,5.673931615
331.23900,4.147959576
331.23950,1.706404315
331.24000,0.180432276
331.24050,0.4856266837
331.24100,0.7908210914
331.24150,-0.1247621317
331.24200,-1.040345355
331.24250,-1.040345355
331.24300,-0.1247621317
331.24350,-0.1247621317
331.24400,-0.7351509471
331.24450,-1.955928578
331.24500,-2.566317393
331.24550,-2.566317393
331.24600,-2.566317393
331.24650,-3.176706209
331.24700,-3.787095024
331.24750,-4.39748384
331.24800,-3.787095024
331.24850,-3.481900616
331.24900,-3.787095024
331.24950,-4.702678247
331.25000,-4.702678247
331.25050,-3.176706209
331.25100,-1.345539762
331.25150,-0.1247621317
331.25200,0.4856266837
331.25250,1.706404315
331.25300,2.31679313
331.25350,1.401209907
331.25400,0.180432276
331.25450,0.7908210914
331.25500,3.537570761
331.25550,5.063542799
331.25600,3.842765168
331.25650,0.4856266837
331.25700,-1.345539762
331.25750,-1.345539762
331.25800,-0.1247621317
331.25850,1.706404315
331.25900,3.232376353
331.25950,3.537570761
331.26000,3.232376353
331.26050,2.31679313
331.26100,2.011598722
331.26150,1.401209907
331.26200,1.096015499
331.26250,1.096015499
331.26300,2.011598722
331.26350,3.232376353
331.26400,3.537570761
331.26450,2.31679313
331.26500,-0.1247621317
331.26550,-1.345539762
331.26600,-1.345539762
331.26650,-0.4299565394
331.26700,-0.1247621317
331.26750,-1.345539762
331.26800,-2.261122986
331.26850,-2.261122986
331.26900,-1.345539762
331.26950,-1.65073417
331.27000,-2.871511801
331.27050,-3.481900616
331.27100,-2.261122986
331.27150,-1.040345355
331.27200,-0.7351509471
331.27250,-0.7351509471
331.27300,-0.1247621317
331.27350,0.7908210914
331.27400,1.401209907
331.27450,2.621987538
331.27500,4.453153984
331.27550,5.979126022
331.27600,5.368737207
331.27650,3.232376353
331.27700,1.096015499
331.27750,-0.4299565394
331.27800,-1.040345355
331.27850,0.180432276
331.27900,2.011598722
331.27950,2.621987538
331.28000,1.401209907
331.28050,0.7908210914
331.28100,1.401209907
331.28150,1.706404315
331.28200,-0.1247621317
331.28250,-2.261122986
331.28300,-3.176706209
331.28350,-2.566317393
331.28400,-2.261122986
331.28450,-2.871511801
331.28500,-2.871511801
331.28550,-1.345539762
331.28600,0.4856266837
331.28650,2.31679313
331.28700,2.927181945
331.28750,2.011598722
331.28800,1.706404315
331.28850,3.537570761
331.28900,5.979126022
331.28950,6.28432043
331.29000,4.147959576
331.29050,1.401209907
331.29100,1.096015499
331.29150,2.011598722
331.29200,2.011598722
331.29250,0.4856266837
331.29300,-0.4299565394
331.29350,-0.1247621317
331.29400,-0.1247621317
331.29450,-0.4299565394
331.29500,-0.7351509471
331.29550,-0.4299565394
331.29600,-0.1247621317
331.29650,-0.1247621317
331.29700,-0.7351509471
331.29750,-0.7351509471
331.29800,-0.7351509471
331.29850,-0.1247621317
331.29900,0.180432276
331.29950,0.4856266837
331.30000,-0.1247621317
331.30050,-1.040345355
331.30100,-1.65073417
331.30150,-1.955928578
331.30200,-1.955928578
331.30250,-1.955928578
331.30300,-2.261122986
331.30350,-2.871511801
331.30400,-3.176706209
331.30450,-2.566317393
331.30500,-1.65073417
331.30550,-1.345539762
331.30600,-1.955928578
331.30650,-2.261122986
331.30700,-3.176706209
331.30750,-4.39748384
331.30800,-5.313067063
331.30850,-4.39748384
331.30900,-2.261122986
331.30950,-1.040345355
331.31000,-1.65073417
331.31050,-2.871511801
331.31100,-2.871511801
331.31150,-1.65073417
331.31200,-1.040345355
331.31250,-1.345539762
331.31300,-1.955928578
331.31350,-1.955928578
331.31400,-1.345539762
331.31450,-0.4299565394
331.31500,-0.4299565394
331.31550,-1.040345355
331.31600,-1.955928578
331.31650,-2.871511801
331.31700,-3.481900616
331.31750,-4.702678247
331.31800,-6.228650286
331.31850,-6.839039101
331.31900,-5.923455878
331.31950,-3.481900616
331.32000,-1.345539762
331.32050,-0.4299565394
331.32100,-0.4299565394
331.32150,-0.1247621317
331.32200,2.31679313
331.32250,7.810292469
331.32300,13.91418062
331.32350,17.57651352
331.32400,18.18690233
331.32450,16.35573588
331.32500,13.91418062
331.32550,12.38820858
331.32600,10.86223655
331.32650,9.031070099
331.32700,6.589514838
331.32750,4.758348392
331.32800,3.232376353
331.32850,1.401209907
331.32900,-0.1247621317
331.32950,-1.65073417
331.33000,-2.566317393
331.33050,-4.39748384
331.33100,-7.144233509
331.33150,-8.975399955
331.33200,-8.059816732
331.33250,-5.007872655
331.33300,-3.787095024
331.33350,-5.007872655
331.33400,-6.228650286
331.33450,-5.313067063
331.33500,-2.871511801
331.33550,-0.4299565394
331.33600,1.401209907
331.33650,3.537570761
331.33700,5.063542799
331.33750,4.758348392
331.33800,3.537570761
331.33850,2.621987538
331.33900,2.011598722
331.33950,1.706404315
331.34000,0.7908210914
331.34050,-0.4299565394
331.34100,-4.092289432
331.34150,-8.36501114
331.34200,-10.8065664
331.34250,-9.890983178
331.34300,-7.449427917
331.34350,-5.61826147
331.34400,-4.702678247
331.34450,-3.787095024
331.34500,-2.871511801
331.34550,-2.261122986
331.34600,-1.955928578
331.34650,-1.345539762
331.34700,-1.345539762
331.34750,-1.65073417
331.34800,-0.7351509471
331.34850,1.096015499
331.34900,3.232376353
331.34950,4.758348392
331.35000,5.673931615
331.35050,6.589514838
331.35100,6.28432043
331.35150,4.453153984
331.35200,2.621987538
331.35250,2.31679313
331.35300,2.621987538
331.35350,3.537570761
331.35400,5.368737207
331.35450,7.810292469
331.35500,9.641458915
331.35550,9.946653322
331.35600,8.725875692
331.35650,5.673931615
331.35700,0.180432276
331.35750,-5.61826147
331.35800,-7.754622324
331.35850,-5.007872655
331.35900,-0.7351509471
331.35950,0.180432276
331.36000,-1.040345355
331.36050,-2.566317393
331.36100,-2.566317393
331.36150,-2.566317393
331.36200,-3.787095024
331.36250,-5.313067063
331.36300,-5.923455878
331.36350,-4.702678247
331.36400,-3.176706209
331.36450,-1.65073417
331.36500,-1.65073417
331.36550,-1.345539762
331.36600,-0.4299565394
331.36650,1.401209907
331.36700,2.927181945
331.36750,3.842765168
331.36800,4.147959576
331.36850,3.537570761
331.36900,2.011598722
331.36950,0.7908210914
331.37000,0.7908210914
331.37050,0.7908210914
331.37100,-0.7351509471
331.37150,-3.481900616
331.37200,-4.092289432
331.37250,-2.261122986
331.37300,-0.4299565394
331.37350,-0.7351509471
331.37400,-1.65073417
331.37450,-1.65073417
331.37500,-1.955928578
331.37550,-3.176706209
331.37600,-4.092289432
331.37650,-4.092289432
331.37700,-3.787095024
331.37750,-3.787095024
331.37800,-3.481900616
331.37850,-2.566317393
331.37900,-1.955928578
331.37950,-3.176706209
331.38000,-4.092289432
331.38050,-3.481900616
331.38100,-2.261122986
331.38150,-1.65073417
331.38200,-2.261122986
331.38250,-2.871511801
331.38300,-3.787095024
331.38350,-4.702678247
331.38400,-4.092289432
331.38450,-3.176706209
331.38500,-2.871511801
331.38550,-3.481900616
331.38600,-4.092289432
331.38650,-3.176706209
331.38700,-2.566317393
331.38750,-3.176706209
331.38800,-3.787095024
331.38850,-2.871511801
331.38900,-1.345539762
331.38950,-1.345539762
331.39000,-1.65073417
331.39050,-0.4299565394
331.39100,0.7908210914
331.39150,0.4856266837
331.39200,-1.345539762
331.39250,-2.261122986
331.39300,-1.345539762
331.39350,-0.1247621317
331.39400,-1.040345355
331.39450,-1.955928578
331.39500,-0.7351509471
331.39550,1.401209907
331.39600,2.621987538
331.39650,2.31679313
331.39700,1.706404315
331.39750,1.401209907
331.39800,1.096015499
331.39850,0.180432276
331.39900,-0.4299565394
331.39950,-0.4299565394
331.40000,-0.1247621317
331.40050,-0.4299565394
331.40100,-1.65073417
331.40150,-2.566317393
331.40200,-2.566317393
331.40250,-2.261122986
331.40300,-1.955928578
331.40350,-2.261122986
331.40400,-1.65073417
331.40450,-0.4299565394
331.40500,-0.1247621317
331.40550,-0.1247621317
331.40600,-0.7351509471
331.40650,-0.7351509471
331.40700,0.180432276
331.40750,1.401209907
331.40800,3.232376353
331.40850,5.063542799
331.40900,6.28432043
331.40950,6.28432043
331.41000,5.673931615
331.41050,4.758348392
331.41100,4.147959576
331.41150,3.537570761
331.41200,2.31679313
331.41250,0.7908210914
331.41300,-0.1247621317
331.41350,-0.1247621317
331.41400,-1.040345355
331.41450,-2.261122986
331.41500,-2.566317393
331.41550,-1.955928578
331.41600,-1.65073417
331.41650,-1.955928578
331.41700,-2.566317393
331.41750,-2.261122986
331.41800,-1.345539762
331.41850,-0.4299565394
331.41900,0.180432276
331.41950,1.096015499
331.42000,1.401209907
331.42050,0.7908210914
331.42100,0.4856266837
331.42150,2.31679313
331.42200,5.368737207
331.42250,7.199903653
331.42300,7.199903653
331.42350,6.28432043
331.42400,5.673931615
331.42450,4.453153984
331.42500,2.927181945
331.42550,2.31679313
331.42600,2.621987538
331.42650,2.927181945
331.42700,2.31679313
331.42750,1.706404315
331.42800,2.31679313
331.42850,3.537570761
331.42900,3.537570761
331.42950,1.706404315
331.43000,0.180432276
331.43050,-0.4299565394
331.43100,-1.040345355
331.43150,-2.261122986
331.43200,-3.787095024
331.43250,-4.702678247
331.43300,-4.39748384
331.43350,-3.176706209
331.43400,-2.871511801
331.43450,-2.871511801
331.43500,-4.092289432
331.43550,-5.313067063
331.43600,-5.923455878
331.43650,-4.39748384
331.43700,-1.65073417
331.43750,-0.1247621317
331.43800,-1.040345355
331.43850,-2.871511801
331.43900,-3.176706209
331.43950,-1.345539762
331.44000,-0.1247621317
331.44050,1.096015499
331.44100,2.621987538
331.44150,4.758348392
331.44200,4.453153984
331.44250,0.4856266837
331.44300,-3.176706209
331.44350,-2.871511801
331.44400,1.096015499
331.44450,3.842765168
331.44500,3.232376353
331.44550,0.4856266837
331.44600,-0.4299565394
331.44650,-0.1247621317
331.44700,0.4856266837
331.44750,0.7908210914
331.44800,1.706404315
331.44850,2.927181945
331.44900,3.232376353
331.44950,2.927181945
331.45000,2.011598722
331.45050,1.096015499
331.45100,0.4856266837
331.45150,0.180432276
331.45200,0.7908210914
331.45250,1.401209907
331.45300,1.401209907
331.45350,1.096015499
331.45400,0.7908210914
331.45450,0.7908210914
331.45500,1.401209907
331.45550,1.706404315
331.45600,1.401209907
331.45650,0.180432276
331.45700,-0.4299565394
331.45750,-0.1247621317
331.45800,0.4856266837
331.45850,0.4856266837
331.45900,-0.4299565394
331.45950,-0.7351509471
331.46000,0.180432276
331.46050,1.401209907
331.46100,0.4856266837
331.46150,-1.040345355
331.46200,-1.65073417
331.46250,-1.345539762
331.46300,-1.955928578
331.46350,-3.787095024
331.46400,-5.61826147
331.46450,-5.61826147
331.46500,-3.176706209
331.46550,1.096015499
331.46600,5.673931615
331.46650,7.810292469
331.46700,6.894709245
331.46750,5.673931615
331.46800,7.810292469
331.46850,12.38820858
331.46900,14.82976385
331.46950,12.38820858
331.47000,6.589514838
331.47050,1.096015499
331.47100,-0.4299565394
331.47150,0.4856266837
331.47200,2.011598722
331.47250,1.096015499
331.47300,-1.65073417
331.47350,-3.176706209
331.47400,-0.7351509471
331.47450,2.011598722
331.47500,3.232376353
331.47550,2.621987538
331.47600,3.537570761
331.47650,5.368737207
331.47700,6.589514838
331.47750,6.894709245
331.47800,8.115486876
331.47850,9.641458915
331.47900,9.031070099
331.47950,5.673931615
331.48000,2.31679313
331.48050,0.4856266837
331.48100,-0.7351509471
331.48150,-2.566317393
331.48200,-4.092289432
331.48250,-5.007872655
331.48300,-5.313067063
331.48350,-5.61826147
331.48400,-4.702678247
331.48450,-3.176706209
331.48500,-2.261122986
331.48550,-2.871511801
331.48600,-3.787095024
331.48650,-3.787095024
331.48700,-3.481900616
331.48750,-3.481900616
331.48800,-3.176706209
331.48850,-1.955928578
331.48900,-0.7351509471
331.48950,-1.345539762
331.49000,-3.176706209
331.49050,-4.092289432
331.49100,-3.176706209
331.49150,-1.955928578
331.49200,-1.65073417
331.49250,-2.566317393
331.49300,-3.176706209
331.49350,-2.261122986
331.49400,-1.345539762
331.49450,-1.345539762
331.49500,-1.955928578
331.49550,-2.566317393
331.49600,-2.566317393
331.49650,-2.566317393
331.49700,-2.261122986
331.49750,-1.040345355
331.49800,0.4856266837
331.49850,1.096015499
331.49900,0.180432276
331.49950,-0.7351509471
331.50000,-1.345539762
331.50050,-1.65073417
331.50100,-2.261122986
331.50150,-3.176706209
331.50200,-2.871511801
331.50250,-1.955928578
331.50300,-1.65073417
331.50350,-1.955928578
331.50400,-2.566317393
331.50450,-2.566317393
331.50500,-2.871511801
331.50550,-2.871511801
331.50600,-2.261122986
331.50650,-1.345539762
331.50700,-1.65073417
331.50750,-2.261122986
331.50800,-2.261122986
331.50850,-1.345539762
331.50900,-1.955928578
331.50950,-3.481900616
331.51000,-4.39748384
331.51050,-3.787095024
331.51100,-3.176706209
331.51150,-4.092289432
331.51200,-5.313067063
331.51250,-5.007872655
331.51300,-3.176706209
331.51350,-2.566317393
331.51400,-3.481900616
331.51450,-4.092289432
331.51500,-3.176706209
331.51550,-2.871511801
331.51600,-3.787095024
331.51650,-3.787095024
331.51700,-2.261122986
331.51750,-0.7351509471
331.51800,-1.345539762
331.51850,-2.871511801
331.51900,-1.955928578
331.51950,0.180432276
331.52000,1.401209907
331.52050,0.7908210914
331.52100,-0.1247621317
331.52150,-0.1247621317
331.52200,-0.1247621317
331.52250,-1.040345355
331.52300,-1.345539762
331.52350,-0.1247621317
331.52400,1.401209907
331.52450,2.011598722
331.52500,1.706404315
331.52550,1.401209907
331.52600,1.401209907
331.52650,1.706404315
331.52700,2.011598722
331.52750,1.096015499
331.52800,-0.1247621317
331.52850,-2.261122986
331.52900,-4.39748384
331.52950,-6.839039101
331.53000,-9.280594363
331.53050,-9.890983178
331.53100,-7.144233509
331.53150,-3.481900616
331.53200,-1.955928578
331.53250,-1.955928578
331.53300,-0.7351509471
331.53350,1.706404315
331.53400,2.31679313
331.53450,-0.1247621317
331.53500,-2.261122986
331.53550,-1.040345355
331.53600,0.180432276
331.53650,0.180432276
331.53700,-0.4299565394
331.53750,-0.4299565394
331.53800,0.180432276
331.53850,0.180432276
331.53900,-0.1247621317
331.53950,0.4856266837
331.54000,1.096015499
331.54050,0.7908210914
331.54100,0.180432276
331.54150,0.7908210914
331.54200,0.7908210914
331.54250,-0.4299565394
331.54300,-1.955928578
331.54350,-1.040345355
331.54400,0.7908210914
331.54450,0.7908210914
331.54500,0.4856266837
331.54550,1.706404315
331.54600,4.147959576
331.54650,4.147959576
331.54700,2.621987538
331.54750,2.011598722
331.54800,3.232376353
331.54850,4.758348392
331.54900,5.368737207
331.54950,6.894709245
331.55000,8.420681284
331.55050,7.810292469
331.55100,5.673931615
331.55150,4.453153984
331.55200,4.453153984
331.55250,3.842765168
331.55300,1.401209907
331.55350,-0.1247621317
331.55400,-0.4299565394
331.55450,-0.7351509471
331.55500,-3.481900616
331.55550,-6.533844693
331.55600,-6.533844693
331.55650,-3.787095024
331.55700,-1.345539762
331.55750,-0.7351509471
331.55800,-1.040345355
331.55850,-1.345539762
331.55900,-1.040345355
331.55950,-0.1247621317
331.56000,1.401209907
331.56050,2.621987538
331.56100,2.927181945
331.56150,2.621987538
331.56200,2.927181945
331.56250,2.31679313
331.56300,0.7908210914
331.56350,-0.1247621317
331.56400,-0.1247621317
331.56450,1.096015499
331.56500,2.621987538
331.56550,3.537570761
331.56600,4.147959576
331.56650,4.147959576
331.56700,3.537570761
331.56750,3.232376353
331.56800,2.927181945
331.56850,2.31679313
331.56900,1.096015499
331.56950,0.4856266837
331.57000,1.096015499
331.57050,1.401209907
331.57100,0.4856266837
331.57150,-0.7351509471
331.57200,-1.955928578
331.57250,-2.566317393
331.57300,-4.092289432
331.57350,-5.007872655
331.57400,-5.007872655
331.57450,-3.481900616
331.57500,-1.955928578
331.57550,-1.65073417
331.57600,-1.955928578
331.57650,-2.566317393
331.57700,-1.955928578
331.57750,-0.1247621317
331.57800,2.927181945
331.57850,5.063542799
331.57900,4.758348392
331.57950,3.537570761
331.58000,2.011598722
331.58050,1.096015499
331.58100,0.4856266837
331.58150,0.4856266837
331.58200,0.4856266837
331.58250,-0.1247621317
331.58300,-0.7351509471
331.58350,-0.1247621317
331.58400,2.31679313
331.58450,4.758348392
331.58500,5.979126022
331.58550,6.589514838
331.58600,6.589514838
331.58650,6.28432043
331.58700,6.28432043
331.58750,7.199903653
331.58800,6.894709245
331.58850,3.842765168
331.58900,-0.4299565394
331.58950,-2.566317393
331.59000,-1.65073417
331.59050,-0.1247621317
331.59100,-0.7351509471
331.59150,-1.955928578
331.59200,-2.566317393
331.59250,-1.955928578
331.59300,-1.65073417
331.59350,-1.040345355
331.59400,-1.040345355
331.59450,-1.65073417
331.59500,-3.176706209
331.59550,-3.481900616
331.59600,-2.871511801
331.59650,-2.261122986
331.59700,-2.261122986
331.59750,-1.955928578
331.59800,-1.040345355
331.59850,-0.4299565394
331.59900,-0.7351509471
331.59950,-1.345539762
331.60000,-1.345539762
331.60050,-1.65073417
331.60100,-2.261122986
331.60150,-1.955928578
331.60200,-1.040345355
331.60250,-0.1247621317
331.60300,-0.1247621317
331.60350,-0.1247621317
331.60400,-0.1247621317
331.60450,-0.7351509471
331.60500,-1.955928578
331.60550,-3.176706209
331.60600,-3.176706209
331.60650,-2.566317393
331.60700,-1.65073417
331.60750,-1.040345355
331.60800,-0.1247621317
331.60850,-0.1247621317
331.60900,-0.1247621317
331.60950,0.180432276
331.61000,0.4856266837
331.61050,0.4856266837
331.61100,-0.1247621317
331.61150,-0.1247621317
331.61200,1.096015499
331.61250,2.927181945
331.61300,3.537570761
331.61350,3.232376353
331.61400,1.706404315
331.61450,0.180432276
331.61500,-0.7351509471
331.61550,-1.345539762
331.61600,-1.345539762
331.61650,-1.040345355
331.61700,-1.040345355
331.61750,-1.345539762
331.61800,-2.261122986
331.61850,-4.092289432
331.61900,-5.007872655
331.61950,-4.39748384
331.62000,-2.566317393
331.62050,-1.345539762
331.62100,-0.7351509471
331.62150,0.4856266837
331.62200,2.927181945
331.62250,5.063542799
331.62300,4.453153984
331.62350,2.927181945
331.62400,2.31679313
331.62450,2.621987538
331.62500,2.621987538
331.62550,1.401209907
331.62600,0.7908210914
331.62650,2.011598722
331.62700,4.453153984
331.62750,5.673931615
331.62800,5.979126022
331.62850,5.368737207
331.62900,4.758348392
331.62950,3.537570761
331.63000,2.011598722
331.63050,0.7908210914
331.63100,-0.1247621317
331.63150,-1.040345355
331.63200,-1.65073417
331.63250,-1.040345355
331.63300,0.4856266837
331.63350,1.401209907
331.63400,0.7908210914
331.63450,-0.1247621317
331.63500,-0.7351509471
331.63550,-1.345539762
331.63600,-2.871511801
331.63650,-5.313067063
331.63700,-7.144233509
331.63750,-7.449427917
331.63800,-6.839039101
331.63850,-6.228650286
331.63900,-5.313067063
331.63950,-3.787095024
331.64000,-2.261122986
331.64050,-1.65073417
331.64100,-1.345539762
331.64150,-0.1247621317
331.64200,2.011598722
331.64250,2.621987538
331.64300,0.180432276
331.64350,-4.092289432
331.64400,-7.754622324
331.64450,-8.36501114
331.64500,-6.839039101
331.64550,-5.61826147
331.64600,-6.228650286
331.64650,-6.839039101
331.64700,-6.228650286
331.64750,-4.702678247
331.64800,-4.092289432
331.64850,-4.702678247
331.64900,-5.007872655
331.64950,-4.39748384
331.65000,-3.481900616
331.65050,-4.092289432
331.65100,-4.39748384
331.65150,-2.566317393
331.65200,0.180432276
331.65250,3.232376353
331.65300,3.842765168
331.65350,2.621987538
331.65400,0.7908210914
331.65450,0.4856266837
331.65500,1.401209907
331.65550,2.927181945
331.65600,2.31679313
331.65650,-0.1247621317
331.65700,-1.65073417
331.65750,-1.345539762
331.65800,-0.7351509471
331.65850,-1.65073417
331.65900,-2.871511801
331.65950,-1.955928578
331.66000,1.096015499
331.66050,3.232376353
331.66100,2.927181945
331.66150,1.401209907
331.66200,1.706404315
331.66250,4.147959576
331.66300,6.28432043
331.66350,6.28432043
331.66400,4.453153984
331.66450,3.537570761
331.66500,4.758348392
331.66550,5.673931615
331.66600,4.453153984
331.66650,2.011598722
331.66700,0.4856266837
331.66750,1.096015499
331.66800,2.31679313
331.66850,2.621987538
331.66900,1.401209907
331.66950,0.180432276
331.67000,-0.7351509471
331.67050,-2.261122986
331.67100,-4.092289432
331.67150,-4.702678247
331.67200,-4.39748384
331.67250,-3.787095024
331.67300,-3.787095024
331.67350,-3.787095024
331.67400,-3.176706209
331.67450,-2.261122986
331.67500,-2.261122986
331.67550,-2.566317393
331.67600,-1.65073417
331.67650,-0.4299565394
331.67700,-0.1247621317
331.67750,-1.040345355
331.67800,-2.261122986
331.67850,-2.261122986
331.67900,-1.65073417
331.67950,-0.1247621317
331.68000,1.706404315
331.68050,4.453153984
331.68100,6.28432043
331.68150,5.979126022
331.68200,4.147959576
331.68250,2.31679313
331.68300,1.706404315
331.68350,2.31679313
331.68400,3.537570761
331.68450,5.063542799
331.68500,5.673931615
331.68550,5.063542799
331.68600,4.147959576
331.68650,4.147959576
331.68700,5.673931615
331.68750,8.725875692
331.68800,10.55704214
331.68850,9.031070099
331.68900,4.758348392
331.68950,0.7908210914
331.69000,-0.1247621317
331.69050,0.4856266837
331.69100,0.7908210914
331.69150,-0.1247621317
331.69200,-1.040345355
331.69250,-0.7351509471
331.69300,-0.1247621317
331.69350,-0.1247621317
331.69400,-0.7351509471
331.69450,-1.955928578
331.69500,-2.261122986
331.69550,-1.345539762
331.69600,-0.1247621317
331.69650,0.4856266837
331.69700,0.4856266837
331.69750,0.4856266837
331.69800,0.4856266837
331.69850,-0.1247621317
331.69900,-0.4299565394
331.69950,-0.4299565394
331.70000,-0.1247621317
331.70050,-0.1247621317
331.70100,-0.4299565394
331.70150,-0.1247621317
331.70200,0.4856266837
331.70250,0.4856266837
331.70300,-0.1247621317
331.70350,-0.4299565394
331.70400,-0.1247621317
331.70450,-0.1247621317
331.70500,-0.4299565394
331.70550,-0.1247621317
331.70600,0.4856266837
331.70650,0.7908210914
331.70700,-0.4299565394
331.70750,-1.65073417
331.70800,-1.345539762
331.70850,-0.7351509471
331.70900,-1.955928578
331.70950,-4.092289432
331.71000,-5.007872655
331.71050,-5.007872655
331.71100,-4.702678247
331.71150,-4.702678247
331.71200,-4.092289432
331.71250,-2.871511801
331.71300,-1.955928578
331.71350,-1.65073417
331.71400,-1.345539762
331.71450,-1.040345355
331.71500,-2.261122986
331.71550,-5.007872655
331.71600,-7.449427917
331.71650,-7.449427917
331.71700,-5.923455878
331.71750,-4.39748384
331.71800,-3.481900616
331.71850,-2.261122986
331.71900,-1.65073417
331.71950,-1.65073417
331.72000,-2.261122986
331.72050,-1.65073417
331.72100,0.180432276
331.72150,1.706404315
331.72200,2.31679313
331.72250,2.927181945
331.72300,3.232376353
331.72350,2.31679313
331.72400,0.7908210914
331.72450,0.180432276
331.72500,1.706404315
331.72550,2.621987538
331.72600,1.401209907
331.72650,-1.040345355
331.72700,-3.481900616
331.72750,-5.61826147
331.72800,-7.449427917
331.72850,-7.449427917
331.72900,-5.61826147
331.72950,-3.176706209
331.73000,-2.261122986
331.73050,-2.261122986
331.73100,-1.65073417
331.73150,-1.345539762
331.73200,-1.955928578
331.73250,-2.566317393
331.73300,-2.871511801
331.73350,-2.871511801
331.73400,-3.481900616
331.73450,-3.481900616
331.73500,-1.955928578
331.73550,-0.1247621317
331.73600,-0.1247621317
331.73650,-0.1247621317
331.73700,0.180432276
331.73750,0.7908210914
331.73800,1.096015499
331.73850,1.706404315
331.73900,3.232376353
331.73950,4.453153984
331.74000,4.147959576
331.74050,3.232376353
331.74100,2.621987538
331.74150,1.096015499
331.74200,-1.955928578
331.74250,-5.007872655
331.74300,-5.313067063
331.74350,-3.176706209
331.74400,-1.65073417
331.74450,-1.65073417
331.74500,-1.955928578
331.74550,-0.7351509471
331.74600,1.706404315
331.74650,5.063542799
331.74700,8.420681284
331.74750,9.641458915
331.74800,8.115486876
331.74850,5.673931615
331.74900,5.368737207
331.74950,6.28432043
331.75000,5.673931615
331.75050,3.232376353
331.75100,1.096015499
331.75150,0.7908210914
331.75200,2.011598722
331.75250,2.621987538
331.75300,1.706404315
331.75350,-0.1247621317
331.75400,-1.345539762
331.75450,-1.955928578
331.75500,-2.871511801
331.75550,-3.481900616
331.75600,-3.787095024
331.75650,-2.566317393
331.75700,0.4856266837
331.75750,3.537570761
331.75800,5.368737207
331.75850,5.368737207
331.75900,5.368737207
331.75950,5.979126022
331.76000,6.28432043
331.76050,5.063542799
331.76100,2.31679313
331.76150,-0.1247621317
331.76200,-1.040345355
331.76250,-0.4299565394
331.76300,1.096015499
331.76350,2.011598722
331.76400,1.401209907
331.76450,-0.1247621317
331.76500,-1.65073417
331.76550,-1.345539762
331.76600,-0.1247621317
331.76650,1.096015499
331.76700,1.096015499
331.76750,0.7908210914
331.76800,1.096015499
331.76850,1.401209907
331.76900,0.7908210914
331.76950,-0.4299565394
331.77000,-2.261122986
331.77050,-4.092289432
331.77100,-6.533844693
331.77150,-8.670205547
331.77200,-8.670205547
331.77250,-6.533844693
331.77300,-4.39748384
331.77350,-3.787095024
331.77400,-2.871511801
331.77450,-0.4299565394
331.77500,2.011598722
331.77550,2.621987538
331.77600,1.706404315
331.77650,1.401209907
331.77700,2.31679313
331.77750,2.011598722
331.77800,0.4856266837
331.77850,-0.4299565394
331.77900,-0.1247621317
331.77950,0.7908210914
331.78000,0.7908210914
331.78050,-0.1247621317
331.78100,-1.345539762
331.78150,-1.345539762
331.78200,-0.7351509471
331.78250,-0.1247621317
331.78300,0.180432276
331.78350,-0.1247621317
331.78400,-0.1247621317
331.78450,0.4856266837
331.78500,1.096015499
331.78550,0.7908210914
331.78600,0.7908210914
331.78650,2.31679313
331.78700,3.537570761
331.78750,3.842765168
331.78800,3.537570761
331.78850,3.537570761
331.78900,3.232376353
331.78950,2.31679313
331.79000,0.7908210914
331.79050,1.706404315
331.79100,4.147959576
331.79150,5.979126022
331.79200,5.368737207
331.79250,2.31679313
331.79300,-0.1247621317
331.79350,-0.7351509471
331.79400,-0.4299565394
331.79450,-0.1247621317
331.79500,0.180432276
331.79550,1.096015499
331.79600,2.011598722
331.79650,1.706404315
331.79700,0.4856266837
331.79750,-0.1247621317
331.79800,-0.1247621317
331.79850,0.180432276
331.79900,-0.1247621317
331.79950,-0.7351509471
331.80000,-1.040345355
331.80050,-1.040345355
331.80100,-1.955928578
331.80150,-2.566317393
331.80200,-2.261122986
331.80250,-1.040345355
331.80300,-0.4299565394
331.80350,-0.4299565394
331.80400,-0.1247621317
331.80450,0.4856266837
331.80500,0.4856266837
331.80550,-0.4299565394
331.80600,-1.040345355
331.80650,-0.1247621317
331.80700,0.7908210914
331.80750,0.4856266837
331.80800,-0.7351509471
331.80850,-2.261122986
331.80900,-4.092289432
331.80950,-6.839039101
331.81000,-9.280594363
331.81050,-8.975399955
331.81100,-5.923455878
331.81150,-2.871511801
331.81200,-1.955928578
331.81250,-2.261122986
331.81300,-1.345539762
331.81350,-0.1247621317
331.81400,0.180432276
331.81450,-1.955928578
331.81500,-4.092289432
331.81550,-3.787095024
331.81600,-1.040345355
331.81650,0.180432276
331.81700,-0.7351509471
331.81750,-2.871511801
331.81800,-2.566317393
331.81850,-0.1247621317
331.81900,2.011598722
331.81950,3.537570761
331.82000,4.147959576
331.82050,4.147959576
331.82100,2.927181945
331.82150,0.7908210914
331.82200,-0.4299565394
331.82250,-0.1247621317
331.82300,0.7908210914
331.82350,1.096015499
331.82400,0.4856266837
331.82450,0.4856266837
331.82500,0.4856266837
331.82550,0.4856266837
331.82600,0.180432276
331.82650,0.180432276
331.82700,0.4856266837
331.82750,0.7908210914
331.82800,2.011598722
331.82850,3.232376353
331.82900,3.537570761
331.82950,2.31679313
331.83000,1.096015499
331.83050,0.4856266837
331.83100,0.180432276
331.83150,-1.040345355
331.83200,-2.261122986
331.83250,-2.566317393
331.83300,-1.65073417
331.83350,-1.345539762
331.83400,-1.65073417
331.83450,-1.040345355
331.83500,-0.4299565394
331.83550,-0.4299565394
331.83600,-1.345539762
331.83650,-1.65073417
331.83700,-1.345539762
331.83750,-1.345539762
331.83800,-2.566317393
331.83850,-3.481900616
331.83900,-2.261122986
331.83950,-0.1247621317
331.84000,0.7908210914
331.84050,0.4856266837
331.84100,-0.4299565394
331.84150,-1.65073417
331.84200,-1.65073417
331.84250,-0.7351509471
331.84300,0.7908210914
331.84350,2.621987538
331.84400,4.453153984
331.84450,4.453153984
331.84500,2.011598722
331.84550,-1.345539762
331.84600,-4.092289432
331.84650,-4.092289432
331.84700,-2.261122986
331.84750,-0.4299565394
331.84800,1.096015499
331.84850,2.31679313
331.84900,2.927181945
331.84950,2.621987538
331.85000,2.927181945
331.85050,4.453153984
331.85100,5.368737207
331.85150,4.147959576
331.85200,2.011598722
331.85250,0.7908210914
331.85300,0.180432276
331.85350,-0.7351509471
331.85400,-2.261122986
331.85450,-2.566317393
331.85500,-1.955928578
331.85550,-1.955928578
331.85600,-2.871511801
331.85650,-3.176706209
331.85700,-2.261122986
331.85750,-1.65073417
331.85800,-1.65073417
331.85850,-1.955928578
331.85900,-2.261122986
331.85950,-2.871511801
331.86000,-3.787095024
331.86050,-4.092289432
331.86100,-3.481900616
331.86150,-2.261122986
331.86200,-1.65073417
331.86250,-1.345539762
331.86300,-0.7351509471
331.86350,-0.4299565394
331.86400,-1.040345355
331.86450,-2.261122986
331.86500,-2.871511801
331.86550,-2.566317393
331.86600,-1.65073417
331.86650,-1.040345355
331.86700,-1.345539762
331.86750,-2.261122986
331.86800,-3.176706209
331.86850,-3.787095024
331.86900,-4.092289432
331.86950,-4.092289432
331.87000,-3.481900616
331.87050,-3.176706209
331.87100,-3.481900616
331.87150,-4.092289432
331.87200,-4.702678247
331.87250,-5.007872655
331.87300,-4.39748384
331.87350,-2.871511801
331.87400,-1.040345355
331.87450,-0.1247621317
331.87500,0.180432276
331.87550,0.4856266837
331.87600,0.7908210914
331.87650,1.096015499
331.87700,0.7908210914
331.87750,-0.1247621317
331.87800,-1.040345355
331.87850,-1.955928578
331.87900,-1.955928578
331.87950,-0.4299565394
331.88000,1.401209907
331.88050,2.011598722
331.88100,0.7908210914
331.88150,-0.4299565394
331.88200,-1.345539762
331.88250,-1.345539762
331.88300,-1.040345355
331.88350,-1.345539762
331.88400,-1.345539762
331.88450,-1.040345355
331.88500,-0.7351509471
331.88550,-1.040345355
331.88600,-1.345539762
331.88650,-0.1247621317
331.88700,1.706404315
331.88750,3.232376353
331.88800,2.927181945
331.88850,0.7908210914
331.88900,-1.040345355
331.88950,-2.261122986
331.89000,-2.261122986
331.89050,-1.65073417
331.89100,-0.1247621317
331.89150,1.401209907
331.89200,2.011598722
331.89250,1.096015499
331.89300,-0.1247621317
331.89350,-0.1247621317
331.89400,1.401209907
331.89450,2.621987538
331.89500,3.842765168
331.89550,4.758348392
331.89600,4.758348392
331.89650,3.537570761
331.89700,2.621987538
331.89750,2.621987538
331.89800,3.232376353
331.89850,2.927181945
331.89900,2.31679313
331.89950,2.621987538
331.90000,3.232376353
331.90050,2.621987538
331.90100,1.096015499
331.90150,0.7908210914
331.90200,2.31679313
331.90250,3.537570761
331.90300,3.232376353
331.90350,2.621987538
331.90400,3.232376353
331.90450,4.453153984
331.90500,3.842765168
331.90550,2.31679313
331.90600,1.401209907
331.90650,1.706404315
331.90700,2.621987538
331.90750,2.621987538
331.90800,1.706404315
331.90850,0.7908210914
331.90900,0.7908210914
331.90950,2.011598722
331.91000,3.537570761
331.91050,4.147959576
331.91100,3.842765168
331.91150,3.842765168
331.91200,4.758348392
331.91250,5.063542799
331.91300,3.842765168
331.91350,1.706404315
331.91400,0.7908210914
331.91450,1.096015499
331.91500,0.4856266837
331.91550,-1.040345355
331.91600,-2.871511801
331.91650,-3.176706209
331.91700,-2.566317393
331.91750,-3.176706209
331.91800,-3.481900616
331.91850,-2.566317393
331.91900,-1.040345355
331.91950,-0.7351509471
331.92000,-1.65073417
331.92050,-2.261122986
331.92100,-1.345539762
331.92150,-0.1247621317
331.92200,1.096015499
331.92250,2.011598722
331.92300,2.621987538
331.92350,1.096015499
331.92400,-1.040345355
331.92450,-1.65073417
331.92500,0.7908210914
331.92550,4.758348392
331.92600,6.28432043
331.92650,4.758348392
331.92700,2.621987538
331.92750,1.401209907
331.92800,0.4856266837
331.92850,-0.1247621317
331.92900,-1.040345355
331.92950,-1.040345355
331.93000,-1.040345355
331.93050,-0.7351509471
331.93100,-0.4299565394
331.93150,-0.1247621317
331.93200,-0.1247621317
331.93250,-1.040345355
331.93300,-1.65073417
331.93350,-1.040345355
331.93400,-0.1247621317
331.93450,0.7908210914
331.93500,0.4856266837
331.93550,-0.4299565394
331.93600,-1.040345355
331.93650,-0.1247621317
331.93700,0.180432276
331.93750,-0.4299565394
331.93800,-2.261122986
331.93850,-2.566317393
331.93900,-0.4299565394
331.93950,2.31679313
331.94000,3.232376353
331.94050,2.927181945
331.94100,2.011598722
331.94150,2.011598722
331.94200,1.401209907
331.94250,0.180432276
331.94300,-0.7351509471
331.94350,-1.65073417
331.94400,-2.261122986
331.94450,-3.481900616
331.94500,-5.007872655
331.94550,-6.533844693
331.94600,-7.449427917
331.94650,-7.754622324
331.94700,-6.228650286
331.94750,-3.787095024
331.94800,-0.7351509471
331.94850,-0.1247621317
331.94900,-1.040345355
331.94950,-3.176706209
331.95000,-4.39748384
331.95050,-4.39748384
331.95100,-4.092289432
331.95150,-4.39748384
331.95200,-5.007872655
331.95250,-4.39748384
331.95300,-1.955928578
331.95350,0.180432276
331.95400,0.4856266837
331.95450,-1.65073417
331.95500,-3.481900616
331.95550,-2.261122986
331.95600,0.180432276
331.95650,1.706404315
331.95700,1.401209907
331.95750,1.706404315
331.95800,3.842765168
331.95850,5.673931615
331.95900,6.28432043
331.95950,5.673931615
331.96000,4.758348392
331.96050,3.842765168
331.96100,1.706404315
331.96150,-0.4299565394
331.96200,-1.345539762
331.96250,-1.040345355
331.96300,-0.1247621317
331.96350,0.180432276
331.96400,0.4856266837
331.96450,1.706404315
331.96500,2.31679313
331.96550,1.706404315
331.96600,0.4856266837
331.96650,-0.4299565394
331.96700,-0.4299565394
331.96750,-0.1247621317
331.96800,-0.7351509471
331.96850,-1.040345355
331.96900,-0.7351509471
331.96950,0.180432276
331.97000,1.096015499
331.97050,1.096015499
331.97100,0.7908210914
331.97150,1.096015499
331.97200,2.011598722
331.97250,2.31679313
331.97300,1.401209907
331.97350,0.180432276
331.97400,-0.4299565394
331.97450,-0.4299565394
331.97500,0.180432276
331.97550,0.180432276
331.97600,-1.040345355
331.97650,-3.176706209
331.97700,-4.092289432
331.97750,-2.871511801
331.97800,-0.7351509471
331.97850,0.180432276
331.97900,0.180432276
331.97950,-0.1247621317
331.98000,-0.1247621317
331.98050,-0.7351509471
331.98100,-1.345539762
331.98150,-0.4299565394
331.98200,1.096015499
331.98250,2.31679313
331.98300,2.31679313
331.98350,1.401209907
331.98400,0.4856266837
331.98450,-1.040345355
331.98500,-2.566317393
331.98550,-2.566317393
331.98600,-0.7351509471
331.98650,0.4856266837
331.98700,0.180432276
331.98750,0.180432276
331.98800,1.401209907
331.98850,2.011598722
331.98900,0.4856266837
331.98950,-1.65073417
331.99000,-1.65073417
331.99050,0.180432276
331.99100,1.706404315
331.99150,0.4856266837
331.99200,-1.345539762
331.99250,-2.566317393
331.99300,-2.871511801
331.99350,-3.481900616
331.99400,-4.092289432
331.99450,-3.481900616
331.99500,-1.345539762
331.99550,0.4856266837
331.99600,1.706404315
331.99650,2.621987538
331.99700,2.31679313
331.99750,2.011598722
331.99800,1.401209907
331.99850,1.706404315
331.99900,2.011598722
331.99950,2.31679313
332.00000,2.621987538
332.00050,2.927181945
332.00100,2.621987538
332.00150,1.096015499
332.00200,-0.4299565394
332.00250,-1.345539762
332.00300,-1.040345355
332.00350,-0.4299565394
332.00400,-0.1247621317
332.00450,1.096015499
332.00500,2.31679313
332.00550,2.31679313
332.00600,1.706404315
332.00650,1.401209907
332.00700,1.401209907
332.00750,0.180432276
332.00800,-1.65073417
332.00850,-3.481900616
332.00900,-2.871511801
332.00950,-1.955928578
332.01000,-1.955928578
332.01050,-2.871511801
332.01100,-2.871511801
332.01150,-1.65073417
332.01200,-0.7351509471
332.01250,-0.1247621317
332.01300,0.180432276
332.01350,0.180432276
332.01400,-0.4299565394
332.01450,-1.345539762
332.01500,-0.7351509471
332.01550,0.180432276
332.01600,-0.1247621317
332.01650,-1.345539762
332.01700,-1.955928578
332.01750,-1.65073417
332.01800,-1.345539762
332.01850,-2.261122986
332.01900,-2.261122986
332.01950,-0.7351509471
332.02000,0.4856266837
332.02050,1.401209907
332.02100,0.7908210914
332.02150,-0.1247621317
332.02200,-0.7351509471
332.02250,-0.4299565394
332.02300,1.706404315
332.02350,4.758348392
332.02400,5.673931615
332.02450,3.537570761
332.02500,0.7908210914
332.02550,-1.65073417
332.02600,-4.39748384
332.02650,-7.144233509
332.02700,-7.754622324
332.02750,-6.228650286
332.02800,-4.39748384
332.02850,-3.481900616
332.02900,-3.481900616
332.02950,-3.176706209
332.03000,-2.566317393
332.03050,-2.261122986
332.03100,-0.7351509471
332.03150,1.096015499
332.03200,2.621987538
332.03250,2.927181945
332.03300,2.31679313
332.03350,2.31679313
332.03400,1.706404315
332.03450,0.180432276
332.03500,-1.040345355
332.03550,-2.566317393
332.03600,-4.092289432
332.03650,-5.313067063
332.03700,-5.61826147
332.03750,-5.313067063
332.03800,-5.007872655
332.03850,-4.092289432
332.03900,-3.176706209
332.03950,-1.955928578
332.04000,-1.040345355
332.04050,0.4856266837
332.04100,4.453153984
332.04150,7.505098061
332.04200,7.505098061
332.04250,5.368737207
332.04300,4.147959576
332.04350,4.758348392
332.04400,5.673931615
332.04450,5.368737207
332.04500,4.453153984
332.04550,4.147959576
332.04600,3.232376353
332.04650,2.011598722
332.04700,0.7908210914
332.04750,1.401209907
332.04800,2.621987538
332.04850,2.31679313
332.04900,0.7908210914
332.04950,-0.7351509471
332.05000,-2.566317393
332.05050,-3.481900616
332.05100,-3.787095024
332.05150,-4.092289432
332.05200,-5.61826147
332.05250,-7.754622324
332.05300,-8.975399955
332.05350,-7.754622324
332.05400,-5.313067063
332.05450,-2.871511801
332.05500,-0.1247621317
332.05550,2.31679313
332.05600,4.453153984
332.05650,4.453153984
332.05700,3.537570761
332.05750,2.31679313
332.05800,1.401209907
332.05850,1.706404315
332.05900,2.621987538
332.05950,3.537570761
332.06000,2.927181945
332.06050,0.7908210914
332.06100,-0.4299565394
332.06150,-0.4299565394
332.06200,-0.1247621317
332.06250,0.180432276
332.06300,0.4856266837
332.06350,1.096015499
332.06400,0.180432276
332.06450,-1.955928578
332.06500,-3.787095024
332.06550,-3.176706209
332.06600,-2.261122986
332.06650,-2.261122986
332.06700,-2.871511801
332.06750,-2.871511801
332.06800,-2.871511801
332.06850,-3.787095024
332.06900,-4.39748384
332.06950,-4.39748384
332.07000,-3.787095024
332.07050,-3.481900616
332.07100,-3.176706209
332.07150,-2.261122986
332.07200,-1.65073417
332.07250,-1.955928578
332.07300,-2.871511801
332.07350,-2.871511801
332.07400,-1.345539762
332.07450,-0.4299565394
332.07500,-0.7351509471
332.07550,-1.040345355
332.07600,-1.040345355
332.07650,-1.040345355
332.07700,-0.7351509471
332.07750,-0.7351509471
332.07800,-1.955928578
332.07850,-3.176706209
332.07900,-3.787095024
332.07950,-3.176706209
332.08000,-2.871511801
332.08050,-3.176706209
332.08100,-2.566317393
332.08150,-0.4299565394
332.08200,1.096015499
332.08250,0.7908210914
332.08300,-0.1247621317
332.08350,-0.1247621317
332.08400,0.4856266837
332.08450,0.4856266837
332.08500,0.180432276
332.08550,1.401209907
332.08600,2.927181945
332.08650,2.621987538
332.08700,1.096015499
332.08750,-0.1247621317
332.08800,-0.7351509471
332.08850,-1.65073417
332.08900,-2.566317393
332.08950,-1.65073417
332.09000,-0.4299565394
332.09050,-0.1247621317
332.09100,-0.7351509471
332.09150,-0.7351509471
332.09200,-0.1247621317
332.09250,0.180432276
332.09300,0.180432276
332.09350,-0.1247621317
332.09400,-0.1247621317
332.09450,0.4856266837
332.09500,1.096015499
332.09550,2.011598722
332.09600,2.927181945
332.09650,2.927181945
332.09700,2.31679313
332.09750,2.011598722
332.09800,2.011598722
332.09850,2.011598722
332.09900,2.011598722
332.09950,2.011598722
332.10000,1.706404315
332.10050,1.096015499
332.10100,0.7908210914
332.10150,0.7908210914
332.10200,1.401209907
332.10250,1.706404315
332.10300,2.011598722
332.10350,2.621987538
332.10400,2.31679313
332.10450,1.706404315
332.10500,1.706404315
332.10550,2.31679313
332.10600,2.31679313
332.10650,1.401209907
332.10700,0.180432276
332.10750,0.4856266837
332.10800,2.31679313
332.10850,3.537570761
332.10900,3.537570761
332.10950,2.927181945
332.11000,2.011598722
332.11050,1.096015499
332.11100,0.4856266837
332.11150,0.180432276
332.11200,0.180432276
332.11250,0.4856266837
332.11300,1.096015499
332.11350,0.7908210914
332.11400,-0.1247621317
332.11450,-1.955928578
332.11500,-4.092289432
332.11550,-5.61826147
332.11600,-7.144233509
332.11650,-7.449427917
332.11700,-6.228650286
332.11750,-5.007872655
332.11800,-5.007872655
332.11850,-5.313067063
332.11900,-3.787095024
332.11950,-1.040345355
332.12000,0.180432276
332.12050,-0.1247621317
332.12100,-0.1247621317
332.12150,2.011598722
332.12200,4.147959576
332.12250,3.842765168
332.12300,2.621987538
332.12350,2.31679313
332.12400,2.621987538
332.12450,2.621987538
332.12500,2.011598722
332.12550,1.706404315
332.12600,2.31679313
332.12650,2.31679313
332.12700,1.706404315
332.12750,1.706404315
332.12800,2.31679313
332.12850,2.927181945
332.12900,3.232376353
332.12950,3.842765168
332.13000,5.063542799
332.13050,6.589514838
332.13100,6.589514838
332.13150,5.063542799
332.13200,3.842765168
332.13250,3.537570761
332.13300,4.147959576
332.13350,4.147959576
332.13400,2.621987538
332.13450,-0.1247621317
332.13500,-3.481900616
332.13550,-6.533844693
332.13600,-7.754622324
332.13650,-6.228650286
332.13700,-4.092289432
332.13750,-2.566317393
332.13800,-2.566317393
332.13850,-1.955928578
332.13900,-0.7351509471
332.13950,-0.1247621317
332.14000,-0.1247621317
332.14050,-0.1247621317
332.14100,0.180432276
332.14150,1.706404315
332.14200,2.621987538
332.14250,2.621987538
332.14300,2.011598722
332.14350,1.706404315
332.14400,2.011598722
332.14450,2.31679313
332.14500,2.621987538
332.14550,2.31679313
332.14600,1.706404315
332.14650,1.401209907
332.14700,1.401209907
332.14750,1.401209907
332.14800,1.401209907
332.14850,1.096015499
332.14900,0.4856266837
332.14950,-0.1247621317
332.15000,-0.4299565394
332.15050,-0.1247621317
332.15100,0.180432276
332.15150,0.180432276
332.15200,0.180432276
332.15250,-0.1247621317
332.15300,0.180432276
332.15350,0.4856266837
332.15400,0.4856266837
332.15450,-0.4299565394
332.15500,-2.261122986
332.15550,-3.481900616
332.15600,-3.481900616
332.15650,-3.481900616
332.15700,-4.092289432
332.15750,-4.702678247
332.15800,-3.787095024
332.15850,-2.871511801
332.15900,-1.955928578
332.15950,-0.4299565394
332.16000,1.706404315
332.16050,4.453153984
332.16100,5.673931615
332.16150,5.979126022
332.16200,6.894709245
332.16250,9.031070099
332.16300,10.25184773
332.16350,8.725875692
332.16400,5.979126022
332.16450,4.147959576
332.16500,4.453153984
332.16550,5.368737207
332.16600,5.673931615
332.16650,4.147959576
332.16700,1.706404315
332.16750,-0.7351509471
332.16800,-4.39748384
332.16850,-8.059816732
332.16900,-9.58578877
332.16950,-8.36501114
332.17000,-6.839039101
332.17050,-6.533844693
332.17100,-5.923455878
332.17150,-2.261122986
332.17200,2.011598722
332.17250,3.537570761
332.17300,1.401209907
332.17350,0.180432276
332.17400,1.096015499
332.17450,1.401209907
332.17500,-0.4299565394
332.17550,-3.481900616
332.17600,-4.092289432
332.17650,-3.481900616
332.17700,-4.702678247
332.17750,-7.754622324
332.17800,-10.19617759
332.17850,-9.890983178
332.17900,-8.975399955
332.17950,-8.36501114
332.18000,-8.059816732
332.18050,-6.228650286
332.18100,-2.871511801
332.18150,0.180432276
332.18200,2.31679313
332.18250,3.232376353
332.18300,5.063542799
332.18350,7.810292469
332.18400,9.946653322
332.18450,9.641458915
332.18500,8.115486876
332.18550,6.894709245
332.18600,6.589514838
332.18650,6.589514838
332.18700,5.673931615
332.18750,4.758348392
332.18800,3.842765168
332.18850,2.621987538
332.18900,1.096015499
332.18950,-0.1247621317
332.19000,-0.7351509471
332.19050,-1.040345355
332.19100,-1.345539762
332.19150,-2.261122986
332.19200,-2.871511801
332.19250,-2.871511801
332.19300,-2.871511801
332.19350,-2.871511801
332.19400,-2.871511801
332.19450,-1.955928578
332.19500,-1.345539762
332.19550,-1.345539762
332.19600,-2.261122986
332.19650,-2.871511801
332.19700,-2.871511801
332.19750,-3.176706209
332.19800,-4.39748384
332.19850,-5.313067063
332.19900,-4.39748384
332.19950,-2.871511801
332.20000,-1.345539762
332.20050,-1.040345355
332.20100,-1.040345355
332.20150,-1.65073417
332.20200,-2.871511801
332.20250,-3.176706209
332.20300,-1.345539762
332.20350,0.7908210914
332.20400,1.706404315
332.20450,0.4856266837
332.20500,-0.7351509471
332.20550,-1.65073417
332.20600,-2.261122986
332.20650,-2.871511801
332.20700,-2.871511801
332.20750,-1.65073417
332.20800,-1.040345355
332.20850,-1.65073417
332.20900,-3.176706209
332.20950,-4.092289432
332.21000,-4.39748384
332.21050,-4.092289432
332.21100,-2.566317393
332.21150,-0.7351509471
332.21200,-0.7351509471
332.21250,-1.65073417
332.21300,-2.566317393
332.21350,-1.65073417
332.21400,-0.1247621317
332.21450,1.096015499
332.21500,2.011598722
332.21550,2.011598722
332.21600,-0.1247621317
332.21650,-1.955928578
332.21700,-1.955928578
332.21750,0.4856266837
332.21800,2.31679313
332.21850,2.011598722
332.21900,1.096015499
332.21950,0.7908210914
332.22000,0.180432276
332.22050,-1.040345355
332.22100,-2.566317393
332.22150,-3.176706209
332.22200,-3.481900616
332.22250,-4.702678247
332.22300,-5.313067063
332.22350,-4.092289432
332.22400,-1.65073417
332.22450,0.7908210914
332.22500,3.232376353
332.22550,5.368737207
332.22600,5.673931615
332.22650,4.147959576
332.22700,1.706404315
332.22750,-0.1247621317
332.22800,-0.4299565394
332.22850,-0.1247621317
332.22900,-0.1247621317
332.22950,-0.1247621317
332.23000,-1.040345355
332.23050,-2.261122986
332.23100,-2.871511801
332.23150,-2.261122986
332.23200,-2.566317393
332.23250,-3.176706209
332.23300,-3.787095024
332.23350,-2.566317393
332.23400,-1.65073417
332.23450,-2.261122986
332.23500,-3.481900616
332.23550,-4.092289432
332.23600,-4.092289432
332.23650,-4.092289432
332.23700,-2.871511801
332.23750,-0.4299565394
332.23800,1.401209907
332.23850,2.011598722
332.23900,2.31679313
332.23950,2.927181945
332.24000,2.927181945
332.24050,0.4856266837
332.24100,-1.955928578
332.24150,-2.566317393
332.24200,-1.040345355
332.24250,0.180432276
332.24300,-0.1247621317
332.24350,-0.4299565394
332.24400,0.4856266837
332.24450,2.31679313
332.24500,2.621987538
332.24550,1.401209907
332.24600,0.180432276
332.24650,0.180432276
332.24700,1.096015499
332.24750,2.011598722
332.24800,2.621987538
332.24850,2.31679313
332.24900,1.096015499
332.24950,-1.345539762
332.25000,-3.176706209
332.25050,-3.481900616
332.25100,-4.39748384
332.25150,-7.449427917
332.25200,-11.11176081
332.25250,-12.02734403
332.25300,-8.670205547
332.25350,-4.39748384
332.25400,-1.955928578
332.25450,-0.7351509471
332.25500,0.4856266837
332.25550,1.401209907
332.25600,1.706404315
332.25650,1.401209907
332.25700,1.401209907
332.25750,1.706404315
332.25800,2.011598722
332.25850,2.927181945
332.25900,5.063542799
332.25950,6.28432043
332.26000,5.673931615
332.26050,4.147959576
332.26100,3.842765168
332.26150,4.453153984
332.26200,4.453153984
332.26250,3.842765168
332.26300,4.453153984
332.26350,5.979126022
332.26400,7.505098061
332.26450,7.505098061
332.26500,6.894709245
332.26550,5.063542799
332.26600,2.927181945
332.26650,1.401209907
332.26700,2.31679313
332.26750,4.453153984
332.26800,5.673931615
332.26850,5.063542799
332.26900,3.537570761
332.26950,1.706404315
332.27000,1.096015499
332.27050,0.7908210914
332.27100,0.180432276
332.27150,-0.7351509471
332.27200,-1.955928578
332.27250,-1.65073417
332.27300,0.180432276
332.27350,2.621987538
332.27400,4.147959576
332.27450,3.842765168
332.27500,2.31679313
332.27550,0.180432276
332.27600,-2.566317393
332.27650,-4.702678247
332.27700,-5.007872655
332.27750,-3.787095024
332.27800,-1.65073417
332.27850,-0.1247621317
332.27900,0.180432276
332.27950,0.7908210914
332.28000,1.706404315
332.28050,2.621987538
332.28100,2.31679313
332.28150,1.401209907
332.28200,1.401209907
332.28250,2.31679313
332.28300,2.927181945
332.28350,1.096015499
332.28400,-2.261122986
332.28450,-5.923455878
332.28500,-7.754622324
332.28550,-7.754622324
332.28600,-6.228650286
332.28650,-3.176706209
332.28700,0.180432276
332.28750,2.31679313
332.28800,2.011598722
332.28850,0.7908210914
332.28900,0.180432276
332.28950,-1.040345355
332.29000,-2.871511801
332.29050,-2.566317393
332.29100,0.4856266837
332.29150,3.537570761
332.29200,3.842765168
332.29250,2.31679313
332.29300,1.401209907
332.29350,1.706404315
332.29400,0.4856266837
332.29450,-1.040345355
332.29500,-1.955928578
332.29550,-1.65073417
332.29600,-0.7351509471
332.29650,-0.1247621317
332.29700,2.31679313
332.29750,4.758348392
332.29800,4.758348392
332.29850,3.232376353
332.29900,4.453153984
332.29950,9.031070099
332.30000,11.16743095
332.30050,7.810292469
332.30100,2.31679313
332.30150,0.4856266837
332.30200,1.401209907
332.30250,1.401209907
332.30300,-0.7351509471
332.30350,-2.261122986
332.30400,-2.261122986
332.30450,-3.176706209
332.30500,-6.228650286
332.30550,-9.58578877
332.30600,-10.50137199
332.30650,-8.975399955
332.30700,-5.923455878
332.30750,-1.65073417
332.30800,1.401209907
332.30850,2.31679313
332.30900,0.180432276
332.30950,-1.955928578
332.31000,-2.261122986
332.31050,-1.040345355
332.31100,-0.1247621317
332.31150,-0.1247621317
332.31200,-0.1247621317
332.31250,-0.1247621317
332.31300,-0.1247621317
332.31350,-1.345539762
332.31400,-3.787095024
332.31450,-6.228650286
332.31500,-6.839039101
332.31550,-4.39748384
332.31600,-0.4299565394
332.31650,1.706404315
332.31700,1.706404315
332.31750,1.401209907
332.31800,2.621987538
332.31850,2.927181945
332.31900,1.401209907
332.31950,-0.7351509471
332.32000,-1.040345355
332.32050,-0.4299565394
332.32100,-0.1247621317
332.32150,-0.1247621317
332.32200,1.096015499
332.32250,2.31679313
332.32300,2.31679313
332.32350,1.401209907
332.32400,1.706404315
332.32450,2.927181945
332.32500,2.621987538
332.32550,1.096015499
332.32600,0.180432276
332.32650,0.7908210914
332.32700,0.7908210914
332.32750,-0.7351509471
332.32800,-2.566317393
332.32850,-2.871511801
332.32900,-2.566317393
332.32950,-3.481900616
332.33000,-5.313067063
332.33050,-6.533844693
332.33100,-5.61826147
332.33150,-4.39748384
332.33200,-5.007872655
332.33250,-7.144233509
332.33300,-7.754622324
332.33350,-5.313067063
332.33400,-1.65073417
332.33450,0.7908210914
332.33500,2.621987538
332.33550,5.368737207
332.33600,8.420681284
332.33650,9.641458915
332.33700,9.336264507
332.33750,8.420681284
332.33800,8.725875692
332.33850,9.336264507
332.33900,8.725875692
332.33950,7.505098061
332.34000,6.28432043
332.34050,4.758348392
332.34100,3.232376353
332.34150,1.401209907
332.34200,0.180432276
332.34250,-1.040345355
332.34300,-2.261122986
332.34350,-2.566317393
332.34400,-1.345539762
332.34450,-0.1247621317
332.34500,0.180432276
332.34550,-0.7351509471
332.34600,-1.65073417
332.34650,-2.261122986
332.34700,-2.261122986
332.34750,-2.261122986
332.34800,-2.566317393
332.34850,-2.871511801
332.34900,-4.092289432
332.34950,-5.313067063
332.35000,-5.313067063
332.35050,-3.787095024
332.35100,-1.65073417
332.35150,-0.4299565394
332.35200,-1.040345355
332.35250,-2.566317393
332.35300,-2.871511801
332.35350,-2.261122986
332.35400,-1.65073417
332.35450,-1.955928578
332.35500,-2.261122986
332.35550,-1.040345355
332.35600,0.4856266837
332.35650,1.096015499
332.35700,0.4856266837
332.35750,-0.1247621317
332.35800,0.4856266837
332.35850,1.096015499
332.35900,0.7908210914
332.35950,1.096015499
332.36000,2.621987538
332.36050,3.232376353
332.36100,2.31679313
332.36150,1.096015499
332.36200,2.011598722
332.36250,3.842765168
332.36300,3.842765168
332.36350,1.401209907
332.36400,-1.040345355
332.36450,-1.955928578
332.36500,-2.566317393
332.36550,-3.481900616
332.36600,-4.39748384
332.36650,-4.092289432
332.36700,-2.871511801
332.36750,-2.871511801
332.36800,-4.092289432
332.36850,-5.313067063
332.36900,-5.007872655
332.36950,-3.787095024
332.37000,-2.566317393
332.37050,-1.65073417
332.37100,-0.1247621317
332.37150,0.7908210914
332.37200,1.096015499
332.37250,0.180432276
332.37300,-0.7351509471
332.37350,-1.040345355
332.37400,-0.4299565394
332.37450,-0.1247621317
332.37500,-0.1247621317
332.37550,-0.4299565394
332.37600,-0.7351509471
332.37650,-1.955928578
332.37700,-3.176706209
332.37750,-3.787095024
332.37800,-4.39748384
332.37850,-5.007872655
332.37900,-5.313067063
332.37950,-5.007872655
332.38000,-5.313067063
332.38050,-6.839039101
332.38100,-8.36501114
332.38150,-7.144233509
332.38200,-5.007872655
332.38250,-4.702678247
332.38300,-5.923455878
332.38350,-5.61826147
332.38400,-3.481900616
332.38450,-2.261122986
332.38500,-3.176706209
332.38550,-2.871511801
332.38600,-0.1247621317
332.38650,3.232376353
332.38700,3.842765168
332.38750,3.537570761
332.38800,4.758348392
332.38850,7.199903653
332.38900,9.336264507
332.38950,10.55704214
332.39000,11.77781977
332.39050,11.16743095
332.39100,8.115486876
332.39150,4.453153984
332.39200,3.232376353
332.39250,5.063542799
332.39300,5.673931615
332.39350,3.842765168
332.39400,1.096015499
332.39450,-0.1247621317
332.39500,-0.1247621317
332.39550,-0.4299565394
332.39600,-0.1247621317
332.39650,0.180432276
332.39700,0.4856266837
332.39750,0.180432276
332.39800,-0.1247621317
332.39850,-0.1247621317
332.39900,-0.4299565394
332.39950,-1.345539762
332.40000,-1.040345355
332.40050,0.7908210914
332.40100,3.842765168
332.40150,4.453153984
332.40200,2.621987538
332.40250,0.7908210914
332.40300,1.096015499
332.40350,1.706404315
332.40400,0.180432276
332.40450,-1.65073417
332.40500,-1.955928578
332.40550,-0.7351509471
332.40600,-1.040345355
332.40650,-4.39748384
332.40700,-7.144233509
332.40750,-7.144233509
332.40800,-5.007872655
332.40850,-3.481900616
332.40900,-3.176706209
332.40950,-2.566317393
332.41000,-2.261122986
332.41050,-2.871511801
332.41100,-4.39748384
332.41150,-3.787095024
332.41200,-0.7351509471
332.41250,2.621987538
332.41300,4.147959576
332.41350,3.232376353
332.41400,0.7908210914
332.41450,-0.7351509471
332.41500,-1.345539762
332.41550,-1.345539762
332.41600,-1.65073417
332.41650,-2.261122986
332.41700,-2.566317393
332.41750,-2.871511801
332.41800,-3.176706209
332.41850,-3.176706209
332.41900,-2.566317393
332.41950,-1.345539762
332.42000,-0.4299565394
332.42050,-0.1247621317
332.42100,1.096015499
332.42150,2.31679313
332.42200,2.621987538
332.42250,2.011598722
332.42300,1.706404315
332.42350,2.011598722
332.42400,1.706404315
332.42450,1.096015499
332.42500,-0.1247621317
332.42550,-0.4299565394
332.42600,-1.040345355
332.42650,-1.955928578
332.42700,-2.261122986
332.42750,-1.345539762
332.42800,-0.7351509471
332.42850,-0.1247621317
332.42900,0.180432276
332.42950,2.011598722
332.43000,2.927181945
332.43050,2.011598722
332.43100,0.4856266837
332.43150,0.4856266837
332.43200,1.706404315
332.43250,2.011598722
332.43300,1.096015499
332.43350,1.401209907
332.43400,2.927181945
332.43450,4.147959576
332.43500,2.621987538
332.43550,0.4856266837
332.43600,0.4856266837
332.43650,2.621987538
332.43700,4.147959576
332.43750,2.927181945
332.43800,0.7908210914
332.43850,0.4856266837
332.43900,2.011598722
332.43950,3.537570761
332.44000,3.842765168
332.44050,2.927181945
332.44100,2.31679313
332.44150,2.927181945
332.44200,4.147959576
332.44250,4.453153984
332.44300,3.537570761
332.44350,2.31679313
332.44400,1.401209907
332.44450,0.7908210914
332.44500,-0.1247621317
332.44550,-1.040345355
332.44600,-1.65073417
332.44650,-1.65073417
332.44700,-1.955928578
332.44750,-2.566317393
332.44800,-2.261122986
332.44850,-1.040345355
332.44900,-0.4299565394
332.44950,-1.345539762
332.45000,-1.955928578
332.45050,-0.7351509471
332.45100,0.4856266837
332.45150,1.096015499
332.45200,0.7908210914
332.45250,-0.1247621317
332.45300,-1.65073417
332.45350,-4.092289432
332.45400,-4.702678247
332.45450,-2.261122986
332.45500,1.096015499
332.45550,2.621987538
332.45600,2.31679313
332.45650,2.011598722
332.45700,2.621987538
332.45750,2.31679313
332.45800,1.401209907
332.45850,1.096015499
332.45900,1.401209907
332.45950,1.706404315
332.46000,1.706404315
332.46050,2.31679313
332.46100,2.621987538
332.46150,1.706404315
332.46200,0.7908210914
332.46250,1.096015499
332.46300,2.31679313
332.46350,1.706404315
332.46400,0.180432276
332.46450,0.180432276
332.46500,1.706404315
332.46550,1.706404315
332.46600,-0.1247621317
332.46650,-1.65073417
332.46700,-0.4299565394
332.46750,1.401209907
332.46800,1.096015499
332.46850,-0.1247621317
332.46900,-1.345539762
332.46950,-1.345539762
332.47000,-1.040345355
332.47050,-0.7351509471
332.47100,-0.1247621317
332.47150,-0.1247621317
332.47200,-1.040345355
332.47250,-2.261122986
332.47300,-2.566317393
332.47350,-1.955928578
332.47400,-1.040345355
332.47450,-1.345539762
332.47500,-3.787095024
332.47550,-6.533844693
332.47600,-7.144233509
332.47650,-5.61826147
332.47700,-3.481900616
332.47750,-2.566317393
332.47800,-1.65073417
332.47850,-1.345539762
332.47900,-1.345539762
332.47950,-1.955928578
332.48000,-0.7351509471
332.48050,2.31679313
332.48100,4.758348392
332.48150,4.453153984
332.48200,3.232376353
332.48250,2.927181945
332.48300,2.927181945
332.48350,0.7908210914
332.48400,-2.261122986
332.48450,-4.39748384
332.48500,-4.702678247
332.48550,-5.007872655
332.48600,-5.61826147
332.48650,-4.702678247
332.48700,-1.65073417
332.48750,0.180432276
332.48800,0.180432276
332.48850,-0.1247621317
332.48900,1.401209907
332.48950,4.147959576
332.49000,5.368737207
332.49050,3.842765168
332.49100,1.706404315
332.49150,0.180432276
332.49200,-0.1247621317
332.49250,-0.7351509471
332.49300,-1.955928578
332.49350,-4.092289432
332.49400,-7.144233509
332.49450,-10.19617759
332.49500,-10.50137199
332.49550,-8.36501114
332.49600,-5.007872655
332.49650,-3.176706209
332.49700,-2.871511801
332.49750,-3.481900616
332.49800,-3.481900616
332.49850,-3.787095024
332.49900,-4.39748384
332.49950,-4.092289432
332.50000,-3.176706209
332.50050,-2.566317393
332.50100,-2.871511801
332.50150,-2.871511801
332.50200,-1.345539762
332.50250,-0.1247621317
332.50300,-0.4299565394
332.50350,-1.65073417
332.50400,-1.65073417
332.50450,-1.040345355
332.50500,-1.345539762
332.50550,-1.955928578
332.50600,-1.345539762
332.50650,0.180432276
332.50700,0.7908210914
332.50750,-0.1247621317
332.50800,-0.1247621317
332.50850,2.31679313
332.50900,4.453153984
332.50950,2.31679313
332.51000,-2.871511801
332.51050,-6.839039101
332.51100,-6.228650286
332.51150,-2.566317393
332.51200,0.7908210914
332.51250,2.011598722
332.51300,2.011598722
332.51350,1.706404315
332.51400,2.011598722
332.51450,2.621987538
332.51500,3.842765168
332.51550,5.063542799
332.51600,5.979126022
332.51650,6.28432043
332.51700,5.673931615
332.51750,4.758348392
332.51800,3.537570761
332.51850,2.621987538
332.51900,2.011598722
332.51950,2.31679313
332.52000,2.621987538
332.52050,3.232376353
332.52100,2.927181945
332.52150,2.011598722
332.52200,1.401209907
332.52250,1.706404315
332.52300,2.927181945
332.52350,3.232376353
332.52400,2.31679313
332.52450,1.706404315
332.52500,1.401209907
332.52550,1.706404315
332.52600,1.401209907
332.52650,1.401209907
332.52700,2.011598722
332.52750,2.621987538
332.52800,2.621987538
332.52850,2.31679313
332.52900,2.927181945
332.52950,3.232376353
332.53000,2.621987538
332.53050,1.401209907
332.53100,0.7908210914
332.53150,1.401209907
332.53200,1.706404315
332.53250,1.706404315
332.53300,1.401209907
332.53350,1.096015499
332.53400,0.7908210914
332.53450,-0.1247621317
332.53500,-0.4299565394
332.53550,-0.7351509471
332.53600,-1.040345355
332.53650,-1.65073417
332.53700,-1.955928578
332.53750,-0.7351509471
332.53800,0.4856266837
332.53850,0.7908210914
332.53900,-0.7351509471
332.53950,-3.481900616
332.54000,-4.39748384
332.54050,-3.481900616
332.54100,-2.261122986
332.54150,-2.566317393
332.54200,-3.481900616
332.54250,-2.566317393
332.54300,-0.7351509471
332.54350,-0.1247621317
332.54400,-0.1247621317
332.54450,-0.4299565394
332.54500,-0.1247621317
332.54550,-0.1247621317
332.54600,-0.1247621317
332.54650,-0.1247621317
332.54700,0.4856266837
332.54750,0.4856266837
332.54800,-0.1247621317
332.54850,-0.1247621317
332.54900,0.180432276
332.54950,1.096015499
332.55000,0.180432276
332.55050,-1.345539762
332.55100,-2.261122986
332.55150,-1.345539762
332.55200,-0.1247621317
332.55250,-0.1247621317
332.55300,0.180432276
332.55350,0.4856266837
332.55400,0.4856266837
332.55450,-0.1247621317
332.55500,-0.4299565394
332.55550,0.4856266837
332.55600,2.31679313
332.55650,2.31679313
332.55700,-0.1247621317
332.55750,-1.65073417
332.55800,-1.040345355
332.55850,-0.1247621317
332.55900,-0.1247621317
332.55950,-0.4299565394
332.56000,-0.4299565394
332.56050,0.180432276
332.56100,0.4856266837
