"type","name","time_units","begin_time","frequency","count","units"
"signal","Ultium EMG-EXT.CARP.ULN. RT","s",21.96000,2000,22000,"uV"

"time","value"
21.96000,5.261057421
21.96050,-0.8428307331
21.96100,-0.2324419177
21.96150,4.04027979
21.96200,5.871446236
21.96250,3.124696567
21.96300,2.514307752
21.96350,4.955863013
21.96400,5.261057421
21.96450,-0.5376363254
21.96500,-8.777885333
21.96550,-13.05060704
21.96600,-11.82982941
21.96650,-7.86230211
21.96700,-1.453219549
21.96750,5.871446236
21.96800,12.58572321
21.96850,16.55325051
21.96900,17.46883373
21.96950,16.85844491
21.97000,14.72208406
21.97050,10.75455676
21.97100,5.871446236
21.97150,2.209113344
21.97200,0.6831413054
21.97250,-0.2324419177
21.97300,-2.979191587
21.97350,-9.998662964
21.97400,-16.71293993
21.97450,-17.32332875
21.97500,-10.60905178
21.97550,-3.284385995
21.97600,-0.2324419177
21.97650,0.3779468977
21.97700,4.04027979
21.97750,10.14416794
21.97800,13.50130643
21.97850,11.97533439
21.97900,7.702612683
21.97950,4.345474198
21.98000,3.429890975
21.98050,4.650668606
21.98100,6.176640644
21.98150,5.261057421
21.98200,-0.2324419177
21.98250,-6.946718887
21.98300,-9.388274149
21.98350,-6.336330072
21.98400,-2.063608364
21.98450,-0.2324419177
21.98500,-0.8428307331
21.98550,-3.284385995
21.98600,-6.946718887
21.98650,-9.998662964
21.98700,-11.524635
21.98750,-12.13502382
21.98800,-13.96619026
21.98850,-15.79735671
21.98900,-11.82982941
21.98950,-1.148025141
21.99000,8.923390313
21.99050,10.75455676
21.99100,5.261057421
21.99150,1.293530121
21.99200,4.345474198
21.99250,10.44936235
21.99300,14.11169524
21.99350,14.72208406
21.99400,13.50130643
21.99450,11.05975117
21.99500,7.092223867
21.99550,3.124696567
21.99600,0.6831413054
21.99650,0.07275248999
21.99700,0.6831413054
21.99750,2.514307752
21.99800,4.955863013
21.99850,5.871446236
21.99900,5.871446236
21.99950,7.092223867
22.00000,8.00780709
22.00050,6.176640644
22.00100,1.293530121
22.00150,-0.5376363254
22.00200,0.6831413054
22.00250,-0.2324419177
22.00300,-9.083079741
22.00350,-18.54410638
22.00400,-18.23891197
22.00450,-9.693468556
22.00500,-4.810358033
22.00550,-8.472690926
22.00600,-13.66099586
22.00650,-16.10255112
22.00700,-22.51163368
22.00750,-36.85577084
22.00800,-52.42068563
22.00850,-55.77782412
22.00900,-46.01160307
22.00950,-31.66746591
22.01000,-20.98566164
22.01050,-11.82982941
22.01100,0.6831413054
22.01150,16.55325051
22.01200,29.67661004
22.01250,34.86491497
22.01300,33.64413734
22.01350,29.67661004
22.01400,23.26752748
22.01450,15.02727847
22.01500,6.787029459
22.01550,2.209113344
22.01600,-1.148025141
22.01650,-9.388274149
22.01700,-21.59605046
22.01750,-28.92071624
22.01800,-24.95318894
22.01850,-14.88177349
22.01900,-7.251913295
22.01950,-5.420746849
22.02000,-4.810358033
22.02050,-2.063608364
22.02100,3.429890975
22.02150,10.44936235
22.02200,16.55325051
22.02250,19.60519458
22.02300,18.99480577
22.02350,16.55325051
22.02400,13.80650084
22.02450,9.838973536
22.02500,5.261057421
22.02550,2.514307752
22.02600,3.429890975
22.02650,5.871446236
22.02700,6.481835052
22.02750,3.429890975
22.02800,-2.063608364
22.02850,-7.86230211
22.02900,-10.60905178
22.02950,-9.693468556
22.03000,-7.251913295
22.03050,-5.725941256
22.03100,-6.031135664
22.03150,-6.641524479
22.03200,-7.251913295
22.03250,-6.946718887
22.03300,-3.589580402
22.03350,1.598724528
22.03400,4.955863013
22.03450,2.819502159
22.03500,-1.148025141
22.03550,-2.368802772
22.03600,-0.8428307331
22.03650,-1.453219549
22.03700,-5.115552441
22.03750,-6.336330072
22.03800,-3.589580402
22.03850,-1.148025141
22.03900,-2.063608364
22.03950,-4.199969218
22.04000,-5.420746849
22.04050,-5.420746849
22.04100,-2.979191587
22.04150,4.04027979
22.04200,17.77402814
22.04250,33.03374852
22.04300,44.93633042
22.04350,50.42982976
22.04400,49.20905213
22.04450,44.32594161
22.04500,42.18958075
22.04550,44.32594161
22.04600,40.35841431
22.04650,18.99480577
22.04700,-16.40774553
22.04750,-47.2323807
22.04800,-56.99860175
22.04850,-49.97913037
22.04900,-40.82329814
22.04950,-37.46615966
22.05000,-38.68693729
22.05050,-37.46615966
22.05100,-28.92071624
22.05150,-11.82982941
22.05200,7.397418275
22.05250,18.68961136
22.05300,18.07922254
22.05350,11.36494557
22.05400,5.261057421
22.05450,-1.453219549
22.05500,-9.388274149
22.05550,-12.44021823
22.05600,-9.998662964
22.05650,-12.44021823
22.05700,-28.92071624
22.05750,-47.2323807
22.05800,-46.9271863
22.05850,-24.03760572
22.05900,3.429890975
22.05950,20.52077781
22.06000,25.09869392
22.06050,17.16363932
22.06100,-2.979191587
22.06150,-25.86877216
22.06200,-29.83629946
22.06250,-8.472690926
22.06300,13.50130643
22.06350,9.838973536
22.06400,-17.01813434
22.06450,-40.82329814
22.06500,-44.18043663
22.06550,-34.71940999
22.06600,-26.17396657
22.06650,-20.07007842
22.06700,-11.82982941
22.06750,-1.758413956
22.06800,4.650668606
22.06850,4.955863013
22.06900,-0.2324419177
22.06950,-6.031135664
22.07000,-6.641524479
22.07050,-0.2324419177
22.07100,8.923390313
22.07150,14.72208406
22.07200,17.16363932
22.07250,20.2155834
22.07300,23.87791629
22.07350,23.57272188
22.07400,19.30000018
22.07450,15.94286169
22.07500,15.94286169
22.07550,15.63766728
22.07600,12.89091761
22.07650,9.228584721
22.07700,7.397418275
22.07750,5.871446236
22.07800,3.124696567
22.07850,-0.2324419177
22.07900,-2.368802772
22.07950,-3.89477481
22.08000,-1.758413956
22.08050,6.481835052
22.08100,18.38441695
22.08150,26.92986037
22.08200,27.23505478
22.08250,22.65713866
22.08300,18.68961136
22.08350,16.85844491
22.08400,16.55325051
22.08450,16.55325051
22.08500,16.2480561
22.08550,13.80650084
22.08600,10.14416794
22.08650,7.397418275
22.08700,6.176640644
22.08750,5.566251829
22.08800,6.176640644
22.08850,10.14416794
22.08900,16.2480561
22.08950,18.38441695
22.09000,13.80650084
22.09050,7.702612683
22.09100,5.566251829
22.09150,5.261057421
22.09200,2.514307752
22.09250,-0.8428307331
22.09300,-0.8428307331
22.09350,2.514307752
22.09400,4.345474198
22.09450,2.209113344
22.09500,-0.2324419177
22.09550,-0.5376363254
22.09600,0.9883357131
22.09650,1.903918936
22.09700,2.514307752
22.09750,3.124696567
22.09800,2.514307752
22.09850,0.9883357131
22.09900,-0.2324419177
22.09950,0.07275248999
22.10000,0.3779468977
22.10050,-0.2324419177
22.10100,-0.2324419177
22.10150,0.3779468977
22.10200,-0.2324419177
22.10250,-2.979191587
22.10300,-3.89477481
22.10350,-1.758413956
22.10400,-1.148025141
22.10450,-6.031135664
22.10500,-13.05060704
22.10550,-14.88177349
22.10600,-11.524635
22.10650,-6.641524479
22.10700,-2.063608364
22.10750,4.345474198
22.10800,10.44936235
22.10850,9.838973536
22.10900,1.903918936
22.10950,-6.031135664
22.11000,-8.777885333
22.11050,-7.251913295
22.11100,-6.336330072
22.11150,-8.777885333
22.11200,-15.1869679
22.11250,-24.64799453
22.11300,-32.88824354
22.11350,-35.0246044
22.11400,-30.44668828
22.11450,-23.73241131
22.11500,-17.62852316
22.11550,-11.82982941
22.11600,-5.420746849
22.11650,0.3779468977
22.11700,5.871446236
22.11750,9.838973536
22.11800,11.05975117
22.11850,9.228584721
22.11900,6.481835052
22.11950,5.261057421
22.12000,5.871446236
22.12050,6.787029459
22.12100,6.481835052
22.12150,4.04027979
22.12200,-0.5376363254
22.12250,-6.641524479
22.12300,-11.82982941
22.12350,-14.27138467
22.12400,-15.4921623
22.12450,-16.71293993
22.12500,-17.62852316
22.12550,-17.93371756
22.12600,-19.1544952
22.12650,-20.98566164
22.12700,-21.29085605
22.12750,-18.23891197
22.12800,-12.13502382
22.12850,-4.810358033
22.12900,2.514307752
22.12950,7.092223867
22.13000,6.481835052
22.13050,3.429890975
22.13100,1.903918936
22.13150,2.514307752
22.13200,2.819502159
22.13250,5.566251829
22.13300,15.63766728
22.13350,29.98180444
22.13400,37.00127582
22.13450,31.50777648
22.13500,19.91038899
22.13550,10.75455676
22.13600,4.955863013
22.13650,-0.2324419177
22.13700,-4.505163626
22.13750,-7.557107703
22.13800,-8.777885333
22.13850,-5.420746849
22.13900,7.092223867
22.13950,26.31947155
22.14000,41.57919194
22.14050,44.32594161
22.14100,37.61166464
22.14150,27.84544359
22.14200,18.99480577
22.14250,11.05975117
22.14300,2.819502159
22.14350,-8.167496518
22.14400,-25.56357776
22.14450,-45.09601985
22.14500,-56.38821293
22.14550,-55.77782412
22.14600,-50.8947136
22.14650,-47.84276952
22.14700,-45.40121426
22.14750,-38.38174288
22.14800,-27.69993861
22.14850,-18.23891197
22.14900,-11.82982941
22.14950,-7.557107703
22.15000,-5.115552441
22.15050,-4.199969218
22.15100,-3.284385995
22.15150,-0.5376363254
22.15200,2.819502159
22.15250,6.481835052
22.15300,11.67013998
22.15350,17.77402814
22.15400,21.13116662
22.15450,18.38441695
22.15500,13.19611202
22.15550,8.923390313
22.15600,6.481835052
22.15650,4.345474198
22.15700,2.819502159
22.15750,3.124696567
22.15800,4.04027979
22.15850,1.293530121
22.15900,-3.89477481
22.15950,-7.251913295
22.16000,-4.199969218
22.16050,3.124696567
22.16100,9.838973536
22.16150,11.36494557
22.16200,7.092223867
22.16250,1.293530121
22.16300,-1.148025141
22.16350,-1.148025141
22.16400,-2.673997179
22.16450,-7.251913295
22.16500,-11.524635
22.16550,-11.524635
22.16600,-10.60905178
22.16650,-13.96619026
22.16700,-20.98566164
22.16750,-23.1220225
22.16800,-15.1869679
22.16850,-1.453219549
22.16900,11.67013998
22.16950,23.26752748
22.17000,33.64413734
22.17050,38.52724786
22.17100,35.47530378
22.17150,27.23505478
22.17200,20.2155834
22.17250,16.85844491
22.17300,14.41688965
22.17350,12.89091761
22.17400,13.80650084
22.17450,16.2480561
22.17500,14.72208406
22.17550,8.313001498
22.17600,4.04027979
22.17650,5.871446236
22.17700,10.44936235
22.17750,10.44936235
22.17800,5.871446236
22.17850,1.598724528
22.17900,-0.8428307331
22.17950,-6.336330072
22.18000,-15.1869679
22.18050,-22.81682809
22.18100,-25.56357776
22.18150,-25.86877216
22.18200,-27.0895498
22.18250,-28.31032743
22.18300,-25.86877216
22.18350,-18.23891197
22.18400,-8.472690926
22.18450,-1.148025141
22.18500,1.903918936
22.18550,4.04027979
22.18600,6.481835052
22.18650,8.313001498
22.18700,7.702612683
22.18750,5.566251829
22.18800,5.261057421
22.18850,6.481835052
22.18900,6.787029459
22.18950,4.04027979
22.19000,0.6831413054
22.19050,-0.2324419177
22.19100,0.9883357131
22.19150,4.04027979
22.19200,6.787029459
22.19250,8.00780709
22.19300,7.702612683
22.19350,7.702612683
22.19400,9.533779129
22.19450,11.97533439
22.19500,11.36494557
22.19550,6.176640644
22.19600,0.6831413054
22.19650,-2.368802772
22.19700,-7.251913295
22.19750,-16.40774553
22.19800,-24.03760572
22.19850,-22.51163368
22.19900,-13.05060704
22.19950,-3.89477481
22.20000,0.9883357131
22.20050,5.871446236
22.20100,11.97533439
22.20150,15.63766728
22.20200,15.33247288
22.20250,14.41688965
22.20300,14.41688965
22.20350,12.89091761
22.20400,11.36494557
22.20450,15.33247288
22.20500,22.04674984
22.20550,22.04674984
22.20600,13.50130643
22.20650,8.313001498
22.20700,15.33247288
22.20750,24.1831107
22.20800,21.43636103
22.20850,9.228584721
22.20900,-0.8428307331
22.20950,-9.388274149
22.21000,-27.69993861
22.21050,-54.8622409
22.21100,-72.86871095
22.21150,-69.20637806
22.21200,-51.81029682
22.21250,-37.77135406
22.21300,-31.66746591
22.21350,-26.17396657
22.21400,-15.1869679
22.21450,-1.148025141
22.21500,7.702612683
22.21550,9.228584721
22.21600,7.702612683
22.21650,11.05975117
22.21700,20.52077781
22.21750,28.76102681
22.21800,27.84544359
22.21850,22.04674984
22.21900,21.13116662
22.21950,27.23505478
22.22000,30.89738767
22.22050,25.70908274
22.22100,15.33247288
22.22150,7.397418275
22.22200,4.345474198
22.22250,4.650668606
22.22300,5.261057421
22.22350,4.345474198
22.22400,2.209113344
22.22450,1.598724528
22.22500,3.429890975
22.22550,3.429890975
22.22600,-2.979191587
22.22650,-10.60905178
22.22700,-8.777885333
22.22750,2.209113344
22.22800,11.05975117
22.22850,12.2805288
22.22900,15.02727847
22.22950,24.79349951
22.23000,34.55972056
22.23050,34.25452615
22.23100,27.23505478
22.23150,21.13116662
22.23200,13.80650084
22.23250,-1.453219549
22.23300,-23.73241131
22.23350,-40.51810373
22.23400,-43.87524222
22.23450,-34.71940999
22.23500,-20.98566164
22.23550,-10.60905178
22.23600,-8.167496518
22.23650,-14.27138467
22.23700,-21.29085605
22.23750,-22.51163368
22.23800,-17.62852316
22.23850,-10.60905178
22.23900,-4.199969218
22.23950,-1.148025141
22.24000,-6.946718887
22.24050,-20.37527283
22.24100,-32.27785473
22.24150,-31.97266032
22.24200,-21.29085605
22.24250,-11.524635
22.24300,-7.557107703
22.24350,-6.031135664
22.24400,-3.589580402
22.24450,-2.063608364
22.24500,-3.589580402
22.24550,-6.031135664
22.24600,-6.336330072
22.24650,-6.031135664
22.24700,-6.946718887
22.24750,-7.251913295
22.24800,-5.725941256
22.24850,-4.505163626
22.24900,-4.199969218
22.24950,-1.148025141
22.25000,7.702612683
22.25050,18.68961136
22.25100,22.96233307
22.25150,18.38441695
22.25200,11.05975117
22.25250,9.228584721
22.25300,12.2805288
22.25350,14.72208406
22.25400,14.41688965
22.25450,13.80650084
22.25500,13.80650084
22.25550,12.2805288
22.25600,9.533779129
22.25650,7.702612683
22.25700,8.313001498
22.25750,9.533779129
22.25800,8.618195906
22.25850,7.397418275
22.25900,8.00780709
22.25950,8.618195906
22.26000,7.397418275
22.26050,5.871446236
22.26100,6.787029459
22.26150,9.838973536
22.26200,10.75455676
22.26250,7.702612683
22.26300,3.429890975
22.26350,0.07275248999
22.26400,-1.758413956
22.26450,-3.589580402
22.26500,-5.725941256
22.26550,-7.251913295
22.26600,-9.388274149
22.26650,-12.13502382
22.26700,-14.88177349
22.26750,-17.01813434
22.26800,-18.54410638
22.26850,-20.37527283
22.26900,-22.51163368
22.26950,-23.4272169
22.27000,-21.29085605
22.27050,-16.71293993
22.27100,-12.74541263
22.27150,-11.82982941
22.27200,-12.44021823
22.27250,-9.693468556
22.27300,-2.979191587
22.27350,3.429890975
22.27400,8.313001498
22.27450,12.2805288
22.27500,15.63766728
22.27550,14.11169524
22.27600,7.397418275
22.27650,1.293530121
22.27700,0.6831413054
22.27750,3.735085382
22.27800,5.566251829
22.27850,4.650668606
22.27900,4.04027979
22.27950,4.04027979
22.28000,3.735085382
22.28050,3.429890975
22.28100,3.735085382
22.28150,4.04027979
22.28200,2.514307752
22.28250,1.598724528
22.28300,3.429890975
22.28350,5.871446236
22.28400,3.735085382
22.28450,-4.505163626
22.28500,-13.66099586
22.28550,-18.54410638
22.28600,-17.93371756
22.28650,-14.27138467
22.28700,-10.30385737
22.28750,-6.641524479
22.28800,-2.368802772
22.28850,3.124696567
22.28900,8.00780709
22.28950,8.313001498
22.29000,5.871446236
22.29050,6.787029459
22.29100,13.19611202
22.29150,20.2155834
22.29200,21.43636103
22.29250,17.77402814
22.29300,12.58572321
22.29350,4.04027979
22.29400,-8.777885333
22.29450,-22.51163368
22.29500,-28.92071624
22.29550,-25.86877216
22.29600,-18.23891197
22.29650,-11.524635
22.29700,-6.336330072
22.29750,-2.979191587
22.29800,-2.673997179
22.29850,-3.89477481
22.29900,-3.589580402
22.29950,-1.453219549
22.30000,-0.2324419177
22.30050,-2.368802772
22.30100,-5.420746849
22.30150,-6.336330072
22.30200,-7.557107703
22.30250,-10.60905178
22.30300,-13.66099586
22.30350,-12.13502382
22.30400,-4.810358033
22.30450,6.481835052
22.30500,20.2155834
22.30550,34.55972056
22.30600,45.85191365
22.30650,48.59866331
22.30700,42.18958075
22.30750,32.42335971
22.30800,23.57272188
22.30850,15.02727847
22.30900,4.650668606
22.30950,-5.420746849
22.31000,-15.4921623
22.31050,-27.0895498
22.31100,-41.12849255
22.31150,-50.8947136
22.31200,-49.67393597
22.31250,-39.90771492
22.31300,-31.3622715
22.31350,-28.00513302
22.31400,-25.56357776
22.31450,-21.90124486
22.31500,-21.59605046
22.31550,-25.86877216
22.31600,-26.47916098
22.31650,-17.93371756
22.31700,-7.251913295
22.31750,-4.199969218
22.31800,-7.557107703
22.31850,-7.86230211
22.31900,-3.89477481
22.31950,-2.979191587
22.32000,-6.031135664
22.32050,-0.2324419177
22.32100,22.65713866
22.32150,49.81944095
22.32200,61.72202285
22.32250,55.9233291
22.32300,46.15710805
22.32350,44.0207472
22.32400,48.90385772
22.32450,52.56619061
22.32500,49.20905213
22.32550,37.30647023
22.32600,16.85844491
22.32650,-8.777885333
22.32700,-33.49863236
22.32750,-50.28432478
22.32800,-54.25185208
22.32850,-45.70640867
22.32900,-32.58304913
22.32950,-28.31032743
22.33000,-39.2973261
22.33050,-54.8622409
22.33100,-56.38821293
22.33150,-38.07654847
22.33200,-11.524635
22.33250,8.00780709
22.33300,16.2480561
22.33350,17.77402814
22.33400,19.30000018
22.33450,25.09869392
22.33500,35.17010938
22.33550,39.74802549
22.33600,29.67661004
22.33650,8.313001498
22.33700,-11.524635
22.33750,-23.73241131
22.33800,-32.88824354
22.33850,-42.04407577
22.33900,-44.18043663
22.33950,-33.49863236
22.34000,-16.40774553
22.34050,-5.115552441
22.34100,-2.979191587
22.34150,-2.673997179
22.34200,2.209113344
22.34250,11.97533439
22.34300,21.74155544
22.34350,28.150638
22.34400,29.06622122
22.34450,26.01427714
22.34500,22.96233307
22.34550,22.96233307
22.34600,26.01427714
22.34650,28.150638
22.34700,26.62466596
22.34750,21.13116662
22.34800,15.94286169
22.34850,15.33247288
22.34900,18.99480577
22.34950,21.43636103
22.35000,19.30000018
22.35050,14.11169524
22.35100,10.75455676
22.35150,9.533779129
22.35200,8.00780709
22.35250,6.787029459
22.35300,8.923390313
22.35350,12.2805288
22.35400,12.2805288
22.35450,8.00780709
22.35500,4.345474198
22.35550,4.955863013
22.35600,7.092223867
22.35650,8.313001498
22.35700,8.923390313
22.35750,10.14416794
22.35800,10.75455676
22.35850,8.313001498
22.35900,4.04027979
22.35950,0.9883357131
22.36000,-0.2324419177
22.36050,-1.758413956
22.36100,-3.284385995
22.36150,-4.505163626
22.36200,-5.420746849
22.36250,-7.251913295
22.36300,-7.86230211
22.36350,-6.946718887
22.36400,-4.505163626
22.36450,-1.453219549
22.36500,1.903918936
22.36550,6.176640644
22.36600,8.923390313
22.36650,8.618195906
22.36700,6.176640644
22.36750,3.735085382
22.36800,0.9883357131
22.36850,-2.673997179
22.36900,-5.420746849
22.36950,-5.115552441
22.37000,-2.979191587
22.37050,-2.063608364
22.37100,-3.284385995
22.37150,-6.031135664
22.37200,-10.30385737
22.37250,-15.4921623
22.37300,-18.54410638
22.37350,-16.71293993
22.37400,-13.05060704
22.37450,-13.96619026
22.37500,-19.1544952
22.37550,-21.29085605
22.37600,-16.40774553
22.37650,-8.777885333
22.37700,-3.284385995
22.37750,0.07275248999
22.37800,4.345474198
22.37850,7.092223867
22.37900,6.787029459
22.37950,6.176640644
22.38000,9.533779129
22.38050,15.02727847
22.38100,17.77402814
22.38150,16.2480561
22.38200,13.50130643
22.38250,10.14416794
22.38300,4.955863013
22.38350,-0.8428307331
22.38400,-4.810358033
22.38450,-5.115552441
22.38500,-4.505163626
22.38550,-5.725941256
22.38600,-8.777885333
22.38650,-10.91424619
22.38700,-11.524635
22.38750,-11.21944059
22.38800,-10.60905178
22.38850,-9.083079741
22.38900,-6.946718887
22.38950,-3.89477481
22.39000,-1.453219549
22.39050,-0.2324419177
22.39100,-0.2324419177
22.39150,-0.8428307331
22.39200,-0.2324419177
22.39250,1.293530121
22.39300,2.209113344
22.39350,-0.2324419177
22.39400,-3.284385995
22.39450,-4.199969218
22.39500,-2.979191587
22.39550,-2.368802772
22.39600,-4.199969218
22.39650,-6.336330072
22.39700,-6.336330072
22.39750,-5.420746849
22.39800,-6.031135664
22.39850,-6.946718887
22.39900,-7.251913295
22.39950,-5.725941256
22.40000,-4.505163626
22.40050,-3.284385995
22.40100,-2.368802772
22.40150,-2.063608364
22.40200,-3.284385995
22.40250,-5.115552441
22.40300,-6.031135664
22.40350,-6.641524479
22.40400,-7.86230211
22.40450,-8.472690926
22.40500,-6.336330072
22.40550,-2.063608364
22.40600,0.6831413054
22.40650,0.3779468977
22.40700,-1.758413956
22.40750,-2.368802772
22.40800,0.3779468977
22.40850,6.481835052
22.40900,11.36494557
22.40950,11.67013998
22.41000,8.313001498
22.41050,5.871446236
22.41100,5.261057421
22.41150,2.819502159
22.41200,-1.453219549
22.41250,-4.505163626
22.41300,-5.115552441
22.41350,-9.998662964
22.41400,-22.20643927
22.41450,-31.66746591
22.41500,-24.64799453
22.41550,-1.758413956
22.41600,22.65713866
22.41650,36.0856926
22.41700,38.22205345
22.41750,35.17010938
22.41800,30.59219326
22.41850,25.40388833
22.41900,19.30000018
22.41950,8.923390313
22.42000,-4.505163626
22.42050,-14.27138467
22.42100,-13.05060704
22.42150,-7.251913295
22.42200,-11.524635
22.42250,-28.00513302
22.42300,-42.959659
22.42350,-42.04407577
22.42400,-28.92071624
22.42450,-17.01813434
22.42500,-12.13502382
22.42550,-8.472690926
22.42600,2.209113344
22.42650,16.55325051
22.42700,25.40388833
22.42750,24.1831107
22.42800,19.30000018
22.42850,18.38441695
22.42900,19.60519458
22.42950,16.55325051
22.43000,9.533779129
22.43050,4.04027979
22.43100,-1.148025141
22.43150,-17.62852316
22.43200,-45.70640867
22.43250,-67.0700172
22.43300,-60.35574023
22.43350,-28.61552183
22.43400,4.345474198
22.43450,21.13116662
22.43500,22.96233307
22.43550,18.99480577
22.43600,15.63766728
22.43650,15.33247288
22.43700,20.52077781
22.43750,26.92986037
22.43800,24.1831107
22.43850,7.092223867
22.43900,-15.79735671
22.43950,-30.14149387
22.44000,-30.14149387
22.44050,-22.51163368
22.44100,-15.79735671
22.44150,-13.05060704
22.44200,-14.27138467
22.44250,-19.1544952
22.44300,-25.25838335
22.44350,-26.78435539
22.44400,-21.90124486
22.44450,-15.4921623
22.44500,-12.74541263
22.44550,-14.27138467
22.44600,-15.4921623
22.44650,-15.79735671
22.44700,-18.84930079
22.44750,-24.03760572
22.44800,-23.73241131
22.44850,-11.524635
22.44900,6.481835052
22.44950,18.07922254
22.45000,15.63766728
22.45050,4.345474198
22.45100,-4.199969218
22.45150,-4.810358033
22.45200,0.3779468977
22.45250,6.176640644
22.45300,9.838973536
22.45350,14.72208406
22.45400,21.74155544
22.45450,26.92986037
22.45500,26.31947155
22.45550,22.35194425
22.45600,22.65713866
22.45650,30.28699885
22.45700,40.66360871
22.45750,46.76749687
22.45800,46.46230246
22.45850,38.22205345
22.45900,21.13116662
22.45950,-0.8428307331
22.46000,-17.01813434
22.46050,-19.1544952
22.46100,-10.60905178
22.46150,-3.589580402
22.46200,-4.810358033
22.46250,-8.472690926
22.46300,-8.472690926
22.46350,-6.336330072
22.46400,-5.725941256
22.46450,-4.810358033
22.46500,-0.2324419177
22.46550,7.092223867
22.46600,11.36494557
22.46650,9.838973536
22.46700,5.871446236
22.46750,3.429890975
22.46800,2.209113344
22.46850,0.6831413054
22.46900,-0.2324419177
22.46950,-0.2324419177
22.47000,0.3779468977
22.47050,0.07275248999
22.47100,0.3779468977
22.47150,1.598724528
22.47200,4.04027979
22.47250,5.566251829
22.47300,5.871446236
22.47350,5.566251829
22.47400,5.566251829
22.47450,5.871446236
22.47500,5.871446236
22.47550,5.261057421
22.47600,3.735085382
22.47650,2.514307752
22.47700,2.819502159
22.47750,3.735085382
22.47800,3.429890975
22.47850,1.903918936
22.47900,-1.453219549
22.47950,-6.946718887
22.48000,-12.44021823
22.48050,-13.35580145
22.48100,-6.336330072
22.48150,4.955863013
22.48200,13.80650084
22.48250,15.63766728
22.48300,13.19611202
22.48350,8.923390313
22.48400,2.819502159
22.48450,-3.89477481
22.48500,-8.777885333
22.48550,-9.998662964
22.48600,-11.21944059
22.48650,-15.4921623
22.48700,-21.29085605
22.48750,-25.25838335
22.48800,-24.64799453
22.48850,-17.01813434
22.48900,-0.8428307331
22.48950,17.77402814
22.49000,28.76102681
22.49050,26.62466596
22.49100,18.99480577
22.49150,13.50130643
22.49200,10.44936235
22.49250,5.261057421
22.49300,-0.2324419177
22.49350,-4.505163626
22.49400,-8.777885333
22.49450,-17.01813434
22.49500,-26.17396657
22.49550,-28.00513302
22.49600,-20.98566164
22.49650,-12.44021823
22.49700,-8.472690926
22.49750,-7.557107703
22.49800,-6.641524479
22.49850,-5.420746849
22.49900,-4.505163626
22.49950,-4.199969218
22.50000,-2.673997179
22.50050,-1.148025141
22.50100,-0.2324419177
22.50150,0.6831413054
22.50200,3.124696567
22.50250,6.176640644
22.50300,8.00780709
22.50350,9.228584721
22.50400,10.14416794
22.50450,11.05975117
22.50500,10.75455676
22.50550,9.533779129
22.50600,8.618195906
22.50650,7.702612683
22.50700,5.871446236
22.50750,3.429890975
22.50800,0.6831413054
22.50850,-1.148025141
22.50900,-2.368802772
22.50950,-3.284385995
22.51000,-3.89477481
22.51050,-3.589580402
22.51100,-2.673997179
22.51150,-1.453219549
22.51200,-1.148025141
22.51250,-1.453219549
22.51300,-0.2324419177
22.51350,4.955863013
22.51400,10.75455676
22.51450,11.67013998
22.51500,6.481835052
22.51550,1.598724528
22.51600,0.9883357131
22.51650,3.429890975
22.51700,3.429890975
22.51750,1.598724528
22.51800,1.903918936
22.51850,4.650668606
22.51900,6.787029459
22.51950,6.787029459
22.52000,6.176640644
22.52050,5.871446236
22.52100,5.261057421
22.52150,4.955863013
22.52200,6.481835052
22.52250,7.397418275
22.52300,4.345474198
22.52350,-2.673997179
22.52400,-8.472690926
22.52450,-9.083079741
22.52500,-6.031135664
22.52550,-2.979191587
22.52600,-1.758413956
22.52650,-0.8428307331
22.52700,0.07275248999
22.52750,2.209113344
22.52800,4.04027979
22.52850,3.124696567
22.52900,0.6831413054
22.52950,2.819502159
22.53000,13.50130643
22.53050,27.54024918
22.53100,34.55972056
22.53150,30.59219326
22.53200,20.52077781
22.53250,10.44936235
22.53300,2.819502159
22.53350,-3.284385995
22.53400,-8.777885333
22.53450,-14.27138467
22.53500,-20.07007842
22.53550,-25.86877216
22.53600,-31.66746591
22.53650,-36.55057643
22.53700,-37.46615966
22.53750,-31.66746591
22.53800,-22.20643927
22.53850,-16.10255112
22.53900,-13.66099586
22.53950,-8.777885333
22.54000,0.07275248999
22.54050,5.261057421
22.54100,0.3779468977
22.54150,-7.557107703
22.54200,-7.251913295
22.54250,-0.2324419177
22.54300,0.6831413054
22.54350,-7.251913295
22.54400,-15.1869679
22.54450,-16.40774553
22.54500,-16.40774553
22.54550,-20.68046723
22.54600,-20.98566164
22.54650,-8.472690926
22.54700,10.44936235
22.54750,22.65713866
22.54800,24.48830511
22.54850,22.65713866
22.54900,20.52077781
22.54950,11.97533439
22.55000,-6.336330072
22.55050,-26.17396657
22.55100,-34.10902117
22.55150,-27.3947442
22.55200,-15.1869679
22.55250,-6.641524479
22.55300,-3.589580402
22.55350,-1.453219549
22.55400,1.903918936
22.55450,5.871446236
22.55500,7.092223867
22.55550,4.345474198
22.55600,0.3779468977
22.55650,-1.453219549
22.55700,-0.8428307331
22.55750,5.261057421
22.55800,18.07922254
22.55850,33.64413734
22.55900,44.32594161
22.55950,46.46230246
22.56000,44.32594161
22.56050,42.49477516
22.56100,37.00127582
22.56150,24.48830511
22.56200,9.533779129
22.56250,0.3779468977
22.56300,-6.641524479
22.56350,-23.1220225
22.56400,-49.67393597
22.56450,-71.95312773
22.56500,-79.27779351
22.56550,-76.53104384
22.56600,-71.0375445
22.56650,-60.66093464
22.56700,-39.60252051
22.56750,-15.79735671
22.56800,-5.115552441
22.56850,-10.91424619
22.56900,-18.54410638
22.56950,-15.1869679
22.57000,-4.199969218
22.57050,3.124696567
22.57100,5.566251829
22.57150,8.618195906
22.57200,15.02727847
22.57250,22.04674984
22.57300,27.84544359
22.57350,32.42335971
22.57400,35.17010938
22.57450,34.25452615
22.57500,30.59219326
22.57550,28.150638
22.57600,27.84544359
22.57650,26.31947155
22.57700,22.35194425
22.57750,18.99480577
22.57800,17.46883373
22.57850,12.2805288
22.57900,0.07275248999
22.57950,-11.82982941
22.58000,-14.27138467
22.58050,-6.641524479
22.58100,0.9883357131
22.58150,3.429890975
22.58200,3.429890975
22.58250,4.650668606
22.58300,6.481835052
22.58350,6.481835052
22.58400,5.871446236
22.58450,6.176640644
22.58500,6.787029459
22.58550,4.955863013
22.58600,2.209113344
22.58650,1.903918936
22.58700,4.955863013
22.58750,7.702612683
22.58800,8.313001498
22.58850,6.176640644
22.58900,3.124696567
22.58950,0.3779468977
22.59000,-0.2324419177
22.59050,0.6831413054
22.59100,0.9883357131
22.59150,-0.8428307331
22.59200,-2.673997179
22.59250,-1.148025141
22.59300,2.209113344
22.59350,4.04027979
22.59400,4.345474198
22.59450,6.481835052
22.59500,12.58572321
22.59550,17.77402814
22.59600,19.30000018
22.59650,21.43636103
22.59700,29.67661004
22.59750,42.79996957
22.59800,51.04021858
22.59850,48.59866331
22.59900,39.74802549
22.59950,29.67661004
22.60000,18.07922254
22.60050,0.3779468977
22.60100,-19.76488401
22.60150,-33.49863236
22.60200,-36.24538203
22.60250,-36.85577084
22.60300,-46.31679748
22.60350,-60.66093464
22.60400,-67.0700172
22.60450,-59.1349626
22.60500,-45.09601985
22.60550,-34.10902117
22.60600,-26.17396657
22.60650,-17.93371756
22.60700,-9.388274149
22.60750,-4.199969218
22.60800,-1.758413956
22.60850,0.9883357131
22.60900,3.735085382
22.60950,3.429890975
22.61000,1.598724528
22.61050,1.903918936
22.61100,3.429890975
22.61150,3.124696567
22.61200,0.9883357131
22.61250,0.07275248999
22.61300,1.598724528
22.61350,0.6831413054
22.61400,-4.199969218
22.61450,-9.998662964
22.61500,-10.60905178
22.61550,-6.336330072
22.61600,-1.758413956
22.61650,0.3779468977
22.61700,1.598724528
22.61750,2.209113344
22.61800,2.819502159
22.61850,2.819502159
22.61900,3.124696567
22.61950,4.04027979
22.62000,4.345474198
22.62050,3.735085382
22.62100,2.209113344
22.62150,0.3779468977
22.62200,-1.148025141
22.62250,-3.589580402
22.62300,-6.031135664
22.62350,-6.336330072
22.62400,-4.810358033
22.62450,-2.673997179
22.62500,-1.758413956
22.62550,-1.148025141
22.62600,0.07275248999
22.62650,1.598724528
22.62700,2.514307752
22.62750,5.566251829
22.62800,12.89091761
22.62850,19.91038899
22.62900,21.43636103
22.62950,15.94286169
22.63000,8.00780709
22.63050,2.209113344
22.63100,-0.2324419177
22.63150,-1.148025141
22.63200,-1.148025141
22.63250,-1.758413956
22.63300,-2.979191587
22.63350,-3.589580402
22.63400,-2.063608364
22.63450,-0.8428307331
22.63500,-0.2324419177
22.63550,1.293530121
22.63600,7.702612683
22.63650,16.55325051
22.63700,22.35194425
22.63750,21.43636103
22.63800,16.85844491
22.63850,11.97533439
22.63900,7.702612683
22.63950,4.04027979
22.64000,0.6831413054
22.64050,-0.8428307331
22.64100,-0.5376363254
22.64150,1.598724528
22.64200,2.819502159
22.64250,0.9883357131
22.64300,-2.368802772
22.64350,-3.284385995
22.64400,-0.8428307331
22.64450,1.293530121
22.64500,-0.8428307331
22.64550,-6.336330072
22.64600,-9.693468556
22.64650,-8.777885333
22.64700,-6.641524479
22.64750,-7.251913295
22.64800,-9.998662964
22.64850,-11.524635
22.64900,-9.998662964
22.64950,-7.557107703
22.65000,-6.336330072
22.65050,-6.641524479
22.65100,-6.946718887
22.65150,-6.641524479
22.65200,-6.641524479
22.65250,-7.557107703
22.65300,-8.167496518
22.65350,-7.86230211
22.65400,-6.641524479
22.65450,-4.810358033
22.65500,-2.673997179
22.65550,-1.453219549
22.65600,-2.063608364
22.65650,-5.115552441
22.65700,-7.557107703
22.65750,-6.946718887
22.65800,-4.199969218
22.65850,-2.673997179
22.65900,-2.368802772
22.65950,-2.063608364
22.66000,-1.148025141
22.66050,-1.758413956
22.66100,-2.979191587
22.66150,-3.284385995
22.66200,-1.453219549
22.66250,-0.2324419177
22.66300,-0.2324419177
22.66350,-0.8428307331
22.66400,0.07275248999
22.66450,2.819502159
22.66500,3.735085382
22.66550,2.819502159
22.66600,3.124696567
22.66650,3.429890975
22.66700,0.6831413054
22.66750,-5.115552441
22.66800,-9.998662964
22.66850,-9.083079741
22.66900,-5.420746849
22.66950,-3.284385995
22.67000,-2.979191587
22.67050,-1.453219549
22.67100,1.903918936
22.67150,4.955863013
22.67200,5.871446236
22.67250,4.04027979
22.67300,0.9883357131
22.67350,-0.8428307331
22.67400,0.3779468977
22.67450,5.871446236
22.67500,9.838973536
22.67550,6.787029459
22.67600,-2.673997179
22.67650,-13.96619026
22.67700,-20.37527283
22.67750,-18.54410638
22.67800,-7.251913295
22.67850,7.702612683
22.67900,14.41688965
22.67950,4.650668606
22.68000,-16.71293993
22.68050,-36.55057643
22.68100,-43.57004781
22.68150,-37.16096525
22.68200,-20.98566164
22.68250,-0.5376363254
22.68300,16.55325051
22.68350,24.48830511
22.68400,22.65713866
22.68450,17.77402814
22.68500,16.55325051
22.68550,20.2155834
22.68600,25.09869392
22.68650,26.92986037
22.68700,24.79349951
22.68750,22.35194425
22.68800,22.96233307
22.68850,24.48830511
22.68900,23.57272188
22.68950,18.99480577
22.69000,11.36494557
22.69050,-0.5376363254
22.69100,-17.32332875
22.69150,-28.61552183
22.69200,-23.1220225
22.69250,-6.641524479
22.69300,-0.8428307331
22.69350,-14.27138467
22.69400,-28.92071624
22.69450,-20.98566164
22.69500,5.566251829
22.69550,28.45583241
22.69600,33.33894293
22.69650,27.23505478
22.69700,19.60519458
22.69750,11.05975117
22.69800,1.293530121
22.69850,-6.336330072
22.69900,-15.1869679
22.69950,-34.41421558
22.70000,-62.49210109
22.70050,-80.19337674
22.70100,-70.7323501
22.70150,-41.73888137
22.70200,-16.40774553
22.70250,-6.946718887
22.70300,-8.472690926
22.70350,-10.30385737
22.70400,-9.693468556
22.70450,-7.557107703
22.70500,-1.453219549
22.70550,7.397418275
22.70600,12.89091761
22.70650,10.14416794
22.70700,4.04027979
22.70750,1.293530121
22.70800,-0.2324419177
22.70850,-9.998662964
22.70900,-27.3947442
22.70950,-37.16096525
22.71000,-28.00513302
22.71050,-6.336330072
22.71100,10.75455676
22.71150,15.33247288
22.71200,13.80650084
22.71250,15.94286169
22.71300,25.70908274
22.71350,40.66360871
22.71400,55.31294028
22.71450,62.94280048
22.71500,59.58566199
22.71550,47.68308009
22.71600,35.17010938
22.71650,26.31947155
22.71700,20.82597221
22.71750,15.63766728
22.71800,8.923390313
22.71850,-0.5376363254
22.71900,-11.82982941
22.71950,-18.84930079
22.72000,-16.71293993
22.72050,-7.86230211
22.72100,-0.2324419177
22.72150,2.514307752
22.72200,1.903918936
22.72250,0.6831413054
22.72300,-1.148025141
22.72350,-3.284385995
22.72400,-2.063608364
22.72450,3.735085382
22.72500,11.36494557
22.72550,15.33247288
22.72600,15.33247288
22.72650,13.50130643
22.72700,11.36494557
22.72750,8.923390313
22.72800,8.313001498
22.72850,11.97533439
22.72900,19.60519458
22.72950,26.92986037
22.73000,27.84544359
22.73050,18.68961136
22.73100,1.903918936
22.73150,-13.35580145
22.73200,-18.23891197
22.73250,-10.60905178
22.73300,0.6831413054
22.73350,5.566251829
22.73400,-0.2324419177
22.73450,-14.57657908
22.73500,-29.53110506
22.73550,-38.07654847
22.73600,-36.85577084
22.73650,-30.14149387
22.73700,-24.34280013
22.73750,-20.68046723
22.73800,-14.27138467
22.73850,-3.589580402
22.73900,4.345474198
22.73950,1.903918936
22.74000,-8.167496518
22.74050,-16.40774553
22.74100,-18.23891197
22.74150,-18.23891197
22.74200,-19.1544952
22.74250,-17.01813434
22.74300,-7.557107703
22.74350,4.04027979
22.74400,11.67013998
22.74450,15.33247288
22.74500,19.30000018
22.74550,24.48830511
22.74600,27.54024918
22.74650,29.06622122
22.74700,30.28699885
22.74750,28.76102681
22.74800,20.2155834
22.74850,7.397418275
22.74900,-1.148025141
22.74950,-3.284385995
22.75000,-3.589580402
22.75050,-6.031135664
22.75100,-9.388274149
22.75150,-11.524635
22.75200,-13.35580145
22.75250,-14.27138467
22.75300,-11.21944059
22.75350,-4.505163626
22.75400,0.6831413054
22.75450,0.07275248999
22.75500,-3.284385995
22.75550,-5.725941256
22.75600,-5.420746849
22.75650,-3.589580402
22.75700,-0.2324419177
22.75750,4.650668606
22.75800,9.228584721
22.75850,8.923390313
22.75900,4.345474198
22.75950,-0.8428307331
22.76000,-4.199969218
22.76050,-4.505163626
22.76100,-3.89477481
22.76150,-3.284385995
22.76200,-2.979191587
22.76250,-0.8428307331
22.76300,5.566251829
22.76350,14.72208406
22.76400,19.60519458
22.76450,17.16363932
22.76500,11.67013998
22.76550,9.228584721
22.76600,9.838973536
22.76650,9.838973536
22.76700,7.397418275
22.76750,4.955863013
22.76800,3.735085382
22.76850,3.124696567
22.76900,1.598724528
22.76950,0.6831413054
22.77000,0.9883357131
22.77050,2.819502159
22.77100,4.955863013
22.77150,6.481835052
22.77200,7.092223867
22.77250,5.871446236
22.77300,3.429890975
22.77350,0.6831413054
22.77400,-2.368802772
22.77450,-6.641524479
22.77500,-12.44021823
22.77550,-18.54410638
22.77600,-24.34280013
22.77650,-28.00513302
22.77700,-26.78435539
22.77750,-18.84930079
22.77800,-5.420746849
22.77850,9.838973536
22.77900,22.65713866
22.77950,29.98180444
22.78000,31.50777648
22.78050,30.28699885
22.78100,27.54024918
22.78150,21.74155544
22.78200,9.838973536
22.78250,-4.810358033
22.78300,-15.1869679
22.78350,-19.1544952
22.78400,-22.81682809
22.78450,-31.66746591
22.78500,-42.34927018
22.78550,-46.01160307
22.78600,-40.82329814
22.78650,-31.66746591
22.78700,-22.81682809
22.78750,-12.44021823
22.78800,-2.063608364
22.78850,0.6831413054
22.78900,-7.86230211
22.78950,-23.1220225
22.79000,-32.88824354
22.79050,-32.27785473
22.79100,-27.0895498
22.79150,-24.03760572
22.79200,-21.59605046
22.79250,-13.96619026
22.79300,-2.673997179
22.79350,5.261057421
22.79400,7.397418275
22.79450,7.092223867
22.79500,6.787029459
22.79550,2.819502159
22.79600,-7.251913295
22.79650,-19.76488401
22.79700,-24.95318894
22.79750,-21.90124486
22.79800,-16.40774553
22.79850,-12.74541263
22.79900,-9.388274149
22.79950,-4.199969218
22.80000,0.3779468977
22.80050,3.735085382
22.80100,6.481835052
22.80150,9.228584721
22.80200,11.05975117
22.80250,13.19611202
22.80300,18.99480577
22.80350,27.84544359
22.80400,33.94933174
22.80450,33.94933174
22.80500,31.50777648
22.80550,30.59219326
22.80600,29.67661004
22.80650,26.62466596
22.80700,23.57272188
22.80750,21.43636103
22.80800,14.41688965
22.80850,-2.063608364
22.80900,-23.73241131
22.80950,-37.77135406
22.81000,-38.07654847
22.81050,-29.83629946
22.81100,-20.98566164
22.81150,-13.35580145
22.81200,-6.641524479
22.81250,-2.063608364
22.81300,-1.758413956
22.81350,-4.810358033
22.81400,-6.641524479
22.81450,-4.810358033
22.81500,-1.453219549
22.81550,-2.368802772
22.81600,-10.30385737
22.81650,-20.07007842
22.81700,-22.20643927
22.81750,-12.74541263
22.81800,4.345474198
22.81850,22.04674984
22.81900,34.25452615
22.81950,40.35841431
22.82000,42.49477516
22.82050,45.24152483
22.82100,50.42982976
22.82150,54.39735706
22.82200,51.9558018
22.82250,40.35841431
22.82300,24.1831107
22.82350,11.97533439
22.82400,6.787029459
22.82450,3.124696567
22.82500,-7.557107703
22.82550,-25.25838335
22.82600,-38.68693729
22.82650,-36.55057643
22.82700,-21.29085605
22.82750,-5.420746849
22.82800,1.293530121
22.82850,1.903918936
22.82900,2.209113344
22.82950,3.124696567
22.83000,3.124696567
22.83050,3.124696567
22.83100,4.955863013
22.83150,7.702612683
22.83200,8.618195906
22.83250,6.787029459
22.83300,3.735085382
22.83350,-0.2324419177
22.83400,-4.505163626
22.83450,-8.472690926
22.83500,-8.777885333
22.83550,-5.725941256
22.83600,-2.979191587
22.83650,-2.063608364
22.83700,-2.063608364
22.83750,-2.979191587
22.83800,-5.115552441
22.83850,-8.167496518
22.83900,-9.083079741
22.83950,-7.251913295
22.84000,-6.336330072
22.84050,-9.388274149
22.84100,-14.27138467
22.84150,-15.79735671
22.84200,-13.96619026
22.84250,-13.05060704
22.84300,-16.10255112
22.84350,-16.40774553
22.84400,-6.336330072
22.84450,12.58572321
22.84500,29.67661004
22.84550,33.64413734
22.84600,26.01427714
22.84650,15.02727847
22.84700,7.397418275
22.84750,3.735085382
22.84800,2.209113344
22.84850,1.598724528
22.84900,1.598724528
22.84950,1.293530121
22.85000,0.9883357131
22.85050,0.9883357131
22.85100,0.6831413054
22.85150,-0.8428307331
22.85200,-3.284385995
22.85250,-4.505163626
22.85300,-4.810358033
22.85350,-5.420746849
22.85400,-5.725941256
22.85450,-5.420746849
22.85500,-6.031135664
22.85550,-7.86230211
22.85600,-9.083079741
22.85650,-6.641524479
22.85700,-0.8428307331
22.85750,5.261057421
22.85800,9.228584721
22.85850,11.36494557
22.85900,11.36494557
22.85950,8.313001498
22.86000,3.124696567
22.86050,-0.5376363254
22.86100,-1.758413956
22.86150,-1.453219549
22.86200,-2.063608364
22.86250,-2.063608364
22.86300,0.9883357131
22.86350,6.176640644
22.86400,9.228584721
22.86450,8.00780709
22.86500,4.345474198
22.86550,2.209113344
22.86600,2.209113344
22.86650,0.9883357131
22.86700,-2.979191587
22.86750,-8.167496518
22.86800,-10.91424619
22.86850,-10.30385737
22.86900,-9.693468556
22.86950,-9.998662964
22.87000,-10.60905178
22.87050,-10.91424619
22.87100,-12.44021823
22.87150,-14.27138467
22.87200,-9.998662964
22.87250,5.566251829
22.87300,27.23505478
22.87350,37.91685904
22.87400,28.45583241
22.87450,8.00780709
22.87500,-5.420746849
22.87550,-7.251913295
22.87600,-7.251913295
22.87650,-15.1869679
22.87700,-27.69993861
22.87750,-37.16096525
22.87800,-41.73888137
22.87850,-46.62199189
22.87900,-52.42068563
22.87950,-53.94665767
22.88000,-48.14796393
22.88050,-38.68693729
22.88100,-28.00513302
22.88150,-15.4921623
22.88200,-2.673997179
22.88250,4.955863013
22.88300,4.650668606
22.88350,1.598724528
22.88400,2.209113344
22.88450,4.955863013
22.88500,5.566251829
22.88550,5.261057421
22.88600,8.618195906
22.88650,12.58572321
22.88700,9.533779129
22.88750,-0.2324419177
22.88800,-5.725941256
22.88850,0.3779468977
22.88900,13.50130643
22.88950,21.13116662
22.89000,21.74155544
22.89050,19.60519458
22.89100,18.07922254
22.89150,15.94286169
22.89200,13.80650084
22.89250,13.50130643
22.89300,13.50130643
22.89350,8.923390313
22.89400,0.07275248999
22.89450,-7.251913295
22.89500,-9.998662964
22.89550,-6.336330072
22.89600,3.429890975
22.89650,18.99480577
22.89700,33.94933174
22.89750,38.83244227
22.89800,30.89738767
22.89850,17.46883373
22.89900,7.092223867
22.89950,4.04027979
22.90000,7.092223867
22.90050,12.58572321
22.90100,15.63766728
22.90150,15.94286169
22.90200,17.46883373
22.90250,22.35194425
22.90300,25.40388833
22.90350,18.99480577
22.90400,5.261057421
22.90450,-4.810358033
22.90500,-6.946718887
22.90550,-8.167496518
22.90600,-16.10255112
22.90650,-26.78435539
22.90700,-29.22591065
22.90750,-21.29085605
22.90800,-10.30385737
22.90850,-0.5376363254
22.90900,9.838973536
22.90950,19.60519458
22.91000,23.26752748
22.91050,20.2155834
22.91100,16.85844491
22.91150,14.72208406
22.91200,5.261057421
22.91250,-17.32332875
22.91300,-43.87524222
22.91350,-59.1349626
22.91400,-59.1349626
22.91450,-50.28432478
22.91500,-38.07654847
22.91550,-22.20643927
22.91600,-5.420746849
22.91650,4.345474198
22.91700,6.176640644
22.91750,4.04027979
22.91800,2.514307752
22.91850,0.3779468977
22.91900,-3.284385995
22.91950,-7.251913295
22.92000,-9.083079741
22.92050,-9.083079741
22.92100,-8.472690926
22.92150,-6.641524479
22.92200,-4.505163626
22.92250,-4.199969218
22.92300,-6.031135664
22.92350,-6.336330072
22.92400,-3.589580402
22.92450,1.293530121
22.92500,7.397418275
22.92550,12.2805288
22.92600,15.33247288
22.92650,16.2480561
22.92700,17.16363932
22.92750,17.77402814
22.92800,15.02727847
22.92850,7.702612683
22.92900,0.07275248999
22.92950,-3.89477481
22.93000,-6.336330072
22.93050,-9.693468556
22.93100,-12.13502382
22.93150,-9.998662964
22.93200,-3.589580402
22.93250,1.598724528
22.93300,5.261057421
22.93350,8.923390313
22.93400,14.11169524
22.93450,17.46883373
22.93500,17.16363932
22.93550,15.02727847
22.93600,13.19611202
22.93650,10.75455676
22.93700,7.092223867
22.93750,3.429890975
22.93800,1.903918936
22.93850,3.735085382
22.93900,8.00780709
22.93950,12.58572321
22.94000,15.63766728
22.94050,15.63766728
22.94100,14.72208406
22.94150,14.72208406
22.94200,15.02727847
22.94250,14.41688965
22.94300,14.72208406
22.94350,17.77402814
22.94400,22.96233307
22.94450,24.79349951
22.94500,19.91038899
22.94550,9.228584721
22.94600,-2.673997179
22.94650,-13.96619026
22.94700,-21.59605046
22.94750,-24.34280013
22.94800,-21.90124486
22.94850,-16.71293993
22.94900,-13.05060704
22.94950,-13.35580145
22.95000,-18.54410638
22.95050,-24.03760572
22.95100,-22.20643927
22.95150,-10.30385737
22.95200,4.345474198
22.95250,12.2805288
22.95300,12.2805288
22.95350,10.44936235
22.95400,10.75455676
22.95450,9.533779129
22.95500,5.261057421
22.95550,4.04027979
22.95600,10.14416794
22.95650,16.55325051
22.95700,13.19611202
22.95750,0.07275248999
22.95800,-12.13502382
22.95850,-14.88177349
22.95900,-9.388274149
22.95950,-3.89477481
22.96000,-4.505163626
22.96050,-12.44021823
22.96100,-21.90124486
22.96150,-24.34280013
22.96200,-18.23891197
22.96250,-10.91424619
22.96300,-10.60905178
22.96350,-17.93371756
22.96400,-25.56357776
22.96450,-29.83629946
22.96500,-29.22591065
22.96550,-22.51163368
22.96600,-8.777885333
22.96650,5.871446236
22.96700,10.44936235
22.96750,1.598724528
22.96800,-12.13502382
22.96850,-19.76488401
22.96900,-17.32332875
22.96950,-9.693468556
22.97000,-2.673997179
22.97050,2.514307752
22.97100,5.871446236
22.97150,7.092223867
22.97200,6.176640644
22.97250,5.871446236
22.97300,7.397418275
22.97350,9.838973536
22.97400,10.14416794
22.97450,8.313001498
22.97500,6.176640644
22.97550,5.261057421
22.97600,4.955863013
22.97650,4.345474198
22.97700,4.650668606
22.97750,6.787029459
22.97800,8.618195906
22.97850,8.618195906
22.97900,9.533779129
22.97950,12.2805288
22.98000,15.02727847
22.98050,14.72208406
22.98100,13.80650084
22.98150,14.72208406
22.98200,16.55325051
22.98250,14.72208406
22.98300,9.838973536
22.98350,5.566251829
22.98400,2.514307752
22.98450,-1.148025141
22.98500,-5.725941256
22.98550,-6.946718887
22.98600,-5.725941256
22.98650,-6.031135664
22.98700,-8.777885333
22.98750,-8.472690926
22.98800,-2.979191587
22.98850,3.429890975
22.98900,5.566251829
22.98950,4.345474198
22.99000,2.819502159
22.99050,0.6831413054
22.99100,-2.368802772
22.99150,-4.810358033
22.99200,-4.810358033
22.99250,-5.115552441
22.99300,-11.21944059
22.99350,-24.03760572
22.99400,-36.85577084
22.99450,-39.2973261
22.99500,-27.0895498
22.99550,-5.115552441
22.99600,14.41688965
22.99650,21.43636103
22.99700,16.2480561
22.99750,6.787029459
22.99800,2.514307752
22.99850,5.566251829
22.99900,12.2805288
22.99950,16.55325051
23.00000,16.2480561
23.00050,13.50130643
23.00100,12.58572321
23.00150,13.19611202
23.00200,12.2805288
23.00250,8.618195906
23.00300,6.176640644
23.00350,6.787029459
23.00400,6.787029459
23.00450,1.903918936
23.00500,-3.89477481
23.00550,-6.031135664
23.00600,-5.725941256
23.00650,-7.86230211
23.00700,-11.524635
23.00750,-11.21944059
23.00800,-8.472690926
23.00850,-10.91424619
23.00900,-18.84930079
23.00950,-21.90124486
23.01000,-14.57657908
23.01050,-4.810358033
23.01100,-3.589580402
23.01150,-8.777885333
23.01200,-11.82982941
23.01250,-11.524635
23.01300,-13.35580145
23.01350,-18.23891197
23.01400,-18.84930079
23.01450,-12.13502382
23.01500,-3.284385995
23.01550,2.209113344
23.01600,7.397418275
23.01650,15.02727847
23.01700,21.74155544
23.01750,22.65713866
23.01800,18.68961136
23.01850,12.89091761
23.01900,6.176640644
23.01950,-0.8428307331
23.02000,-3.89477481
23.02050,-1.758413956
23.02100,0.9883357131
23.02150,-0.2324419177
23.02200,-1.758413956
23.02250,1.598724528
23.02300,9.838973536
23.02350,15.02727847
23.02400,14.72208406
23.02450,13.50130643
23.02500,14.11169524
23.02550,12.2805288
23.02600,5.261057421
23.02650,-1.758413956
23.02700,-4.810358033
23.02750,-4.505163626
23.02800,-5.115552441
23.02850,-7.251913295
23.02900,-8.777885333
23.02950,-7.557107703
23.03000,-3.89477481
23.03050,1.293530121
23.03100,6.176640644
23.03150,9.838973536
23.03200,13.19611202
23.03250,18.38441695
23.03300,22.35194425
23.03350,22.04674984
23.03400,16.55325051
23.03450,10.44936235
23.03500,7.092223867
23.03550,5.566251829
23.03600,3.735085382
23.03650,0.6831413054
23.03700,-4.810358033
23.03750,-12.13502382
23.03800,-16.40774553
23.03850,-15.1869679
23.03900,-12.74541263
23.03950,-13.66099586
23.04000,-17.62852316
23.04050,-22.20643927
23.04100,-28.92071624
23.04150,-38.9921317
23.04200,-45.40121426
23.04250,-40.51810373
23.04300,-28.61552183
23.04350,-21.90124486
23.04400,-20.98566164
23.04450,-15.1869679
23.04500,-2.673997179
23.04550,4.955863013
23.04600,2.514307752
23.04650,0.6831413054
23.04700,8.923390313
23.04750,21.43636103
23.04800,28.76102681
23.04850,33.03374852
23.04900,40.66360871
23.04950,47.37788568
23.05000,44.63113601
23.05050,34.55972056
23.05100,22.96233307
23.05150,8.618195906
23.05200,-9.693468556
23.05250,-24.64799453
23.05300,-30.44668828
23.05350,-37.16096525
23.05400,-59.44015701
23.05450,-89.95959778
23.05500,-101.5569853
23.05550,-81.41415437
23.05600,-47.53757511
23.05650,-22.81682809
23.05700,-11.82982941
23.05750,-4.810358033
23.05800,1.903918936
23.05850,5.871446236
23.05900,6.481835052
23.05950,8.923390313
23.06000,13.19611202
23.06050,15.63766728
23.06100,14.41688965
23.06150,14.41688965
23.06200,17.16363932
23.06250,18.99480577
23.06300,18.38441695
23.06350,17.77402814
23.06400,19.30000018
23.06450,20.52077781
23.06500,19.30000018
23.06550,17.46883373
23.06600,18.68961136
23.06650,20.82597221
23.06700,18.68961136
23.06750,12.58572321
23.06800,7.397418275
23.06850,5.566251829
23.06900,4.04027979
23.06950,-0.2324419177
23.07000,-4.810358033
23.07050,-4.199969218
23.07100,1.598724528
23.07150,9.228584721
23.07200,16.55325051
23.07250,22.65713866
23.07300,25.40388833
23.07350,22.96233307
23.07400,18.68961136
23.07450,17.77402814
23.07500,18.99480577
23.07550,13.19611202
23.07600,-3.284385995
23.07650,-21.59605046
23.07700,-28.00513302
23.07750,-20.68046723
23.07800,-10.60905178
23.07850,-6.336330072
23.07900,-6.641524479
23.07950,-6.031135664
23.08000,-2.979191587
23.08050,-0.2324419177
23.08100,1.293530121
23.08150,3.429890975
23.08200,4.650668606
23.08250,3.735085382
23.08300,2.514307752
23.08350,4.04027979
23.08400,6.787029459
23.08450,6.176640644
23.08500,1.903918936
23.08550,-2.063608364
23.08600,-4.199969218
23.08650,-5.725941256
23.08700,-6.641524479
23.08750,-5.115552441
23.08800,-0.5376363254
23.08850,3.429890975
23.08900,5.261057421
23.08950,7.702612683
23.09000,13.19611202
23.09050,18.99480577
23.09100,20.82597221
23.09150,20.82597221
23.09200,22.35194425
23.09250,26.62466596
23.09300,30.59219326
23.09350,29.67661004
23.09400,21.74155544
23.09450,6.176640644
23.09500,-12.13502382
23.09550,-26.17396657
23.09600,-29.83629946
23.09650,-24.95318894
23.09700,-17.93371756
23.09750,-12.13502382
23.09800,-7.86230211
23.09850,-5.725941256
23.09900,-8.167496518
23.09950,-12.74541263
23.10000,-14.88177349
23.10050,-15.79735671
23.10100,-20.07007842
23.10150,-28.31032743
23.10200,-31.3622715
23.10250,-22.20643927
23.10300,-5.115552441
23.10350,7.702612683
23.10400,13.50130643
23.10450,16.2480561
23.10500,18.68961136
23.10550,17.16363932
23.10600,11.36494557
23.10650,5.871446236
23.10700,4.955863013
23.10750,6.481835052
23.10800,5.871446236
23.10850,4.650668606
23.10900,4.345474198
23.10950,2.514307752
23.11000,-5.420746849
23.11050,-17.01813434
23.11100,-23.1220225
23.11150,-20.07007842
23.11200,-10.60905178
23.11250,-1.148025141
23.11300,4.650668606
23.11350,5.261057421
23.11400,0.3779468977
23.11450,-2.979191587
23.11500,1.293530121
23.11550,14.72208406
23.11600,26.01427714
23.11650,26.62466596
23.11700,18.68961136
23.11750,10.75455676
23.11800,6.176640644
23.11850,3.735085382
23.11900,2.819502159
23.11950,3.735085382
23.12000,3.124696567
23.12050,-2.673997179
23.12100,-11.524635
23.12150,-15.1869679
23.12200,-12.44021823
23.12250,-7.86230211
23.12300,-6.031135664
23.12350,-5.725941256
23.12400,-5.115552441
23.12450,-5.725941256
23.12500,-7.86230211
23.12550,-6.336330072
23.12600,0.6831413054
23.12650,10.14416794
23.12700,15.02727847
23.12750,15.94286169
23.12800,15.94286169
23.12850,15.63766728
23.12900,12.89091761
23.12950,10.14416794
23.13000,11.36494557
23.13050,15.94286169
23.13100,16.2480561
23.13150,10.14416794
23.13200,2.209113344
23.13250,-0.5376363254
23.13300,0.3779468977
23.13350,2.209113344
23.13400,3.429890975
23.13450,4.650668606
23.13500,4.345474198
23.13550,0.9883357131
23.13600,-3.89477481
23.13650,-6.031135664
23.13700,-4.810358033
23.13750,-4.810358033
23.13800,-8.777885333
23.13850,-11.82982941
23.13900,-9.693468556
23.13950,-5.420746849
23.14000,-5.420746849
23.14050,-9.693468556
23.14100,-9.998662964
23.14150,-3.284385995
23.14200,4.955863013
23.14250,8.313001498
23.14300,6.787029459
23.14350,3.429890975
23.14400,0.07275248999
23.14450,-3.589580402
23.14500,-6.336330072
23.14550,-8.167496518
23.14600,-13.05060704
23.14650,-22.20643927
23.14700,-30.75188269
23.14750,-31.3622715
23.14800,-24.34280013
23.14850,-16.71293993
23.14900,-13.05060704
23.14950,-11.524635
23.15000,-9.388274149
23.15050,-5.725941256
23.15100,-2.673997179
23.15150,-0.5376363254
23.15200,0.07275248999
23.15250,-0.2324419177
23.15300,-2.063608364
23.15350,-3.589580402
23.15400,-4.199969218
23.15450,-4.199969218
23.15500,-3.284385995
23.15550,-2.063608364
23.15600,-0.5376363254
23.15650,0.3779468977
23.15700,1.293530121
23.15750,0.9883357131
23.15800,-0.2324419177
23.15850,-1.758413956
23.15900,-3.284385995
23.15950,-3.589580402
23.16000,-2.979191587
23.16050,-2.063608364
23.16100,-0.8428307331
23.16150,-0.2324419177
23.16200,-0.2324419177
23.16250,-2.368802772
23.16300,-3.89477481
23.16350,-3.589580402
23.16400,-2.063608364
23.16450,-0.2324419177
23.16500,2.209113344
23.16550,4.955863013
23.16600,8.00780709
23.16650,10.75455676
23.16700,12.2805288
23.16750,12.58572321
23.16800,12.2805288
23.16850,10.14416794
23.16900,7.092223867
23.16950,4.04027979
23.17000,1.598724528
23.17050,-1.148025141
23.17100,-5.725941256
23.17150,-13.05060704
23.17200,-20.98566164
23.17250,-25.56357776
23.17300,-24.34280013
23.17350,-18.84930079
23.17400,-13.05060704
23.17450,-10.30385737
23.17500,-11.524635
23.17550,-13.35580145
23.17600,-12.74541263
23.17650,-9.388274149
23.17700,-6.031135664
23.17750,-3.89477481
23.17800,-2.673997179
23.17850,-0.5376363254
23.17900,2.819502159
23.17950,8.313001498
23.18000,14.72208406
23.18050,20.52077781
23.18100,24.1831107
23.18150,23.87791629
23.18200,20.82597221
23.18250,17.16363932
23.18300,14.11169524
23.18350,11.36494557
23.18400,8.313001498
23.18450,4.955863013
23.18500,1.903918936
23.18550,1.598724528
23.18600,6.481835052
23.18650,15.94286169
23.18700,23.57272188
23.18750,22.96233307
23.18800,15.02727847
23.18850,8.618195906
23.18900,7.397418275
23.18950,6.481835052
23.19000,0.6831413054
23.19050,-7.557107703
23.19100,-13.96619026
23.19150,-19.1544952
23.19200,-28.61552183
23.19250,-42.959659
23.19300,-54.55704649
23.19350,-57.30379616
23.19400,-51.50510241
23.19450,-42.04407577
23.19500,-31.97266032
23.19550,-20.98566164
23.19600,-9.998662964
23.19650,-1.148025141
23.19700,4.04027979
23.19750,7.092223867
23.19800,9.228584721
23.19850,11.05975117
23.19900,11.97533439
23.19950,11.05975117
23.20000,8.313001498
23.20050,6.787029459
23.20100,10.75455676
23.20150,19.91038899
23.20200,28.150638
23.20250,29.67661004
23.20300,23.87791629
23.20350,17.46883373
23.20400,13.80650084
23.20450,11.36494557
23.20500,6.481835052
23.20550,1.903918936
23.20600,2.514307752
23.20650,8.00780709
23.20700,10.75455676
23.20750,4.955863013
23.20800,-5.115552441
23.20850,-12.44021823
23.20900,-13.96619026
23.20950,-14.57657908
23.21000,-15.79735671
23.21050,-15.1869679
23.21100,-13.05060704
23.21150,-13.66099586
23.21200,-17.93371756
23.21250,-18.23891197
23.21300,-8.167496518
23.21350,9.228584721
23.21400,24.48830511
23.21450,30.59219326
23.21500,29.37141563
23.21550,24.79349951
23.21600,19.30000018
23.21650,13.19611202
23.21700,7.702612683
23.21750,4.04027979
23.21800,1.598724528
23.21850,0.07275248999
23.21900,0.3779468977
23.21950,2.514307752
23.22000,5.566251829
23.22050,8.00780709
23.22100,9.228584721
23.22150,9.838973536
23.22200,9.533779129
23.22250,8.00780709
23.22300,5.566251829
23.22350,3.429890975
23.22400,2.514307752
23.22450,2.819502159
23.22500,4.04027979
23.22550,5.566251829
23.22600,6.481835052
23.22650,6.176640644
23.22700,4.650668606
23.22750,3.124696567
23.22800,2.209113344
23.22850,1.598724528
23.22900,1.293530121
23.22950,0.9883357131
23.23000,-0.2324419177
23.23050,-2.673997179
23.23100,-6.336330072
23.23150,-8.167496518
23.23200,-6.946718887
23.23250,-5.115552441
23.23300,-3.89477481
23.23350,-2.063608364
23.23400,2.209113344
23.23450,6.481835052
23.23500,5.871446236
23.23550,3.124696567
23.23600,5.261057421
23.23650,15.02727847
23.23700,25.40388833
23.23750,29.67661004
23.23800,25.70908274
23.23850,15.63766728
23.23900,0.6831413054
23.23950,-12.13502382
23.24000,-12.74541263
23.24050,0.07275248999
23.24100,12.58572321
23.24150,12.58572321
23.24200,5.566251829
23.24250,4.345474198
23.24300,7.702612683
23.24350,3.124696567
23.24400,-7.86230211
23.24450,-13.35580145
23.24500,-14.27138467
23.24550,-28.31032743
23.24600,-61.27132346
23.24650,-85.68687607
23.24700,-71.34273891
23.24750,-24.95318894
23.24800,14.72208406
23.24850,22.65713866
23.24900,8.923390313
23.24950,-0.5376363254
23.25000,1.903918936
23.25050,8.313001498
23.25100,11.67013998
23.25150,12.89091761
23.25200,12.58572321
23.25250,7.397418275
23.25300,-2.368802772
23.25350,-8.167496518
23.25400,-2.673997179
23.25450,8.313001498
23.25500,13.80650084
23.25550,8.618195906
23.25600,1.293530121
23.25650,1.903918936
23.25700,10.44936235
23.25750,16.55325051
23.25800,9.838973536
23.25850,-9.693468556
23.25900,-31.97266032
23.25950,-43.87524222
23.26000,-41.73888137
23.26050,-32.88824354
23.26100,-24.34280013
23.26150,-18.23891197
23.26200,-13.66099586
23.26250,-15.1869679
23.26300,-25.25838335
23.26350,-37.77135406
23.26400,-42.04407577
23.26450,-34.71940999
23.26500,-23.73241131
23.26550,-16.40774553
23.26600,-12.44021823
23.26650,-8.167496518
23.26700,-3.589580402
23.26750,-1.758413956
23.26800,-2.368802772
23.26850,-1.148025141
23.26900,2.209113344
23.26950,7.092223867
23.27000,11.05975117
23.27050,13.80650084
23.27100,14.72208406
23.27150,14.41688965
23.27200,14.11169524
23.27250,16.2480561
23.27300,20.2155834
23.27350,22.35194425
23.27400,20.82597221
23.27450,18.07922254
23.27500,17.16363932
23.27550,18.07922254
23.27600,17.77402814
23.27650,15.33247288
23.27700,13.80650084
23.27750,15.63766728
23.27800,18.68961136
23.27850,19.60519458
23.27900,18.38441695
23.27950,16.55325051
23.28000,15.94286169
23.28050,15.33247288
23.28100,14.72208406
23.28150,14.11169524
23.28200,12.89091761
23.28250,9.838973536
23.28300,6.176640644
23.28350,1.903918936
23.28400,-2.979191587
23.28450,-7.86230211
23.28500,-9.998662964
23.28550,-6.946718887
23.28600,-1.453219549
23.28650,1.598724528
23.28700,0.07275248999
23.28750,-3.89477481
23.28800,-7.557107703
23.28850,-7.251913295
23.28900,-0.5376363254
23.28950,10.44936235
23.29000,22.04674984
23.29050,29.06622122
23.29100,29.37141563
23.29150,23.26752748
23.29200,14.41688965
23.29250,7.702612683
23.29300,6.176640644
23.29350,6.481835052
23.29400,1.598724528
23.29450,-9.083079741
23.29500,-17.01813434
23.29550,-14.88177349
23.29600,-6.641524479
23.29650,-0.8428307331
23.29700,0.07275248999
23.29750,1.293530121
23.29800,3.124696567
23.29850,2.819502159
23.29900,-0.2324419177
23.29950,-1.453219549
23.30000,-0.5376363254
23.30050,-2.979191587
23.30100,-11.524635
23.30150,-19.76488401
23.30200,-19.76488401
23.30250,-13.05060704
23.30300,-6.031135664
23.30350,-2.979191587
23.30400,-2.368802772
23.30450,-2.368802772
23.30500,-2.673997179
23.30550,-3.589580402
23.30600,-3.284385995
23.30650,-1.148025141
23.30700,0.9883357131
23.30750,-0.2324419177
23.30800,-6.031135664
23.30850,-13.66099586
23.30900,-17.93371756
23.30950,-16.40774553
23.31000,-12.44021823
23.31050,-9.998662964
23.31100,-9.998662964
23.31150,-10.60905178
23.31200,-9.388274149
23.31250,-6.336330072
23.31300,-2.368802772
23.31350,0.6831413054
23.31400,1.293530121
23.31450,-1.148025141
23.31500,-5.725941256
23.31550,-7.86230211
23.31600,-6.641524479
23.31650,-3.89477481
23.31700,-2.979191587
23.31750,-3.89477481
23.31800,-3.589580402
23.31850,-0.5376363254
23.31900,2.819502159
23.31950,4.04027979
23.32000,4.04027979
23.32050,5.566251829
23.32100,8.618195906
23.32150,8.923390313
23.32200,6.481835052
23.32250,4.650668606
23.32300,6.176640644
23.32350,8.923390313
23.32400,9.838973536
23.32450,8.923390313
23.32500,7.702612683
23.32550,5.871446236
23.32600,3.429890975
23.32650,1.598724528
23.32700,-0.2324419177
23.32750,-3.589580402
23.32800,-5.725941256
23.32850,-0.5376363254
23.32900,11.05975117
23.32950,18.68961136
23.33000,16.2480561
23.33050,11.36494557
23.33100,13.50130643
23.33150,18.38441695
23.33200,14.72208406
23.33250,3.124696567
23.33300,-6.946718887
23.33350,-14.88177349
23.33400,-28.61552183
23.33450,-45.70640867
23.33500,-51.50510241
23.33550,-40.51810373
23.33600,-27.69993861
23.33650,-26.47916098
23.33700,-28.61552183
23.33750,-17.01813434
23.33800,7.702612683
23.33850,31.20258208
23.33900,45.54671924
23.33950,53.48177384
23.34000,54.09216265
23.34050,39.74802549
23.34100,14.41688965
23.34150,-3.284385995
23.34200,-5.115552441
23.34250,-5.115552441
23.34300,-18.84930079
23.34350,-40.82329814
23.34400,-51.50510241
23.34450,-45.70640867
23.34500,-37.16096525
23.34550,-35.63499321
23.34600,-37.16096525
23.34650,-33.49863236
23.34700,-24.64799453
23.34750,-13.96619026
23.34800,-0.2324419177
23.34850,15.02727847
23.34900,24.79349951
23.34950,23.26752748
23.35000,16.85844491
23.35050,13.19611202
23.35100,10.14416794
23.35150,0.3779468977
23.35200,-12.13502382
23.35250,-17.62852316
23.35300,-16.71293993
23.35350,-20.98566164
23.35400,-34.10902117
23.35450,-43.57004781
23.35500,-37.46615966
23.35550,-22.20643927
23.35600,-11.82982941
23.35650,-10.30385737
23.35700,-13.66099586
23.35750,-16.40774553
23.35800,-13.66099586
23.35850,1.293530121
23.35900,29.06622122
23.35950,56.53371791
23.36000,68.43629982
23.36050,62.63760607
23.36100,46.46230246
23.36150,26.92986037
23.36200,7.397418275
23.36250,-5.725941256
23.36300,-6.336330072
23.36350,2.819502159
23.36400,11.36494557
23.36450,12.58572321
23.36500,8.923390313
23.36550,6.176640644
23.36600,5.871446236
23.36650,6.176640644
23.36700,5.871446236
23.36750,5.261057421
23.36800,2.819502159
23.36850,-1.148025141
23.36900,-7.251913295
23.36950,-11.82982941
23.37000,-12.44021823
23.37050,-8.777885333
23.37100,-4.505163626
23.37150,-2.979191587
23.37200,-3.284385995
23.37250,-2.673997179
23.37300,-0.8428307331
23.37350,-0.2324419177
23.37400,-0.5376363254
23.37450,0.3779468977
23.37500,2.209113344
23.37550,3.429890975
23.37600,4.650668606
23.37650,9.533779129
23.37700,17.16363932
23.37750,20.82597221
23.37800,18.38441695
23.37850,15.02727847
23.37900,14.41688965
23.37950,14.72208406
23.38000,11.97533439
23.38050,8.313001498
23.38100,6.787029459
23.38150,7.702612683
23.38200,7.702612683
23.38250,7.092223867
23.38300,5.871446236
23.38350,3.735085382
23.38400,0.6831413054
23.38450,-1.758413956
23.38500,-2.368802772
23.38550,-0.8428307331
23.38600,-0.2324419177
23.38650,-0.2324419177
23.38700,-1.148025141
23.38750,-0.8428307331
23.38800,-0.2324419177
23.38850,-0.2324419177
23.38900,-2.673997179
23.38950,-6.641524479
23.39000,-6.031135664
23.39050,1.293530121
23.39100,11.67013998
23.39150,14.72208406
23.39200,9.533779129
23.39250,4.04027979
23.39300,5.871446236
23.39350,11.05975117
23.39400,12.58572321
23.39450,10.14416794
23.39500,9.228584721
23.39550,11.05975117
23.39600,10.44936235
23.39650,4.955863013
23.39700,-0.8428307331
23.39750,-2.368802772
23.39800,-1.453219549
23.39850,-2.063608364
23.39900,-4.199969218
23.39950,-2.979191587
23.40000,2.819502159
23.40050,9.533779129
23.40100,11.97533439
23.40150,9.228584721
23.40200,4.955863013
23.40250,0.3779468977
23.40300,-3.589580402
23.40350,-7.251913295
23.40400,-9.083079741
23.40450,-8.167496518
23.40500,-6.031135664
23.40550,-4.810358033
23.40600,-4.505163626
23.40650,-3.89477481
23.40700,-2.979191587
23.40750,-2.673997179
23.40800,-4.505163626
23.40850,-8.167496518
23.40900,-10.60905178
23.40950,-9.388274149
23.41000,-6.031135664
23.41050,-3.89477481
23.41100,-4.505163626
23.41150,-6.336330072
23.41200,-6.946718887
23.41250,-6.336330072
23.41300,-6.031135664
23.41350,-5.420746849
23.41400,-4.199969218
23.41450,-2.673997179
23.41500,-3.589580402
23.41550,-5.725941256
23.41600,-6.641524479
23.41650,-5.725941256
23.41700,-4.505163626
23.41750,-3.89477481
23.41800,-2.673997179
23.41850,-0.2324419177
23.41900,2.819502159
23.41950,7.092223867
23.42000,13.50130643
23.42050,22.04674984
23.42100,28.150638
23.42150,29.06622122
23.42200,25.40388833
23.42250,18.99480577
23.42300,11.36494557
23.42350,1.293530121
23.42400,-9.693468556
23.42450,-21.59605046
23.42500,-32.58304913
23.42550,-41.43368696
23.42600,-45.40121426
23.42650,-41.12849255
23.42700,-29.22591065
23.42750,-13.35580145
23.42800,0.6831413054
23.42850,9.533779129
23.42900,11.97533439
23.42950,9.838973536
23.43000,4.650668606
23.43050,-1.148025141
23.43100,-5.725941256
23.43150,-7.251913295
23.43200,-9.083079741
23.43250,-18.23891197
23.43300,-34.71940999
23.43350,-48.45315833
23.43400,-48.45315833
23.43450,-35.63499321
23.43500,-22.20643927
23.43550,-14.57657908
23.43600,-9.388274149
23.43650,-0.2324419177
23.43700,11.97533439
23.43750,23.26752748
23.43800,30.89738767
23.43850,33.03374852
23.43900,25.70908274
23.43950,9.533779129
23.44000,-6.031135664
23.44050,-13.96619026
23.44100,-16.71293993
23.44150,-22.81682809
23.44200,-31.97266032
23.44250,-35.63499321
23.44300,-31.0570771
23.44350,-24.95318894
23.44400,-24.64799453
23.44450,-27.3947442
23.44500,-26.78435539
23.44550,-20.07007842
23.44600,-9.693468556
23.44650,0.6831413054
23.44700,8.923390313
23.44750,11.67013998
23.44800,7.702612683
23.44850,-0.8428307331
23.44900,-10.30385737
23.44950,-14.57657908
23.45000,-8.167496518
23.45050,4.650668606
23.45100,11.97533439
23.45150,2.209113344
23.45200,-17.93371756
23.45250,-26.17396657
23.45300,-8.472690926
23.45350,22.96233307
23.45400,44.63113601
23.45450,44.93633042
23.45500,33.94933174
23.45550,24.1831107
23.45600,18.38441695
23.45650,13.50130643
23.45700,9.228584721
23.45750,8.618195906
23.45800,10.75455676
23.45850,11.36494557
23.45900,8.923390313
23.45950,7.397418275
23.46000,11.05975117
23.46050,18.99480577
23.46100,24.79349951
23.46150,23.57272188
23.46200,17.77402814
23.46250,13.80650084
23.46300,14.11169524
23.46350,17.16363932
23.46400,21.43636103
23.46450,25.70908274
23.46500,26.31947155
23.46550,21.43636103
23.46600,16.55325051
23.46650,18.38441695
23.46700,26.62466596
23.46750,30.89738767
23.46800,26.31947155
23.46850,16.85844491
23.46900,9.228584721
23.46950,3.735085382
23.47000,-2.063608364
23.47050,-8.472690926
23.47100,-13.96619026
23.47150,-16.40774553
23.47200,-14.88177349
23.47250,-7.251913295
23.47300,2.514307752
23.47350,9.228584721
23.47400,12.58572321
23.47450,18.38441695
23.47500,28.45583241
23.47550,35.17010938
23.47600,31.50777648
23.47650,20.52077781
23.47700,11.05975117
23.47750,5.566251829
23.47800,1.293530121
23.47850,-2.368802772
23.47900,-7.86230211
23.47950,-17.93371756
23.48000,-34.41421558
23.48050,-48.45315833
23.48100,-49.36874156
23.48150,-38.07654847
23.48200,-25.25838335
23.48250,-17.01813434
23.48300,-9.693468556
23.48350,-1.148025141
23.48400,4.650668606
23.48450,3.735085382
23.48500,-0.2324419177
23.48550,-2.368802772
23.48600,-1.453219549
23.48650,-1.453219549
23.48700,-3.89477481
23.48750,-6.946718887
23.48800,-7.557107703
23.48850,-6.641524479
23.48900,-6.336330072
23.48950,-7.557107703
23.49000,-9.083079741
23.49050,-8.472690926
23.49100,-4.810358033
23.49150,-0.2324419177
23.49200,3.735085382
23.49250,3.735085382
23.49300,-0.2324419177
23.49350,-4.810358033
23.49400,-5.420746849
23.49450,0.07275248999
23.49500,9.533779129
23.49550,16.2480561
23.49600,18.07922254
23.49650,16.2480561
23.49700,13.80650084
23.49750,11.36494557
23.49800,8.00780709
23.49850,2.819502159
23.49900,-6.336330072
23.49950,-17.93371756
23.50000,-24.34280013
23.50050,-19.76488401
23.50100,-6.336330072
23.50150,4.955863013
23.50200,8.313001498
23.50250,6.176640644
23.50300,5.261057421
23.50350,8.923390313
23.50400,16.85844491
23.50450,25.70908274
23.50500,28.76102681
23.50550,20.2155834
23.50600,4.650668606
23.50650,-6.336330072
23.50700,-7.251913295
23.50750,-3.589580402
23.50800,-1.758413956
23.50850,-3.589580402
23.50900,-12.13502382
23.50950,-30.75188269
23.51000,-54.8622409
23.51050,-65.54404517
23.51100,-49.97913037
23.51150,-18.23891197
23.51200,8.313001498
23.51250,21.74155544
23.51300,26.62466596
23.51350,27.84544359
23.51400,24.79349951
23.51450,18.07922254
23.51500,12.89091761
23.51550,8.618195906
23.51600,0.9883357131
23.51650,-10.60905178
23.51700,-20.07007842
23.51750,-24.03760572
23.51800,-26.47916098
23.51850,-31.0570771
23.51900,-35.94018762
23.51950,-37.46615966
23.52000,-35.63499321
23.52050,-29.53110506
23.52100,-18.84930079
23.52150,-6.641524479
23.52200,-0.2324419177
23.52250,-1.148025141
23.52300,-4.505163626
23.52350,-5.115552441
23.52400,-2.979191587
23.52450,-1.758413956
23.52500,-0.8428307331
23.52550,2.209113344
23.52600,6.176640644
23.52650,8.00780709
23.52700,7.092223867
23.52750,6.787029459
23.52800,8.00780709
23.52850,9.533779129
23.52900,10.44936235
23.52950,10.75455676
23.53000,9.838973536
23.53050,6.481835052
23.53100,1.598724528
23.53150,-2.063608364
23.53200,-4.199969218
23.53250,-5.420746849
23.53300,-7.251913295
23.53350,-9.388274149
23.53400,-9.998662964
23.53450,-8.167496518
23.53500,-5.725941256
23.53550,-4.199969218
23.53600,-4.199969218
23.53650,-4.505163626
23.53700,-2.979191587
23.53750,1.598724528
23.53800,7.397418275
23.53850,11.05975117
23.53900,11.67013998
23.53950,10.44936235
23.54000,8.923390313
23.54050,6.481835052
23.54100,3.429890975
23.54150,0.9883357131
23.54200,0.07275248999
23.54250,0.3779468977
23.54300,0.6831413054
23.54350,1.598724528
23.54400,4.04027979
23.54450,6.481835052
23.54500,7.092223867
23.54550,5.566251829
23.54600,4.04027979
23.54650,3.735085382
23.54700,4.04027979
23.54750,4.04027979
23.54800,4.955863013
23.54850,6.481835052
23.54900,6.787029459
23.54950,4.955863013
23.55000,1.903918936
23.55050,0.07275248999
23.55100,0.3779468977
23.55150,0.6831413054
23.55200,-0.2324419177
23.55250,-1.148025141
23.55300,-1.453219549
23.55350,-1.148025141
23.55400,-0.5376363254
23.55450,0.3779468977
23.55500,1.598724528
23.55550,2.819502159
23.55600,3.429890975
23.55650,3.429890975
23.55700,2.819502159
23.55750,1.598724528
23.55800,0.07275248999
23.55850,-2.673997179
23.55900,-6.336330072
23.55950,-9.083079741
23.56000,-9.388274149
23.56050,-7.557107703
23.56100,-7.251913295
23.56150,-9.083079741
23.56200,-9.083079741
23.56250,-5.115552441
23.56300,-1.453219549
23.56350,-0.8428307331
23.56400,0.3779468977
23.56450,6.787029459
23.56500,15.33247288
23.56550,18.07922254
23.56600,13.50130643
23.56650,8.313001498
23.56700,6.787029459
23.56750,9.228584721
23.56800,14.41688965
23.56850,21.43636103
23.56900,26.01427714
23.56950,22.96233307
23.57000,14.11169524
23.57050,6.176640644
23.57100,3.735085382
23.57150,3.429890975
23.57200,2.819502159
23.57250,3.124696567
23.57300,4.04027979
23.57350,2.819502159
23.57400,-1.758413956
23.57450,-6.336330072
23.57500,-6.946718887
23.57550,-5.420746849
23.57600,-5.420746849
23.57650,-5.725941256
23.57700,-2.673997179
23.57750,5.261057421
23.57800,15.02727847
23.57850,21.13116662
23.57900,20.2155834
23.57950,13.50130643
23.58000,6.481835052
23.58050,2.819502159
23.58100,1.903918936
23.58150,2.209113344
23.58200,2.819502159
23.58250,0.6831413054
23.58300,-8.472690926
23.58350,-25.56357776
23.58400,-41.73888137
23.58450,-47.53757511
23.58500,-42.04407577
23.58550,-30.14149387
23.58600,-18.23891197
23.58650,-12.74541263
23.58700,-16.71293993
23.58750,-27.69993861
23.58800,-36.24538203
23.58850,-38.68693729
23.58900,-40.51810373
23.58950,-44.79082544
23.59000,-45.40121426
23.59050,-35.3297988
23.59100,-18.23891197
23.59150,-3.284385995
23.59200,6.176640644
23.59250,14.72208406
23.59300,26.31947155
23.59350,40.66360871
23.59400,55.00774588
23.59450,62.33241166
23.59500,57.44930114
23.59550,42.79996957
23.59600,30.59219326
23.59650,25.70908274
23.59700,21.13116662
23.59750,8.313001498
23.59800,-8.777885333
23.59850,-21.59605046
23.59900,-28.61552183
23.59950,-31.3622715
23.60000,-26.78435539
23.60050,-10.60905178
23.60100,10.14416794
23.60150,24.48830511
23.60200,27.84544359
23.60250,27.54024918
23.60300,26.92986037
23.60350,23.26752748
23.60400,16.85844491
23.60450,15.02727847
23.60500,20.82597221
23.60550,24.1831107
23.60600,13.50130643
23.60650,-8.472690926
23.60700,-28.00513302
23.60750,-31.97266032
23.60800,-20.68046723
23.60850,-5.725941256
23.60900,2.209113344
23.60950,-0.8428307331
23.61000,-12.74541263
23.61050,-25.56357776
23.61100,-32.88824354
23.61150,-30.14149387
23.61200,-19.76488401
23.61250,-7.251913295
23.61300,-0.5376363254
23.61350,-3.89477481
23.61400,-14.88177349
23.61450,-26.47916098
23.61500,-32.88824354
23.61550,-31.97266032
23.61600,-25.86877216
23.61650,-19.1544952
23.61700,-14.88177349
23.61750,-12.13502382
23.61800,-7.251913295
23.61850,1.598724528
23.61900,11.36494557
23.61950,16.55325051
23.62000,16.85844491
23.62050,15.33247288
23.62100,15.33247288
23.62150,15.63766728
23.62200,13.80650084
23.62250,10.14416794
23.62300,6.787029459
23.62350,5.261057421
23.62400,6.176640644
23.62450,8.923390313
23.62500,9.838973536
23.62550,8.00780709
23.62600,6.176640644
23.62650,7.702612683
23.62700,9.533779129
23.62750,5.566251829
23.62800,-0.2324419177
23.62850,0.9883357131
23.62900,10.14416794
23.62950,15.33247288
23.63000,8.313001498
23.63050,-0.5376363254
23.63100,-0.2324419177
23.63150,6.176640644
23.63200,6.787029459
23.63250,0.07275248999
23.63300,-3.284385995
23.63350,-0.2324419177
23.63400,5.261057421
23.63450,8.00780709
23.63500,9.533779129
23.63550,10.75455676
23.63600,9.838973536
23.63650,5.871446236
23.63700,2.209113344
23.63750,0.3779468977
23.63800,-0.5376363254
23.63850,-2.673997179
23.63900,-4.810358033
23.63950,-6.946718887
23.64000,-8.167496518
23.64050,-5.420746849
23.64100,1.598724528
23.64150,8.923390313
23.64200,12.2805288
23.64250,13.80650084
23.64300,17.77402814
23.64350,21.13116662
23.64400,18.07922254
23.64450,10.44936235
23.64500,4.650668606
23.64550,2.819502159
23.64600,0.07275248999
23.64650,-4.199969218
23.64700,-7.251913295
23.64750,-6.641524479
23.64800,-5.420746849
23.64850,-5.725941256
23.64900,-7.557107703
23.64950,-8.777885333
23.65000,-9.083079741
23.65050,-8.472690926
23.65100,-7.557107703
23.65150,-7.557107703
23.65200,-8.167496518
23.65250,-7.557107703
23.65300,-4.810358033
23.65350,-2.979191587
23.65400,-3.89477481
23.65450,-1.758413956
23.65500,6.481835052
23.65550,16.2480561
23.65600,18.68961136
23.65650,12.58572321
23.65700,5.871446236
23.65750,3.429890975
23.65800,2.514307752
23.65850,0.9883357131
23.65900,0.07275248999
23.65950,0.6831413054
23.66000,0.9883357131
23.66050,0.6831413054
23.66100,0.6831413054
23.66150,0.9883357131
23.66200,0.07275248999
23.66250,-1.148025141
23.66300,-2.368802772
23.66350,-4.199969218
23.66400,-6.641524479
23.66450,-8.167496518
23.66500,-6.946718887
23.66550,-5.115552441
23.66600,-4.810358033
23.66650,-4.505163626
23.66700,-0.5376363254
23.66750,4.650668606
23.66800,6.481835052
23.66850,5.566251829
23.66900,5.871446236
23.66950,6.787029459
23.67000,4.04027979
23.67050,-2.063608364
23.67100,-6.641524479
23.67150,-8.167496518
23.67200,-11.82982941
23.67250,-21.29085605
23.67300,-30.75188269
23.67350,-34.41421558
23.67400,-34.10902117
23.67450,-33.80382676
23.67500,-32.58304913
23.67550,-26.17396657
23.67600,-15.79735671
23.67650,-7.557107703
23.67700,-3.589580402
23.67750,-1.148025141
23.67800,1.903918936
23.67850,5.566251829
23.67900,8.923390313
23.67950,12.2805288
23.68000,15.02727847
23.68050,15.94286169
23.68100,13.50130643
23.68150,8.618195906
23.68200,3.124696567
23.68250,-1.148025141
23.68300,-3.284385995
23.68350,-4.199969218
23.68400,-5.420746849
23.68450,-7.557107703
23.68500,-9.083079741
23.68550,-8.472690926
23.68600,-6.336330072
23.68650,-5.725941256
23.68700,-6.946718887
23.68750,-8.777885333
23.68800,-7.557107703
23.68850,-1.758413956
23.68900,8.00780709
23.68950,18.99480577
23.69000,28.150638
23.69050,34.25452615
23.69100,35.17010938
23.69150,29.98180444
23.69200,20.2155834
23.69250,11.67013998
23.69300,7.092223867
23.69350,2.819502159
23.69400,-6.641524479
23.69450,-20.07007842
23.69500,-29.22591065
23.69550,-29.53110506
23.69600,-25.56357776
23.69650,-22.51163368
23.69700,-19.4596896
23.69750,-13.66099586
23.69800,-5.420746849
23.69850,1.293530121
23.69900,4.650668606
23.69950,5.566251829
23.70000,4.04027979
23.70050,1.293530121
23.70100,-0.2324419177
23.70150,0.6831413054
23.70200,3.124696567
23.70250,1.903918936
23.70300,-3.589580402
23.70350,-9.388274149
23.70400,-9.083079741
23.70450,-2.368802772
23.70500,4.345474198
23.70550,5.871446236
23.70600,2.209113344
23.70650,-0.2324419177
23.70700,0.6831413054
23.70750,2.209113344
23.70800,1.903918936
23.70850,1.293530121
23.70900,3.429890975
23.70950,4.955863013
23.71000,3.429890975
23.71050,2.209113344
23.71100,8.923390313
23.71150,23.26752748
23.71200,37.00127582
23.71250,42.49477516
23.71300,39.44283108
23.71350,31.50777648
23.71400,22.04674984
23.71450,14.41688965
23.71500,9.533779129
23.71550,3.429890975
23.71600,-5.725941256
23.71650,-12.74541263
23.71700,-9.998662964
23.71750,-0.8428307331
23.71800,1.903918936
23.71850,-4.505163626
23.71900,-9.998662964
23.71950,-2.368802772
23.72000,10.44936235
23.72050,11.05975117
23.72100,-5.115552441
23.72150,-21.29085605
23.72200,-19.4596896
23.72250,-5.115552441
23.72300,3.735085382
23.72350,-0.5376363254
23.72400,-12.13502382
23.72450,-24.03760572
23.72500,-35.94018762
23.72550,-45.40121426
23.72600,-45.70640867
23.72650,-34.71940999
23.72700,-24.34280013
23.72750,-28.92071624
23.72800,-45.70640867
23.72850,-58.8297682
23.72900,-55.77782412
23.72950,-38.68693729
23.73000,-17.32332875
23.73050,0.6831413054
23.73100,13.50130643
23.73150,21.13116662
23.73200,24.1831107
23.73250,23.87791629
23.73300,22.65713866
23.73350,21.74155544
23.73400,19.91038899
23.73450,16.2480561
23.73500,12.89091761
23.73550,16.55325051
23.73600,27.23505478
23.73650,37.00127582
23.73700,36.39088701
23.73750,27.54024918
23.73800,18.99480577
23.73850,15.94286169
23.73900,14.11169524
23.73950,9.838973536
23.74000,5.261057421
23.74050,1.598724528
23.74100,-2.368802772
23.74150,-7.251913295
23.74200,-9.998662964
23.74250,-9.693468556
23.74300,-7.557107703
23.74350,-2.673997179
23.74400,7.092223867
23.74450,19.30000018
23.74500,24.48830511
23.74550,20.82597221
23.74600,17.46883373
23.74650,22.04674984
23.74700,29.98180444
23.74750,31.81297089
23.74800,26.01427714
23.74850,19.91038899
23.74900,16.85844491
23.74950,13.80650084
23.75000,8.923390313
23.75050,5.871446236
23.75100,8.00780709
23.75150,12.58572321
23.75200,13.19611202
23.75250,9.228584721
23.75300,7.397418275
23.75350,12.89091761
23.75400,20.52077781
23.75450,23.87791629
23.75500,22.65713866
23.75550,20.52077781
23.75600,13.50130643
23.75650,-6.031135664
23.75700,-36.24538203
23.75750,-59.44015701
23.75800,-62.18690668
23.75850,-50.28432478
23.75900,-40.51810373
23.75950,-39.2973261
23.76000,-40.21290933
23.76050,-35.0246044
23.76100,-24.64799453
23.76150,-13.05060704
23.76200,-3.589580402
23.76250,2.209113344
23.76300,4.345474198
23.76350,3.735085382
23.76400,2.819502159
23.76450,2.514307752
23.76500,1.598724528
23.76550,-0.8428307331
23.76600,-4.810358033
23.76650,-7.251913295
23.76700,-6.031135664
23.76750,-2.063608364
23.76800,0.3779468977
23.76850,-0.5376363254
23.76900,-4.505163626
23.76950,-7.557107703
23.77000,-8.167496518
23.77050,-6.336330072
23.77100,-4.199969218
23.77150,-2.673997179
23.77200,-1.758413956
23.77250,-0.5376363254
23.77300,0.6831413054
23.77350,2.209113344
23.77400,0.9883357131
23.77450,-1.148025141
23.77500,-1.453219549
23.77550,1.598724528
23.77600,5.566251829
23.77650,5.566251829
23.77700,4.04027979
23.77750,5.566251829
23.77800,11.36494557
23.77850,18.07922254
23.77900,25.09869392
23.77950,34.25452615
23.78000,47.07269128
23.78050,58.05968995
23.78100,60.19605081
23.78150,51.9558018
23.78200,38.52724786
23.78250,27.23505478
23.78300,16.85844491
23.78350,2.514307752
23.78400,-16.10255112
23.78450,-32.88824354
23.78500,-42.65446459
23.78550,-48.75835274
23.78600,-58.21937938
23.78650,-69.20637806
23.78700,-73.47909977
23.78750,-65.84923957
23.78800,-52.11549123
23.78850,-39.2973261
23.78900,-30.75188269
23.78950,-24.03760572
23.79000,-15.79735671
23.79050,-4.810358033
23.79100,4.650668606
23.79150,8.313001498
23.79200,6.176640644
23.79250,5.566251829
23.79300,11.67013998
23.79350,19.30000018
23.79400,19.60519458
23.79450,13.19611202
23.79500,7.397418275
23.79550,6.481835052
23.79600,6.481835052
23.79650,5.566251829
23.79700,4.955863013
23.79750,4.955863013
23.79800,3.429890975
23.79850,0.3779468977
23.79900,-0.5376363254
23.79950,-0.2324419177
23.80000,-1.148025141
23.80050,-5.115552441
23.80100,-8.167496518
23.80150,-8.167496518
23.80200,-6.946718887
23.80250,-5.420746849
23.80300,-0.2324419177
23.80350,8.618195906
23.80400,16.85844491
23.80450,20.52077781
23.80500,22.04674984
23.80550,24.48830511
23.80600,24.1831107
23.80650,18.68961136
23.80700,10.75455676
23.80750,5.261057421
23.80800,-1.453219549
23.80850,-16.71293993
23.80900,-36.55057643
23.80950,-46.62199189
23.81000,-39.2973261
23.81050,-23.73241131
23.81100,-12.74541263
23.81150,-9.388274149
23.81200,-6.946718887
23.81250,-0.5376363254
23.81300,8.313001498
23.81350,16.55325051
23.81400,21.43636103
23.81450,23.26752748
23.81500,21.74155544
23.81550,17.77402814
23.81600,11.36494557
23.81650,2.514307752
23.81700,-6.641524479
23.81750,-11.524635
23.81800,-9.998662964
23.81850,-4.505163626
23.81900,-1.148025141
23.81950,-0.8428307331
23.82000,-1.758413956
23.82050,-1.148025141
23.82100,-0.8428307331
23.82150,-1.453219549
23.82200,-2.673997179
23.82250,-2.979191587
23.82300,-2.673997179
23.82350,-2.063608364
23.82400,-2.368802772
23.82450,-3.589580402
23.82500,-6.031135664
23.82550,-9.998662964
23.82600,-13.96619026
23.82650,-14.27138467
23.82700,-7.86230211
23.82750,3.429890975
23.82800,15.33247288
23.82850,23.57272188
23.82900,29.98180444
23.82950,35.78049819
23.83000,37.61166464
23.83050,33.64413734
23.83100,28.150638
23.83150,25.40388833
23.83200,19.91038899
23.83250,3.735085382
23.83300,-21.90124486
23.83350,-46.62199189
23.83400,-63.71287872
23.83450,-74.39468299
23.83500,-78.36221029
23.83550,-69.51157247
23.83600,-47.53757511
23.83650,-22.81682809
23.83700,-8.472690926
23.83750,-4.810358033
23.83800,-3.89477481
23.83850,-1.453219549
23.83900,0.6831413054
23.83950,1.293530121
23.84000,0.9883357131
23.84050,0.9883357131
23.84100,0.3779468977
23.84150,-0.2324419177
23.84200,-0.2324419177
23.84250,1.598724528
23.84300,3.735085382
23.84350,4.955863013
23.84400,7.092223867
23.84450,12.89091761
23.84500,20.82597221
23.84550,25.40388833
23.84600,22.96233307
23.84650,16.2480561
23.84700,9.533779129
23.84750,3.735085382
23.84800,-2.673997179
23.84850,-8.472690926
23.84900,-9.998662964
23.84950,-9.693468556
23.85000,-16.10255112
23.85050,-30.44668828
23.85100,-39.60252051
23.85150,-31.0570771
23.85200,-8.777885333
23.85250,8.313001498
23.85300,10.14416794
23.85350,1.903918936
23.85400,-4.505163626
23.85450,-4.505163626
23.85500,-0.8428307331
23.85550,4.04027979
23.85600,10.44936235
23.85650,17.77402814
23.85700,24.1831107
23.85750,27.84544359
23.85800,29.37141563
23.85850,30.28699885
23.85900,33.33894293
23.85950,37.91685904
23.86000,39.44283108
23.86050,34.55972056
23.86100,24.79349951
23.86150,16.55325051
23.86200,14.11169524
23.86250,15.63766728
23.86300,15.02727847
23.86350,11.05975117
23.86400,8.618195906
23.86450,13.19611202
23.86500,22.96233307
23.86550,32.1181653
23.86600,34.86491497
23.86650,29.98180444
23.86700,20.2155834
23.86750,9.228584721
23.86800,0.3779468977
23.86850,-3.89477481
23.86900,-6.336330072
23.86950,-10.91424619
23.87000,-19.1544952
23.87050,-25.56357776
23.87100,-26.17396657
23.87150,-23.73241131
23.87200,-24.03760572
23.87250,-27.3947442
23.87300,-25.86877216
23.87350,-13.05060704
23.87400,8.923390313
23.87450,32.42335971
23.87500,47.9882745
23.87550,52.26099621
23.87600,45.24152483
23.87650,29.98180444
23.87700,10.44936235
23.87750,-5.725941256
23.87800,-12.13502382
23.87850,-9.388274149
23.87900,-12.13502382
23.87950,-37.77135406
23.88000,-81.41415437
23.88050,-112.543984
23.88100,-104.6089294
23.88150,-66.45962839
23.88200,-33.49863236
23.88250,-24.95318894
23.88300,-27.0895498
23.88350,-20.68046723
23.88400,-6.641524479
23.88450,0.6831413054
23.88500,0.9883357131
23.88550,6.481835052
23.88600,22.04674984
23.88650,38.52724786
23.88700,44.93633042
23.88750,39.74802549
23.88800,28.76102681
23.88850,19.60519458
23.88900,16.85844491
23.88950,18.68961136
23.89000,17.16363932
23.89050,9.838973536
23.89100,3.735085382
23.89150,6.481835052
23.89200,11.36494557
23.89250,5.566251829
23.89300,-11.21944059
23.89350,-26.47916098
23.89400,-28.00513302
23.89450,-17.62852316
23.89500,-5.115552441
23.89550,2.209113344
23.89600,3.429890975
23.89650,1.903918936
23.89700,1.903918936
23.89750,6.176640644
23.89800,11.36494557
23.89850,12.89091761
23.89900,11.05975117
23.89950,10.44936235
23.90000,11.36494557
23.90050,11.67013998
23.90100,9.838973536
23.90150,8.00780709
23.90200,7.702612683
23.90250,8.00780709
23.90300,6.481835052
23.90350,2.819502159
23.90400,-2.063608364
23.90450,-7.557107703
23.90500,-10.30385737
23.90550,-9.083079741
23.90600,-6.336330072
23.90650,-4.810358033
23.90700,-4.199969218
23.90750,-2.979191587
23.90800,-1.758413956
23.90850,-1.758413956
23.90900,-1.453219549
23.90950,0.3779468977
23.91000,2.514307752
23.91050,3.124696567
23.91100,2.209113344
23.91150,1.903918936
23.91200,1.598724528
23.91250,0.07275248999
23.91300,-0.8428307331
23.91350,-0.2324419177
23.91400,0.6831413054
23.91450,-0.2324419177
23.91500,-0.8428307331
23.91550,-0.2324419177
23.91600,1.598724528
23.91650,1.293530121
23.91700,-0.2324419177
23.91750,-0.2324419177
23.91800,0.6831413054
23.91850,-0.2324419177
23.91900,-3.589580402
23.91950,-5.115552441
23.92000,-2.368802772
23.92050,0.6831413054
23.92100,0.9883357131
23.92150,-0.5376363254
23.92200,-1.148025141
23.92250,-1.453219549
23.92300,-2.979191587
23.92350,-5.115552441
23.92400,-6.641524479
23.92450,-7.86230211
23.92500,-9.693468556
23.92550,-12.13502382
23.92600,-13.66099586
23.92650,-14.57657908
23.92700,-16.71293993
23.92750,-18.84930079
23.92800,-16.71293993
23.92850,-8.167496518
23.92900,2.819502159
23.92950,10.75455676
23.93000,13.80650084
23.93050,14.11169524
23.93100,13.19611202
23.93150,11.36494557
23.93200,8.923390313
23.93250,8.313001498
23.93300,9.838973536
23.93350,9.838973536
23.93400,5.261057421
23.93450,-0.2324419177
23.93500,0.9883357131
23.93550,8.618195906
23.93600,12.89091761
23.93650,4.650668606
23.93700,-10.60905178
23.93750,-20.07007842
23.93800,-18.54410638
23.93850,-13.35580145
23.93900,-11.82982941
23.93950,-10.91424619
23.94000,-4.505163626
23.94050,0.9883357131
23.94100,-3.284385995
23.94150,-17.01813434
23.94200,-26.47916098
23.94250,-22.81682809
23.94300,-11.82982941
23.94350,-3.589580402
23.94400,-0.8428307331
23.94450,0.07275248999
23.94500,1.598724528
23.94550,2.514307752
23.94600,4.04027979
23.94650,7.397418275
23.94700,10.14416794
23.94750,8.618195906
23.94800,3.124696567
23.94850,-1.148025141
23.94900,-3.284385995
23.94950,-4.505163626
23.95000,-6.946718887
23.95050,-8.167496518
23.95100,-4.810358033
23.95150,1.293530121
23.95200,6.176640644
23.95250,6.787029459
23.95300,4.955863013
23.95350,6.481835052
23.95400,14.11169524
23.95450,26.31947155
23.95500,37.00127582
23.95550,41.27399753
23.95600,37.91685904
23.95650,30.28699885
23.95700,22.65713866
23.95750,15.94286169
23.95800,8.923390313
23.95850,0.6831413054
23.95900,-6.946718887
23.95950,-13.66099586
23.96000,-19.1544952
23.96050,-25.56357776
23.96100,-32.27785473
23.96150,-37.16096525
23.96200,-37.46615966
23.96250,-33.49863236
23.96300,-26.78435539
23.96350,-19.4596896
23.96400,-13.35580145
23.96450,-10.30385737
23.96500,-9.083079741
23.96550,-6.336330072
23.96600,-0.2324419177
23.96650,9.228584721
23.96700,18.38441695
23.96750,26.62466596
23.96800,33.94933174
23.96850,37.91685904
23.96900,35.17010938
23.96950,24.79349951
23.97000,11.05975117
23.97050,-0.2324419177
23.97100,-6.031135664
23.97150,-9.388274149
23.97200,-14.88177349
23.97250,-22.20643927
23.97300,-25.56357776
23.97350,-20.68046723
23.97400,-10.30385737
23.97450,-0.5376363254
23.97500,8.923390313
23.97550,24.1831107
23.97600,41.88438635
23.97650,46.76749687
23.97700,26.31947155
23.97750,-9.388274149
23.97800,-33.19343795
23.97850,-24.03760572
23.97900,7.702612683
23.97950,34.55972056
23.98000,39.13763668
23.98050,27.54024918
23.98100,10.44936235
23.98150,-8.167496518
23.98200,-28.00513302
23.98250,-40.21290933
23.98300,-36.24538203
23.98350,-24.64799453
23.98400,-23.1220225
23.98450,-35.0246044
23.98500,-44.18043663
23.98550,-35.3297988
23.98600,-14.88177349
23.98650,-0.8428307331
23.98700,-1.453219549
23.98750,-8.167496518
23.98800,-11.21944059
23.98850,-8.777885333
23.98900,-4.810358033
23.98950,-1.758413956
23.99000,-0.5376363254
23.99050,-1.148025141
23.99100,-3.284385995
23.99150,-5.115552441
23.99200,-5.420746849
23.99250,-6.641524479
23.99300,-10.91424619
23.99350,-17.62852316
23.99400,-23.1220225
23.99450,-23.73241131
23.99500,-19.76488401
23.99550,-14.27138467
23.99600,-8.777885333
23.99650,-3.589580402
23.99700,2.514307752
23.99750,10.44936235
23.99800,18.68961136
23.99850,26.62466596
23.99900,32.72855411
23.99950,36.39088701
24.00000,35.47530378
24.00050,29.98180444
24.00100,22.35194425
24.00150,16.85844491
24.00200,14.72208406
24.00250,14.11169524
24.00300,12.89091761
24.00350,11.05975117
24.00400,8.00780709
24.00450,2.209113344
24.00500,-5.420746849
24.00550,-10.91424619
24.00600,-9.388274149
24.00650,-2.673997179
24.00700,3.124696567
24.00750,5.871446236
24.00800,6.787029459
24.00850,7.702612683
24.00900,8.00780709
24.00950,8.313001498
24.01000,11.67013998
24.01050,18.99480577
24.01100,26.31947155
24.01150,29.67661004
24.01200,30.59219326
24.01250,30.28699885
24.01300,26.31947155
24.01350,17.77402814
24.01400,11.67013998
24.01450,18.38441695
24.01500,35.17010938
24.01550,44.0207472
24.01600,30.89738767
24.01650,-0.8428307331
24.01700,-31.66746591
24.01750,-42.65446459
24.01800,-30.75188269
24.01850,-12.13502382
24.01900,-7.251913295
24.01950,-22.51163368
24.02000,-46.01160307
24.02050,-60.35574023
24.02100,-59.1349626
24.02150,-48.45315833
24.02200,-34.41421558
24.02250,-19.4596896
24.02300,-6.946718887
24.02350,-1.758413956
24.02400,-3.284385995
24.02450,-5.115552441
24.02500,-2.368802772
24.02550,1.293530121
24.02600,1.903918936
24.02650,1.903918936
24.02700,6.176640644
24.02750,13.19611202
24.02800,17.46883373
24.02850,16.2480561
24.02900,12.89091761
24.02950,10.75455676
24.03000,9.533779129
24.03050,7.702612683
24.03100,4.650668606
24.03150,1.598724528
24.03200,-0.2324419177
24.03250,-0.5376363254
24.03300,0.3779468977
24.03350,1.293530121
24.03400,0.6831413054
24.03450,-0.2324419177
24.03500,-0.2324419177
24.03550,0.07275248999
24.03600,-1.148025141
24.03650,-4.199969218
24.03700,-5.725941256
24.03750,-4.199969218
24.03800,-1.453219549
24.03850,-1.148025141
24.03900,-2.979191587
24.03950,-5.115552441
24.04000,-5.420746849
24.04050,-5.115552441
24.04100,-4.810358033
24.04150,-3.589580402
24.04200,-0.5376363254
24.04250,3.124696567
24.04300,5.871446236
24.04350,6.787029459
24.04400,5.566251829
24.04450,4.04027979
24.04500,2.819502159
24.04550,2.514307752
24.04600,1.903918936
24.04650,-0.2324419177
24.04700,-2.063608364
24.04750,-3.284385995
24.04800,-3.589580402
24.04850,-4.199969218
24.04900,-5.115552441
24.04950,-5.420746849
24.05000,-3.89477481
24.05050,-1.758413956
24.05100,0.07275248999
24.05150,1.903918936
24.05200,3.124696567
24.05250,3.429890975
24.05300,3.124696567
24.05350,3.429890975
24.05400,4.650668606
24.05450,5.261057421
24.05500,3.429890975
24.05550,1.598724528
24.05600,2.514307752
24.05650,5.261057421
24.05700,5.871446236
24.05750,2.514307752
24.05800,-1.453219549
24.05850,-4.199969218
24.05900,-5.725941256
24.05950,-6.946718887
24.06000,-7.251913295
24.06050,-6.641524479
24.06100,-6.946718887
24.06150,-8.472690926
24.06200,-9.388274149
24.06250,-8.167496518
24.06300,-7.557107703
24.06350,-8.777885333
24.06400,-10.30385737
24.06450,-9.693468556
24.06500,-6.641524479
24.06550,-3.89477481
24.06600,-2.063608364
24.06650,-1.453219549
24.06700,-1.758413956
24.06750,-1.148025141
24.06800,0.6831413054
24.06850,2.514307752
24.06900,1.598724528
24.06950,0.9883357131
24.07000,5.566251829
24.07050,15.33247288
24.07100,23.57272188
24.07150,25.70908274
24.07200,25.70908274
24.07250,26.62466596
24.07300,25.09869392
24.07350,18.99480577
24.07400,10.75455676
24.07450,3.429890975
24.07500,-6.336330072
24.07550,-21.29085605
24.07600,-36.24538203
24.07650,-44.18043663
24.07700,-44.48563103
24.07750,-39.2973261
24.07800,-29.22591065
24.07850,-14.88177349
24.07900,-1.453219549
24.07950,7.702612683
24.08000,16.2480561
24.08050,26.62466596
24.08100,33.03374852
24.08150,28.150638
24.08200,17.46883373
24.08250,9.228584721
24.08300,2.514307752
24.08350,-10.60905178
24.08400,-28.92071624
24.08450,-38.9921317
24.08500,-33.19343795
24.08550,-19.4596896
24.08600,-9.998662964
24.08650,-8.777885333
24.08700,-14.57657908
24.08750,-21.29085605
24.08800,-24.03760572
24.08850,-20.37527283
24.08900,-13.66099586
24.08950,-7.557107703
24.09000,1.598724528
24.09050,19.30000018
24.09100,40.96880312
24.09150,54.09216265
24.09200,54.39735706
24.09250,48.29346891
24.09300,40.96880312
24.09350,29.06622122
24.09400,10.14416794
24.09450,-9.083079741
24.09500,-23.4272169
24.09550,-35.0246044
24.09600,-46.62199189
24.09650,-50.8947136
24.09700,-39.60252051
24.09750,-18.54410638
24.09800,-3.589580402
24.09850,-2.063608364
24.09900,-6.031135664
24.09950,-5.115552441
24.10000,-0.2324419177
24.10050,3.124696567
24.10100,2.514307752
24.10150,2.819502159
24.10200,5.261057421
24.10250,7.702612683
24.10300,6.481835052
24.10350,4.345474198
24.10400,4.345474198
24.10450,6.481835052
24.10500,6.481835052
24.10550,2.819502159
24.10600,-0.5376363254
24.10650,-1.148025141
24.10700,-2.673997179
24.10750,-10.60905178
24.10800,-24.03760572
24.10850,-34.10902117
24.10900,-33.80382676
24.10950,-22.81682809
24.11000,-6.946718887
24.11050,8.618195906
24.11100,18.68961136
24.11150,20.52077781
24.11200,18.07922254
24.11250,19.30000018
24.11300,26.01427714
24.11350,30.28699885
24.11400,26.31947155
24.11450,19.30000018
24.11500,15.94286169
24.11550,15.02727847
24.11600,11.36494557
24.11650,4.955863013
24.11700,0.9883357131
24.11750,-1.148025141
24.11800,-4.810358033
24.11850,-8.472690926
24.11900,-6.946718887
24.11950,0.07275248999
24.12000,7.702612683
24.12050,13.19611202
24.12100,17.16363932
24.12150,20.2155834
24.12200,19.91038899
24.12250,18.99480577
24.12300,22.35194425
24.12350,28.45583241
24.12400,28.45583241
24.12450,20.2155834
24.12500,10.44936235
24.12550,6.176640644
24.12600,4.345474198
24.12650,-0.2324419177
24.12700,-6.946718887
24.12750,-14.27138467
24.12800,-22.81682809
24.12850,-35.0246044
24.12900,-46.9271863
24.12950,-51.199908
24.13000,-43.2648534
24.13050,-23.73241131
24.13100,1.903918936
24.13150,26.31947155
24.13200,38.52724786
24.13250,35.47530378
24.13300,23.87791629
24.13350,14.11169524
24.13400,9.228584721
24.13450,5.566251829
24.13500,-0.2324419177
24.13550,-7.251913295
24.13600,-15.1869679
24.13650,-26.47916098
24.13700,-41.12849255
24.13750,-52.11549123
24.13800,-50.58951919
24.13850,-37.16096525
24.13900,-22.20643927
24.13950,-14.57657908
24.14000,-14.27138467
24.14050,-15.1869679
24.14100,-13.35580145
24.14150,-9.693468556
24.14200,-6.336330072
24.14250,-2.368802772
24.14300,0.9883357131
24.14350,1.903918936
24.14400,-0.2324419177
24.14450,-4.199969218
24.14500,-6.641524479
24.14550,-7.251913295
24.14600,-7.251913295
24.14650,-9.083079741
24.14700,-12.44021823
24.14750,-16.40774553
24.14800,-18.54410638
24.14850,-17.93371756
24.14900,-12.74541263
24.14950,-2.368802772
24.15000,11.36494557
24.15050,22.65713866
24.15100,26.31947155
24.15150,24.1831107
24.15200,24.48830511
24.15250,32.1181653
24.15300,40.35841431
24.15350,40.0532199
24.15400,32.72855411
24.15450,25.70908274
24.15500,22.96233307
24.15550,20.82597221
24.15600,17.77402814
24.15650,16.55325051
24.15700,17.16363932
24.15750,14.41688965
24.15800,9.228584721
24.15850,8.618195906
24.15900,15.02727847
24.15950,21.13116662
24.16000,21.13116662
24.16050,18.68961136
24.16100,18.68961136
24.16150,17.77402814
24.16200,13.19611202
24.16250,9.533779129
24.16300,10.75455676
24.16350,8.923390313
24.16400,-5.420746849
24.16450,-27.0895498
24.16500,-39.60252051
24.16550,-36.55057643
24.16600,-28.00513302
24.16650,-22.20643927
24.16700,-18.23891197
24.16750,-13.66099586
24.16800,-9.083079741
24.16850,-5.725941256
24.16900,-1.453219549
24.16950,1.598724528
24.17000,1.293530121
24.17050,-0.2324419177
24.17100,2.819502159
24.17150,7.397418275
24.17200,6.176640644
24.17250,1.598724528
24.17300,5.871446236
24.17350,22.04674984
24.17400,38.22205345
24.17450,43.10516398
24.17500,38.22205345
24.17550,30.89738767
24.17600,20.52077781
24.17650,5.261057421
24.17700,-11.21944059
24.17750,-22.51163368
24.17800,-28.61552183
24.17850,-32.27785473
24.17900,-34.10902117
24.17950,-33.49863236
24.18000,-32.88824354
24.18050,-34.41421558
24.18100,-35.3297988
24.18150,-31.3622715
24.18200,-24.03760572
24.18250,-17.01813434
24.18300,-12.44021823
24.18350,-8.777885333
24.18400,-5.725941256
24.18450,-3.589580402
24.18500,-0.8428307331
24.18550,1.598724528
24.18600,2.209113344
24.18650,0.9883357131
24.18700,1.598724528
24.18750,5.871446236
24.18800,9.533779129
24.18850,7.397418275
24.18900,1.903918936
24.18950,-0.2324419177
24.19000,1.598724528
24.19050,4.345474198
24.19100,3.429890975
24.19150,0.07275248999
24.19200,-1.758413956
24.19250,-2.368802772
24.19300,-2.368802772
24.19350,-2.979191587
24.19400,-4.199969218
24.19450,-5.115552441
24.19500,-4.810358033
24.19550,-3.284385995
24.19600,-2.063608364
24.19650,-2.673997179
24.19700,-5.420746849
24.19750,-6.946718887
24.19800,-2.673997179
24.19850,8.923390313
24.19900,24.1831107
24.19950,34.25452615
24.20000,33.94933174
24.20050,26.92986037
24.20100,19.60519458
24.20150,15.33247288
24.20200,12.2805288
24.20250,9.533779129
24.20300,6.481835052
24.20350,4.345474198
24.20400,4.650668606
24.20450,6.481835052
24.20500,8.618195906
24.20550,7.702612683
24.20600,4.345474198
24.20650,1.293530121
24.20700,0.3779468977
24.20750,0.07275248999
24.20800,-0.2324419177
24.20850,1.598724528
24.20900,5.871446236
24.20950,8.313001498
24.21000,6.787029459
24.21050,4.345474198
24.21100,3.735085382
24.21150,2.209113344
24.21200,-1.453219549
24.21250,-3.589580402
24.21300,-0.2324419177
24.21350,2.209113344
24.21400,-2.368802772
24.21450,-10.91424619
24.21500,-12.74541263
24.21550,-7.86230211
24.21600,-7.251913295
24.21650,-17.93371756
24.21700,-31.3622715
24.21750,-37.77135406
24.21800,-37.77135406
24.21850,-38.07654847
24.21900,-39.60252051
24.21950,-37.16096525
24.22000,-28.61552183
24.22050,-18.54410638
24.22100,-10.60905178
24.22150,-6.031135664
24.22200,-4.199969218
24.22250,-4.505163626
24.22300,-4.810358033
24.22350,-3.89477481
24.22400,-2.063608364
24.22450,-1.453219549
24.22500,-2.979191587
24.22550,-4.505163626
24.22600,-4.199969218
24.22650,-2.063608364
24.22700,-0.5376363254
24.22750,-0.2324419177
24.22800,0.3779468977
24.22850,1.293530121
24.22900,2.209113344
24.22950,2.819502159
24.23000,4.955863013
24.23050,11.05975117
24.23100,19.30000018
24.23150,25.70908274
24.23200,26.92986037
24.23250,22.65713866
24.23300,16.55325051
24.23350,13.80650084
24.23400,15.63766728
24.23450,18.99480577
24.23500,18.38441695
24.23550,12.89091761
24.23600,7.702612683
24.23650,5.261057421
24.23700,2.514307752
24.23750,-2.063608364
24.23800,-5.115552441
24.23850,-0.8428307331
24.23900,9.838973536
24.23950,20.2155834
24.24000,22.65713866
24.24050,14.11169524
24.24100,-1.453219549
24.24150,-16.10255112
24.24200,-21.29085605
24.24250,-17.01813434
24.24300,-12.13502382
24.24350,-13.05060704
24.24400,-15.4921623
24.24450,-13.35580145
24.24500,-10.60905178
24.24550,-17.93371756
24.24600,-39.90771492
24.24650,-67.98560043
24.24700,-88.73882015
24.24750,-92.40115304
24.24800,-77.75182147
24.24850,-54.25185208
24.24900,-34.10902117
24.24950,-24.03760572
24.25000,-20.07007842
24.25050,-15.79735671
24.25100,-10.91424619
24.25150,-5.420746849
24.25200,4.650668606
24.25250,22.96233307
24.25300,42.79996957
24.25350,53.78696825
24.25400,54.09216265
24.25450,51.04021858
24.25500,49.81944095
24.25550,47.68308009
24.25600,41.27399753
24.25650,31.20258208
24.25700,19.60519458
24.25750,8.00780709
24.25800,-0.2324419177
24.25850,-0.5376363254
24.25900,5.871446236
24.25950,12.89091761
24.26000,15.63766728
24.26050,14.41688965
24.26100,13.50130643
24.26150,13.50130643
24.26200,12.89091761
24.26250,11.67013998
24.26300,11.97533439
24.26350,15.63766728
24.26400,20.2155834
24.26450,21.43636103
24.26500,17.77402814
24.26550,12.2805288
24.26600,9.533779129
24.26650,9.838973536
24.26700,9.533779129
24.26750,6.176640644
24.26800,1.903918936
24.26850,0.07275248999
24.26900,1.598724528
24.26950,3.735085382
24.27000,4.650668606
24.27050,3.735085382
24.27100,1.293530121
24.27150,-0.5376363254
24.27200,-0.5376363254
24.27250,0.9883357131
24.27300,1.903918936
24.27350,0.3779468977
24.27400,-0.5376363254
24.27450,0.3779468977
24.27500,1.903918936
24.27550,0.9883357131
24.27600,-1.148025141
24.27650,-1.453219549
24.27700,0.6831413054
24.27750,2.514307752
24.27800,1.598724528
24.27850,-0.2324419177
24.27900,-0.5376363254
24.27950,-0.2324419177
24.28000,-0.2324419177
24.28050,-1.453219549
24.28100,-2.979191587
24.28150,-3.89477481
24.28200,-5.115552441
24.28250,-6.336330072
24.28300,-6.641524479
24.28350,-6.031135664
24.28400,-6.336330072
24.28450,-8.167496518
24.28500,-9.693468556
24.28550,-8.777885333
24.28600,-7.251913295
24.28650,-7.86230211
24.28700,-9.388274149
24.28750,-10.60905178
24.28800,-10.30385737
24.28850,-10.91424619
24.28900,-11.82982941
24.28950,-9.693468556
24.29000,-4.505163626
24.29050,-0.2324419177
24.29100,0.6831413054
24.29150,2.209113344
24.29200,7.397418275
24.29250,13.50130643
24.29300,14.11169524
24.29350,8.313001498
24.29400,2.819502159
24.29450,3.124696567
24.29500,9.228584721
24.29550,15.94286169
24.29600,18.68961136
24.29650,16.55325051
24.29700,11.97533439
24.29750,8.00780709
24.29800,4.955863013
24.29850,1.293530121
24.29900,-3.589580402
24.29950,-8.777885333
24.30000,-14.88177349
24.30050,-23.4272169
24.30100,-33.19343795
24.30150,-37.77135406
24.30200,-34.71940999
24.30250,-26.78435539
24.30300,-19.76488401
24.30350,-15.1869679
24.30400,-10.60905178
24.30450,-6.336330072
24.30500,-3.589580402
24.30550,-0.8428307331
24.30600,2.819502159
24.30650,8.313001498
24.30700,13.19611202
24.30750,16.55325051
24.30800,16.55325051
24.30850,11.97533439
24.30900,5.261057421
24.30950,1.293530121
24.31000,1.598724528
24.31050,1.598724528
24.31100,-2.368802772
24.31150,-7.557107703
24.31200,-8.167496518
24.31250,-4.505163626
24.31300,-1.453219549
24.31350,-1.758413956
24.31400,-2.979191587
24.31450,-3.589580402
24.31500,-3.589580402
24.31550,-2.673997179
24.31600,0.07275248999
24.31650,2.819502159
24.31700,2.819502159
24.31750,2.209113344
24.31800,2.819502159
24.31850,4.650668606
24.31900,4.955863013
24.31950,3.429890975
24.32000,1.903918936
24.32050,1.903918936
24.32100,0.9883357131
24.32150,-1.148025141
24.32200,-3.284385995
24.32250,-4.199969218
24.32300,-4.199969218
24.32350,-3.89477481
24.32400,-2.673997179
24.32450,-0.5376363254
24.32500,0.6831413054
24.32550,0.9883357131
24.32600,0.9883357131
24.32650,1.598724528
24.32700,2.209113344
24.32750,1.903918936
24.32800,1.293530121
24.32850,1.598724528
24.32900,2.209113344
24.32950,1.598724528
24.33000,0.3779468977
24.33050,-0.2324419177
24.33100,-0.2324419177
24.33150,0.3779468977
24.33200,1.598724528
24.33250,5.261057421
24.33300,12.58572321
24.33350,19.91038899
24.33400,23.26752748
24.33450,23.26752748
24.33500,23.26752748
24.33550,21.13116662
24.33600,11.97533439
24.33650,-2.979191587
24.33700,-13.66099586
24.33750,-11.524635
24.33800,-2.063608364
24.33850,4.650668606
24.33900,8.618195906
24.33950,14.11169524
24.34000,18.07922254
24.34050,11.97533439
24.34100,0.07275248999
24.34150,-4.199969218
24.34200,-0.8428307331
24.34250,-3.89477481
24.34300,-22.20643927
24.34350,-43.87524222
24.34400,-53.33626886
24.34450,-50.58951919
24.34500,-45.70640867
24.34550,-43.87524222
24.34600,-41.43368696
24.34650,-35.0246044
24.34700,-24.34280013
24.34750,-12.44021823
24.34800,-3.284385995
24.34850,0.3779468977
24.34900,1.293530121
24.34950,3.429890975
24.35000,2.819502159
24.35050,-7.251913295
24.35100,-20.68046723
24.35150,-16.10255112
24.35200,13.19611202
24.35250,44.32594161
24.35300,48.59866331
24.35350,26.62466596
24.35400,4.04027979
24.35450,-1.453219549
24.35500,5.566251829
24.35550,14.41688965
24.35600,17.16363932
24.35650,8.313001498
24.35700,-12.44021823
24.35750,-33.49863236
24.35800,-38.07654847
24.35850,-24.03760572
24.35900,-7.557107703
24.35950,-1.758413956
24.36000,-4.505163626
24.36050,-6.336330072
24.36100,-5.725941256
24.36150,-5.115552441
24.36200,-5.115552441
24.36250,-2.368802772
24.36300,1.903918936
24.36350,4.04027979
24.36400,1.293530121
24.36450,-3.589580402
24.36500,-5.725941256
24.36550,-2.063608364
24.36600,6.481835052
24.36650,14.72208406
24.36700,16.85844491
24.36750,13.50130643
24.36800,9.533779129
24.36850,7.702612683
24.36900,6.787029459
24.36950,5.871446236
24.37000,6.176640644
24.37050,8.313001498
24.37100,9.838973536
24.37150,9.533779129
24.37200,10.75455676
24.37250,17.46883373
24.37300,26.31947155
24.37350,30.59219326
24.37400,28.150638
24.37450,23.26752748
24.37500,20.52077781
24.37550,19.30000018
24.37600,17.16363932
24.37650,13.50130643
24.37700,8.618195906
24.37750,3.124696567
24.37800,-2.979191587
24.37850,-6.641524479
24.37900,-6.641524479
24.37950,-3.589580402
24.38000,-0.2324419177
24.38050,2.209113344
24.38100,5.261057421
24.38150,6.787029459
24.38200,5.261057421
24.38250,3.124696567
24.38300,4.04027979
24.38350,7.092223867
24.38400,8.313001498
24.38450,6.481835052
24.38500,3.735085382
24.38550,2.819502159
24.38600,2.819502159
24.38650,2.514307752
24.38700,2.819502159
24.38750,3.735085382
24.38800,4.04027979
24.38850,1.903918936
24.38900,-1.148025141
24.38950,-3.589580402
24.39000,-3.589580402
24.39050,-3.589580402
24.39100,-4.810358033
24.39150,-6.641524479
24.39200,-7.251913295
24.39250,-6.336330072
24.39300,-5.725941256
24.39350,-7.557107703
24.39400,-10.60905178
24.39450,-10.30385737
24.39500,-3.89477481
24.39550,4.345474198
24.39600,10.44936235
24.39650,15.63766728
24.39700,22.96233307
24.39750,30.59219326
24.39800,32.42335971
24.39850,25.40388833
24.39900,13.19611202
24.39950,0.3779468977
24.40000,-11.21944059
24.40050,-20.68046723
24.40100,-25.25838335
24.40150,-24.34280013
24.40200,-21.90124486
24.40250,-22.51163368
24.40300,-25.25838335
24.40350,-27.3947442
24.40400,-28.00513302
24.40450,-26.47916098
24.40500,-19.4596896
24.40550,-5.115552441
24.40600,10.14416794
24.40650,18.07922254
24.40700,17.46883373
24.40750,13.19611202
24.40800,10.14416794
24.40850,7.397418275
24.40900,2.514307752
24.40950,-2.979191587
24.41000,-7.557107703
24.41050,-10.91424619
24.41100,-13.35580145
24.41150,-14.27138467
24.41200,-12.13502382
24.41250,-8.167496518
24.41300,-5.115552441
24.41350,-4.505163626
24.41400,-4.199969218
24.41450,-2.673997179
24.41500,0.3779468977
24.41550,4.650668606
24.41600,8.923390313
24.41650,12.2805288
24.41700,12.89091761
24.41750,10.14416794
24.41800,5.871446236
24.41850,2.819502159
24.41900,0.6831413054
24.41950,-2.673997179
24.42000,-8.472690926
24.42050,-13.66099586
24.42100,-16.40774553
24.42150,-17.62852316
24.42200,-17.93371756
24.42250,-17.32332875
24.42300,-16.40774553
24.42350,-15.4921623
24.42400,-13.96619026
24.42450,-11.21944059
24.42500,-7.557107703
24.42550,-6.641524479
24.42600,-9.083079741
24.42650,-11.524635
24.42700,-10.30385737
24.42750,-6.641524479
24.42800,-2.368802772
24.42850,2.209113344
24.42900,8.00780709
24.42950,11.97533439
24.43000,10.44936235
24.43050,5.566251829
24.43100,4.955863013
24.43150,12.89091761
24.43200,24.79349951
24.43250,32.42335971
24.43300,31.50777648
24.43350,25.40388833
24.43400,17.46883373
24.43450,11.05975117
24.43500,5.871446236
24.43550,-0.2324419177
24.43600,-9.693468556
24.43650,-20.68046723
24.43700,-28.31032743
24.43750,-28.92071624
24.43800,-24.64799453
24.43850,-18.84930079
24.43900,-14.88177349
24.43950,-13.05060704
24.44000,-13.66099586
24.44050,-15.1869679
24.44100,-15.1869679
24.44150,-12.74541263
24.44200,-9.693468556
24.44250,-7.557107703
24.44300,-6.336330072
24.44350,-5.725941256
24.44400,-6.641524479
24.44450,-9.083079741
24.44500,-8.472690926
24.44550,-1.148025141
24.44600,8.00780709
24.44650,11.97533439
24.44700,8.923390313
24.44750,4.345474198
24.44800,2.209113344
24.44850,1.903918936
24.44900,1.903918936
24.44950,2.209113344
24.45000,3.429890975
24.45050,4.04027979
24.45100,4.955863013
24.45150,8.618195906
24.45200,13.50130643
24.45250,18.07922254
24.45300,23.87791629
24.45350,33.94933174
24.45400,44.32594161
24.45450,46.15710805
24.45500,38.22205345
24.45550,30.59219326
24.45600,32.42335971
24.45650,39.74802549
24.45700,43.71555279
24.45750,41.57919194
24.45800,35.17010938
24.45850,21.13116662
24.45900,-3.89477481
24.45950,-32.27785473
24.46000,-48.45315833
24.46050,-46.62199189
24.46100,-37.16096525
24.46150,-36.24538203
24.46200,-50.8947136
24.46250,-79.88818233
24.46300,-112.2387895
24.46350,-128.7192876
24.46400,-110.7128175
24.46450,-63.1024899
24.46500,-17.93371756
24.46550,-1.453219549
24.46600,-9.388274149
24.46650,-15.79735671
24.46700,-9.083079741
24.46750,-0.5376363254
24.46800,-0.5376363254
24.46850,-3.284385995
24.46900,2.514307752
24.46950,15.63766728
24.47000,25.09869392
24.47050,27.23505478
24.47100,26.62466596
24.47150,27.23505478
24.47200,26.92986037
24.47250,24.79349951
24.47300,22.96233307
24.47350,23.57272188
24.47400,24.79349951
24.47450,24.1831107
24.47500,20.82597221
24.47550,14.72208406
24.47600,5.871446236
24.47650,-3.589580402
24.47700,-9.693468556
24.47750,-7.557107703
24.47800,0.3779468977
24.47850,7.397418275
24.47900,8.923390313
24.47950,8.00780709
24.48000,8.313001498
24.48050,9.838973536
24.48100,9.838973536
24.48150,7.702612683
24.48200,7.397418275
24.48250,12.89091761
24.48300,23.26752748
24.48350,33.64413734
24.48400,37.91685904
24.48450,34.25452615
24.48500,25.40388833
24.48550,17.46883373
24.48600,14.11169524
24.48650,11.67013998
24.48700,4.650668606
24.48750,-6.031135664
24.48800,-15.4921623
24.48850,-20.37527283
24.48900,-22.51163368
24.48950,-22.51163368
24.49000,-17.93371756
24.49050,-8.472690926
24.49100,1.293530121
24.49150,8.618195906
24.49200,14.72208406
24.49250,21.43636103
24.49300,25.70908274
24.49350,26.62466596
24.49400,27.84544359
24.49450,34.25452615
24.49500,42.49477516
24.49550,41.88438635
24.49600,25.70908274
24.49650,-0.2324419177
24.49700,-21.90124486
24.49750,-30.44668828
24.49800,-30.14149387
24.49850,-30.44668828
24.49900,-34.41421558
24.49950,-36.24538203
24.50000,-31.0570771
24.50050,-23.73241131
24.50100,-20.07007842
24.50150,-19.76488401
24.50200,-16.40774553
24.50250,-8.167496518
24.50300,0.07275248999
24.50350,3.124696567
24.50400,0.3779468977
24.50450,-2.368802772
24.50500,-2.063608364
24.50550,0.3779468977
24.50600,1.598724528
24.50650,0.9883357131
24.50700,2.819502159
24.50750,7.702612683
24.50800,10.44936235
24.50850,8.313001498
24.50900,8.313001498
24.50950,17.77402814
24.51000,28.76102681
24.51050,27.23505478
24.51100,13.19611202
24.51150,1.598724528
24.51200,0.6831413054
24.51250,0.3779468977
24.51300,-7.251913295
24.51350,-15.4921623
24.51400,-15.4921623
24.51450,-15.1869679
24.51500,-25.86877216
24.51550,-40.82329814
24.51600,-42.34927018
24.51650,-28.00513302
24.51700,-12.13502382
24.51750,-3.89477481
24.51800,-0.5376363254
24.51850,0.9883357131
24.51900,-1.758413956
24.51950,-6.946718887
24.52000,-3.589580402
24.52050,11.05975117
24.52100,24.48830511
24.52150,24.1831107
24.52200,16.55325051
24.52250,13.50130643
24.52300,17.16363932
24.52350,18.68961136
24.52400,14.72208406
24.52450,10.75455676
24.52500,9.533779129
24.52550,8.00780709
24.52600,3.735085382
24.52650,-0.2324419177
24.52700,-0.8428307331
24.52750,-0.8428307331
24.52800,-2.063608364
24.52850,-3.284385995
24.52900,-1.453219549
24.52950,3.124696567
24.53000,8.00780709
24.53050,10.14416794
24.53100,9.533779129
24.53150,7.092223867
24.53200,4.345474198
24.53250,1.903918936
24.53300,0.9883357131
24.53350,1.598724528
24.53400,4.345474198
24.53450,8.00780709
24.53500,9.533779129
24.53550,8.313001498
24.53600,5.566251829
24.53650,2.819502159
24.53700,1.293530121
24.53750,-0.2324419177
24.53800,-1.758413956
24.53850,-1.453219549
24.53900,0.07275248999
24.53950,1.598724528
24.54000,0.9883357131
24.54050,-1.453219549
24.54100,-4.810358033
24.54150,-6.946718887
24.54200,-7.251913295
24.54250,-6.031135664
24.54300,-5.725941256
24.54350,-6.946718887
24.54400,-7.86230211
24.54450,-5.115552441
24.54500,0.07275248999
24.54550,4.650668606
24.54600,6.481835052
24.54650,6.481835052
24.54700,5.566251829
24.54750,2.819502159
24.54800,-0.8428307331
24.54850,-2.368802772
24.54900,-2.673997179
24.54950,-6.336330072
24.55000,-16.10255112
24.55050,-26.17396657
24.55100,-28.00513302
24.55150,-22.51163368
24.55200,-16.40774553
24.55250,-13.66099586
24.55300,-11.524635
24.55350,-8.472690926
24.55400,-5.725941256
24.55450,-4.810358033
24.55500,-4.810358033
24.55550,-4.505163626
24.55600,-4.199969218
24.55650,-3.589580402
24.55700,-1.453219549
24.55750,0.3779468977
24.55800,-0.2324419177
24.55850,-2.979191587
24.55900,-5.115552441
24.55950,-5.115552441
24.56000,-4.810358033
24.56050,-5.725941256
24.56100,-6.031135664
24.56150,-4.199969218
24.56200,-0.5376363254
24.56250,1.903918936
24.56300,3.124696567
24.56350,2.819502159
24.56400,1.598724528
24.56450,0.6831413054
24.56500,0.9883357131
24.56550,0.6831413054
24.56600,-0.5376363254
24.56650,-3.589580402
24.56700,-5.725941256
24.56750,-7.86230211
24.56800,-9.693468556
24.56850,-8.777885333
24.56900,-5.420746849
24.56950,-3.589580402
24.57000,-5.115552441
24.57050,-4.199969218
24.57100,6.481835052
24.57150,25.40388833
24.57200,43.71555279
24.57250,57.14410673
24.57300,66.91032778
24.57350,71.48824389
24.57400,68.43629982
24.57450,61.41682844
24.57500,55.9233291
24.57550,48.90385772
24.57600,28.150638
24.57650,-6.641524479
24.57700,-41.43368696
24.57750,-62.7972955
24.57800,-74.39468299
24.57850,-85.68687607
24.57900,-94.84270831
24.57950,-92.70634745
24.58000,-77.44662707
24.58050,-56.38821293
24.58100,-38.68693729
24.58150,-28.92071624
24.58200,-26.78435539
24.58250,-25.86877216
24.58300,-18.84930079
24.58350,-6.336330072
24.58400,0.9883357131
24.58450,-2.063608364
24.58500,-10.60905178
24.58550,-14.88177349
24.58600,-14.88177349
24.58650,-15.79735671
24.58700,-17.93371756
24.58750,-15.4921623
24.58800,-7.251913295
24.58850,1.293530121
24.58900,5.871446236
24.58950,7.092223867
24.59000,7.092223867
24.59050,5.871446236
24.59100,4.04027979
24.59150,3.124696567
24.59200,4.04027979
24.59250,5.871446236
24.59300,7.397418275
24.59350,8.618195906
24.59400,10.44936235
24.59450,12.2805288
24.59500,13.50130643
24.59550,13.80650084
24.59600,13.80650084
24.59650,14.11169524
24.59700,15.02727847
24.59750,15.94286169
24.59800,15.02727847
24.59850,12.2805288
24.59900,9.228584721
24.59950,7.092223867
24.60000,7.397418275
24.60050,9.838973536
24.60100,12.89091761
24.60150,14.11169524
24.60200,14.11169524
24.60250,13.80650084
24.60300,14.41688965
24.60350,16.85844491
24.60400,22.04674984
24.60450,30.28699885
24.60500,37.91685904
24.60550,38.83244227
24.60600,31.20258208
24.60650,20.52077781
24.60700,15.33247288
24.60750,14.72208406
24.60800,10.14416794
24.60850,-2.673997179
24.60900,-17.62852316
24.60950,-23.4272169
24.61000,-18.84930079
24.61050,-12.13502382
24.61100,-9.998662964
24.61150,-9.693468556
24.61200,-6.946718887
24.61250,-2.673997179
24.61300,3.124696567
24.61350,14.11169524
24.61400,29.98180444
24.61450,42.79996957
24.61500,43.71555279
24.61550,33.03374852
24.61600,20.2155834
24.61650,10.14416794
24.61700,0.07275248999
24.61750,-10.91424619
24.61800,-16.40774553
24.61850,-9.693468556
24.61900,5.566251829
24.61950,15.63766728
24.62000,10.75455676
24.62050,-4.810358033
24.62100,-20.07007842
24.62150,-26.17396657
24.62200,-23.4272169
24.62250,-17.01813434
24.62300,-11.21944059
24.62350,-8.777885333
24.62400,-9.693468556
24.62450,-12.13502382
24.62500,-13.35580145
24.62550,-11.82982941
24.62600,-8.777885333
24.62650,-6.946718887
24.62700,-6.946718887
24.62750,-7.86230211
24.62800,-8.777885333
24.62850,-9.693468556
24.62900,-9.388274149
24.62950,-7.86230211
24.63000,-6.336330072
24.63050,-6.031135664
24.63100,-5.420746849
24.63150,-4.505163626
24.63200,-3.589580402
24.63250,-3.589580402
24.63300,-3.284385995
24.63350,-2.673997179
24.63400,-2.063608364
24.63450,-1.148025141
24.63500,2.209113344
24.63550,6.787029459
24.63600,8.923390313
24.63650,7.702612683
24.63700,5.871446236
24.63750,4.650668606
24.63800,2.514307752
24.63850,1.598724528
24.63900,7.702612683
24.63950,22.35194425
24.64000,37.91685904
24.64050,46.46230246
24.64100,47.37788568
24.64150,42.18958075
24.64200,32.72855411
24.64250,20.82597221
24.64300,10.44936235
24.64350,-0.5376363254
24.64400,-20.07007842
24.64450,-46.62199189
24.64500,-65.54404517
24.64550,-65.23885076
24.64600,-53.33626886
24.64650,-45.70640867
24.64700,-46.01160307
24.64750,-46.31679748
24.64800,-41.12849255
24.64850,-33.19343795
24.64900,-24.34280013
24.64950,-13.35580145
24.65000,-1.758413956
24.65050,3.735085382
24.65100,3.429890975
24.65150,2.819502159
24.65200,4.955863013
24.65250,7.397418275
24.65300,8.00780709
24.65350,8.923390313
24.65400,10.75455676
24.65450,11.36494557
24.65500,8.923390313
24.65550,5.261057421
24.65600,4.04027979
24.65650,4.04027979
24.65700,3.735085382
24.65750,3.429890975
24.65800,4.955863013
24.65850,7.397418275
24.65900,8.923390313
24.65950,8.313001498
24.66000,7.397418275
24.66050,7.397418275
24.66100,7.702612683
24.66150,7.397418275
24.66200,6.481835052
24.66250,6.481835052
24.66300,6.481835052
24.66350,5.566251829
24.66400,4.955863013
24.66450,4.955863013
24.66500,5.261057421
24.66550,4.04027979
24.66600,1.903918936
24.66650,0.6831413054
24.66700,1.293530121
24.66750,1.903918936
24.66800,0.9883357131
24.66850,-0.5376363254
24.66900,-1.758413956
24.66950,-2.368802772
24.67000,-2.673997179
24.67050,-2.063608364
24.67100,-0.8428307331
24.67150,-0.2324419177
24.67200,0.07275248999
24.67250,-0.2324419177
24.67300,0.3779468977
24.67350,2.514307752
24.67400,5.566251829
24.67450,7.397418275
24.67500,6.176640644
24.67550,3.124696567
24.67600,0.6831413054
24.67650,0.9883357131
24.67700,1.903918936
24.67750,0.9883357131
24.67800,-0.5376363254
24.67850,-1.148025141
24.67900,1.598724528
24.67950,6.176640644
24.68000,9.228584721
24.68050,9.533779129
24.68100,10.75455676
24.68150,15.94286169
24.68200,23.57272188
24.68250,26.62466596
24.68300,21.74155544
24.68350,12.58572321
24.68400,2.514307752
24.68450,-9.693468556
24.68500,-26.78435539
24.68550,-43.2648534
24.68600,-49.06354715
24.68650,-43.57004781
24.68700,-37.77135406
24.68750,-39.90771492
24.68800,-44.48563103
24.68850,-41.73888137
24.68900,-28.00513302
24.68950,-7.251913295
24.69000,13.50130643
24.69050,27.54024918
24.69100,28.76102681
24.69150,18.68961136
24.69200,6.481835052
24.69250,0.6831413054
24.69300,0.3779468977
24.69350,1.293530121
24.69400,3.735085382
24.69450,10.75455676
24.69500,18.07922254
24.69550,20.52077781
24.69600,19.60519458
24.69650,23.57272188
24.69700,32.1181653
24.69750,37.00127582
24.69800,32.72855411
24.69850,23.26752748
24.69900,13.50130643
24.69950,1.903918936
24.70000,-11.21944059
24.70050,-21.59605046
24.70100,-25.25838335
24.70150,-28.31032743
24.70200,-35.63499321
24.70250,-39.60252051
24.70300,-27.3947442
24.70350,-0.8428307331
24.70400,22.96233307
24.70450,35.78049819
24.70500,43.41035838
24.70550,51.9558018
24.70600,53.48177384
24.70650,40.35841431
24.70700,22.04674984
24.70750,10.14416794
24.70800,-0.2324419177
24.70850,-20.37527283
24.70900,-43.87524222
24.70950,-50.28432478
24.71000,-38.38174288
24.71050,-32.27785473
24.71100,-46.9271863
24.71150,-65.23885076
24.71200,-61.88171227
24.71250,-38.9921317
24.71300,-21.29085605
24.71350,-20.98566164
24.71400,-25.25838335
24.71450,-17.32332875
24.71500,-0.8428307331
24.71550,6.176640644
24.71600,-1.148025141
24.71650,-11.524635
24.71700,-13.35580145
24.71750,-9.083079741
24.71800,-8.472690926
24.71850,-12.74541263
24.71900,-15.1869679
24.71950,-13.96619026
24.72000,-18.23891197
24.72050,-28.61552183
24.72100,-28.92071624
24.72150,-4.810358033
24.72200,31.81297089
24.72250,54.09216265
24.72300,50.42982976
24.72350,34.55972056
24.72400,23.57272188
24.72450,19.30000018
24.72500,15.33247288
24.72550,10.75455676
24.72600,8.313001498
24.72650,6.787029459
24.72700,4.345474198
24.72750,2.514307752
24.72800,4.345474198
24.72850,7.397418275
24.72900,8.313001498
24.72950,7.397418275
24.73000,7.092223867
24.73050,7.702612683
24.73100,6.481835052
24.73150,3.429890975
24.73200,1.293530121
24.73250,2.209113344
24.73300,5.566251829
24.73350,9.533779129
24.73400,13.19611202
24.73450,15.02727847
24.73500,15.02727847
24.73550,14.11169524
24.73600,12.58572321
24.73650,11.05975117
24.73700,10.75455676
24.73750,13.19611202
24.73800,17.77402814
24.73850,21.43636103
24.73900,22.96233307
24.73950,23.26752748
24.74000,22.96233307
24.74050,20.2155834
24.74100,15.33247288
24.74150,11.05975117
24.74200,9.533779129
24.74250,6.481835052
24.74300,-2.368802772
24.74350,-14.57657908
24.74400,-21.29085605
24.74450,-19.4596896
24.74500,-16.10255112
24.74550,-16.40774553
24.74600,-17.62852316
24.74650,-14.27138467
24.74700,-7.86230211
24.74750,-3.284385995
24.74800,-1.758413956
24.74850,0.07275248999
