"type","name","time_units","begin_time","frequency","count","units"
"signal","Ultium EMG-FLEX.CAPR.U RT","s",483.98000,2000,22000,"uV"

"time","value"
483.98000,-3.010763422
483.98050,-2.705569015
483.98100,-1.484791384
483.98150,0.3463750624
483.98200,1.567152693
483.98250,1.872347101
483.98300,2.482735916
483.98350,3.703513547
483.98400,4.008707955
483.98450,2.787930324
483.98500,0.9567638778
483.98550,-0.264013753
483.98600,-0.5692081607
483.98650,-1.179596976
483.98700,-1.789985791
483.98750,-1.484791384
483.98800,-0.264013753
483.98850,0.04118065471
483.98900,-0.5692081607
483.98950,-1.179596976
483.99000,0.04118065471
483.99050,1.567152693
483.99100,1.567152693
483.99150,0.3463750624
483.99200,0.3463750624
483.99250,3.093124732
483.99300,5.839874401
483.99350,5.839874401
483.99400,2.482735916
483.99450,-0.8744025684
483.99500,-1.789985791
483.99550,-0.5692081607
483.99600,0.6515694701
483.99650,0.6515694701
483.99700,0.04118065471
483.99750,-0.264013753
483.99800,0.04118065471
483.99850,1.567152693
483.99900,2.482735916
483.99950,2.177541509
484.00000,1.872347101
484.00050,1.567152693
484.00100,1.567152693
484.00150,0.6515694701
484.00200,-0.5692081607
484.00250,-1.789985791
484.00300,-2.400374607
484.00350,-2.400374607
484.00400,-2.705569015
484.00450,-3.621152238
484.00500,-5.147124276
484.00550,-5.452318684
484.00600,-3.31595783
484.00650,-0.8744025684
484.00700,-0.8744025684
484.00750,-2.705569015
484.00800,-3.621152238
484.00850,-1.789985791
484.00900,-0.8744025684
484.00950,-2.400374607
484.01000,-4.536735461
484.01050,-3.926346645
484.01100,-1.484791384
484.01150,0.04118065471
484.01200,0.04118065471
484.01250,-0.264013753
484.01300,-0.264013753
484.01350,-0.264013753
484.01400,-0.5692081607
484.01450,-0.264013753
484.01500,0.3463750624
484.01550,0.6515694701
484.01600,0.6515694701
484.01650,1.261958286
484.01700,3.093124732
484.01750,4.924291178
484.01800,4.924291178
484.01850,3.093124732
484.01900,1.261958286
484.01950,1.261958286
484.02000,3.093124732
484.02050,4.313902363
484.02100,3.398319139
484.02150,1.872347101
484.02200,1.261958286
484.02250,1.872347101
484.02300,2.482735916
484.02350,2.787930324
484.02400,3.703513547
484.02450,2.787930324
484.02500,-2.095180199
484.02550,-9.725040392
484.02600,-13.38737328
484.02650,-10.33542921
484.02700,-4.231541053
484.02750,-1.179596976
484.02800,-1.789985791
484.02850,-1.789985791
484.02900,-0.264013753
484.02950,0.6515694701
484.03000,0.04118065471
484.03050,-1.179596976
484.03100,-0.8744025684
484.03150,-0.264013753
484.03200,-0.5692081607
484.03250,-0.8744025684
484.03300,0.04118065471
484.03350,1.261958286
484.03400,1.567152693
484.03450,0.04118065471
484.03500,-0.8744025684
484.03550,-1.484791384
484.03600,-3.010763422
484.03650,-6.062707499
484.03700,-7.893873946
484.03750,-6.978290722
484.03800,-3.621152238
484.03850,-0.8744025684
484.03900,-0.264013753
484.03950,-1.789985791
484.04000,-3.31595783
484.04050,-3.926346645
484.04100,-2.705569015
484.04150,0.04118065471
484.04200,3.703513547
484.04250,5.839874401
484.04300,5.229485586
484.04350,3.093124732
484.04400,2.482735916
484.04450,3.703513547
484.04500,4.61909677
484.04550,3.398319139
484.04600,2.177541509
484.04650,3.398319139
484.04700,6.450263216
484.04750,7.976235255
484.04800,6.450263216
484.04850,3.398319139
484.04900,1.261958286
484.04950,-0.264013753
484.05000,-2.705569015
484.05050,-4.841929869
484.05100,-5.452318684
484.05150,-5.147124276
484.05200,-7.28348513
484.05250,-11.25101243
484.05300,-11.86140125
484.05350,-6.062707499
484.05400,2.787930324
484.05450,8.58662407
484.05500,8.891818478
484.05550,6.450263216
484.05600,4.924291178
484.05650,4.008707955
484.05700,0.3463750624
484.05750,-3.926346645
484.05800,-6.062707499
484.05850,-4.231541053
484.05900,-1.179596976
484.05950,2.177541509
484.06000,8.281429663
484.06050,15.91128986
484.06100,21.7099836
484.06150,21.09959479
484.06200,15.30090104
484.06250,7.976235255
484.06300,2.482735916
484.06350,-0.5692081607
484.06400,-2.095180199
484.06450,-3.31595783
484.06500,-6.367901907
484.06550,-11.86140125
484.06600,-15.21853973
484.06650,-12.16659565
484.06700,-3.926346645
484.06750,3.398319139
484.06800,6.450263216
484.06850,4.61909677
484.06900,0.9567638778
484.06950,-3.31595783
484.07000,-6.367901907
484.07050,-7.893873946
484.07100,-7.893873946
484.07150,-7.893873946
484.07200,-6.367901907
484.07250,-2.705569015
484.07300,0.04118065471
484.07350,-0.5692081607
484.07400,-4.231541053
484.07450,-6.062707499
484.07500,-5.147124276
484.07550,-3.621152238
484.07600,-4.231541053
484.07650,-4.536735461
484.07700,-2.400374607
484.07750,1.261958286
484.07800,3.093124732
484.07850,2.482735916
484.07900,1.261958286
484.07950,0.6515694701
484.08000,0.9567638778
484.08050,1.261958286
484.08100,2.177541509
484.08150,3.398319139
484.08200,4.008707955
484.08250,3.398319139
484.08300,2.177541509
484.08350,0.04118065471
484.08400,-2.705569015
484.08450,-4.536735461
484.08500,-4.536735461
484.08550,-2.705569015
484.08600,-0.8744025684
484.08650,0.3463750624
484.08700,1.872347101
484.08750,4.008707955
484.08800,6.450263216
484.08850,7.976235255
484.08900,7.976235255
484.08950,6.755457624
484.09000,5.229485586
484.09050,4.61909677
484.09100,4.008707955
484.09150,3.093124732
484.09200,2.482735916
484.09250,2.177541509
484.09300,0.04118065471
484.09350,-5.147124276
484.09400,-11.25101243
484.09450,-13.9977621
484.09500,-12.47179006
484.09550,-10.0302348
484.09600,-10.0302348
484.09650,-10.94581802
484.09700,-9.114651576
484.09750,-4.231541053
484.09800,1.872347101
484.09850,6.450263216
484.09900,8.281429663
484.09950,6.755457624
484.10000,2.787930324
484.10050,0.04118065471
484.10100,-0.8744025684
484.10150,0.04118065471
484.10200,1.872347101
484.10250,3.398319139
484.10300,4.924291178
484.10350,5.839874401
484.10400,4.924291178
484.10450,2.177541509
484.10500,0.04118065471
484.10550,-0.264013753
484.10600,0.3463750624
484.10650,0.04118065471
484.10700,-2.095180199
484.10750,-5.452318684
484.10800,-6.978290722
484.10850,-6.673096315
484.10900,-3.926346645
484.10950,0.04118065471
484.11000,4.008707955
484.11050,5.839874401
484.11100,5.229485586
484.11150,4.313902363
484.11200,4.313902363
484.11250,4.61909677
484.11300,4.008707955
484.11350,3.398319139
484.11400,3.703513547
484.11450,4.313902363
484.11500,4.008707955
484.11550,2.787930324
484.11600,2.482735916
484.11650,3.093124732
484.11700,2.787930324
484.11750,0.9567638778
484.11800,-0.5692081607
484.11850,-1.179596976
484.11900,-1.789985791
484.11950,-2.095180199
484.12000,-0.264013753
484.12050,2.787930324
484.12100,5.229485586
484.12150,6.145068809
484.12200,5.839874401
484.12250,5.534679993
484.12300,4.008707955
484.12350,0.3463750624
484.12400,-2.095180199
484.12450,-2.400374607
484.12500,-1.789985791
484.12550,-2.400374607
484.12600,-3.010763422
484.12650,-1.789985791
484.12700,0.6515694701
484.12750,2.482735916
484.12800,1.872347101
484.12850,0.9567638778
484.12900,0.3463750624
484.12950,-0.264013753
484.13000,-1.484791384
484.13050,-1.789985791
484.13100,-0.8744025684
484.13150,-0.8744025684
484.13200,-2.095180199
484.13250,-3.31595783
484.13300,-3.926346645
484.13350,-3.926346645
484.13400,-4.536735461
484.13450,-4.231541053
484.13500,-3.010763422
484.13550,-1.179596976
484.13600,-0.264013753
484.13650,-0.5692081607
484.13700,-1.179596976
484.13750,-1.179596976
484.13800,0.04118065471
484.13850,2.482735916
484.13900,4.61909677
484.13950,4.313902363
484.14000,2.787930324
484.14050,1.567152693
484.14100,2.482735916
484.14150,4.008707955
484.14200,3.703513547
484.14250,1.261958286
484.14300,-0.8744025684
484.14350,-1.484791384
484.14400,-1.484791384
484.14450,-2.095180199
484.14500,-2.705569015
484.14550,-2.095180199
484.14600,0.6515694701
484.14650,3.703513547
484.14700,5.229485586
484.14750,5.229485586
484.14800,4.924291178
484.14850,3.093124732
484.14900,0.04118065471
484.14950,-2.705569015
484.15000,-3.926346645
484.15050,-5.452318684
484.15100,-10.64062361
484.15150,-15.52373414
484.15200,-12.77698447
484.15250,-0.8744025684
484.15300,9.807401701
484.15350,10.72298492
484.15400,3.398319139
484.15450,-2.400374607
484.15500,-3.621152238
484.15550,-2.705569015
484.15600,-2.705569015
484.15650,-1.789985791
484.15700,1.261958286
484.15750,3.398319139
484.15800,1.872347101
484.15850,-0.5692081607
484.15900,-0.5692081607
484.15950,1.872347101
484.16000,3.093124732
484.16050,1.567152693
484.16100,0.04118065471
484.16150,-0.264013753
484.16200,-0.8744025684
484.16250,-1.789985791
484.16300,-2.095180199
484.16350,-0.264013753
484.16400,0.9567638778
484.16450,0.6515694701
484.16500,-0.264013753
484.16550,-0.5692081607
484.16600,-0.5692081607
484.16650,-1.789985791
484.16700,-3.31595783
484.16750,-2.705569015
484.16800,-0.8744025684
484.16850,-0.5692081607
484.16900,-1.484791384
484.16950,-0.5692081607
484.17000,2.177541509
484.17050,3.703513547
484.17100,2.482735916
484.17150,0.6515694701
484.17200,0.04118065471
484.17250,-0.5692081607
484.17300,-3.010763422
484.17350,-4.231541053
484.17400,-1.484791384
484.17450,2.177541509
484.17500,3.398319139
484.17550,2.482735916
484.17600,1.872347101
484.17650,2.177541509
484.17700,1.872347101
484.17750,1.261958286
484.17800,1.261958286
484.17850,0.9567638778
484.17900,-0.264013753
484.17950,-2.400374607
484.18000,-2.095180199
484.18050,0.04118065471
484.18100,0.9567638778
484.18150,0.6515694701
484.18200,0.6515694701
484.18250,1.567152693
484.18300,0.6515694701
484.18350,-2.400374607
484.18400,-6.367901907
484.18450,-8.199068353
484.18500,-7.893873946
484.18550,-6.673096315
484.18600,-3.010763422
484.18650,2.787930324
484.18700,7.976235255
484.18750,7.671040847
484.18800,2.787930324
484.18850,-2.095180199
484.18900,-3.621152238
484.18950,-2.705569015
484.19000,-1.789985791
484.19050,-1.484791384
484.19100,-1.179596976
484.19150,0.04118065471
484.19200,1.261958286
484.19250,1.567152693
484.19300,0.6515694701
484.19350,-0.5692081607
484.19400,-1.179596976
484.19450,-0.5692081607
484.19500,0.3463750624
484.19550,1.261958286
484.19600,2.482735916
484.19650,3.093124732
484.19700,2.482735916
484.19750,0.6515694701
484.19800,-0.8744025684
484.19850,-0.8744025684
484.19900,0.04118065471
484.19950,1.261958286
484.20000,2.787930324
484.20050,4.313902363
484.20100,5.229485586
484.20150,3.703513547
484.20200,0.6515694701
484.20250,-1.179596976
484.20300,-1.484791384
484.20350,0.04118065471
484.20400,1.261958286
484.20450,2.177541509
484.20500,2.482735916
484.20550,2.177541509
484.20600,1.567152693
484.20650,0.9567638778
484.20700,0.3463750624
484.20750,0.04118065471
484.20800,-0.5692081607
484.20850,-1.484791384
484.20900,-1.789985791
484.20950,-1.789985791
484.21000,-2.095180199
484.21050,-2.400374607
484.21100,-2.705569015
484.21150,-2.400374607
484.21200,-1.789985791
484.21250,-1.179596976
484.21300,-0.8744025684
484.21350,-0.5692081607
484.21400,-0.5692081607
484.21450,-0.8744025684
484.21500,-1.179596976
484.21550,-1.179596976
484.21600,-1.179596976
484.21650,-0.8744025684
484.21700,-0.5692081607
484.21750,-0.264013753
484.21800,0.3463750624
484.21850,1.872347101
484.21900,2.787930324
484.21950,2.482735916
484.22000,1.567152693
484.22050,1.261958286
484.22100,1.261958286
484.22150,0.9567638778
484.22200,0.04118065471
484.22250,0.04118065471
484.22300,0.04118065471
484.22350,-0.264013753
484.22400,-1.484791384
484.22450,-2.705569015
484.22500,-2.095180199
484.22550,-0.8744025684
484.22600,-0.264013753
484.22650,-0.264013753
484.22700,-0.5692081607
484.22750,-1.179596976
484.22800,-2.400374607
484.22850,-3.31595783
484.22900,-3.31595783
484.22950,-1.789985791
484.23000,-0.264013753
484.23050,1.261958286
484.23100,2.787930324
484.23150,4.008707955
484.23200,3.093124732
484.23250,1.567152693
484.23300,0.6515694701
484.23350,0.6515694701
484.23400,0.9567638778
484.23450,1.261958286
484.23500,2.177541509
484.23550,2.482735916
484.23600,1.261958286
484.23650,-0.5692081607
484.23700,-0.8744025684
484.23750,0.6515694701
484.23800,2.787930324
484.23850,3.703513547
484.23900,4.008707955
484.23950,4.924291178
484.24000,4.924291178
484.24050,3.093124732
484.24100,1.261958286
484.24150,1.261958286
484.24200,2.177541509
484.24250,2.177541509
484.24300,0.3463750624
484.24350,-1.484791384
484.24400,-1.789985791
484.24450,-0.5692081607
484.24500,-0.264013753
484.24550,-1.484791384
484.24600,-2.400374607
484.24650,-2.095180199
484.24700,-0.8744025684
484.24750,-0.264013753
484.24800,-0.5692081607
484.24850,-1.484791384
484.24900,-1.789985791
484.24950,-2.400374607
484.25000,-3.31595783
484.25050,-3.621152238
484.25100,-2.095180199
484.25150,0.04118065471
484.25200,1.567152693
484.25250,2.177541509
484.25300,3.093124732
484.25350,3.398319139
484.25400,2.482735916
484.25450,1.261958286
484.25500,1.567152693
484.25550,1.872347101
484.25600,0.04118065471
484.25650,-3.621152238
484.25700,-4.536735461
484.25750,0.04118065471
484.25800,5.839874401
484.25850,7.060652032
484.25900,4.008707955
484.25950,1.261958286
484.26000,0.9567638778
484.26050,1.872347101
484.26100,1.261958286
484.26150,-0.264013753
484.26200,-1.789985791
484.26250,-2.705569015
484.26300,-3.621152238
484.26350,-3.926346645
484.26400,-3.010763422
484.26450,-1.179596976
484.26500,-0.8744025684
484.26550,-1.789985791
484.26600,-2.705569015
484.26650,-2.095180199
484.26700,-1.789985791
484.26750,-3.31595783
484.26800,-6.062707499
484.26850,-6.978290722
484.26900,-4.841929869
484.26950,-1.484791384
484.27000,0.9567638778
484.27050,2.177541509
484.27100,2.177541509
484.27150,1.567152693
484.27200,1.872347101
484.27250,4.313902363
484.27300,7.060652032
484.27350,6.755457624
484.27400,2.177541509
484.27450,-3.010763422
484.27500,-6.673096315
484.27550,-7.588679538
484.27600,-7.28348513
484.27650,-5.757513092
484.27700,-2.705569015
484.27750,1.261958286
484.27800,5.229485586
484.27850,6.755457624
484.27900,4.61909677
484.27950,0.04118065471
484.28000,-3.621152238
484.28050,-3.926346645
484.28100,-1.484791384
484.28150,0.3463750624
484.28200,0.04118065471
484.28250,-0.264013753
484.28300,-0.5692081607
484.28350,0.04118065471
484.28400,0.9567638778
484.28450,1.567152693
484.28500,0.6515694701
484.28550,-0.8744025684
484.28600,-1.484791384
484.28650,-0.264013753
484.28700,1.261958286
484.28750,0.9567638778
484.28800,-0.264013753
484.28850,-0.8744025684
484.28900,-0.5692081607
484.28950,-0.264013753
484.29000,-0.8744025684
484.29050,-0.5692081607
484.29100,0.9567638778
484.29150,2.787930324
484.29200,4.008707955
484.29250,4.924291178
484.29300,5.534679993
484.29350,5.229485586
484.29400,3.703513547
484.29450,2.482735916
484.29500,2.177541509
484.29550,2.482735916
484.29600,1.567152693
484.29650,0.04118065471
484.29700,-0.8744025684
484.29750,-0.8744025684
484.29800,0.04118065471
484.29850,0.3463750624
484.29900,0.6515694701
484.29950,1.567152693
484.30000,2.482735916
484.30050,2.787930324
484.30100,1.567152693
484.30150,-0.264013753
484.30200,-1.789985791
484.30250,-1.484791384
484.30300,0.04118065471
484.30350,1.567152693
484.30400,1.567152693
484.30450,0.04118065471
484.30500,-1.789985791
484.30550,-3.010763422
484.30600,-3.621152238
484.30650,-3.926346645
484.30700,-4.231541053
484.30750,-3.926346645
484.30800,-3.926346645
484.30850,-5.757513092
484.30900,-7.588679538
484.30950,-4.536735461
484.31000,4.61909677
484.31050,15.30090104
484.31100,20.18401156
484.31150,16.52167867
484.31200,9.197012886
484.31250,2.787930324
484.31300,-2.400374607
484.31350,-7.893873946
484.31400,-11.55620684
484.31450,-10.94581802
484.31500,-6.062707499
484.31550,0.04118065471
484.31600,2.787930324
484.31650,0.9567638778
484.31700,-4.231541053
484.31750,-8.809457169
484.31800,-9.725040392
484.31850,-6.978290722
484.31900,-2.705569015
484.31950,0.04118065471
484.32000,1.872347101
484.32050,3.398319139
484.32100,3.703513547
484.32150,2.177541509
484.32200,0.04118065471
484.32250,-1.179596976
484.32300,-1.179596976
484.32350,-1.789985791
484.32400,-2.705569015
484.32450,-3.31595783
484.32500,-2.705569015
484.32550,-1.179596976
484.32600,-0.5692081607
484.32650,-1.179596976
484.32700,-1.789985791
484.32750,-1.179596976
484.32800,0.3463750624
484.32850,2.177541509
484.32900,2.787930324
484.32950,0.9567638778
484.33000,-1.789985791
484.33050,-3.31595783
484.33100,-3.010763422
484.33150,-1.789985791
484.33200,-0.5692081607
484.33250,0.04118065471
484.33300,1.261958286
484.33350,2.482735916
484.33400,1.872347101
484.33450,0.04118065471
484.33500,-0.8744025684
484.33550,0.04118065471
484.33600,2.482735916
484.33650,4.008707955
484.33700,3.398319139
484.33750,1.567152693
484.33800,0.04118065471
484.33850,0.04118065471
484.33900,0.3463750624
484.33950,0.04118065471
484.34000,-2.400374607
484.34050,-5.452318684
484.34100,-6.673096315
484.34150,-5.452318684
484.34200,-2.400374607
484.34250,0.3463750624
484.34300,1.872347101
484.34350,1.872347101
484.34400,0.04118065471
484.34450,-2.095180199
484.34500,-3.010763422
484.34550,-2.400374607
484.34600,-1.484791384
484.34650,-2.400374607
484.34700,-4.231541053
484.34750,-4.841929869
484.34800,-2.400374607
484.34850,1.261958286
484.34900,4.008707955
484.34950,3.703513547
484.35000,1.872347101
484.35050,0.6515694701
484.35100,0.9567638778
484.35150,1.261958286
484.35200,0.9567638778
484.35250,0.04118065471
484.35300,0.04118065471
484.35350,-0.264013753
484.35400,0.04118065471
484.35450,0.6515694701
484.35500,3.093124732
484.35550,5.229485586
484.35600,4.924291178
484.35650,3.398319139
484.35700,2.482735916
484.35750,3.398319139
484.35800,4.008707955
484.35850,2.482735916
484.35900,0.3463750624
484.35950,-0.264013753
484.36000,0.3463750624
484.36050,1.261958286
484.36100,1.567152693
484.36150,1.872347101
484.36200,2.177541509
484.36250,0.9567638778
484.36300,-0.5692081607
484.36350,-2.400374607
484.36400,-1.484791384
484.36450,1.261958286
484.36500,4.008707955
484.36550,4.924291178
484.36600,3.398319139
484.36650,1.567152693
484.36700,0.3463750624
484.36750,-0.264013753
484.36800,-1.179596976
484.36850,-2.095180199
484.36900,-2.400374607
484.36950,-2.400374607
484.37000,-3.31595783
484.37050,-6.367901907
484.37100,-8.504262761
484.37150,-6.978290722
484.37200,-2.095180199
484.37250,1.261958286
484.37300,1.261958286
484.37350,-0.264013753
484.37400,-1.179596976
484.37450,-0.5692081607
484.37500,-0.264013753
484.37550,-0.264013753
484.37600,0.3463750624
484.37650,2.482735916
484.37700,2.787930324
484.37750,1.567152693
484.37800,3.093124732
484.37850,8.58662407
484.37900,13.774929
484.37950,13.46973459
484.38000,8.281429663
484.38050,3.093124732
484.38100,0.9567638778
484.38150,0.04118065471
484.38200,-1.179596976
484.38250,-3.010763422
484.38300,-4.231541053
484.38350,-4.841929869
484.38400,-4.231541053
484.38450,-2.095180199
484.38500,1.261958286
484.38550,3.703513547
484.38600,4.313902363
484.38650,4.61909677
484.38700,4.61909677
484.38750,2.482735916
484.38800,-0.8744025684
484.38850,-3.621152238
484.38900,-2.400374607
484.38950,0.04118065471
484.39000,0.6515694701
484.39050,-0.5692081607
484.39100,-1.789985791
484.39150,-1.484791384
484.39200,-2.095180199
484.39250,-4.536735461
484.39300,-6.978290722
484.39350,-6.673096315
484.39400,-3.926346645
484.39450,-0.5692081607
484.39500,0.9567638778
484.39550,1.872347101
484.39600,3.398319139
484.39650,5.534679993
484.39700,6.755457624
484.39750,5.839874401
484.39800,3.703513547
484.39850,2.787930324
484.39900,3.398319139
484.39950,4.008707955
484.40000,4.313902363
484.40050,4.924291178
484.40100,5.839874401
484.40150,4.924291178
484.40200,2.177541509
484.40250,-0.5692081607
484.40300,-2.095180199
484.40350,-2.400374607
484.40400,-1.789985791
484.40450,0.04118065471
484.40500,1.261958286
484.40550,-0.8744025684
484.40600,-8.199068353
484.40650,-15.21853973
484.40700,-15.21853973
484.40750,-8.199068353
484.40800,0.04118065471
484.40850,4.61909677
484.40900,6.145068809
484.40950,6.450263216
484.41000,5.229485586
484.41050,3.398319139
484.41100,2.177541509
484.41150,1.872347101
484.41200,0.3463750624
484.41250,-3.621152238
484.41300,-7.893873946
484.41350,-8.809457169
484.41400,-6.367901907
484.41450,-4.536735461
484.41500,-4.841929869
484.41550,-5.147124276
484.41600,-3.31595783
484.41650,-2.095180199
484.41700,-3.31595783
484.41750,-5.452318684
484.41800,-3.926346645
484.41850,0.6515694701
484.41900,4.008707955
484.41950,2.787930324
484.42000,-0.264013753
484.42050,-2.400374607
484.42100,-2.400374607
484.42150,-0.8744025684
484.42200,0.9567638778
484.42250,1.567152693
484.42300,0.04118065471
484.42350,-1.789985791
484.42400,-2.095180199
484.42450,-0.5692081607
484.42500,0.6515694701
484.42550,0.9567638778
484.42600,1.567152693
484.42650,3.093124732
484.42700,5.229485586
484.42750,6.755457624
484.42800,8.281429663
484.42850,9.807401701
484.42900,8.58662407
484.42950,4.61909677
484.43000,1.261958286
484.43050,0.04118065471
484.43100,0.04118065471
484.43150,-1.484791384
484.43200,-4.536735461
484.43250,-5.757513092
484.43300,-4.231541053
484.43350,-1.179596976
484.43400,1.872347101
484.43450,4.313902363
484.43500,5.534679993
484.43550,5.229485586
484.43600,4.008707955
484.43650,2.787930324
484.43700,1.261958286
484.43750,0.04118065471
484.43800,-0.264013753
484.43850,0.04118065471
484.43900,0.3463750624
484.43950,0.6515694701
484.44000,1.261958286
484.44050,2.177541509
484.44100,1.872347101
484.44150,0.6515694701
484.44200,-1.179596976
484.44250,-2.095180199
484.44300,-2.095180199
484.44350,-0.5692081607
484.44400,0.9567638778
484.44450,1.567152693
484.44500,0.6515694701
484.44550,-0.264013753
484.44600,-0.5692081607
484.44650,-0.264013753
484.44700,-0.264013753
484.44750,-0.5692081607
484.44800,0.04118065471
484.44850,0.9567638778
484.44900,1.567152693
484.44950,1.261958286
484.45000,1.261958286
484.45050,1.872347101
484.45100,2.177541509
484.45150,0.6515694701
484.45200,-1.789985791
484.45250,-4.536735461
484.45300,-5.757513092
484.45350,-5.757513092
484.45400,-4.536735461
484.45450,-3.010763422
484.45500,-2.095180199
484.45550,-1.484791384
484.45600,0.04118065471
484.45650,2.177541509
484.45700,3.093124732
484.45750,1.872347101
484.45800,0.04118065471
484.45850,-0.5692081607
484.45900,-0.5692081607
484.45950,-1.179596976
484.46000,-2.095180199
484.46050,-2.400374607
484.46100,-1.484791384
484.46150,-0.5692081607
484.46200,-0.5692081607
484.46250,-1.484791384
484.46300,-1.789985791
484.46350,-1.484791384
484.46400,-0.8744025684
484.46450,0.04118065471
484.46500,0.3463750624
484.46550,0.9567638778
484.46600,0.6515694701
484.46650,0.04118065471
484.46700,-1.179596976
484.46750,-2.400374607
484.46800,-3.010763422
484.46850,-3.010763422
484.46900,-2.705569015
484.46950,-2.705569015
484.47000,-3.010763422
484.47050,-3.926346645
484.47100,-4.231541053
484.47150,-3.31595783
484.47200,-1.484791384
484.47250,-0.5692081607
484.47300,0.04118065471
484.47350,0.3463750624
484.47400,1.261958286
484.47450,1.261958286
484.47500,0.04118065471
484.47550,0.04118065471
484.47600,1.567152693
484.47650,3.703513547
484.47700,4.008707955
484.47750,3.093124732
484.47800,1.872347101
484.47850,0.9567638778
484.47900,0.04118065471
484.47950,-1.179596976
484.48000,-1.484791384
484.48050,-0.264013753
484.48100,0.04118065471
484.48150,0.3463750624
484.48200,0.3463750624
484.48250,-0.5692081607
484.48300,-2.705569015
484.48350,-3.621152238
484.48400,-2.400374607
484.48450,-0.5692081607
484.48500,-0.8744025684
484.48550,-3.010763422
484.48600,-4.231541053
484.48650,-2.705569015
484.48700,-0.264013753
484.48750,0.04118065471
484.48800,-0.264013753
484.48850,-0.264013753
484.48900,0.3463750624
484.48950,0.04118065471
484.49000,-0.264013753
484.49050,-0.264013753
484.49100,0.9567638778
484.49150,2.177541509
484.49200,2.787930324
484.49250,2.482735916
484.49300,2.787930324
484.49350,3.398319139
484.49400,3.398319139
484.49450,2.787930324
484.49500,2.482735916
484.49550,2.482735916
484.49600,2.177541509
484.49650,1.567152693
484.49700,1.261958286
484.49750,1.567152693
484.49800,1.567152693
484.49850,0.9567638778
484.49900,0.6515694701
484.49950,0.9567638778
484.50000,0.3463750624
484.50050,-3.31595783
484.50100,-8.199068353
484.50150,-8.504262761
484.50200,-3.926346645
484.50250,0.6515694701
484.50300,1.261958286
484.50350,-0.264013753
484.50400,0.04118065471
484.50450,2.787930324
484.50500,3.398319139
484.50550,0.9567638778
484.50600,-1.484791384
484.50650,-1.484791384
484.50700,-0.8744025684
484.50750,-0.8744025684
484.50800,-2.095180199
484.50850,-2.705569015
484.50900,-2.095180199
484.50950,-0.264013753
484.51000,2.482735916
484.51050,4.924291178
484.51100,4.924291178
484.51150,2.482735916
484.51200,0.04118065471
484.51250,0.04118065471
484.51300,0.3463750624
484.51350,0.9567638778
484.51400,1.567152693
484.51450,3.093124732
484.51500,4.313902363
484.51550,4.313902363
484.51600,3.398319139
484.51650,3.093124732
484.51700,2.177541509
484.51750,-0.264013753
484.51800,-3.31595783
484.51850,-3.926346645
484.51900,-1.484791384
484.51950,0.3463750624
484.52000,0.04118065471
484.52050,-2.095180199
484.52100,-3.926346645
484.52150,-2.400374607
484.52200,0.9567638778
484.52250,3.398319139
484.52300,3.093124732
484.52350,0.6515694701
484.52400,-1.484791384
484.52450,-3.621152238
484.52500,-5.147124276
484.52550,-5.147124276
484.52600,-2.400374607
484.52650,0.04118065471
484.52700,0.9567638778
484.52750,0.04118065471
484.52800,0.04118065471
484.52850,0.3463750624
484.52900,0.04118065471
484.52950,-1.179596976
484.53000,-2.095180199
484.53050,-1.484791384
484.53100,-1.484791384
484.53150,-1.484791384
484.53200,0.6515694701
484.53250,5.534679993
484.53300,8.58662407
484.53350,7.671040847
484.53400,4.924291178
484.53450,3.093124732
484.53500,2.482735916
484.53550,3.398319139
484.53600,5.839874401
484.53650,8.891818478
484.53700,9.197012886
484.53750,6.145068809
484.53800,2.787930324
484.53850,1.872347101
484.53900,1.567152693
484.53950,-0.8744025684
484.54000,-5.147124276
484.54050,-7.893873946
484.54100,-7.588679538
484.54150,-5.452318684
484.54200,-3.010763422
484.54250,-0.5692081607
484.54300,0.9567638778
484.54350,0.9567638778
484.54400,0.04118065471
484.54450,-0.264013753
484.54500,0.3463750624
484.54550,0.3463750624
484.54600,-0.5692081607
484.54650,-1.484791384
484.54700,-1.789985791
484.54750,-1.789985791
484.54800,-2.400374607
484.54850,-2.095180199
484.54900,-0.8744025684
484.54950,-0.264013753
484.55000,-0.8744025684
484.55050,-1.179596976
484.55100,-0.264013753
484.55150,0.3463750624
484.55200,0.6515694701
484.55250,0.9567638778
484.55300,1.567152693
484.55350,1.567152693
484.55400,0.6515694701
484.55450,0.6515694701
484.55500,2.787930324
484.55550,4.313902363
484.55600,2.177541509
484.55650,-1.179596976
484.55700,-2.095180199
484.55750,-0.5692081607
484.55800,-0.264013753
484.55850,-1.179596976
484.55900,-0.5692081607
484.55950,2.177541509
484.56000,4.313902363
484.56050,3.093124732
484.56100,1.261958286
484.56150,1.261958286
484.56200,2.177541509
484.56250,1.567152693
484.56300,0.04118065471
484.56350,-0.264013753
484.56400,0.9567638778
484.56450,1.567152693
484.56500,0.04118065471
484.56550,-1.789985791
484.56600,-3.31595783
484.56650,-3.31595783
484.56700,-3.31595783
484.56750,-4.231541053
484.56800,-5.147124276
484.56850,-6.062707499
484.56900,-6.367901907
484.56950,-5.147124276
484.57000,-3.31595783
484.57050,-1.789985791
484.57100,-1.179596976
484.57150,-2.095180199
484.57200,-3.010763422
484.57250,-3.31595783
484.57300,-2.400374607
484.57350,-0.5692081607
484.57400,0.3463750624
484.57450,0.04118065471
484.57500,-1.179596976
484.57550,-1.484791384
484.57600,-0.5692081607
484.57650,-0.5692081607
484.57700,-2.400374607
484.57750,-3.31595783
484.57800,0.04118065471
484.57850,4.008707955
484.57900,4.313902363
484.57950,0.9567638778
484.58000,-1.789985791
484.58050,-0.5692081607
484.58100,1.567152693
484.58150,2.177541509
484.58200,1.261958286
484.58250,1.567152693
484.58300,2.787930324
484.58350,3.703513547
484.58400,4.008707955
484.58450,4.924291178
484.58500,5.534679993
484.58550,4.313902363
484.58600,2.177541509
484.58650,0.9567638778
484.58700,0.3463750624
484.58750,-0.8744025684
484.58800,-3.010763422
484.58850,-4.841929869
484.58900,-5.452318684
484.58950,-5.147124276
484.59000,-4.231541053
484.59050,-3.010763422
484.59100,-2.095180199
484.59150,-2.705569015
484.59200,-3.621152238
484.59250,-3.31595783
484.59300,-2.095180199
484.59350,-1.179596976
484.59400,-0.5692081607
484.59450,0.3463750624
484.59500,2.177541509
484.59550,2.787930324
484.59600,2.177541509
484.59650,1.872347101
484.59700,2.787930324
484.59750,4.61909677
484.59800,5.229485586
484.59850,4.61909677
484.59900,4.008707955
484.59950,2.787930324
484.60000,1.261958286
484.60050,0.04118065471
484.60100,0.04118065471
484.60150,0.6515694701
484.60200,0.04118065471
484.60250,-0.5692081607
484.60300,-0.264013753
484.60350,1.261958286
484.60400,1.872347101
484.60450,0.6515694701
484.60500,-1.179596976
484.60550,-2.705569015
484.60600,-3.926346645
484.60650,-4.231541053
484.60700,-2.400374607
484.60750,0.9567638778
484.60800,3.093124732
484.60850,0.9567638778
484.60900,-2.400374607
484.60950,-4.231541053
484.61000,-3.621152238
484.61050,-2.705569015
484.61100,-2.400374607
484.61150,-1.484791384
484.61200,-0.264013753
484.61250,0.04118065471
484.61300,1.567152693
484.61350,5.839874401
484.61400,10.41779052
484.61450,10.41779052
484.61500,5.534679993
484.61550,0.9567638778
484.61600,0.9567638778
484.61650,3.398319139
484.61700,4.313902363
484.61750,3.398319139
484.61800,2.482735916
484.61850,3.093124732
484.61900,4.008707955
484.61950,3.398319139
484.62000,1.261958286
484.62050,-0.5692081607
484.62100,-1.179596976
484.62150,-0.264013753
484.62200,0.04118065471
484.62250,-1.484791384
484.62300,-3.010763422
484.62350,-3.010763422
484.62400,-1.484791384
484.62450,-1.179596976
484.62500,-2.400374607
484.62550,-2.705569015
484.62600,-0.8744025684
484.62650,-0.264013753
484.62700,-3.621152238
484.62750,-7.893873946
484.62800,-8.199068353
484.62850,-3.926346645
484.62900,0.9567638778
484.62950,2.787930324
484.63000,0.6515694701
484.63050,-2.705569015
484.63100,-4.841929869
484.63150,-4.536735461
484.63200,-2.095180199
484.63250,1.261958286
484.63300,4.008707955
484.63350,4.313902363
484.63400,2.787930324
484.63450,0.9567638778
484.63500,1.567152693
484.63550,3.398319139
484.63600,4.61909677
484.63650,3.703513547
484.63700,1.567152693
484.63750,0.04118065471
484.63800,-0.8744025684
484.63850,-1.789985791
484.63900,-3.010763422
484.63950,-3.621152238
484.64000,-2.705569015
484.64050,-1.789985791
484.64100,-1.484791384
484.64150,-1.484791384
484.64200,-1.484791384
484.64250,-1.179596976
484.64300,-2.400374607
484.64350,-5.757513092
484.64400,-10.64062361
484.64450,-13.38737328
484.64500,-12.16659565
484.64550,-7.588679538
484.64600,-1.789985791
484.64650,2.787930324
484.64700,6.755457624
484.64750,8.281429663
484.64800,6.450263216
484.64850,2.787930324
484.64900,0.3463750624
484.64950,1.872347101
484.65000,5.229485586
484.65050,7.671040847
484.65100,7.976235255
484.65150,7.060652032
484.65200,5.839874401
484.65250,4.008707955
484.65300,0.3463750624
484.65350,-3.31595783
484.65400,-6.062707499
484.65450,-5.147124276
484.65500,-2.400374607
484.65550,0.04118065471
484.65600,0.3463750624
484.65650,0.9567638778
484.65700,1.567152693
484.65750,1.872347101
484.65800,0.04118065471
484.65850,-3.31595783
484.65900,-4.841929869
484.65950,-2.705569015
484.66000,0.3463750624
484.66050,1.872347101
484.66100,1.567152693
484.66150,0.9567638778
484.66200,1.567152693
484.66250,1.567152693
484.66300,0.6515694701
484.66350,-0.5692081607
484.66400,-1.179596976
484.66450,-1.484791384
484.66500,-1.179596976
484.66550,-1.179596976
484.66600,-0.5692081607
484.66650,0.04118065471
484.66700,-0.264013753
484.66750,-1.789985791
484.66800,-2.400374607
484.66850,-1.484791384
484.66900,0.04118065471
484.66950,0.3463750624
484.67000,0.04118065471
484.67050,-0.5692081607
484.67100,-1.179596976
484.67150,-1.484791384
484.67200,-1.179596976
484.67250,-0.8744025684
484.67300,-0.264013753
484.67350,0.04118065471
484.67400,1.567152693
484.67450,3.398319139
484.67500,4.313902363
484.67550,2.482735916
484.67600,0.6515694701
484.67650,1.261958286
484.67700,3.093124732
484.67750,3.703513547
484.67800,2.482735916
484.67850,1.567152693
484.67900,1.872347101
484.67950,2.482735916
484.68000,2.177541509
484.68050,2.177541509
484.68100,3.093124732
484.68150,3.093124732
484.68200,1.261958286
484.68250,-0.264013753
484.68300,-0.5692081607
484.68350,0.3463750624
484.68400,0.3463750624
484.68450,-1.179596976
484.68500,-2.095180199
484.68550,-1.179596976
484.68600,0.9567638778
484.68650,2.787930324
484.68700,2.787930324
484.68750,1.261958286
484.68800,-0.264013753
484.68850,-1.179596976
484.68900,-0.264013753
484.68950,0.3463750624
484.69000,0.3463750624
484.69050,0.04118065471
484.69100,0.04118065471
484.69150,0.9567638778
484.69200,1.261958286
484.69250,0.6515694701
484.69300,0.04118065471
484.69350,0.3463750624
484.69400,1.872347101
484.69450,3.093124732
484.69500,2.787930324
484.69550,1.872347101
484.69600,1.261958286
484.69650,1.261958286
484.69700,0.9567638778
484.69750,0.04118065471
484.69800,0.04118065471
484.69850,0.04118065471
484.69900,0.9567638778
484.69950,1.261958286
484.70000,0.9567638778
484.70050,0.6515694701
484.70100,0.04118065471
484.70150,-0.8744025684
484.70200,-2.095180199
484.70250,-2.705569015
484.70300,-2.095180199
484.70350,-1.179596976
484.70400,-1.179596976
484.70450,-2.400374607
484.70500,-3.621152238
484.70550,-3.31595783
484.70600,-2.095180199
484.70650,-1.179596976
484.70700,-1.179596976
484.70750,-3.010763422
484.70800,-4.536735461
484.70850,-4.536735461
484.70900,-2.400374607
484.70950,0.3463750624
484.71000,2.482735916
484.71050,3.398319139
484.71100,3.093124732
484.71150,2.177541509
484.71200,1.567152693
484.71250,1.261958286
484.71300,1.567152693
484.71350,2.177541509
484.71400,2.482735916
484.71450,1.872347101
484.71500,0.6515694701
484.71550,0.3463750624
484.71600,0.6515694701
484.71650,1.567152693
484.71700,1.872347101
484.71750,2.177541509
484.71800,3.093124732
484.71850,3.398319139
484.71900,2.482735916
484.71950,0.3463750624
484.72000,-0.8744025684
484.72050,-0.264013753
484.72100,1.261958286
484.72150,2.177541509
484.72200,1.872347101
484.72250,1.261958286
484.72300,1.261958286
484.72350,1.261958286
484.72400,0.04118065471
484.72450,-2.400374607
484.72500,-3.621152238
484.72550,-2.400374607
484.72600,0.04118065471
484.72650,0.9567638778
484.72700,-0.264013753
484.72750,-2.705569015
484.72800,-4.536735461
484.72850,-5.147124276
484.72900,-4.536735461
484.72950,-3.926346645
484.73000,-3.926346645
484.73050,-5.757513092
484.73100,-8.199068353
484.73150,-9.725040392
484.73200,-8.199068353
484.73250,-4.536735461
484.73300,-0.5692081607
484.73350,1.261958286
484.73400,0.3463750624
484.73450,-1.179596976
484.73500,-1.179596976
484.73550,0.6515694701
484.73600,1.567152693
484.73650,0.04118065471
484.73700,-1.789985791
484.73750,-0.264013753
484.73800,3.093124732
484.73850,5.534679993
484.73900,5.229485586
484.73950,4.313902363
484.74000,3.398319139
484.74050,2.482735916
484.74100,0.9567638778
484.74150,0.04118065471
484.74200,-0.264013753
484.74250,-1.179596976
484.74300,-1.484791384
484.74350,-0.5692081607
484.74400,0.9567638778
484.74450,1.872347101
484.74500,0.9567638778
484.74550,0.3463750624
484.74600,0.6515694701
484.74650,0.6515694701
484.74700,-0.5692081607
484.74750,-2.095180199
484.74800,-1.484791384
484.74850,-0.264013753
484.74900,-0.5692081607
484.74950,-2.400374607
484.75000,-3.621152238
484.75050,-3.31595783
484.75100,-1.789985791
484.75150,-0.8744025684
484.75200,0.04118065471
484.75250,-0.264013753
484.75300,-0.5692081607
484.75350,-0.5692081607
484.75400,0.3463750624
484.75450,2.177541509
484.75500,2.787930324
484.75550,3.398319139
484.75600,5.839874401
484.75650,9.502207293
484.75700,10.72298492
484.75750,7.976235255
484.75800,3.703513547
484.75850,0.9567638778
484.75900,-0.8744025684
484.75950,-3.926346645
484.76000,-7.588679538
484.76050,-8.809457169
484.76100,-9.725040392
484.76150,-13.38737328
484.76200,-19.18606703
484.76250,-18.27048381
484.76300,-6.978290722
484.76350,7.060652032
484.76400,13.774929
484.76450,10.11259611
484.76500,3.398319139
484.76550,-0.264013753
484.76600,-1.484791384
484.76650,-2.705569015
484.76700,-3.010763422
484.76750,-3.010763422
484.76800,-2.705569015
484.76850,-2.705569015
484.76900,-0.8744025684
484.76950,1.567152693
484.77000,2.482735916
484.77050,0.9567638778
484.77100,0.04118065471
484.77150,1.567152693
484.77200,4.008707955
484.77250,3.703513547
484.77300,1.261958286
484.77350,0.04118065471
484.77400,0.9567638778
484.77450,2.177541509
484.77500,2.177541509
484.77550,0.9567638778
484.77600,0.6515694701
484.77650,1.261958286
484.77700,2.177541509
484.77750,2.177541509
484.77800,1.261958286
484.77850,1.567152693
484.77900,3.093124732
484.77950,4.61909677
484.78000,4.008707955
484.78050,2.177541509
484.78100,1.872347101
484.78150,3.398319139
484.78200,4.008707955
484.78250,2.177541509
484.78300,0.04118065471
484.78350,0.04118065471
484.78400,0.3463750624
484.78450,0.3463750624
484.78500,-0.5692081607
484.78550,-0.8744025684
484.78600,-0.5692081607
484.78650,0.04118065471
484.78700,0.04118065471
484.78750,0.04118065471
484.78800,0.04118065471
484.78850,0.3463750624
484.78900,0.04118065471
484.78950,0.6515694701
484.79000,2.177541509
484.79050,3.398319139
484.79100,2.787930324
484.79150,0.6515694701
484.79200,0.04118065471
484.79250,0.6515694701
484.79300,1.872347101
484.79350,1.261958286
484.79400,-0.264013753
484.79450,-0.8744025684
484.79500,-0.264013753
484.79550,0.04118065471
484.79600,-0.264013753
484.79650,-1.179596976
484.79700,-1.179596976
484.79750,-0.5692081607
484.79800,-0.264013753
484.79850,-0.5692081607
484.79900,-0.264013753
484.79950,0.04118065471
484.80000,0.6515694701
484.80050,1.567152693
484.80100,2.787930324
484.80150,3.093124732
484.80200,2.177541509
484.80250,0.04118065471
484.80300,-2.400374607
484.80350,-2.705569015
484.80400,-1.179596976
484.80450,-0.264013753
484.80500,-1.789985791
484.80550,-4.231541053
484.80600,-3.926346645
484.80650,-1.179596976
484.80700,-0.264013753
484.80750,-2.400374607
484.80800,-4.536735461
484.80850,-3.31595783
484.80900,-0.5692081607
484.80950,0.6515694701
484.81000,0.04118065471
484.81050,-1.179596976
484.81100,-2.095180199
484.81150,-2.400374607
484.81200,-1.789985791
484.81250,-0.264013753
484.81300,0.04118065471
484.81350,-1.484791384
484.81400,-2.400374607
484.81450,-1.484791384
484.81500,0.04118065471
484.81550,0.3463750624
484.81600,0.04118065471
484.81650,1.261958286
484.81700,2.787930324
484.81750,2.482735916
484.81800,0.6515694701
484.81850,0.04118065471
484.81900,0.6515694701
484.81950,1.567152693
484.82000,0.9567638778
484.82050,-0.264013753
484.82100,-0.8744025684
484.82150,0.3463750624
484.82200,1.872347101
484.82250,1.261958286
484.82300,-1.179596976
484.82350,-2.705569015
484.82400,-1.789985791
484.82450,0.6515694701
484.82500,1.872347101
484.82550,1.261958286
484.82600,0.04118065471
484.82650,-0.5692081607
484.82700,-1.179596976
484.82750,-2.095180199
484.82800,-2.705569015
484.82850,-3.010763422
484.82900,-3.010763422
484.82950,-2.705569015
484.83000,-2.705569015
484.83050,-2.400374607
484.83100,-2.095180199
484.83150,-1.179596976
484.83200,-0.264013753
484.83250,-0.264013753
484.83300,-0.5692081607
484.83350,-0.8744025684
484.83400,-0.264013753
484.83450,0.3463750624
484.83500,0.9567638778
484.83550,1.261958286
484.83600,1.567152693
484.83650,1.261958286
484.83700,0.04118065471
484.83750,-0.5692081607
484.83800,-0.264013753
484.83850,0.04118065471
484.83900,0.04118065471
484.83950,0.04118065471
484.84000,0.6515694701
484.84050,2.177541509
484.84100,2.482735916
484.84150,0.9567638778
484.84200,0.04118065471
484.84250,-0.264013753
484.84300,0.3463750624
484.84350,0.9567638778
484.84400,0.3463750624
484.84450,-0.264013753
484.84500,-0.5692081607
484.84550,0.3463750624
484.84600,2.787930324
484.84650,4.61909677
484.84700,4.008707955
484.84750,1.872347101
484.84800,0.9567638778
484.84850,2.177541509
484.84900,3.398319139
484.84950,2.177541509
484.85000,-1.789985791
484.85050,-4.536735461
484.85100,-2.400374607
484.85150,3.093124732
484.85200,6.755457624
484.85250,5.534679993
484.85300,1.567152693
484.85350,-1.179596976
484.85400,-2.400374607
484.85450,-2.705569015
484.85500,-1.789985791
484.85550,0.04118065471
484.85600,0.9567638778
484.85650,0.6515694701
484.85700,0.6515694701
484.85750,1.872347101
484.85800,3.703513547
484.85850,4.61909677
484.85900,4.61909677
484.85950,5.229485586
484.86000,4.61909677
484.86050,1.872347101
484.86100,-1.179596976
484.86150,-2.400374607
484.86200,-0.8744025684
484.86250,0.04118065471
484.86300,-0.264013753
484.86350,0.04118065471
484.86400,0.6515694701
484.86450,0.6515694701
484.86500,-1.179596976
484.86550,-3.31595783
484.86600,-3.926346645
484.86650,-3.010763422
484.86700,-1.179596976
484.86750,0.3463750624
484.86800,2.177541509
484.86850,2.787930324
484.86900,1.872347101
484.86950,0.04118065471
484.87000,-0.8744025684
484.87050,-1.789985791
484.87100,-2.095180199
484.87150,-1.484791384
484.87200,-0.8744025684
484.87250,-1.179596976
484.87300,-1.484791384
484.87350,-0.8744025684
484.87400,0.3463750624
484.87450,0.9567638778
484.87500,0.04118065471
484.87550,-0.264013753
484.87600,1.261958286
484.87650,3.093124732
484.87700,2.482735916
484.87750,-0.264013753
484.87800,-2.400374607
484.87850,-1.179596976
484.87900,0.6515694701
484.87950,1.567152693
484.88000,0.9567638778
484.88050,0.3463750624
484.88100,0.3463750624
484.88150,0.04118065471
484.88200,-0.8744025684
484.88250,-1.179596976
484.88300,-0.5692081607
484.88350,-0.5692081607
484.88400,-0.8744025684
484.88450,-1.179596976
484.88500,-1.179596976
484.88550,-0.5692081607
484.88600,-0.5692081607
484.88650,-0.8744025684
484.88700,-1.179596976
484.88750,-1.789985791
484.88800,-2.095180199
484.88850,-1.789985791
484.88900,0.04118065471
484.88950,0.6515694701
484.89000,0.04118065471
484.89050,-2.095180199
484.89100,-3.010763422
484.89150,-1.789985791
484.89200,0.04118065471
484.89250,0.3463750624
484.89300,0.04118065471
484.89350,-0.264013753
484.89400,-1.789985791
484.89450,-4.231541053
484.89500,-7.28348513
484.89550,-7.588679538
484.89600,-3.31595783
484.89650,4.008707955
484.89700,10.11259611
484.89750,11.63856815
484.89800,9.197012886
484.89850,6.145068809
484.89900,4.924291178
484.89950,4.61909677
484.90000,3.398319139
484.90050,1.261958286
484.90100,0.6515694701
484.90150,1.261958286
484.90200,1.872347101
484.90250,1.261958286
484.90300,0.04118065471
484.90350,-0.264013753
484.90400,-0.264013753
484.90450,-0.264013753
484.90500,-0.264013753
484.90550,-0.5692081607
484.90600,-1.179596976
484.90650,-2.095180199
484.90700,-1.789985791
484.90750,-1.179596976
484.90800,-0.5692081607
484.90850,-1.179596976
484.90900,-1.789985791
484.90950,-1.789985791
484.91000,-2.095180199
484.91050,-3.926346645
484.91100,-4.841929869
484.91150,-3.926346645
484.91200,-1.789985791
484.91250,-0.8744025684
484.91300,-0.5692081607
484.91350,0.3463750624
484.91400,1.567152693
484.91450,0.9567638778
484.91500,-0.5692081607
484.91550,-0.8744025684
484.91600,0.6515694701
484.91650,1.872347101
484.91700,1.872347101
484.91750,1.872347101
484.91800,3.093124732
484.91850,4.313902363
484.91900,3.398319139
484.91950,1.872347101
484.92000,0.6515694701
484.92050,0.6515694701
484.92100,1.261958286
484.92150,2.482735916
484.92200,3.398319139
484.92250,3.093124732
484.92300,1.261958286
484.92350,-0.5692081607
484.92400,-2.095180199
484.92450,-3.010763422
484.92500,-3.31595783
484.92550,-2.400374607
484.92600,-0.8744025684
484.92650,-0.8744025684
484.92700,-1.789985791
484.92750,-1.179596976
484.92800,0.3463750624
484.92850,0.9567638778
484.92900,-0.264013753
484.92950,-1.484791384
484.93000,-0.264013753
484.93050,1.261958286
484.93100,0.3463750624
484.93150,-1.789985791
484.93200,-2.705569015
484.93250,-0.5692081607
484.93300,0.9567638778
484.93350,0.04118065471
484.93400,-1.484791384
484.93450,-2.095180199
484.93500,-1.179596976
484.93550,0.04118065471
484.93600,0.3463750624
484.93650,0.6515694701
484.93700,0.3463750624
484.93750,0.04118065471
484.93800,-0.264013753
484.93850,-0.5692081607
484.93900,-0.8744025684
484.93950,-1.484791384
484.94000,-1.179596976
484.94050,0.04118065471
484.94100,1.872347101
484.94150,2.482735916
484.94200,2.177541509
484.94250,1.872347101
484.94300,1.872347101
484.94350,0.9567638778
484.94400,0.04118065471
484.94450,-1.179596976
484.94500,-1.789985791
484.94550,-1.789985791
484.94600,-1.179596976
484.94650,-0.5692081607
484.94700,-0.5692081607
484.94750,-0.8744025684
484.94800,-1.179596976
484.94850,-1.179596976
484.94900,-1.484791384
484.94950,-2.400374607
484.95000,-2.400374607
484.95050,-1.484791384
484.95100,-0.5692081607
484.95150,-1.179596976
484.95200,-3.010763422
484.95250,-4.536735461
484.95300,-6.062707499
484.95350,-6.978290722
484.95400,-6.367901907
484.95450,-3.010763422
484.95500,1.567152693
484.95550,4.313902363
484.95600,3.398319139
484.95650,1.567152693
484.95700,1.261958286
484.95750,2.482735916
484.95800,2.787930324
484.95850,2.177541509
484.95900,1.567152693
484.95950,0.9567638778
484.96000,-0.5692081607
484.96050,-2.095180199
484.96100,-0.8744025684
484.96150,2.787930324
484.96200,6.755457624
484.96250,7.060652032
484.96300,4.61909677
484.96350,1.567152693
484.96400,0.04118065471
484.96450,0.04118065471
484.96500,0.04118065471
484.96550,0.3463750624
484.96600,0.04118065471
484.96650,-0.8744025684
484.96700,-0.8744025684
484.96750,-0.264013753
484.96800,-0.264013753
484.96850,-1.484791384
484.96900,-2.400374607
484.96950,-1.484791384
484.97000,0.04118065471
484.97050,0.3463750624
484.97100,0.04118065471
484.97150,0.04118065471
484.97200,0.3463750624
484.97250,0.3463750624
484.97300,0.3463750624
484.97350,0.04118065471
484.97400,-0.8744025684
484.97450,-1.789985791
484.97500,-1.789985791
484.97550,0.04118065471
484.97600,1.872347101
484.97650,3.398319139
484.97700,4.008707955
484.97750,4.008707955
484.97800,3.093124732
484.97850,0.9567638778
484.97900,0.04118065471
484.97950,0.6515694701
484.98000,2.482735916
484.98050,3.093124732
484.98100,3.093124732
484.98150,3.093124732
484.98200,3.093124732
484.98250,1.872347101
484.98300,-0.5692081607
484.98350,-1.789985791
484.98400,-0.5692081607
484.98450,0.9567638778
484.98500,0.9567638778
484.98550,-0.264013753
484.98600,-1.789985791
484.98650,-2.705569015
484.98700,-3.010763422
484.98750,-2.400374607
484.98800,-1.179596976
484.98850,0.04118065471
484.98900,0.6515694701
484.98950,0.04118065471
484.99000,-0.264013753
484.99050,0.04118065471
484.99100,1.567152693
484.99150,3.093124732
484.99200,4.924291178
484.99250,6.450263216
484.99300,5.229485586
484.99350,-0.5692081607
484.99400,-7.893873946
484.99450,-10.64062361
484.99500,-6.673096315
484.99550,-1.179596976
484.99600,-0.264013753
484.99650,-3.621152238
484.99700,-5.757513092
484.99750,-3.010763422
484.99800,1.872347101
484.99850,5.229485586
484.99900,4.008707955
484.99950,0.3463750624
485.00000,-2.095180199
485.00050,-2.400374607
485.00100,-0.5692081607
485.00150,1.872347101
485.00200,4.61909677
485.00250,6.450263216
485.00300,7.060652032
485.00350,5.839874401
485.00400,3.093124732
485.00450,0.3463750624
485.00500,-0.264013753
485.00550,0.04118065471
485.00600,0.9567638778
485.00650,1.872347101
485.00700,2.177541509
485.00750,1.872347101
485.00800,0.9567638778
485.00850,-0.264013753
485.00900,-2.095180199
485.00950,-4.231541053
485.01000,-6.367901907
485.01050,-7.588679538
485.01100,-7.893873946
485.01150,-6.673096315
485.01200,-5.757513092
485.01250,-4.231541053
485.01300,-2.705569015
485.01350,-0.8744025684
485.01400,0.04118065471
485.01450,0.04118065471
485.01500,-0.264013753
485.01550,-1.789985791
485.01600,-2.705569015
485.01650,-2.095180199
485.01700,1.872347101
485.01750,6.755457624
485.01800,8.281429663
485.01850,5.534679993
485.01900,1.872347101
485.01950,0.9567638778
485.02000,1.872347101
485.02050,1.567152693
485.02100,1.261958286
485.02150,2.787930324
485.02200,4.924291178
485.02250,4.924291178
485.02300,2.482735916
485.02350,0.6515694701
485.02400,0.9567638778
485.02450,1.872347101
485.02500,0.9567638778
485.02550,0.04118065471
485.02600,-0.264013753
485.02650,0.04118065471
485.02700,0.04118065471
485.02750,0.04118065471
485.02800,0.3463750624
485.02850,0.3463750624
485.02900,0.04118065471
485.02950,0.6515694701
485.03000,2.177541509
485.03050,3.093124732
485.03100,0.6515694701
485.03150,-3.010763422
485.03200,-5.452318684
485.03250,-6.367901907
485.03300,-7.28348513
485.03350,-7.893873946
485.03400,-5.452318684
485.03450,-0.264013753
485.03500,3.398319139
485.03550,3.093124732
485.03600,0.6515694701
485.03650,0.04118065471
485.03700,1.261958286
485.03750,1.567152693
485.03800,0.3463750624
485.03850,0.3463750624
485.03900,2.787930324
485.03950,5.229485586
485.04000,4.313902363
485.04050,0.6515694701
485.04100,-2.400374607
485.04150,-3.31595783
485.04200,-2.705569015
485.04250,-1.789985791
485.04300,-1.179596976
485.04350,-0.5692081607
485.04400,-0.264013753
485.04450,-0.5692081607
485.04500,0.3463750624
485.04550,2.482735916
485.04600,4.313902363
485.04650,3.398319139
485.04700,1.261958286
485.04750,-0.5692081607
485.04800,-1.179596976
485.04850,-1.179596976
485.04900,-0.264013753
485.04950,0.04118065471
485.05000,-0.264013753
485.05050,-2.705569015
485.05100,-3.31595783
485.05150,-0.8744025684
485.05200,2.787930324
485.05250,4.313902363
485.05300,2.177541509
485.05350,0.6515694701
485.05400,1.261958286
485.05450,2.482735916
485.05500,1.872347101
485.05550,0.3463750624
485.05600,-0.264013753
485.05650,0.04118065471
485.05700,0.3463750624
485.05750,1.261958286
485.05800,2.482735916
485.05850,3.093124732
485.05900,2.482735916
485.05950,1.261958286
485.06000,0.3463750624
485.06050,-0.5692081607
485.06100,-2.095180199
485.06150,-3.010763422
485.06200,-2.400374607
485.06250,-1.484791384
485.06300,-0.8744025684
485.06350,-0.8744025684
485.06400,-0.8744025684
485.06450,-1.484791384
485.06500,-2.400374607
485.06550,-3.010763422
485.06600,-2.705569015
485.06650,-1.789985791
485.06700,-2.095180199
485.06750,-3.621152238
485.06800,-4.231541053
485.06850,-3.31595783
485.06900,-1.179596976
485.06950,0.3463750624
485.07000,1.261958286
485.07050,0.9567638778
485.07100,0.04118065471
485.07150,-1.789985791
485.07200,-3.31595783
485.07250,-4.231541053
485.07300,-3.926346645
485.07350,-3.010763422
485.07400,-1.789985791
485.07450,-0.5692081607
485.07500,-0.5692081607
485.07550,-1.179596976
485.07600,-2.095180199
485.07650,-2.705569015
485.07700,-3.010763422
485.07750,-2.705569015
485.07800,-2.095180199
485.07850,-1.484791384
485.07900,-1.179596976
485.07950,-0.8744025684
485.08000,0.04118065471
485.08050,1.872347101
485.08100,3.093124732
485.08150,3.398319139
485.08200,3.093124732
485.08250,2.787930324
485.08300,1.872347101
485.08350,0.9567638778
485.08400,0.3463750624
485.08450,0.6515694701
485.08500,0.6515694701
485.08550,0.04118065471
485.08600,-0.5692081607
485.08650,-0.5692081607
485.08700,0.04118065471
485.08750,0.6515694701
485.08800,0.6515694701
485.08850,0.6515694701
485.08900,0.3463750624
485.08950,0.04118065471
485.09000,0.04118065471
485.09050,0.3463750624
485.09100,0.04118065471
485.09150,-0.264013753
485.09200,0.04118065471
485.09250,0.6515694701
485.09300,0.6515694701
485.09350,-0.5692081607
485.09400,-1.789985791
485.09450,-0.264013753
485.09500,3.093124732
485.09550,5.229485586
485.09600,4.61909677
485.09650,2.787930324
485.09700,1.567152693
485.09750,1.872347101
485.09800,1.567152693
485.09850,0.3463750624
485.09900,-0.5692081607
485.09950,-0.8744025684
485.10000,-0.5692081607
485.10050,-0.8744025684
485.10100,-1.789985791
485.10150,-1.484791384
485.10200,0.04118065471
485.10250,1.567152693
485.10300,1.567152693
485.10350,0.04118065471
485.10400,-0.8744025684
485.10450,-1.179596976
485.10500,-0.8744025684
485.10550,-0.264013753
485.10600,0.04118065471
485.10650,0.04118065471
485.10700,0.04118065471
485.10750,0.04118065471
485.10800,0.3463750624
485.10850,0.6515694701
485.10900,0.3463750624
485.10950,0.04118065471
485.11000,0.04118065471
485.11050,0.3463750624
485.11100,1.261958286
485.11150,1.872347101
485.11200,1.567152693
485.11250,0.9567638778
485.11300,0.04118065471
485.11350,-0.264013753
485.11400,-0.264013753
485.11450,0.04118065471
485.11500,0.04118065471
485.11550,0.04118065471
485.11600,0.6515694701
485.11650,1.567152693
485.11700,1.567152693
485.11750,0.6515694701
485.11800,-0.264013753
485.11850,0.04118065471
485.11900,1.872347101
485.11950,3.398319139
485.12000,3.093124732
485.12050,0.9567638778
485.12100,-0.5692081607
485.12150,-0.8744025684
485.12200,-0.264013753
485.12250,-0.5692081607
485.12300,-2.095180199
485.12350,-3.926346645
485.12400,-3.926346645
485.12450,-1.484791384
485.12500,1.567152693
485.12550,4.008707955
485.12600,4.008707955
485.12650,1.567152693
485.12700,-0.8744025684
485.12750,-2.400374607
485.12800,-2.400374607
485.12850,-2.095180199
485.12900,-1.179596976
485.12950,-0.5692081607
485.13000,-0.5692081607
485.13050,-0.5692081607
485.13100,-0.5692081607
485.13150,0.04118065471
485.13200,0.9567638778
485.13250,1.567152693
485.13300,1.567152693
485.13350,1.261958286
485.13400,1.872347101
485.13450,2.482735916
485.13500,3.093124732
485.13550,3.398319139
485.13600,4.008707955
485.13650,4.313902363
485.13700,3.703513547
485.13750,2.482735916
485.13800,1.261958286
485.13850,0.9567638778
485.13900,0.04118065471
485.13950,-1.789985791
485.14000,-3.31595783
485.14050,-2.705569015
485.14100,-0.5692081607
485.14150,0.3463750624
485.14200,-0.5692081607
485.14250,-2.705569015
485.14300,-3.31595783
485.14350,-2.095180199
485.14400,-0.8744025684
485.14450,-0.5692081607
485.14500,-0.5692081607
485.14550,-0.5692081607
485.14600,0.04118065471
485.14650,0.6515694701
485.14700,1.261958286
485.14750,1.261958286
485.14800,0.6515694701
485.14850,0.04118065471
485.14900,-0.5692081607
485.14950,-0.5692081607
485.15000,-0.8744025684
485.15050,-0.5692081607
485.15100,0.6515694701
485.15150,2.787930324
485.15200,2.482735916
485.15250,-0.8744025684
485.15300,-3.926346645
485.15350,-2.400374607
485.15400,2.787930324
485.15450,7.060652032
485.15500,7.060652032
485.15550,4.008707955
485.15600,0.3463750624
485.15650,-1.179596976
485.15700,-1.484791384
485.15750,-0.264013753
485.15800,0.3463750624
485.15850,-0.264013753
485.15900,-2.400374607
485.15950,-3.926346645
485.16000,-3.31595783
485.16050,-2.400374607
485.16100,-2.095180199
485.16150,-1.789985791
485.16200,-0.5692081607
485.16250,0.04118065471
485.16300,-0.8744025684
485.16350,-3.010763422
485.16400,-3.010763422
485.16450,-0.8744025684
485.16500,0.9567638778
485.16550,2.482735916
485.16600,3.398319139
485.16650,4.313902363
485.16700,4.008707955
485.16750,2.482735916
485.16800,1.261958286
485.16850,1.261958286
485.16900,0.6515694701
485.16950,-1.179596976
485.17000,-3.31595783
485.17050,-4.536735461
485.17100,-4.231541053
485.17150,-3.010763422
485.17200,-1.179596976
485.17250,0.3463750624
485.17300,0.6515694701
485.17350,-0.264013753
485.17400,-1.484791384
485.17450,-1.179596976
485.17500,-0.8744025684
485.17550,-2.095180199
485.17600,-4.231541053
485.17650,-5.147124276
485.17700,-3.926346645
485.17750,-2.095180199
485.17800,-0.8744025684
485.17850,-0.264013753
485.17900,0.04118065471
485.17950,0.6515694701
485.18000,1.261958286
485.18050,0.6515694701
485.18100,-0.5692081607
485.18150,-1.789985791
485.18200,-2.400374607
485.18250,-2.400374607
485.18300,-1.179596976
485.18350,1.261958286
485.18400,4.313902363
485.18450,4.924291178
485.18500,2.482735916
485.18550,-0.8744025684
485.18600,-1.789985791
485.18650,-0.264013753
485.18700,0.04118065471
485.18750,-3.31595783
485.18800,-8.199068353
485.18850,-10.64062361
485.18900,-7.893873946
485.18950,-1.179596976
485.19000,4.61909677
485.19050,6.450263216
485.19100,4.61909677
485.19150,2.787930324
485.19200,2.787930324
485.19250,4.313902363
485.19300,4.924291178
485.19350,4.61909677
485.19400,4.61909677
485.19450,5.229485586
485.19500,5.534679993
485.19550,4.924291178
485.19600,3.703513547
485.19650,2.787930324
485.19700,2.787930324
485.19750,2.787930324
485.19800,2.177541509
485.19850,0.04118065471
485.19900,-2.400374607
485.19950,-4.231541053
485.20000,-4.231541053
485.20050,-2.705569015
485.20100,-0.5692081607
485.20150,0.04118065471
485.20200,0.04118065471
485.20250,0.04118065471
485.20300,0.04118065471
485.20350,-0.264013753
485.20400,-1.789985791
485.20450,-2.705569015
485.20500,-3.010763422
485.20550,-2.095180199
485.20600,-1.789985791
485.20650,-2.095180199
485.20700,-2.400374607
485.20750,-2.095180199
485.20800,-1.179596976
485.20850,-0.8744025684
485.20900,-0.5692081607
485.20950,-0.5692081607
485.21000,-0.8744025684
485.21050,-0.8744025684
485.21100,-0.264013753
485.21150,0.04118065471
485.21200,0.3463750624
485.21250,0.3463750624
485.21300,0.9567638778
485.21350,1.872347101
485.21400,2.177541509
485.21450,2.177541509
485.21500,2.787930324
485.21550,3.703513547
485.21600,4.313902363
485.21650,3.398319139
485.21700,1.872347101
485.21750,0.9567638778
485.21800,0.9567638778
485.21850,1.567152693
485.21900,2.482735916
485.21950,3.398319139
485.22000,2.787930324
485.22050,1.567152693
485.22100,0.6515694701
485.22150,0.3463750624
485.22200,0.04118065471
485.22250,-0.8744025684
485.22300,-2.095180199
485.22350,-2.400374607
485.22400,-2.400374607
485.22450,-3.31595783
485.22500,-4.536735461
485.22550,-4.536735461
485.22600,-3.31595783
485.22650,-3.31595783
485.22700,-4.231541053
485.22750,-4.536735461
485.22800,-4.231541053
485.22850,-3.621152238
485.22900,-3.010763422
485.22950,-1.484791384
485.23000,0.04118065471
485.23050,0.04118065471
485.23100,-1.484791384
485.23150,-3.31595783
485.23200,-3.31595783
485.23250,-1.179596976
485.23300,0.9567638778
485.23350,2.482735916
485.23400,2.177541509
485.23450,0.9567638778
485.23500,1.567152693
485.23550,4.924291178
485.23600,8.281429663
485.23650,8.58662407
485.23700,6.755457624
485.23750,5.839874401
485.23800,6.755457624
485.23850,6.450263216
485.23900,3.093124732
485.23950,-0.264013753
485.24000,-1.789985791
485.24050,-1.179596976
485.24100,-0.8744025684
485.24150,-1.179596976
485.24200,-2.400374607
485.24250,-3.621152238
485.24300,-3.621152238
485.24350,-1.789985791
485.24400,1.567152693
485.24450,3.398319139
485.24500,2.787930324
485.24550,1.567152693
485.24600,1.872347101
485.24650,2.177541509
485.24700,1.872347101
485.24750,1.261958286
485.24800,0.9567638778
485.24850,0.9567638778
485.24900,0.6515694701
485.24950,0.6515694701
485.25000,0.6515694701
485.25050,0.6515694701
485.25100,0.04118065471
485.25150,-0.5692081607
485.25200,0.04118065471
485.25250,0.9567638778
485.25300,0.9567638778
485.25350,0.6515694701
485.25400,0.9567638778
485.25450,1.261958286
485.25500,1.261958286
485.25550,0.9567638778
485.25600,0.6515694701
485.25650,0.6515694701
485.25700,0.9567638778
485.25750,0.9567638778
485.25800,1.261958286
485.25850,1.261958286
485.25900,0.3463750624
485.25950,-0.5692081607
485.26000,-1.179596976
485.26050,-0.5692081607
485.26100,0.6515694701
485.26150,1.872347101
485.26200,0.9567638778
485.26250,-1.179596976
485.26300,-3.010763422
485.26350,-3.31595783
485.26400,-2.400374607
485.26450,-1.484791384
485.26500,-1.179596976
485.26550,-1.179596976
485.26600,-1.789985791
485.26650,-2.400374607
485.26700,-2.705569015
485.26750,-2.095180199
485.26800,-1.484791384
485.26850,-1.789985791
485.26900,-1.789985791
485.26950,-1.484791384
485.27000,-1.179596976
485.27050,-1.789985791
485.27100,-3.926346645
485.27150,-6.062707499
485.27200,-7.588679538
485.27250,-8.199068353
485.27300,-7.28348513
485.27350,-4.841929869
485.27400,-1.789985791
485.27450,0.04118065471
485.27500,1.261958286
485.27550,2.177541509
485.27600,4.008707955
485.27650,6.145068809
485.27700,6.755457624
485.27750,5.534679993
485.27800,2.787930324
485.27850,0.9567638778
485.27900,1.261958286
485.27950,2.177541509
485.28000,1.872347101
485.28050,0.6515694701
485.28100,0.6515694701
485.28150,2.177541509
485.28200,4.008707955
485.28250,3.703513547
485.28300,1.567152693
485.28350,0.6515694701
485.28400,1.567152693
485.28450,2.482735916
485.28500,0.9567638778
485.28550,-0.8744025684
485.28600,-1.789985791
485.28650,-1.179596976
485.28700,-0.8744025684
485.28750,-2.400374607
485.28800,-3.926346645
485.28850,-3.31595783
485.28900,-1.179596976
485.28950,0.04118065471
485.29000,0.04118065471
485.29050,-1.484791384
485.29100,-1.484791384
485.29150,-0.5692081607
485.29200,0.04118065471
485.29250,-0.8744025684
485.29300,-3.31595783
485.29350,-4.841929869
485.29400,-3.926346645
485.29450,-1.789985791
485.29500,-0.8744025684
485.29550,-0.264013753
485.29600,0.9567638778
485.29650,4.008707955
485.29700,6.755457624
485.29750,6.145068809
485.29800,3.093124732
485.29850,0.6515694701
485.29900,0.04118065471
485.29950,0.3463750624
485.30000,0.04118065471
485.30050,0.04118065471
485.30100,0.04118065471
485.30150,0.3463750624
485.30200,0.3463750624
485.30250,0.04118065471
485.30300,-0.264013753
485.30350,-1.789985791
485.30400,-3.926346645
485.30450,-5.147124276
485.30500,-4.231541053
485.30550,-2.400374607
485.30600,-1.789985791
485.30650,-1.789985791
485.30700,-2.095180199
485.30750,-1.789985791
485.30800,-1.484791384
485.30850,-2.095180199
485.30900,-2.705569015
485.30950,-3.010763422
485.31000,-2.095180199
485.31050,-0.264013753
485.31100,0.6515694701
485.31150,0.6515694701
485.31200,0.04118065471
485.31250,0.04118065471
485.31300,1.261958286
485.31350,3.398319139
485.31400,4.008707955
485.31450,3.093124732
485.31500,1.872347101
485.31550,2.787930324
485.31600,4.61909677
485.31650,5.534679993
485.31700,5.229485586
485.31750,4.61909677
485.31800,4.61909677
485.31850,4.61909677
485.31900,3.703513547
485.31950,1.567152693
485.32000,0.9567638778
485.32050,1.567152693
485.32100,0.3463750624
485.32150,-4.536735461
485.32200,-11.25101243
485.32250,-13.08217888
485.32300,-8.809457169
485.32350,-2.095180199
485.32400,1.872347101
485.32450,2.177541509
485.32500,1.261958286
485.32550,0.04118065471
485.32600,0.04118065471
485.32650,1.261958286
485.32700,2.177541509
485.32750,0.04118065471
485.32800,-5.147124276
485.32850,-10.33542921
485.32900,-10.33542921
485.32950,-5.147124276
485.33000,0.04118065471
485.33050,1.567152693
485.33100,0.6515694701
485.33150,0.04118065471
485.33200,0.04118065471
485.33250,0.04118065471
485.33300,0.6515694701
485.33350,1.567152693
485.33400,1.567152693
485.33450,0.6515694701
485.33500,-0.264013753
485.33550,0.04118065471
485.33600,1.261958286
485.33650,2.482735916
485.33700,2.177541509
485.33750,1.567152693
485.33800,1.872347101
485.33850,3.093124732
485.33900,4.008707955
485.33950,3.703513547
485.34000,3.398319139
485.34050,3.398319139
485.34100,3.093124732
485.34150,2.482735916
485.34200,1.567152693
485.34250,1.872347101
485.34300,2.482735916
485.34350,2.482735916
485.34400,1.261958286
485.34450,-0.264013753
485.34500,-1.179596976
485.34550,-1.484791384
485.34600,-1.179596976
485.34650,-1.179596976
485.34700,-1.484791384
485.34750,-1.179596976
485.34800,-0.264013753
485.34850,-0.264013753
485.34900,-2.400374607
485.34950,-5.147124276
485.35000,-6.062707499
485.35050,-4.536735461
485.35100,-3.010763422
485.35150,-3.31595783
485.35200,-4.231541053
485.35250,-3.010763422
485.35300,0.04118065471
485.35350,2.177541509
485.35400,3.093124732
485.35450,3.703513547
485.35500,4.313902363
485.35550,4.313902363
485.35600,3.703513547
485.35650,3.093124732
485.35700,3.093124732
485.35750,2.482735916
485.35800,1.567152693
485.35850,1.567152693
485.35900,2.177541509
485.35950,2.787930324
485.36000,2.177541509
485.36050,0.6515694701
485.36100,0.04118065471
485.36150,0.04118065471
485.36200,0.04118065471
485.36250,0.9567638778
485.36300,1.261958286
485.36350,1.567152693
485.36400,1.261958286
485.36450,0.6515694701
485.36500,0.04118065471
485.36550,0.04118065471
485.36600,0.04118065471
485.36650,-0.264013753
485.36700,0.04118065471
485.36750,0.04118065471
485.36800,-0.264013753
485.36850,-1.789985791
485.36900,-2.705569015
485.36950,-0.5692081607
485.37000,2.787930324
485.37050,3.093124732
485.37100,-0.5692081607
485.37150,-3.926346645
485.37200,-1.484791384
485.37250,3.398319139
485.37300,5.839874401
485.37350,4.924291178
485.37400,4.924291178
485.37450,6.450263216
485.37500,5.534679993
485.37550,1.567152693
485.37600,-0.5692081607
485.37650,0.6515694701
485.37700,2.177541509
485.37750,1.567152693
485.37800,0.9567638778
485.37850,2.482735916
485.37900,4.924291178
485.37950,5.229485586
485.38000,4.008707955
485.38050,1.567152693
485.38100,-2.095180199
485.38150,-5.757513092
485.38200,-6.062707499
485.38250,-2.400374607
485.38300,0.04118065471
485.38350,-2.400374607
485.38400,-6.062707499
485.38450,-6.673096315
485.38500,-4.536735461
485.38550,-3.010763422
485.38600,-2.400374607
485.38650,-2.095180199
485.38700,-2.095180199
485.38750,-2.705569015
485.38800,-2.705569015
485.38850,-0.264013753
485.38900,2.177541509
485.38950,2.177541509
485.39000,0.04118065471
485.39050,-0.264013753
485.39100,1.872347101
485.39150,4.008707955
485.39200,3.093124732
485.39250,0.04118065471
485.39300,-1.789985791
485.39350,-1.484791384
485.39400,-0.264013753
485.39450,0.04118065471
485.39500,0.04118065471
485.39550,0.3463750624
485.39600,1.872347101
485.39650,2.482735916
485.39700,1.872347101
485.39750,0.9567638778
485.39800,0.9567638778
485.39850,0.6515694701
485.39900,0.3463750624
485.39950,1.567152693
485.40000,3.398319139
485.40050,4.313902363
485.40100,2.482735916
485.40150,0.04118065471
485.40200,-0.5692081607
485.40250,0.04118065471
485.40300,0.3463750624
485.40350,0.6515694701
485.40400,0.6515694701
485.40450,0.04118065471
485.40500,-2.705569015
485.40550,-5.757513092
485.40600,-6.062707499
485.40650,-3.926346645
485.40700,-2.705569015
485.40750,-3.926346645
485.40800,-6.062707499
485.40850,-5.757513092
485.40900,-4.231541053
485.40950,-3.010763422
485.41000,-3.010763422
485.41050,-3.31595783
485.41100,-2.705569015
485.41150,-2.400374607
485.41200,-2.400374607
485.41250,-2.095180199
485.41300,-1.484791384
485.41350,-0.8744025684
485.41400,-1.179596976
485.41450,-2.705569015
485.41500,-4.841929869
485.41550,-6.367901907
485.41600,-6.673096315
485.41650,-4.231541053
485.41700,0.6515694701
485.41750,7.060652032
485.41800,11.02817933
485.41850,10.72298492
485.41900,7.671040847
485.41950,4.924291178
485.42000,4.008707955
485.42050,4.008707955
485.42100,4.313902363
485.42150,5.229485586
485.42200,5.534679993
485.42250,3.398319139
485.42300,-0.264013753
485.42350,-2.705569015
485.42400,-2.400374607
485.42450,-1.789985791
485.42500,-2.400374607
485.42550,-3.926346645
485.42600,-3.621152238
485.42650,-2.705569015
485.42700,-4.841929869
485.42750,-8.504262761
485.42800,-9.419845984
485.42850,-4.841929869
485.42900,0.3463750624
485.42950,1.872347101
485.43000,0.3463750624
485.43050,0.04118065471
485.43100,0.9567638778
485.43150,1.872347101
485.43200,1.567152693
485.43250,0.6515694701
485.43300,0.6515694701
485.43350,0.3463750624
485.43400,-0.264013753
485.43450,-0.264013753
485.43500,0.04118065471
485.43550,0.9567638778
485.43600,1.261958286
485.43650,1.261958286
485.43700,0.9567638778
485.43750,0.04118065471
485.43800,-1.179596976
485.43850,-1.484791384
485.43900,0.04118065471
485.43950,3.093124732
485.44000,4.924291178
485.44050,4.008707955
485.44100,1.872347101
485.44150,0.04118065471
485.44200,-0.264013753
485.44250,-0.5692081607
485.44300,-0.5692081607
485.44350,0.04118065471
485.44400,0.3463750624
485.44450,-0.5692081607
485.44500,-2.705569015
485.44550,-3.010763422
485.44600,-0.264013753
485.44650,2.177541509
485.44700,1.872347101
485.44750,0.04118065471
485.44800,-0.264013753
485.44850,0.04118065471
485.44900,-0.264013753
485.44950,-1.179596976
485.45000,-1.789985791
485.45050,-0.8744025684
485.45100,-0.264013753
485.45150,0.04118065471
485.45200,0.3463750624
485.45250,0.9567638778
485.45300,0.9567638778
485.45350,0.3463750624
485.45400,0.3463750624
485.45450,0.04118065471
485.45500,-1.179596976
485.45550,-2.705569015
485.45600,-2.095180199
485.45650,0.04118065471
485.45700,2.177541509
485.45750,2.177541509
485.45800,2.177541509
485.45850,2.787930324
485.45900,3.093124732
485.45950,2.482735916
485.46000,1.261958286
485.46050,0.3463750624
485.46100,-0.264013753
485.46150,-0.8744025684
485.46200,-1.484791384
485.46250,-1.484791384
485.46300,-1.484791384
485.46350,-2.095180199
485.46400,-2.095180199
485.46450,-1.484791384
485.46500,-0.5692081607
485.46550,0.04118065471
485.46600,0.04118065471
485.46650,0.04118065471
485.46700,-0.8744025684
485.46750,-1.789985791
485.46800,-1.789985791
485.46850,0.04118065471
485.46900,1.261958286
485.46950,1.872347101
485.47000,0.04118065471
485.47050,-2.095180199
485.47100,-3.621152238
485.47150,-2.705569015
485.47200,0.04118065471
485.47250,1.872347101
485.47300,0.9567638778
485.47350,-1.179596976
485.47400,-2.095180199
485.47450,0.04118065471
485.47500,2.787930324
485.47550,3.398319139
485.47600,2.787930324
485.47650,3.093124732
485.47700,4.313902363
485.47750,4.924291178
485.47800,4.313902363
485.47850,2.482735916
485.47900,0.04118065471
485.47950,-2.705569015
485.48000,-3.621152238
485.48050,-0.5692081607
485.48100,4.008707955
485.48150,7.36584644
485.48200,6.755457624
485.48250,4.008707955
485.48300,1.261958286
485.48350,0.04118065471
485.48400,-0.8744025684
485.48450,-1.484791384
485.48500,-1.789985791
485.48550,-1.484791384
485.48600,-1.179596976
485.48650,-0.8744025684
485.48700,-1.179596976
485.48750,-1.179596976
485.48800,-0.8744025684
485.48850,0.04118065471
485.48900,0.3463750624
485.48950,0.3463750624
485.49000,0.3463750624
485.49050,0.9567638778
485.49100,1.261958286
485.49150,0.3463750624
485.49200,-0.8744025684
485.49250,-0.8744025684
485.49300,0.3463750624
485.49350,0.6515694701
485.49400,-0.264013753
485.49450,-1.484791384
485.49500,-0.264013753
485.49550,1.261958286
485.49600,1.567152693
485.49650,0.6515694701
485.49700,0.9567638778
485.49750,2.177541509
485.49800,2.787930324
485.49850,0.9567638778
485.49900,0.04118065471
485.49950,0.9567638778
485.50000,2.482735916
485.50050,1.872347101
485.50100,0.3463750624
485.50150,-0.5692081607
485.50200,-0.5692081607
485.50250,-1.179596976
485.50300,-1.179596976
485.50350,0.04118065471
485.50400,0.04118065471
485.50450,-2.705569015
485.50500,-6.673096315
485.50550,-6.062707499
485.50600,-0.8744025684
485.50650,1.872347101
485.50700,-0.5692081607
485.50750,-5.757513092
485.50800,-8.504262761
485.50850,-8.504262761
485.50900,-8.504262761
485.50950,-6.978290722
485.51000,-2.095180199
485.51050,3.093124732
485.51100,4.61909677
485.51150,1.567152693
485.51200,-0.8744025684
485.51250,-1.484791384
485.51300,-0.5692081607
485.51350,-0.5692081607
485.51400,-0.5692081607
485.51450,-0.264013753
485.51500,0.04118065471
485.51550,0.6515694701
485.51600,1.567152693
485.51650,2.787930324
485.51700,3.093124732
485.51750,3.093124732
485.51800,3.398319139
485.51850,4.008707955
485.51900,3.703513547
485.51950,3.093124732
485.52000,2.482735916
485.52050,2.482735916
485.52100,2.482735916
485.52150,2.482735916
485.52200,2.787930324
485.52250,2.482735916
485.52300,0.9567638778
485.52350,0.04118065471
485.52400,-0.264013753
485.52450,-0.5692081607
485.52500,-1.789985791
485.52550,-2.400374607
485.52600,-1.484791384
485.52650,-0.264013753
485.52700,-0.264013753
485.52750,-1.179596976
485.52800,-1.484791384
485.52850,-1.179596976
485.52900,-1.484791384
485.52950,-1.484791384
485.53000,-0.5692081607
485.53050,0.04118065471
485.53100,-0.264013753
485.53150,-1.179596976
485.53200,-0.264013753
485.53250,1.261958286
485.53300,1.872347101
485.53350,1.261958286
485.53400,0.9567638778
485.53450,1.872347101
485.53500,2.177541509
485.53550,0.6515694701
485.53600,-1.179596976
485.53650,-2.400374607
485.53700,-1.484791384
485.53750,-0.264013753
485.53800,0.04118065471
485.53850,-0.5692081607
485.53900,-1.789985791
485.53950,-1.484791384
485.54000,0.04118065471
485.54050,0.9567638778
485.54100,0.3463750624
485.54150,-0.264013753
485.54200,0.04118065471
485.54250,1.261958286
485.54300,1.567152693
485.54350,0.9567638778
485.54400,0.9567638778
485.54450,1.261958286
485.54500,1.567152693
485.54550,1.567152693
485.54600,1.261958286
485.54650,1.261958286
485.54700,1.567152693
485.54750,2.177541509
485.54800,2.787930324
485.54850,2.482735916
485.54900,1.567152693
485.54950,0.9567638778
485.55000,0.9567638778
485.55050,0.9567638778
485.55100,0.3463750624
485.55150,0.04118065471
485.55200,-0.5692081607
485.55250,-1.484791384
485.55300,-2.705569015
485.55350,-3.010763422
485.55400,-1.179596976
485.55450,0.04118065471
485.55500,0.04118065471
485.55550,-2.400374607
485.55600,-5.147124276
485.55650,-6.673096315
485.55700,-5.452318684
485.55750,-1.179596976
485.55800,4.008707955
485.55850,7.976235255
485.55900,8.891818478
485.55950,7.671040847
485.56000,6.450263216
485.56050,5.534679993
485.56100,4.61909677
485.56150,3.703513547
485.56200,3.093124732
485.56250,1.567152693
485.56300,0.04118065471
485.56350,-0.8744025684
485.56400,-0.264013753
485.56450,0.04118065471
485.56500,-0.5692081607
485.56550,-1.484791384
485.56600,-1.484791384
485.56650,-2.095180199
485.56700,-4.231541053
485.56750,-6.673096315
485.56800,-6.978290722
485.56850,-5.757513092
485.56900,-5.452318684
485.56950,-6.673096315
485.57000,-6.062707499
485.57050,-3.010763422
485.57100,-0.8744025684
485.57150,-1.179596976
485.57200,-2.400374607
485.57250,-2.095180199
485.57300,-0.264013753
485.57350,0.3463750624
485.57400,0.04118065471
485.57450,0.04118065471
485.57500,0.9567638778
485.57550,1.872347101
485.57600,1.567152693
485.57650,0.9567638778
485.57700,1.872347101
485.57750,4.008707955
485.57800,4.61909677
485.57850,3.398319139
485.57900,1.872347101
485.57950,1.567152693
485.58000,1.261958286
485.58050,0.04118065471
485.58100,-1.484791384
485.58150,-1.789985791
485.58200,-0.5692081607
485.58250,-0.5692081607
485.58300,-2.400374607
485.58350,-3.621152238
485.58400,-2.400374607
485.58450,-0.5692081607
485.58500,0.04118065471
485.58550,0.3463750624
485.58600,1.567152693
485.58650,2.177541509
485.58700,0.6515694701
485.58750,-0.8744025684
485.58800,-0.8744025684
485.58850,0.04118065471
485.58900,0.04118065471
485.58950,-1.484791384
485.59000,-2.705569015
485.59050,-2.705569015
485.59100,-2.705569015
485.59150,-2.705569015
485.59200,-1.789985791
485.59250,0.04118065471
485.59300,1.261958286
485.59350,1.261958286
485.59400,1.567152693
485.59450,2.482735916
485.59500,2.482735916
485.59550,1.872347101
485.59600,2.482735916
485.59650,4.313902363
485.59700,5.534679993
485.59750,4.008707955
485.59800,1.872347101
485.59850,1.567152693
485.59900,2.482735916
485.59950,1.872347101
485.60000,0.04118065471
485.60050,-0.5692081607
485.60100,0.04118065471
485.60150,1.261958286
485.60200,1.261958286
485.60250,0.9567638778
485.60300,0.04118065471
485.60350,-0.5692081607
485.60400,-1.484791384
485.60450,-1.179596976
485.60500,0.04118065471
485.60550,0.6515694701
485.60600,0.6515694701
485.60650,0.9567638778
485.60700,2.177541509
485.60750,2.177541509
485.60800,0.9567638778
485.60850,0.04118065471
485.60900,0.6515694701
485.60950,0.9567638778
485.61000,-0.5692081607
485.61050,-3.010763422
485.61100,-3.31595783
485.61150,-2.095180199
485.61200,-1.179596976
485.61250,-1.789985791
485.61300,-2.400374607
485.61350,-2.705569015
485.61400,-3.31595783
485.61450,-4.231541053
485.61500,-3.010763422
485.61550,0.3463750624
485.61600,4.313902363
485.61650,5.839874401
485.61700,4.924291178
485.61750,3.703513547
485.61800,2.177541509
485.61850,0.3463750624
485.61900,-0.264013753
485.61950,0.3463750624
485.62000,2.177541509
485.62050,2.177541509
485.62100,0.6515694701
485.62150,0.3463750624
485.62200,1.261958286
485.62250,1.567152693
485.62300,0.3463750624
485.62350,-1.179596976
485.62400,-2.095180199
485.62450,-2.400374607
485.62500,-3.010763422
485.62550,-3.621152238
485.62600,-3.31595783
485.62650,-3.31595783
485.62700,-4.231541053
485.62750,-4.841929869
485.62800,-4.231541053
485.62850,-2.400374607
485.62900,-1.179596976
485.62950,-0.8744025684
485.63000,-1.484791384
485.63050,-2.095180199
485.63100,-2.705569015
485.63150,-2.095180199
485.63200,-0.8744025684
485.63250,0.9567638778
485.63300,2.177541509
485.63350,2.177541509
485.63400,1.261958286
485.63450,0.04118065471
485.63500,0.04118065471
485.63550,1.261958286
485.63600,3.703513547
485.63650,5.229485586
485.63700,5.229485586
485.63750,3.703513547
485.63800,2.177541509
485.63850,1.872347101
485.63900,2.482735916
485.63950,2.482735916
485.64000,1.261958286
485.64050,0.04118065471
485.64100,-0.264013753
485.64150,-0.8744025684
485.64200,-2.095180199
485.64250,-4.231541053
485.64300,-4.841929869
485.64350,-3.621152238
485.64400,-1.789985791
485.64450,-1.179596976
485.64500,-1.179596976
485.64550,-0.5692081607
485.64600,0.3463750624
485.64650,0.9567638778
485.64700,1.261958286
485.64750,1.567152693
485.64800,1.261958286
485.64850,0.6515694701
485.64900,0.04118065471
485.64950,0.3463750624
485.65000,0.9567638778
485.65050,0.9567638778
485.65100,0.9567638778
485.65150,1.567152693
485.65200,1.872347101
485.65250,1.567152693
485.65300,1.261958286
485.65350,2.177541509
485.65400,2.177541509
485.65450,-0.5692081607
485.65500,-6.062707499
485.65550,-9.114651576
485.65600,-6.367901907
485.65650,0.3463750624
485.65700,5.839874401
485.65750,6.450263216
485.65800,3.398319139
485.65850,1.261958286
485.65900,1.261958286
485.65950,0.3463750624
485.66000,-2.095180199
485.66050,-4.231541053
485.66100,-4.231541053
485.66150,-3.621152238
485.66200,-4.231541053
485.66250,-4.841929869
485.66300,-3.926346645
485.66350,-3.31595783
485.66400,-5.757513092
485.66450,-9.725040392
485.66500,-9.114651576
485.66550,-2.705569015
485.66600,3.093124732
485.66650,4.008707955
485.66700,0.9567638778
485.66750,-0.8744025684
485.66800,-0.264013753
485.66850,1.261958286
485.66900,2.482735916
485.66950,2.787930324
485.67000,1.872347101
485.67050,0.04118065471
485.67100,-0.8744025684
485.67150,0.04118065471
485.67200,0.6515694701
485.67250,0.04118065471
485.67300,-0.5692081607
485.67350,0.04118065471
485.67400,2.177541509
485.67450,3.093124732
485.67500,2.177541509
485.67550,1.567152693
485.67600,3.093124732
485.67650,5.229485586
485.67700,5.534679993
485.67750,4.924291178
485.67800,4.61909677
485.67850,4.924291178
485.67900,5.229485586
485.67950,4.313902363
485.68000,1.872347101
485.68050,-0.264013753
485.68100,-2.095180199
485.68150,-3.621152238
485.68200,-4.536735461
485.68250,-5.147124276
485.68300,-4.231541053
485.68350,-1.484791384
485.68400,0.9567638778
485.68450,2.787930324
485.68500,3.398319139
485.68550,3.398319139
485.68600,2.787930324
485.68650,1.567152693
485.68700,0.04118065471
485.68750,0.3463750624
485.68800,1.261958286
485.68850,1.567152693
485.68900,2.482735916
485.68950,4.61909677
485.69000,6.450263216
485.69050,3.093124732
485.69100,-3.31595783
485.69150,-7.893873946
485.69200,-6.367901907
485.69250,-1.789985791
485.69300,0.3463750624
485.69350,0.04118065471
485.69400,-1.789985791
485.69450,-3.31595783
485.69500,-3.926346645
485.69550,-3.010763422
485.69600,-0.8744025684
485.69650,0.04118065471
485.69700,-0.8744025684
485.69750,-3.010763422
485.69800,-3.31595783
485.69850,-2.095180199
485.69900,-0.5692081607
485.69950,0.04118065471
485.70000,0.04118065471
485.70050,-0.5692081607
485.70100,-1.179596976
485.70150,0.04118065471
485.70200,2.177541509
485.70250,4.008707955
485.70300,2.787930324
485.70350,0.6515694701
485.70400,-0.264013753
485.70450,-0.5692081607
485.70500,-2.095180199
485.70550,-4.231541053
485.70600,-4.841929869
485.70650,-3.31595783
485.70700,-1.789985791
485.70750,-1.789985791
485.70800,-1.484791384
485.70850,-0.264013753
485.70900,0.9567638778
485.70950,0.9567638778
485.71000,-0.264013753
485.71050,-1.179596976
485.71100,-0.8744025684
485.71150,0.04118065471
485.71200,0.9567638778
485.71250,2.177541509
485.71300,2.787930324
485.71350,1.872347101
485.71400,0.3463750624
485.71450,0.3463750624
485.71500,1.872347101
485.71550,4.008707955
485.71600,4.313902363
485.71650,4.313902363
485.71700,4.924291178
485.71750,6.145068809
485.71800,7.060652032
485.71850,6.755457624
485.71900,6.755457624
485.71950,5.839874401
485.72000,4.008707955
485.72050,1.567152693
485.72100,0.6515694701
485.72150,0.9567638778
485.72200,0.04118065471
485.72250,-2.705569015
485.72300,-5.147124276
485.72350,-4.231541053
485.72400,-1.484791384
485.72450,-1.179596976
485.72500,-3.31595783
485.72550,-4.231541053
485.72600,-2.095180199
485.72650,0.3463750624
485.72700,0.04118065471
485.72750,-1.789985791
485.72800,-2.705569015
485.72850,-1.789985791
485.72900,-0.5692081607
485.72950,-0.8744025684
485.73000,-1.789985791
485.73050,-3.010763422
485.73100,-3.010763422
485.73150,-1.789985791
485.73200,0.3463750624
485.73250,3.093124732
485.73300,4.313902363
485.73350,4.008707955
485.73400,2.787930324
485.73450,2.177541509
485.73500,1.567152693
485.73550,1.567152693
485.73600,1.261958286
485.73650,0.3463750624
485.73700,-0.264013753
485.73750,-0.5692081607
485.73800,0.04118065471
485.73850,0.6515694701
485.73900,1.261958286
485.73950,1.872347101
485.74000,3.398319139
485.74050,3.703513547
485.74100,1.872347101
485.74150,-0.264013753
485.74200,-0.8744025684
485.74250,-0.264013753
485.74300,-0.264013753
485.74350,-0.8744025684
485.74400,-0.5692081607
485.74450,0.3463750624
485.74500,0.04118065471
485.74550,-4.231541053
485.74600,-8.504262761
485.74650,-9.114651576
485.74700,-5.147124276
485.74750,0.3463750624
485.74800,4.313902363
485.74850,5.229485586
485.74900,3.398319139
485.74950,1.261958286
485.75000,0.3463750624
485.75050,0.6515694701
485.75100,1.261958286
485.75150,0.9567638778
485.75200,0.9567638778
485.75250,0.6515694701
485.75300,0.04118065471
485.75350,-0.8744025684
485.75400,-1.179596976
485.75450,-1.484791384
485.75500,-2.095180199
485.75550,-3.621152238
485.75600,-4.231541053
485.75650,-3.010763422
485.75700,-0.264013753
485.75750,1.872347101
485.75800,4.008707955
485.75850,4.313902363
485.75900,1.872347101
485.75950,-1.484791384
485.76000,-3.010763422
485.76050,-2.095180199
485.76100,-0.264013753
485.76150,0.04118065471
485.76200,0.04118065471
485.76250,0.04118065471
485.76300,-0.264013753
485.76350,-0.8744025684
485.76400,-1.484791384
485.76450,-1.179596976
485.76500,-1.179596976
485.76550,-1.484791384
485.76600,-1.484791384
485.76650,-0.5692081607
485.76700,0.6515694701
485.76750,0.6515694701
485.76800,-0.5692081607
485.76850,-1.789985791
485.76900,-1.484791384
485.76950,0.04118065471
485.77000,1.261958286
485.77050,0.6515694701
485.77100,-0.5692081607
485.77150,-1.484791384
485.77200,-0.8744025684
485.77250,0.04118065471
485.77300,0.3463750624
485.77350,0.04118065471
485.77400,0.3463750624
485.77450,1.872347101
485.77500,3.093124732
485.77550,3.703513547
485.77600,3.398319139
485.77650,3.398319139
485.77700,3.703513547
485.77750,4.924291178
485.77800,5.839874401
485.77850,4.924291178
485.77900,2.482735916
485.77950,0.6515694701
485.78000,0.3463750624
485.78050,0.04118065471
485.78100,-2.400374607
485.78150,-4.536735461
485.78200,-3.926346645
485.78250,-0.8744025684
485.78300,0.3463750624
485.78350,0.04118065471
485.78400,-1.789985791
485.78450,-2.400374607
485.78500,-2.400374607
485.78550,-2.705569015
485.78600,-2.705569015
485.78650,-2.400374607
485.78700,-2.705569015
485.78750,-3.621152238
485.78800,-3.926346645
485.78850,-2.400374607
485.78900,0.04118065471
485.78950,3.093124732
485.79000,5.229485586
485.79050,5.534679993
485.79100,3.703513547
485.79150,0.04118065471
485.79200,-4.841929869
485.79250,-7.588679538
485.79300,-5.147124276
485.79350,1.567152693
485.79400,7.671040847
485.79450,7.671040847
485.79500,2.482735916
485.79550,-0.8744025684
485.79600,-0.5692081607
485.79650,0.6515694701
485.79700,0.04118065471
485.79750,-1.789985791
485.79800,-2.095180199
485.79850,-1.179596976
485.79900,-0.5692081607
485.79950,-0.5692081607
485.80000,0.04118065471
485.80050,1.872347101
485.80100,2.482735916
485.80150,1.261958286
485.80200,0.04118065471
485.80250,0.04118065471
485.80300,0.6515694701
485.80350,0.9567638778
485.80400,0.3463750624
485.80450,0.04118065471
485.80500,-1.179596976
485.80550,-3.010763422
485.80600,-4.536735461
485.80650,-4.231541053
485.80700,-2.705569015
485.80750,-0.8744025684
485.80800,-0.264013753
485.80850,-0.264013753
485.80900,-0.5692081607
485.80950,-1.484791384
485.81000,-2.400374607
485.81050,-2.095180199
485.81100,-0.264013753
485.81150,1.261958286
485.81200,0.9567638778
485.81250,0.04118065471
485.81300,0.04118065471
485.81350,0.9567638778
485.81400,0.3463750624
485.81450,-0.8744025684
485.81500,-1.484791384
485.81550,0.04118065471
485.81600,1.261958286
485.81650,0.6515694701
485.81700,-0.5692081607
485.81750,-0.5692081607
485.81800,0.6515694701
485.81850,1.872347101
485.81900,1.261958286
485.81950,0.04118065471
485.82000,-0.5692081607
485.82050,-0.5692081607
485.82100,-0.264013753
485.82150,-0.264013753
485.82200,-0.264013753
485.82250,0.04118065471
485.82300,0.04118065471
485.82350,-0.264013753
485.82400,-0.5692081607
485.82450,-0.5692081607
485.82500,-0.5692081607
485.82550,-0.5692081607
485.82600,-0.264013753
485.82650,0.3463750624
485.82700,0.9567638778
485.82750,0.3463750624
485.82800,-1.484791384
485.82850,-3.31595783
485.82900,-3.010763422
485.82950,-1.789985791
485.83000,0.04118065471
485.83050,1.261958286
485.83100,2.482735916
485.83150,2.177541509
485.83200,0.04118065471
485.83250,-2.705569015
485.83300,-3.31595783
485.83350,-0.8744025684
485.83400,1.872347101
485.83450,4.008707955
485.83500,4.008707955
485.83550,2.482735916
485.83600,0.04118065471
485.83650,-1.179596976
485.83700,-0.5692081607
485.83750,1.567152693
485.83800,3.398319139
485.83850,3.703513547
485.83900,3.398319139
485.83950,3.093124732
485.84000,3.398319139
485.84050,4.008707955
485.84100,4.313902363
485.84150,3.703513547
485.84200,2.482735916
485.84250,1.872347101
485.84300,2.482735916
485.84350,3.703513547
485.84400,3.398319139
485.84450,2.177541509
485.84500,1.872347101
485.84550,2.482735916
485.84600,2.787930324
485.84650,1.261958286
485.84700,-0.264013753
485.84750,-1.484791384
485.84800,-2.705569015
485.84850,-3.31595783
485.84900,-2.095180199
485.84950,0.04118065471
485.85000,0.04118065471
485.85050,-0.8744025684
485.85100,-1.789985791
485.85150,-1.179596976
485.85200,-0.8744025684
485.85250,-3.010763422
485.85300,-5.452318684
485.85350,-5.147124276
485.85400,-2.400374607
485.85450,-0.8744025684
485.85500,-1.484791384
485.85550,-3.31595783
485.85600,-3.926346645
485.85650,-3.621152238
485.85700,-2.095180199
485.85750,-0.5692081607
485.85800,0.3463750624
485.85850,1.261958286
485.85900,0.9567638778
485.85950,-0.264013753
485.86000,-2.095180199
485.86050,-3.31595783
485.86100,-3.31595783
485.86150,-1.179596976
485.86200,1.567152693
485.86250,3.703513547
485.86300,3.703513547
485.86350,1.872347101
485.86400,0.3463750624
485.86450,0.04118065471
485.86500,0.04118065471
485.86550,-0.264013753
485.86600,-0.264013753
485.86650,-0.8744025684
485.86700,-2.705569015
485.86750,-6.062707499
485.86800,-8.504262761
485.86850,-5.757513092
485.86900,0.9567638778
485.86950,6.755457624
485.87000,8.281429663
485.87050,6.450263216
485.87100,4.61909677
485.87150,3.398319139
485.87200,2.177541509
485.87250,1.872347101
485.87300,2.482735916
485.87350,3.398319139
485.87400,2.787930324
485.87450,1.872347101
485.87500,1.567152693
485.87550,1.261958286
485.87600,0.3463750624
485.87650,-0.264013753
485.87700,0.04118065471
485.87750,1.261958286
485.87800,2.177541509
485.87850,2.177541509
485.87900,2.177541509
485.87950,1.872347101
485.88000,0.9567638778
485.88050,-0.5692081607
485.88100,-2.095180199
485.88150,-3.31595783
485.88200,-4.536735461
485.88250,-6.367901907
485.88300,-7.893873946
485.88350,-7.588679538
485.88400,-5.757513092
485.88450,-3.31595783
485.88500,-1.789985791
485.88550,-1.484791384
485.88600,-1.179596976
485.88650,-0.264013753
485.88700,0.3463750624
485.88750,0.04118065471
485.88800,-1.484791384
485.88850,-2.705569015
485.88900,-2.705569015
485.88950,-1.484791384
485.89000,-0.8744025684
485.89050,-1.179596976
485.89100,-1.484791384
485.89150,-1.179596976
485.89200,0.04118065471
485.89250,0.6515694701
485.89300,1.567152693
485.89350,2.787930324
485.89400,3.703513547
485.89450,3.398319139
485.89500,2.787930324
485.89550,3.398319139
485.89600,4.924291178
485.89650,4.924291178
485.89700,2.482735916
485.89750,0.3463750624
485.89800,0.9567638778
485.89850,2.177541509
485.89900,2.177541509
485.89950,1.872347101
485.90000,3.703513547
485.90050,6.755457624
485.90100,7.060652032
485.90150,4.313902363
485.90200,1.872347101
485.90250,1.872347101
485.90300,1.872347101
485.90350,0.04118065471
485.90400,-2.400374607
485.90450,-4.841929869
485.90500,-7.588679538
485.90550,-10.33542921
485.90600,-9.725040392
485.90650,-5.452318684
485.90700,-0.5692081607
485.90750,0.3463750624
485.90800,-0.264013753
485.90850,-0.8744025684
485.90900,-0.8744025684
485.90950,-1.484791384
485.91000,-3.31595783
485.91050,-4.536735461
485.91100,-3.621152238
485.91150,-1.179596976
485.91200,0.9567638778
485.91250,2.177541509
485.91300,1.567152693
485.91350,0.04118065471
485.91400,-0.8744025684
485.91450,-0.264013753
485.91500,0.9567638778
485.91550,2.482735916
485.91600,3.093124732
485.91650,3.093124732
485.91700,1.872347101
485.91750,1.261958286
485.91800,1.261958286
485.91850,1.872347101
485.91900,2.177541509
485.91950,2.787930324
485.92000,3.703513547
485.92050,3.398319139
485.92100,1.567152693
485.92150,-0.264013753
485.92200,0.04118065471
485.92250,2.177541509
485.92300,2.787930324
485.92350,0.6515694701
485.92400,-1.484791384
485.92450,-1.789985791
485.92500,-0.5692081607
485.92550,-0.264013753
485.92600,-0.264013753
485.92650,0.3463750624
485.92700,1.567152693
485.92750,1.567152693
485.92800,-0.264013753
485.92850,-1.789985791
485.92900,-1.484791384
485.92950,0.04118065471
485.93000,0.9567638778
485.93050,0.3463750624
485.93100,-0.5692081607
485.93150,-1.179596976
485.93200,-1.484791384
485.93250,-1.179596976
485.93300,-0.264013753
485.93350,0.3463750624
485.93400,0.3463750624
485.93450,-0.8744025684
485.93500,-2.095180199
485.93550,-1.789985791
485.93600,-0.8744025684
485.93650,0.04118065471
485.93700,0.04118065471
485.93750,0.04118065471
485.93800,-0.5692081607
485.93850,-1.179596976
485.93900,-0.5692081607
485.93950,0.6515694701
485.94000,1.872347101
485.94050,1.567152693
485.94100,0.3463750624
485.94150,0.3463750624
485.94200,0.9567638778
485.94250,0.9567638778
485.94300,0.6515694701
485.94350,1.261958286
485.94400,2.177541509
485.94450,1.567152693
485.94500,0.04118065471
485.94550,-0.8744025684
485.94600,-0.8744025684
485.94650,-0.8744025684
485.94700,-1.179596976
485.94750,-1.789985791
485.94800,-2.095180199
485.94850,-1.789985791
485.94900,-1.179596976
485.94950,-1.179596976
485.95000,-1.484791384
485.95050,-1.179596976
485.95100,0.3463750624
485.95150,3.398319139
485.95200,5.534679993
485.95250,6.145068809
485.95300,5.839874401
485.95350,6.755457624
485.95400,8.58662407
485.95450,9.197012886
485.95500,7.36584644
485.95550,3.398319139
485.95600,0.04118065471
485.95650,-2.400374607
485.95700,-3.621152238
485.95750,-3.621152238
485.95800,-3.621152238
485.95850,-3.31595783
485.95900,-2.400374607
485.95950,-2.095180199
485.96000,-2.705569015
485.96050,-3.926346645
485.96100,-4.536735461
485.96150,-3.621152238
485.96200,-2.705569015
485.96250,-2.400374607
485.96300,-3.31595783
485.96350,-3.31595783
485.96400,-2.705569015
485.96450,-1.484791384
485.96500,-0.8744025684
485.96550,-1.484791384
485.96600,-2.705569015
485.96650,-3.010763422
485.96700,-2.095180199
485.96750,-1.179596976
485.96800,-1.179596976
485.96850,-1.484791384
485.96900,-0.8744025684
485.96950,0.04118065471
485.97000,0.6515694701
485.97050,0.6515694701
485.97100,0.9567638778
485.97150,0.9567638778
485.97200,0.9567638778
485.97250,0.9567638778
485.97300,1.567152693
485.97350,2.482735916
485.97400,2.177541509
485.97450,1.872347101
485.97500,2.177541509
485.97550,3.398319139
485.97600,4.008707955
485.97650,4.008707955
485.97700,4.313902363
485.97750,4.61909677
485.97800,4.008707955
485.97850,3.093124732
485.97900,2.177541509
485.97950,1.567152693
485.98000,0.6515694701
485.98050,-0.264013753
485.98100,0.04118065471
485.98150,0.6515694701
485.98200,0.04118065471
485.98250,-1.789985791
485.98300,-3.621152238
485.98350,-3.31595783
485.98400,-3.010763422
485.98450,-3.621152238
485.98500,-5.147124276
485.98550,-5.452318684
485.98600,-4.536735461
485.98650,-2.705569015
485.98700,-1.789985791
485.98750,-1.789985791
485.98800,-2.400374607
485.98850,-2.705569015
485.98900,-2.705569015
485.98950,-1.789985791
485.99000,0.9567638778
485.99050,4.61909677
485.99100,5.839874401
485.99150,2.482735916
485.99200,-1.484791384
485.99250,-1.179596976
485.99300,2.787930324
485.99350,4.61909677
485.99400,1.567152693
485.99450,-1.789985791
485.99500,-1.484791384
485.99550,0.04118065471
485.99600,-0.264013753
485.99650,0.3463750624
485.99700,4.924291178
485.99750,9.502207293
485.99800,8.891818478
485.99850,3.398319139
485.99900,0.04118065471
485.99950,0.3463750624
486.00000,2.177541509
486.00050,2.787930324
486.00100,2.177541509
486.00150,0.9567638778
486.00200,-0.5692081607
486.00250,-1.179596976
486.00300,0.9567638778
486.00350,4.924291178
486.00400,6.145068809
486.00450,4.008707955
486.00500,1.567152693
486.00550,1.261958286
486.00600,1.261958286
486.00650,0.6515694701
486.00700,0.04118065471
486.00750,0.04118065471
486.00800,-1.789985791
486.00850,-3.926346645
486.00900,-4.536735461
486.00950,-4.231541053
486.01000,-4.536735461
486.01050,-5.452318684
486.01100,-3.926346645
486.01150,-1.179596976
486.01200,-0.264013753
486.01250,-1.484791384
486.01300,-1.789985791
486.01350,0.04118065471
486.01400,1.567152693
486.01450,1.261958286
486.01500,0.3463750624
486.01550,0.3463750624
486.01600,1.261958286
486.01650,1.261958286
486.01700,1.261958286
486.01750,1.567152693
486.01800,1.567152693
486.01850,0.9567638778
486.01900,0.04118065471
486.01950,-1.179596976
486.02000,-2.400374607
486.02050,-3.010763422
486.02100,-2.705569015
486.02150,-1.484791384
486.02200,-0.8744025684
486.02250,-1.179596976
486.02300,-1.789985791
486.02350,-1.789985791
486.02400,-1.789985791
486.02450,-1.789985791
486.02500,-1.484791384
486.02550,-0.8744025684
486.02600,-0.5692081607
486.02650,-0.5692081607
486.02700,0.04118065471
486.02750,0.3463750624
486.02800,0.04118065471
486.02850,-0.8744025684
486.02900,-0.8744025684
486.02950,-1.179596976
486.03000,-2.095180199
486.03050,-3.010763422
486.03100,-2.400374607
486.03150,-0.264013753
486.03200,0.3463750624
486.03250,0.04118065471
486.03300,0.04118065471
486.03350,0.9567638778
486.03400,1.261958286
486.03450,0.04118065471
486.03500,-1.484791384
486.03550,-1.484791384
486.03600,-0.5692081607
486.03650,-0.8744025684
486.03700,-1.789985791
486.03750,-2.705569015
486.03800,-3.31595783
486.03850,-3.010763422
486.03900,-2.095180199
486.03950,0.04118065471
486.04000,1.872347101
486.04050,2.787930324
486.04100,2.787930324
486.04150,1.872347101
486.04200,1.261958286
486.04250,0.6515694701
486.04300,1.261958286
486.04350,2.177541509
486.04400,2.482735916
486.04450,1.567152693
486.04500,0.3463750624
486.04550,-0.264013753
486.04600,0.04118065471
486.04650,0.6515694701
486.04700,1.567152693
486.04750,1.567152693
486.04800,0.6515694701
486.04850,0.6515694701
486.04900,1.261958286
486.04950,1.872347101
486.05000,1.872347101
486.05050,1.872347101
486.05100,2.482735916
486.05150,2.177541509
486.05200,1.261958286
486.05250,0.3463750624
486.05300,0.9567638778
486.05350,1.261958286
486.05400,0.6515694701
486.05450,0.04118065471
486.05500,0.04118065471
486.05550,0.04118065471
486.05600,-1.179596976
486.05650,-3.010763422
486.05700,-3.621152238
486.05750,-2.400374607
486.05800,-1.179596976
486.05850,-0.5692081607
486.05900,0.04118065471
486.05950,0.3463750624
486.06000,0.6515694701
486.06050,0.6515694701
486.06100,0.04118065471
486.06150,-0.264013753
486.06200,-1.179596976
486.06250,-0.8744025684
486.06300,0.3463750624
486.06350,1.872347101
486.06400,1.567152693
486.06450,0.3463750624
486.06500,-0.264013753
486.06550,-0.5692081607
486.06600,-0.8744025684
486.06650,-0.8744025684
486.06700,-0.8744025684
486.06750,-1.179596976
486.06800,-2.400374607
486.06850,-2.705569015
486.06900,-1.789985791
486.06950,-1.179596976
486.07000,-1.179596976
486.07050,-1.484791384
486.07100,-0.8744025684
486.07150,-0.5692081607
486.07200,-1.484791384
486.07250,-2.400374607
486.07300,-1.789985791
486.07350,-0.264013753
486.07400,0.04118065471
486.07450,-0.5692081607
486.07500,-0.8744025684
486.07550,0.04118065471
486.07600,1.567152693
486.07650,2.787930324
486.07700,3.703513547
486.07750,4.313902363
486.07800,3.398319139
486.07850,1.567152693
486.07900,0.04118065471
486.07950,0.9567638778
486.08000,3.093124732
486.08050,4.924291178
486.08100,4.924291178
486.08150,2.787930324
486.08200,0.04118065471
486.08250,-2.705569015
486.08300,-3.926346645
486.08350,-3.621152238
486.08400,-2.705569015
486.08450,-2.095180199
486.08500,-1.789985791
486.08550,-0.8744025684
486.08600,0.6515694701
486.08650,1.567152693
486.08700,0.04118065471
486.08750,-4.536735461
486.08800,-8.809457169
486.08850,-10.0302348
486.08900,-7.28348513
486.08950,-1.484791384
486.09000,4.61909677
486.09050,7.976235255
486.09100,6.145068809
486.09150,0.04118065471
486.09200,-5.757513092
486.09250,-7.28348513
486.09300,-3.31595783
486.09350,2.177541509
486.09400,6.145068809
486.09450,7.060652032
486.09500,5.534679993
486.09550,3.398319139
486.09600,1.872347101
486.09650,1.261958286
486.09700,0.6515694701
486.09750,0.3463750624
486.09800,0.6515694701
486.09850,1.872347101
486.09900,3.703513547
486.09950,4.61909677
486.10000,3.703513547
486.10050,1.261958286
486.10100,-0.264013753
486.10150,-1.179596976
486.10200,-0.8744025684
486.10250,0.04118065471
486.10300,0.3463750624
486.10350,0.04118065471
486.10400,-0.8744025684
486.10450,-1.789985791
486.10500,-1.789985791
486.10550,-1.179596976
486.10600,-0.5692081607
486.10650,-0.5692081607
486.10700,0.04118065471
486.10750,0.3463750624
486.10800,-0.5692081607
486.10850,-3.31595783
486.10900,-5.147124276
486.10950,-4.536735461
486.11000,-2.095180199
486.11050,-0.264013753
486.11100,0.04118065471
486.11150,0.3463750624
486.11200,0.6515694701
486.11250,0.3463750624
486.11300,-0.264013753
486.11350,-0.8744025684
486.11400,-0.8744025684
486.11450,-0.264013753
486.11500,0.04118065471
486.11550,-0.5692081607
486.11600,-1.789985791
486.11650,-1.179596976
486.11700,1.261958286
486.11750,4.313902363
486.11800,5.229485586
486.11850,3.703513547
486.11900,2.482735916
486.11950,1.872347101
486.12000,1.567152693
486.12050,0.9567638778
486.12100,0.3463750624
486.12150,-0.264013753
486.12200,-1.789985791
486.12250,-2.705569015
486.12300,-1.484791384
486.12350,1.567152693
486.12400,2.787930324
486.12450,-0.264013753
486.12500,-4.536735461
486.12550,-5.147124276
486.12600,-2.095180199
486.12650,1.261958286
486.12700,2.482735916
486.12750,2.177541509
486.12800,0.9567638778
486.12850,0.04118065471
486.12900,-0.8744025684
486.12950,-0.5692081607
486.13000,0.04118065471
486.13050,0.04118065471
486.13100,0.3463750624
486.13150,1.261958286
486.13200,1.261958286
486.13250,-0.264013753
486.13300,-1.789985791
486.13350,-1.484791384
486.13400,0.3463750624
486.13450,1.261958286
486.13500,0.04118065471
486.13550,-0.5692081607
486.13600,0.04118065471
486.13650,0.9567638778
486.13700,0.04118065471
486.13750,-0.5692081607
486.13800,-0.264013753
486.13850,0.9567638778
486.13900,1.872347101
486.13950,2.482735916
486.14000,3.703513547
486.14050,4.61909677
486.14100,3.703513547
486.14150,1.567152693
486.14200,0.04118065471
486.14250,0.3463750624
486.14300,0.9567638778
486.14350,1.567152693
486.14400,1.872347101
486.14450,1.261958286
486.14500,0.04118065471
486.14550,-1.179596976
486.14600,-1.179596976
486.14650,-0.5692081607
486.14700,0.04118065471
486.14750,0.3463750624
486.14800,0.6515694701
486.14850,0.6515694701
486.14900,0.04118065471
486.14950,-0.5692081607
486.15000,-0.5692081607
486.15050,-0.264013753
486.15100,-0.8744025684
486.15150,-1.789985791
486.15200,-0.5692081607
486.15250,1.872347101
486.15300,3.703513547
486.15350,2.482735916
486.15400,0.6515694701
486.15450,0.3463750624
486.15500,1.261958286
486.15550,2.482735916
486.15600,3.703513547
486.15650,4.924291178
486.15700,5.534679993
486.15750,4.61909677
486.15800,3.093124732
486.15850,2.482735916
486.15900,2.177541509
486.15950,0.9567638778
486.16000,0.04118065471
486.16050,1.261958286
486.16100,2.787930324
486.16150,0.6515694701
486.16200,-5.147124276
486.16250,-10.64062361
486.16300,-9.725040392
486.16350,-4.841929869
486.16400,-1.179596976
486.16450,-1.484791384
486.16500,-2.095180199
486.16550,-0.8744025684
486.16600,0.04118065471
486.16650,-1.789985791
486.16700,-5.147124276
486.16750,-6.673096315
486.16800,-5.757513092
486.16850,-3.926346645
486.16900,-2.705569015
486.16950,-1.484791384
486.17000,-0.8744025684
486.17050,-0.8744025684
486.17100,-0.5692081607
486.17150,1.567152693
486.17200,5.839874401
486.17250,8.281429663
486.17300,6.145068809
486.17350,1.261958286
486.17400,-2.705569015
486.17450,-4.231541053
486.17500,-3.31595783
486.17550,-0.264013753
486.17600,3.398319139
486.17650,5.229485586
486.17700,4.313902363
486.17750,2.482735916
486.17800,1.872347101
486.17850,2.482735916
486.17900,2.482735916
486.17950,0.9567638778
486.18000,0.3463750624
486.18050,0.3463750624
486.18100,0.04118065471
486.18150,-0.5692081607
486.18200,-1.179596976
486.18250,-1.179596976
486.18300,-1.179596976
486.18350,-1.484791384
486.18400,-1.484791384
486.18450,-1.179596976
486.18500,-1.484791384
486.18550,-1.179596976
486.18600,-0.8744025684
486.18650,-0.5692081607
486.18700,-1.484791384
486.18750,-3.31595783
486.18800,-3.926346645
486.18850,-3.926346645
486.18900,-4.231541053
486.18950,-3.926346645
486.19000,-2.400374607
486.19050,0.04118065471
486.19100,1.261958286
486.19150,1.261958286
486.19200,0.3463750624
486.19250,0.3463750624
486.19300,0.3463750624
486.19350,-0.264013753
486.19400,-1.179596976
486.19450,-1.484791384
486.19500,-1.179596976
486.19550,-0.5692081607
486.19600,-0.264013753
486.19650,0.04118065471
486.19700,0.3463750624
486.19750,1.261958286
486.19800,1.872347101
486.19850,2.177541509
486.19900,1.567152693
486.19950,0.3463750624
486.20000,-0.264013753
486.20050,-0.5692081607
486.20100,-0.5692081607
486.20150,-0.264013753
486.20200,0.3463750624
486.20250,0.9567638778
486.20300,0.6515694701
486.20350,0.6515694701
486.20400,1.872347101
486.20450,2.787930324
486.20500,2.482735916
486.20550,0.9567638778
486.20600,0.04118065471
486.20650,0.04118065471
486.20700,-0.8744025684
486.20750,-1.789985791
486.20800,-2.400374607
486.20850,-1.789985791
486.20900,-1.789985791
486.20950,-1.789985791
486.21000,-1.179596976
486.21050,-0.264013753
486.21100,0.9567638778
486.21150,2.787930324
486.21200,4.313902363
486.21250,4.61909677
486.21300,2.482735916
486.21350,-0.264013753
486.21400,-1.179596976
486.21450,0.3463750624
486.21500,0.9567638778
486.21550,-1.789985791
486.21600,-5.147124276
486.21650,-4.841929869
486.21700,-0.8744025684
486.21750,2.482735916
486.21800,4.61909677
486.21850,5.534679993
486.21900,5.534679993
486.21950,3.398319139
486.22000,-0.5692081607
486.22050,-4.231541053
486.22100,-5.147124276
486.22150,-4.536735461
486.22200,-4.231541053
486.22250,-3.010763422
486.22300,1.261958286
486.22350,7.671040847
486.22400,11.02817933
486.22450,9.197012886
486.22500,5.229485586
486.22550,3.093124732
486.22600,2.787930324
486.22650,3.093124732
486.22700,3.398319139
486.22750,1.872347101
486.22800,-1.484791384
486.22850,-5.147124276
486.22900,-4.536735461
486.22950,0.04118065471
486.23000,3.398319139
486.23050,1.567152693
486.23100,-3.010763422
486.23150,-5.147124276
486.23200,-4.536735461
486.23250,-3.926346645
486.23300,-4.536735461
486.23350,-4.841929869
486.23400,-3.621152238
486.23450,-2.400374607
486.23500,-2.095180199
486.23550,-1.179596976
486.23600,0.04118065471
486.23650,0.04118065471
486.23700,-0.5692081607
486.23750,-1.484791384
486.23800,-1.179596976
486.23850,-0.8744025684
486.23900,-1.179596976
486.23950,-1.179596976
486.24000,-0.264013753
486.24050,0.6515694701
486.24100,0.9567638778
486.24150,0.9567638778
486.24200,2.482735916
486.24250,4.924291178
486.24300,5.839874401
486.24350,4.313902363
486.24400,1.872347101
486.24450,0.3463750624
486.24500,0.3463750624
486.24550,0.3463750624
486.24600,-0.264013753
486.24650,-1.179596976
486.24700,-0.8744025684
486.24750,-0.264013753
486.24800,-0.264013753
486.24850,-1.484791384
486.24900,-2.705569015
486.24950,-3.31595783
486.25000,-3.621152238
486.25050,-4.231541053
486.25100,-5.452318684
486.25150,-5.757513092
486.25200,-4.536735461
486.25250,-2.095180199
486.25300,0.3463750624
486.25350,3.093124732
486.25400,5.534679993
486.25450,7.060652032
486.25500,6.450263216
486.25550,4.924291178
486.25600,3.703513547
486.25650,3.093124732
486.25700,2.482735916
486.25750,1.872347101
486.25800,1.872347101
486.25850,1.872347101
486.25900,0.6515694701
486.25950,0.04118065471
486.26000,0.9567638778
486.26050,1.872347101
486.26100,0.9567638778
486.26150,-0.5692081607
486.26200,-0.5692081607
486.26250,0.3463750624
486.26300,0.3463750624
486.26350,-2.095180199
486.26400,-4.231541053
486.26450,-3.621152238
486.26500,-2.095180199
486.26550,-1.179596976
486.26600,-1.179596976
486.26650,-0.5692081607
486.26700,-0.5692081607
486.26750,-1.484791384
486.26800,-2.095180199
486.26850,-1.789985791
486.26900,-0.8744025684
486.26950,-0.5692081607
486.27000,-0.5692081607
486.27050,-0.264013753
486.27100,-0.5692081607
486.27150,-1.484791384
486.27200,-0.8744025684
486.27250,0.6515694701
486.27300,3.093124732
486.27350,3.398319139
486.27400,2.177541509
486.27450,0.9567638778
486.27500,0.3463750624
486.27550,0.6515694701
486.27600,0.6515694701
486.27650,0.3463750624
486.27700,-0.264013753
486.27750,-0.264013753
486.27800,0.04118065471
486.27850,0.04118065471
486.27900,-0.5692081607
486.27950,-0.264013753
486.28000,1.261958286
486.28050,3.093124732
486.28100,3.093124732
486.28150,0.9567638778
486.28200,-0.264013753
486.28250,-0.5692081607
486.28300,-0.264013753
486.28350,0.04118065471
486.28400,0.04118065471
486.28450,-0.8744025684
486.28500,-2.400374607
486.28550,-2.400374607
486.28600,-0.264013753
486.28650,0.9567638778
486.28700,0.04118065471
486.28750,-2.400374607
486.28800,-3.010763422
486.28850,-2.705569015
486.28900,-3.010763422
486.28950,-4.536735461
486.29000,-4.841929869
486.29050,-4.231541053
486.29100,-3.926346645
486.29150,-3.621152238
486.29200,-2.400374607
486.29250,-0.5692081607
486.29300,-0.264013753
486.29350,-1.484791384
486.29400,-1.789985791
486.29450,-1.484791384
486.29500,-0.8744025684
486.29550,-0.8744025684
486.29600,0.3463750624
486.29650,2.177541509
486.29700,2.787930324
486.29750,2.482735916
486.29800,1.872347101
486.29850,1.872347101
486.29900,1.261958286
486.29950,0.9567638778
486.30000,1.567152693
486.30050,3.398319139
486.30100,4.008707955
486.30150,3.703513547
486.30200,3.398319139
486.30250,3.703513547
486.30300,4.008707955
486.30350,3.398319139
486.30400,3.398319139
486.30450,3.093124732
486.30500,2.177541509
486.30550,0.04118065471
486.30600,-1.789985791
486.30650,-3.010763422
486.30700,-4.536735461
486.30750,-6.062707499
486.30800,-6.062707499
486.30850,-4.841929869
486.30900,-3.926346645
486.30950,-3.31595783
486.31000,-2.400374607
486.31050,-0.5692081607
486.31100,0.04118065471
486.31150,0.04118065471
486.31200,-0.264013753
486.31250,0.9567638778
486.31300,2.482735916
486.31350,3.703513547
486.31400,3.703513547
486.31450,3.093124732
486.31500,2.177541509
486.31550,1.261958286
486.31600,0.9567638778
486.31650,0.9567638778
486.31700,0.6515694701
486.31750,0.3463750624
486.31800,0.9567638778
486.31850,2.787930324
486.31900,3.703513547
486.31950,3.703513547
486.32000,3.703513547
486.32050,3.398319139
486.32100,3.398319139
486.32150,2.482735916
486.32200,1.872347101
486.32250,0.9567638778
486.32300,0.04118065471
486.32350,-0.8744025684
486.32400,-0.8744025684
486.32450,-0.264013753
486.32500,0.04118065471
486.32550,0.3463750624
486.32600,0.9567638778
486.32650,1.567152693
486.32700,1.567152693
486.32750,0.9567638778
486.32800,0.3463750624
486.32850,0.3463750624
486.32900,0.04118065471
486.32950,-0.5692081607
486.33000,-1.179596976
486.33050,-1.789985791
486.33100,-2.400374607
486.33150,-2.705569015
486.33200,-1.789985791
486.33250,-0.264013753
486.33300,-0.264013753
486.33350,-1.789985791
486.33400,-3.010763422
486.33450,-3.010763422
486.33500,-2.095180199
486.33550,-1.484791384
486.33600,-0.5692081607
486.33650,0.3463750624
486.33700,1.872347101
486.33750,2.177541509
486.33800,1.567152693
486.33850,0.6515694701
486.33900,0.04118065471
486.33950,0.3463750624
486.34000,2.482735916
486.34050,5.534679993
486.34100,7.671040847
486.34150,7.976235255
486.34200,6.450263216
486.34250,4.008707955
486.34300,0.9567638778
486.34350,-0.264013753
486.34400,0.04118065471
486.34450,0.3463750624
486.34500,-1.179596976
486.34550,-4.841929869
486.34600,-7.588679538
486.34650,-7.28348513
486.34700,-6.062707499
486.34750,-5.452318684
486.34800,-4.231541053
486.34850,-1.789985791
486.34900,0.04118065471
486.34950,-0.8744025684
486.35000,-3.010763422
486.35050,-3.31595783
486.35100,-2.400374607
486.35150,-2.095180199
486.35200,-2.705569015
486.35250,-2.095180199
486.35300,0.04118065471
486.35350,1.261958286
486.35400,0.6515694701
486.35450,0.04118065471
486.35500,0.9567638778
486.35550,2.177541509
486.35600,1.567152693
486.35650,0.04118065471
486.35700,-0.264013753
486.35750,0.04118065471
486.35800,0.04118065471
486.35850,-0.5692081607
486.35900,-2.400374607
486.35950,-3.621152238
486.36000,-3.926346645
486.36050,-3.926346645
486.36100,-2.400374607
486.36150,-0.264013753
486.36200,0.6515694701
486.36250,0.04118065471
486.36300,-0.8744025684
486.36350,-1.179596976
486.36400,0.04118065471
486.36450,0.04118065471
486.36500,-0.8744025684
486.36550,-3.010763422
486.36600,-3.31595783
486.36650,-1.789985791
486.36700,0.04118065471
486.36750,0.04118065471
486.36800,0.3463750624
486.36850,1.261958286
486.36900,1.872347101
486.36950,1.567152693
486.37000,0.9567638778
486.37050,1.261958286
486.37100,2.482735916
486.37150,3.398319139
486.37200,3.093124732
486.37250,1.872347101
486.37300,1.261958286
486.37350,0.9567638778
486.37400,0.6515694701
486.37450,0.6515694701
486.37500,0.6515694701
486.37550,0.9567638778
486.37600,1.261958286
486.37650,1.261958286
486.37700,1.261958286
486.37750,1.567152693
486.37800,2.177541509
486.37850,2.787930324
486.37900,2.482735916
486.37950,1.567152693
486.38000,1.567152693
486.38050,2.177541509
486.38100,2.177541509
486.38150,0.3463750624
486.38200,-1.179596976
486.38250,-1.789985791
486.38300,-1.484791384
486.38350,-0.8744025684
486.38400,0.3463750624
486.38450,2.177541509
486.38500,3.703513547
486.38550,4.008707955
486.38600,4.313902363
486.38650,4.924291178
486.38700,4.61909677
486.38750,2.482735916
486.38800,0.6515694701
486.38850,0.04118065471
486.38900,0.3463750624
486.38950,0.04118065471
486.39000,-0.264013753
486.39050,0.04118065471
486.39100,0.3463750624
486.39150,0.3463750624
486.39200,0.04118065471
486.39250,-0.5692081607
486.39300,-0.8744025684
486.39350,-0.8744025684
486.39400,-0.8744025684
486.39450,-1.179596976
486.39500,-1.179596976
486.39550,-1.179596976
486.39600,-0.5692081607
486.39650,0.04118065471
486.39700,0.04118065471
486.39750,-0.5692081607
486.39800,-0.5692081607
486.39850,0.04118065471
486.39900,0.9567638778
486.39950,0.6515694701
486.40000,0.3463750624
486.40050,0.6515694701
486.40100,0.9567638778
486.40150,0.3463750624
486.40200,0.04118065471
486.40250,0.3463750624
486.40300,0.6515694701
486.40350,-0.264013753
486.40400,-2.095180199
486.40450,-1.789985791
486.40500,0.04118065471
486.40550,0.6515694701
486.40600,-0.264013753
486.40650,-1.789985791
486.40700,-1.789985791
486.40750,-1.484791384
486.40800,-2.400374607
486.40850,-3.010763422
486.40900,-1.179596976
486.40950,0.6515694701
486.41000,0.6515694701
486.41050,-1.484791384
486.41100,-3.010763422
486.41150,-2.400374607
486.41200,-1.789985791
486.41250,-2.095180199
486.41300,-2.400374607
486.41350,-2.400374607
486.41400,-3.010763422
486.41450,-4.536735461
486.41500,-5.452318684
486.41550,-4.231541053
486.41600,-2.095180199
486.41650,-0.264013753
486.41700,0.9567638778
486.41750,2.177541509
486.41800,2.177541509
486.41850,0.6515694701
486.41900,-0.8744025684
486.41950,-0.5692081607
486.42000,1.261958286
486.42050,3.703513547
486.42100,3.398319139
486.42150,2.177541509
486.42200,1.261958286
486.42250,0.9567638778
486.42300,0.04118065471
486.42350,-1.179596976
486.42400,-1.789985791
486.42450,-1.789985791
486.42500,-1.789985791
486.42550,-2.400374607
486.42600,-2.705569015
486.42650,-1.484791384
486.42700,0.04118065471
486.42750,0.04118065471
486.42800,-0.5692081607
486.42850,0.04118065471
486.42900,1.872347101
486.42950,2.177541509
486.43000,0.9567638778
486.43050,0.3463750624
486.43100,1.261958286
486.43150,1.872347101
486.43200,0.9567638778
486.43250,0.04118065471
486.43300,0.3463750624
486.43350,0.9567638778
486.43400,0.9567638778
486.43450,0.9567638778
486.43500,1.261958286
486.43550,1.261958286
486.43600,0.3463750624
486.43650,0.04118065471
486.43700,1.872347101
486.43750,3.398319139
486.43800,3.703513547
486.43850,2.787930324
486.43900,2.177541509
486.43950,1.872347101
486.44000,0.6515694701
486.44050,-0.8744025684
486.44100,-0.8744025684
486.44150,0.04118065471
486.44200,0.6515694701
486.44250,0.6515694701
486.44300,0.9567638778
486.44350,1.261958286
486.44400,0.9567638778
486.44450,-0.5692081607
486.44500,-1.789985791
486.44550,-2.705569015
486.44600,-2.400374607
486.44650,-1.484791384
486.44700,0.04118065471
486.44750,1.567152693
486.44800,0.9567638778
486.44850,-0.5692081607
486.44900,-1.789985791
486.44950,-2.095180199
486.45000,-2.705569015
486.45050,-4.536735461
486.45100,-5.452318684
486.45150,-4.231541053
486.45200,-1.789985791
486.45250,0.04118065471
486.45300,0.04118065471
486.45350,0.3463750624
486.45400,1.261958286
486.45450,1.872347101
486.45500,2.482735916
486.45550,2.787930324
486.45600,2.787930324
486.45650,2.177541509
486.45700,1.872347101
486.45750,1.261958286
486.45800,0.6515694701
486.45850,0.04118065471
486.45900,0.04118065471
486.45950,-0.264013753
486.46000,-1.179596976
486.46050,-2.705569015
486.46100,-3.31595783
486.46150,-3.010763422
486.46200,-2.400374607
486.46250,-1.789985791
486.46300,0.04118065471
486.46350,0.9567638778
486.46400,-0.264013753
486.46450,-4.841929869
486.46500,-7.588679538
486.46550,-4.231541053
486.46600,1.872347101
486.46650,5.839874401
486.46700,5.229485586
486.46750,3.093124732
486.46800,1.261958286
486.46850,0.04118065471
486.46900,0.04118065471
486.46950,-0.264013753
486.47000,-0.8744025684
486.47050,-3.010763422
486.47100,-5.147124276
486.47150,-4.231541053
486.47200,-0.8744025684
486.47250,2.177541509
486.47300,4.008707955
486.47350,4.61909677
486.47400,3.703513547
486.47450,1.567152693
486.47500,-1.179596976
486.47550,-2.705569015
486.47600,-3.010763422
486.47650,-2.705569015
486.47700,-2.400374607
486.47750,0.04118065471
486.47800,3.703513547
486.47850,5.229485586
486.47900,4.008707955
486.47950,2.482735916
486.48000,2.482735916
486.48050,3.398319139
486.48100,3.093124732
486.48150,1.567152693
486.48200,0.6515694701
486.48250,0.04118065471
486.48300,0.04118065471
486.48350,-0.264013753
486.48400,-0.264013753
486.48450,0.04118065471
486.48500,-0.264013753
486.48550,-0.5692081607
486.48600,-0.264013753
486.48650,0.3463750624
486.48700,0.9567638778
486.48750,0.9567638778
486.48800,0.9567638778
486.48850,1.261958286
486.48900,0.9567638778
486.48950,0.04118065471
486.49000,-0.5692081607
486.49050,-1.179596976
486.49100,-1.789985791
486.49150,-3.31595783
486.49200,-4.841929869
486.49250,-4.536735461
486.49300,-1.179596976
486.49350,3.093124732
486.49400,5.534679993
486.49450,4.61909677
486.49500,2.177541509
486.49550,0.6515694701
486.49600,0.9567638778
486.49650,1.872347101
486.49700,2.177541509
486.49750,1.567152693
486.49800,0.9567638778
486.49850,1.261958286
486.49900,1.261958286
486.49950,0.6515694701
486.50000,0.04118065471
486.50050,0.6515694701
486.50100,1.261958286
486.50150,0.6515694701
486.50200,-1.789985791
486.50250,-3.31595783
486.50300,-1.484791384
486.50350,2.482735916
486.50400,4.61909677
486.50450,3.703513547
486.50500,0.9567638778
486.50550,-0.5692081607
486.50600,-0.8744025684
486.50650,-0.8744025684
486.50700,-0.8744025684
486.50750,-1.789985791
486.50800,-3.31595783
486.50850,-4.841929869
486.50900,-4.231541053
486.50950,-2.095180199
486.51000,-0.264013753
486.51050,-0.264013753
486.51100,-0.5692081607
486.51150,-0.264013753
486.51200,0.04118065471
486.51250,0.04118065471
486.51300,0.3463750624
486.51350,1.261958286
486.51400,1.872347101
486.51450,1.872347101
486.51500,1.261958286
486.51550,0.3463750624
486.51600,-0.264013753
486.51650,-0.8744025684
486.51700,-0.264013753
486.51750,0.6515694701
486.51800,0.9567638778
486.51850,0.04118065471
486.51900,-0.8744025684
486.51950,-1.179596976
486.52000,-1.789985791
486.52050,-3.010763422
486.52100,-4.231541053
486.52150,-4.841929869
486.52200,-4.841929869
486.52250,-3.621152238
486.52300,-1.789985791
486.52350,-0.264013753
486.52400,-0.8744025684
486.52450,-2.400374607
486.52500,-1.179596976
486.52550,1.872347101
486.52600,4.61909677
486.52650,4.313902363
486.52700,2.177541509
486.52750,0.3463750624
486.52800,-1.179596976
486.52850,-2.705569015
486.52900,-3.31595783
486.52950,-2.400374607
486.53000,-1.179596976
486.53050,-1.179596976
486.53100,-1.789985791
486.53150,-2.095180199
486.53200,-1.484791384
486.53250,-0.5692081607
486.53300,1.261958286
486.53350,4.008707955
486.53400,5.534679993
486.53450,5.534679993
486.53500,4.61909677
486.53550,4.008707955
486.53600,3.703513547
486.53650,3.093124732
486.53700,2.787930324
486.53750,2.177541509
486.53800,0.6515694701
486.53850,-0.5692081607
486.53900,0.04118065471
486.53950,1.567152693
486.54000,2.482735916
486.54050,0.6515694701
486.54100,-0.264013753
486.54150,0.04118065471
486.54200,1.261958286
486.54250,0.3463750624
486.54300,-1.179596976
486.54350,-1.179596976
486.54400,0.6515694701
486.54450,1.567152693
486.54500,0.04118065471
486.54550,-1.484791384
486.54600,-0.5692081607
486.54650,1.872347101
486.54700,3.093124732
486.54750,1.567152693
486.54800,-0.264013753
486.54850,-0.5692081607
486.54900,-0.264013753
486.54950,-0.5692081607
486.55000,-1.179596976
486.55050,-1.179596976
486.55100,-0.8744025684
486.55150,-1.484791384
486.55200,-3.010763422
486.55250,-3.31595783
486.55300,-2.400374607
486.55350,-1.484791384
486.55400,-0.8744025684
486.55450,0.04118065471
486.55500,2.177541509
486.55550,4.008707955
486.55600,4.313902363
486.55650,3.398319139
486.55700,1.872347101
486.55750,0.6515694701
486.55800,0.9567638778
486.55850,1.872347101
486.55900,2.177541509
486.55950,1.567152693
486.56000,1.872347101
486.56050,3.093124732
486.56100,4.313902363
486.56150,3.703513547
486.56200,2.177541509
486.56250,1.872347101
486.56300,3.093124732
486.56350,4.008707955
486.56400,3.398319139
486.56450,2.482735916
486.56500,2.177541509
486.56550,2.177541509
486.56600,2.177541509
486.56650,1.567152693
486.56700,0.04118065471
486.56750,-1.484791384
486.56800,-3.926346645
486.56850,-5.757513092
486.56900,-6.367901907
486.56950,-6.367901907
486.57000,-6.673096315
486.57050,-7.588679538
486.57100,-8.199068353
486.57150,-7.588679538
486.57200,-6.367901907
486.57250,-5.757513092
486.57300,-5.147124276
486.57350,-3.926346645
486.57400,-1.484791384
486.57450,0.04118065471
486.57500,0.6515694701
486.57550,0.6515694701
486.57600,1.261958286
486.57650,1.567152693
486.57700,1.872347101
486.57750,1.261958286
486.57800,0.6515694701
486.57850,0.3463750624
486.57900,0.6515694701
486.57950,2.177541509
486.58000,3.703513547
486.58050,4.008707955
486.58100,3.398319139
486.58150,2.482735916
486.58200,2.482735916
486.58250,2.177541509
486.58300,1.261958286
486.58350,0.3463750624
486.58400,-0.264013753
486.58450,-0.8744025684
486.58500,-0.8744025684
486.58550,-0.264013753
486.58600,0.04118065471
486.58650,-0.8744025684
486.58700,-3.31595783
486.58750,-5.147124276
486.58800,-5.147124276
486.58850,-3.31595783
486.58900,0.04118065471
486.58950,3.703513547
486.59000,4.924291178
486.59050,2.482735916
486.59100,-1.789985791
486.59150,-4.841929869
486.59200,-4.536735461
486.59250,-2.705569015
486.59300,-0.8744025684
486.59350,1.567152693
486.59400,4.924291178
486.59450,7.36584644
486.59500,6.145068809
486.59550,2.177541509
486.59600,-1.484791384
486.59650,-3.010763422
486.59700,-3.621152238
486.59750,-4.536735461
486.59800,-4.841929869
486.59850,-2.095180199
486.59900,4.008707955
486.59950,9.197012886
486.60000,9.197012886
486.60050,4.924291178
486.60100,1.872347101
486.60150,2.482735916
486.60200,4.61909677
486.60250,4.313902363
486.60300,2.787930324
486.60350,1.567152693
486.60400,1.261958286
486.60450,0.04118065471
486.60500,-1.789985791
486.60550,-3.621152238
