"type","name","time_units","begin_time","frequency","count","units"
"signal","Ultium EMG-FLEX.CARP.R RT","s",494.98000,2000,22000,"uV"

"time","value"
494.98000,-17.41194342
494.98050,-37.24957992
494.98100,-40.6067184
494.98150,-15.27558256
494.98200,18.29580228
494.98250,33.25032826
494.98300,24.39969044
494.98350,9.445164461
494.98400,2.730887491
494.98450,4.867248345
494.98500,7.003609199
494.98550,5.172442753
494.98600,0.2893322296
494.98650,-3.678195071
494.98700,-5.204167109
494.98750,-5.204167109
494.98800,-4.593778294
494.98850,-2.762611847
494.98900,1.51010986
494.98950,5.477637161
494.99000,2.730887491
494.99050,-4.898972701
494.99100,-7.340527963
494.99150,0.899721045
494.99200,10.9711365
494.99250,10.36074768
494.99300,1.815304268
494.99350,-2.45741744
494.99400,0.2893322296
494.99450,2.425693084
494.99500,-0.9314454012
494.99550,-5.509361517
494.99600,-5.509361517
494.99650,-3.373000663
494.99700,-2.762611847
494.99750,-2.152223032
494.99800,-0.01586217811
494.99850,2.425693084
494.99900,1.815304268
494.99950,-0.3210565858
495.00000,-1.541834217
495.00050,-0.9314454012
495.00100,-0.01586217811
495.00150,1.204915453
495.00200,2.120498676
495.00250,2.120498676
495.00300,0.899721045
495.00350,0.2893322296
495.00400,0.2893322296
495.00450,0.5945266373
495.00500,0.2893322296
495.00550,-0.6262509935
495.00600,-2.152223032
495.00650,-2.45741744
495.00700,-1.236639809
495.00750,-0.01586217811
495.00800,-0.01586217811
495.00850,-2.152223032
495.00900,-3.373000663
495.00950,-2.45741744
495.01000,-0.6262509935
495.01050,-0.3210565858
495.01100,-0.9314454012
495.01150,-0.9314454012
495.01200,1.51010986
495.01250,6.393220384
495.01300,8.834775645
495.01350,3.036081899
495.01400,-7.340527963
495.01450,-14.35999934
495.01500,-13.13922171
495.01550,-12.52883289
495.01600,-16.8015546
495.01650,-15.88597138
495.01700,2.730887491
495.01750,29.28280096
495.01800,38.43863319
495.01850,25.01007925
495.01900,8.834775645
495.01950,5.477637161
495.02000,8.529581238
495.02050,7.613998014
495.02100,4.867248345
495.02150,6.698414791
495.02200,7.613998014
495.02250,0.2893322296
495.02300,-8.256111186
495.02350,-7.950916778
495.02400,-0.6262509935
495.02450,4.562053937
495.02500,6.393220384
495.02550,8.22438683
495.02600,7.919192422
495.02650,-0.01586217811
495.02700,-13.44441612
495.02750,-24.12622039
495.02800,-28.09374769
495.02850,-28.09374769
495.02900,-23.21063716
495.02950,-14.35999934
495.03000,-7.645722371
495.03050,-8.866500001
495.03100,-13.44441612
495.03150,-11.30805526
495.03200,-1.236639809
495.03250,8.529581238
495.03300,14.32827498
495.03350,19.21138551
495.03400,22.8737184
495.03450,22.56852399
495.03500,18.29580228
495.03550,15.24385821
495.03600,13.10749735
495.03650,6.698414791
495.03700,-2.45741744
495.03750,-7.645722371
495.03800,-5.814555924
495.03850,-3.373000663
495.03900,-5.814555924
495.03950,-10.08727763
495.04000,-10.69766645
495.04050,-7.950916778
495.04100,-6.42494474
495.04150,-5.204167109
495.04200,-2.762611847
495.04250,-0.01586217811
495.04300,-0.6262509935
495.04350,-2.762611847
495.04400,-2.45741744
495.04450,2.120498676
495.04500,7.613998014
495.04550,8.834775645
495.04600,4.562053937
495.04650,-1.236639809
495.04700,-5.814555924
495.04750,-7.340527963
495.04800,-6.42494474
495.04850,-4.593778294
495.04900,-1.847028624
495.04950,-0.01586217811
495.05000,-0.01586217811
495.05050,-2.152223032
495.05100,-0.3210565858
495.05150,7.613998014
495.05200,17.68541347
495.05250,20.12696873
495.05300,12.49710854
495.05350,1.51010986
495.05400,-2.762611847
495.05450,-0.01586217811
495.05500,2.120498676
495.05550,0.5945266373
495.05600,-2.152223032
495.05650,-3.067806255
495.05700,-2.762611847
495.05750,-3.983389478
495.05800,-4.593778294
495.05850,-3.067806255
495.05900,-1.847028624
495.05950,-3.983389478
495.06000,-7.035333555
495.06050,-6.730139148
495.06100,-5.204167109
495.06150,-8.866500001
495.06200,-14.66519375
495.06250,-11.91844408
495.06300,-0.01586217811
495.06350,10.05555328
495.06400,8.529581238
495.06450,3.036081899
495.06500,5.172442753
495.06550,11.58152531
495.06600,9.445164461
495.06650,-2.45741744
495.06700,-12.8340273
495.06750,-12.22363849
495.06800,-1.847028624
495.06850,8.22438683
495.06900,12.49710854
495.06950,10.36074768
495.07000,5.782831568
495.07050,5.172442753
495.07100,7.919192422
495.07150,9.139970053
495.07200,5.172442753
495.07250,0.899721045
495.07300,-2.152223032
495.07350,-7.645722371
495.07400,-15.27558256
495.07450,-16.19116579
495.07500,-6.119750332
495.07550,4.562053937
495.07600,3.646470714
495.07650,-6.730139148
495.07700,-14.05480493
495.07750,-11.91844408
495.07800,-6.119750332
495.07850,-1.847028624
495.07900,1.204915453
495.07950,4.867248345
495.08000,7.613998014
495.08050,9.750358868
495.08100,10.05555328
495.08150,7.003609199
495.08200,1.204915453
495.08250,-1.541834217
495.08300,0.5945266373
495.08350,2.120498676
495.08400,-1.236639809
495.08450,-4.288583886
495.08500,-0.9314454012
495.08550,5.172442753
495.08600,6.698414791
495.08650,3.646470714
495.08700,1.51010986
495.08750,2.120498676
495.08800,2.425693084
495.08850,1.204915453
495.08900,-2.762611847
495.08950,-13.13922171
495.09000,-26.26258124
495.09050,-31.45088617
495.09100,-25.95738683
495.09150,-22.29505394
495.09200,-26.56777565
495.09250,-24.7366092
495.09300,0.2893322296
495.09350,38.13343878
495.09400,58.5814641
495.09450,47.59446542
495.09500,23.78930162
495.09550,10.9711365
495.09600,11.58152531
495.09650,14.32827498
495.09700,13.10749735
495.09750,11.88671972
495.09800,13.41269176
495.09850,13.41269176
495.09900,7.919192422
495.09950,-1.541834217
495.10000,-10.08727763
495.10050,-13.74961052
495.10100,-13.74961052
495.10150,-12.8340273
495.10200,-11.61324967
495.10250,-8.561305594
495.10300,-4.898972701
495.10350,-2.45741744
495.10400,-2.762611847
495.10450,-3.373000663
495.10500,-2.762611847
495.10550,-2.45741744
495.10600,-3.678195071
495.10650,-5.509361517
495.10700,-5.509361517
495.10750,-3.373000663
495.10800,-0.3210565858
495.10850,2.425693084
495.10900,4.562053937
495.10950,5.782831568
495.11000,5.172442753
495.11050,2.120498676
495.11100,-3.373000663
495.11150,-10.39247204
495.11200,-14.97038816
495.11250,-16.8015546
495.11300,-16.19116579
495.11350,-12.52883289
495.11400,-7.645722371
495.11450,-3.983389478
495.11500,-2.45741744
495.11550,0.5945266373
495.11600,9.139970053
495.11650,15.24385821
495.11700,8.22438683
495.11750,-8.256111186
495.11800,-18.32752664
495.11850,-13.74961052
495.11900,-3.373000663
495.11950,0.899721045
495.12000,2.120498676
495.12050,6.393220384
495.12100,12.49710854
495.12150,14.32827498
495.12200,12.19191413
495.12250,9.139970053
495.12300,4.25685953
495.12350,-4.898972701
495.12400,-14.35999934
495.12450,-16.19116579
495.12500,-10.39247204
495.12550,-3.373000663
495.12600,-0.3210565858
495.12650,2.120498676
495.12700,6.393220384
495.12750,9.445164461
495.12800,8.22438683
495.12850,4.562053937
495.12900,3.036081899
495.12950,6.088025976
495.13000,10.9711365
495.13050,12.80230295
495.13100,10.66594209
495.13150,9.445164461
495.13200,10.66594209
495.13250,10.66594209
495.13300,4.25685953
495.13350,-6.730139148
495.13400,-15.58077697
495.13450,-18.93791546
495.13500,-17.71713782
495.13550,-13.44441612
495.13600,-6.730139148
495.13650,-0.01586217811
495.13700,3.036081899
495.13750,2.120498676
495.13800,-0.01586217811
495.13850,-1.236639809
495.13900,-2.45741744
495.13950,-3.067806255
495.14000,-3.067806255
495.14050,-3.678195071
495.14100,-6.42494474
495.14150,-8.256111186
495.14200,-3.067806255
495.14250,7.919192422
495.14300,16.76983025
495.14350,16.76983025
495.14400,11.27633091
495.14450,6.393220384
495.14500,3.951665122
495.14550,2.730887491
495.14600,0.899721045
495.14650,-0.9314454012
495.14700,-2.762611847
495.14750,-2.45741744
495.14800,-0.01586217811
495.14850,3.341276307
495.14900,7.308803607
495.14950,10.66594209
495.15000,10.36074768
495.15050,5.172442753
495.15100,-1.236639809
495.15150,-3.983389478
495.15200,-2.45741744
495.15250,-0.9314454012
495.15300,-2.45741744
495.15350,-5.204167109
495.15400,-7.645722371
495.15450,-8.561305594
495.15500,-5.509361517
495.15550,2.730887491
495.15600,10.05555328
495.15650,5.782831568
495.15700,-7.035333555
495.15750,-14.35999934
495.15800,-6.730139148
495.15850,5.782831568
495.15900,12.80230295
495.15950,14.9386638
495.16000,15.85424702
495.16050,9.139970053
495.16100,-9.782083225
495.16150,-27.48335887
495.16200,-24.43141479
495.16250,-2.152223032
495.16300,15.85424702
495.16350,15.24385821
495.16400,3.951665122
495.16450,-3.373000663
495.16500,-3.678195071
495.16550,-1.236639809
495.16600,2.120498676
495.16650,7.308803607
495.16700,10.05555328
495.16750,6.698414791
495.16800,0.5945266373
495.16850,-1.236639809
495.16900,0.2893322296
495.16950,-0.01586217811
495.17000,-5.814555924
495.17050,-10.39247204
495.17100,-7.035333555
495.17150,1.815304268
495.17200,8.834775645
495.17250,7.919192422
495.17300,2.730887491
495.17350,-0.9314454012
495.17400,-1.541834217
495.17450,-1.236639809
495.17500,-1.236639809
495.17550,-0.9314454012
495.17600,-0.01586217811
495.17650,0.899721045
495.17700,1.204915453
495.17750,0.899721045
495.17800,0.5945266373
495.17850,-0.01586217811
495.17900,-0.6262509935
495.17950,-0.3210565858
495.18000,0.899721045
495.18050,0.2893322296
495.18100,-1.847028624
495.18150,-3.067806255
495.18200,0.5945266373
495.18250,6.698414791
495.18300,9.139970053
495.18350,7.003609199
495.18400,4.562053937
495.18450,4.867248345
495.18500,5.477637161
495.18550,4.25685953
495.18600,1.204915453
495.18650,-1.236639809
495.18700,-3.373000663
495.18750,-5.204167109
495.18800,-5.814555924
495.18850,-5.509361517
495.18900,-6.42494474
495.18950,-9.782083225
495.19000,-14.97038816
495.19050,-19.54830427
495.19100,-22.90544276
495.19150,-22.60024835
495.19200,-15.88597138
495.19250,-3.373000663
495.19300,8.529581238
495.19350,11.27633091
495.19400,2.425693084
495.19450,-11.61324967
495.19500,-21.07427631
495.19550,-21.07427631
495.19600,-18.02233223
495.19650,-21.07427631
495.19700,-25.95738683
495.19750,-16.19116579
495.19800,14.02308058
495.19850,45.45810457
495.19900,50.95160391
495.19950,29.28280096
495.20000,7.308803607
495.20050,4.867248345
495.20100,14.02308058
495.20150,16.15944143
495.20200,11.88671972
495.20250,13.10749735
495.20300,19.82177432
495.20350,19.82177432
495.20400,10.05555328
495.20450,3.341276307
495.20500,7.003609199
495.20550,9.445164461
495.20600,0.899721045
495.20650,-11.30805526
495.20700,-12.22363849
495.20750,-2.762611847
495.20800,0.2893322296
495.20850,-8.866500001
495.20900,-19.85349868
495.20950,-20.46388749
495.21000,-13.13922171
495.21050,-8.256111186
495.21100,-9.171694409
495.21150,-9.476888817
495.21200,-5.204167109
495.21250,0.5945266373
495.21300,3.951665122
495.21350,4.25685953
495.21400,3.951665122
495.21450,2.425693084
495.21500,-0.01586217811
495.21550,-3.067806255
495.21600,-5.814555924
495.21650,-7.645722371
495.21700,-7.950916778
495.21750,-6.119750332
495.21800,-2.45741744
495.21850,-0.01586217811
495.21900,-0.3210565858
495.21950,-4.593778294
495.22000,-8.256111186
495.22050,-7.950916778
495.22100,-4.288583886
495.22150,-1.847028624
495.22200,-2.762611847
495.22250,-2.762611847
495.22300,3.341276307
495.22350,14.63346939
495.22400,21.65294077
495.22450,18.9061911
495.22500,10.9711365
495.22550,6.393220384
495.22600,5.172442753
495.22650,3.341276307
495.22700,-0.9314454012
495.22750,-4.288583886
495.22800,-3.373000663
495.22850,-0.9314454012
495.22900,-0.01586217811
495.22950,-1.236639809
495.23000,-2.152223032
495.23050,-1.847028624
495.23100,-1.847028624
495.23150,-2.762611847
495.23200,-3.373000663
495.23250,-3.067806255
495.23300,-1.847028624
495.23350,-0.01586217811
495.23400,1.204915453
495.23450,0.899721045
495.23500,-1.236639809
495.23550,-3.678195071
495.23600,-3.373000663
495.23650,-2.45741744
495.23700,-3.373000663
495.23750,-5.509361517
495.23800,-4.593778294
495.23850,0.2893322296
495.23900,3.951665122
495.23950,1.204915453
495.24000,-4.593778294
495.24050,-6.42494474
495.24100,-1.541834217
495.24150,3.951665122
495.24200,7.308803607
495.24250,10.36074768
495.24300,16.15944143
495.24350,21.34774636
495.24400,18.9061911
495.24450,9.750358868
495.24500,-0.01586217811
495.24550,-4.288583886
495.24600,-4.898972701
495.24650,-4.593778294
495.24700,-4.288583886
495.24750,-3.678195071
495.24800,-2.152223032
495.24850,-1.236639809
495.24900,-0.9314454012
495.24950,-1.236639809
495.25000,-0.9314454012
495.25050,-0.9314454012
495.25100,-1.541834217
495.25150,-2.45741744
495.25200,-1.541834217
495.25250,0.2893322296
495.25300,1.204915453
495.25350,-0.01586217811
495.25400,-2.45741744
495.25450,-2.45741744
495.25500,-0.6262509935
495.25550,-0.01586217811
495.25600,-0.9314454012
495.25650,-0.6262509935
495.25700,0.5945266373
495.25750,0.5945266373
495.25800,-0.9314454012
495.25850,-0.3210565858
495.25900,2.730887491
495.25950,4.562053937
495.26000,2.425693084
495.26050,-0.3210565858
495.26100,-0.01586217811
495.26150,0.5945266373
495.26200,-0.6262509935
495.26250,-0.9314454012
495.26300,3.951665122
495.26350,12.80230295
495.26400,18.29580228
495.26450,18.9061911
495.26500,16.15944143
495.26550,10.9711365
495.26600,2.425693084
495.26650,-8.561305594
495.26700,-18.32752664
495.26750,-22.29505394
495.26800,-19.24310986
495.26850,-10.69766645
495.26900,-3.067806255
495.26950,-2.45741744
495.27000,-8.561305594
495.27050,-10.39247204
495.27100,-1.847028624
495.27150,8.834775645
495.27200,9.139970053
495.27250,1.815304268
495.27300,-0.01586217811
495.27350,5.172442753
495.27400,4.562053937
495.27450,-7.645722371
495.27500,-18.93791546
495.27550,-14.66519375
495.27600,-0.6262509935
495.27650,5.477637161
495.27700,-0.9314454012
495.27750,-9.782083225
495.27800,-12.22363849
495.27850,-11.61324967
495.27900,-13.13922171
495.27950,-13.74961052
495.28000,-8.561305594
495.28050,-0.01586217811
495.28100,3.646470714
495.28150,0.899721045
495.28200,0.2893322296
495.28250,5.782831568
495.28300,10.9711365
495.28350,9.139970053
495.28400,3.646470714
495.28450,3.951665122
495.28500,10.9711365
495.28550,14.32827498
495.28600,8.834775645
495.28650,1.51010986
495.28700,0.899721045
495.28750,5.782831568
495.28800,6.698414791
495.28850,2.730887491
495.28900,-0.01586217811
495.28950,0.5945266373
495.29000,2.120498676
495.29050,1.815304268
495.29100,1.51010986
495.29150,2.425693084
495.29200,2.425693084
495.29250,1.51010986
495.29300,1.815304268
495.29350,3.036081899
495.29400,0.899721045
495.29450,-4.288583886
495.29500,-7.950916778
495.29550,-6.42494474
495.29600,-2.45741744
495.29650,-0.01586217811
495.29700,-0.01586217811
495.29750,0.899721045
495.29800,3.036081899
495.29850,5.477637161
495.29900,6.393220384
495.29950,5.172442753
495.30000,0.899721045
495.30050,-3.067806255
495.30100,-2.762611847
495.30150,1.204915453
495.30200,4.562053937
495.30250,3.646470714
495.30300,0.899721045
495.30350,-0.6262509935
495.30400,-0.3210565858
495.30450,2.120498676
495.30500,6.393220384
495.30550,8.22438683
495.30600,3.646470714
495.30650,-5.814555924
495.30700,-13.13922171
495.30750,-12.22363849
495.30800,-6.119750332
495.30850,-1.236639809
495.30900,-0.9314454012
495.30950,-3.373000663
495.31000,-3.983389478
495.31050,-1.236639809
495.31100,1.51010986
495.31150,0.899721045
495.31200,-2.152223032
495.31250,-3.067806255
495.31300,0.2893322296
495.31350,5.782831568
495.31400,9.445164461
495.31450,10.36074768
495.31500,6.088025976
495.31550,-6.42494474
495.31600,-23.21063716
495.31650,-31.14569176
495.31700,-28.39894209
495.31750,-26.87297006
495.31800,-33.28205262
495.31850,-33.28205262
495.31900,-11.00286086
495.31950,22.8737184
495.32000,41.49057727
495.32050,34.16591148
495.32100,17.68541347
495.32150,10.36074768
495.32200,9.750358868
495.32250,7.003609199
495.32300,3.646470714
495.32350,7.919192422
495.32400,17.38021906
495.32450,21.65294077
495.32500,16.46463584
495.32550,9.750358868
495.32600,8.834775645
495.32650,11.27633091
495.32700,10.36074768
495.32750,3.951665122
495.32800,-2.152223032
495.32850,-5.204167109
495.32900,-5.814555924
495.32950,-6.730139148
495.33000,-7.950916778
495.33050,-9.782083225
495.33100,-11.61324967
495.33150,-10.69766645
495.33200,-4.288583886
495.33250,4.25685953
495.33300,7.003609199
495.33350,3.036081899
495.33400,-0.3210565858
495.33450,-0.01586217811
495.33500,-0.01586217811
495.33550,-5.814555924
495.33600,-12.52883289
495.33650,-13.44441612
495.33700,-11.61324967
495.33750,-12.8340273
495.33800,-14.35999934
495.33850,-8.561305594
495.33900,3.036081899
495.33950,11.58152531
495.34000,12.19191413
495.34050,9.445164461
495.34100,7.003609199
495.34150,4.867248345
495.34200,1.815304268
495.34250,-0.01586217811
495.34300,-1.236639809
495.34350,-2.45741744
495.34400,-3.067806255
495.34450,-0.6262509935
495.34500,2.730887491
495.34550,3.341276307
495.34600,-0.01586217811
495.34650,-3.983389478
495.34700,-5.814555924
495.34750,-6.730139148
495.34800,-7.645722371
495.34850,-7.645722371
495.34900,-6.42494474
495.34950,-6.730139148
495.35000,-7.950916778
495.35050,-7.340527963
495.35100,-0.9314454012
495.35150,8.529581238
495.35200,15.54905261
495.35250,15.24385821
495.35300,9.445164461
495.35350,3.036081899
495.35400,-0.01586217811
495.35450,-0.01586217811
495.35500,-0.3210565858
495.35550,-0.9314454012
495.35600,-0.9314454012
495.35650,-0.01586217811
495.35700,1.204915453
495.35750,2.425693084
495.35800,3.036081899
495.35850,3.341276307
495.35900,3.341276307
495.35950,3.646470714
495.36000,3.951665122
495.36050,3.951665122
495.36100,3.951665122
495.36150,4.867248345
495.36200,6.698414791
495.36250,7.003609199
495.36300,3.951665122
495.36350,0.2893322296
495.36400,-0.3210565858
495.36450,0.2893322296
495.36500,-0.01586217811
495.36550,-2.762611847
495.36600,-5.509361517
495.36650,-5.814555924
495.36700,-6.119750332
495.36750,-8.866500001
495.36800,-11.61324967
495.36850,-10.69766645
495.36900,-7.645722371
495.36950,-7.035333555
495.37000,-8.866500001
495.37050,-8.561305594
495.37100,-4.288583886
495.37150,-1.236639809
495.37200,-2.152223032
495.37250,-4.593778294
495.37300,-6.119750332
495.37350,-6.730139148
495.37400,-6.42494474
495.37450,-2.152223032
495.37500,6.393220384
495.37550,13.71788617
495.37600,13.41269176
495.37650,7.003609199
495.37700,2.120498676
495.37750,3.036081899
495.37800,6.698414791
495.37850,7.919192422
495.37900,4.25685953
495.37950,-0.9314454012
495.38000,-4.288583886
495.38050,-3.373000663
495.38100,-0.9314454012
495.38150,-0.01586217811
495.38200,-0.01586217811
495.38250,1.51010986
495.38300,4.25685953
495.38350,5.782831568
495.38400,4.562053937
495.38450,3.341276307
495.38500,4.25685953
495.38550,5.782831568
495.38600,5.172442753
495.38650,3.646470714
495.38700,2.425693084
495.38750,1.51010986
495.38800,0.899721045
495.38850,-0.01586217811
495.38900,-1.236639809
495.38950,-3.067806255
495.39000,-4.593778294
495.39050,-3.983389478
495.39100,-0.9314454012
495.39150,1.815304268
495.39200,1.204915453
495.39250,-2.762611847
495.39300,-7.340527963
495.39350,-7.645722371
495.39400,-2.45741744
495.39450,3.036081899
495.39500,4.562053937
495.39550,3.036081899
495.39600,3.646470714
495.39650,6.088025976
495.39700,3.951665122
495.39750,-4.898972701
495.39800,-15.27558256
495.39850,-17.71713782
495.39900,-11.61324967
495.39950,-2.762611847
495.40000,3.341276307
495.40050,7.308803607
495.40100,10.05555328
495.40150,12.49710854
495.40200,14.32827498
495.40250,14.63346939
495.40300,10.05555328
495.40350,-0.01586217811
495.40400,-11.00286086
495.40450,-18.32752664
495.40500,-21.07427631
495.40550,-22.90544276
495.40600,-23.21063716
495.40650,-18.63272105
495.40700,-8.561305594
495.40750,2.120498676
495.40800,8.22438683
495.40850,7.613998014
495.40900,3.646470714
495.40950,1.815304268
495.41000,3.341276307
495.41050,4.562053937
495.41100,2.425693084
495.41150,-0.01586217811
495.41200,1.204915453
495.41250,5.782831568
495.41300,8.529581238
495.41350,8.22438683
495.41400,8.22438683
495.41450,7.919192422
495.41500,2.730887491
495.41550,-6.42494474
495.41600,-13.13922171
495.41650,-11.91844408
495.41700,-8.866500001
495.41750,-10.69766645
495.41800,-14.66519375
495.41850,-14.05480493
495.41900,-9.476888817
495.41950,-8.256111186
495.42000,-9.171694409
495.42050,-3.983389478
495.42100,10.05555328
495.42150,23.48410721
495.42200,25.01007925
495.42250,15.54905261
495.42300,5.477637161
495.42350,1.51010986
495.42400,1.204915453
495.42450,0.899721045
495.42500,0.899721045
495.42550,-0.6262509935
495.42600,-7.645722371
495.42650,-18.93791546
495.42700,-24.7366092
495.42750,-21.37947072
495.42800,-17.41194342
495.42850,-21.37947072
495.42900,-22.60024835
495.42950,-2.762611847
495.43000,34.7763003
495.43050,62.5489914
495.43100,59.49704732
495.43150,36.60746675
495.43200,18.9061911
495.43250,14.02308058
495.43300,9.445164461
495.43350,-2.762611847
495.43400,-15.58077697
495.43450,-18.63272105
495.43500,-13.44441612
495.43550,-8.256111186
495.43600,-5.509361517
495.43650,-2.762611847
495.43700,0.5945266373
495.43750,3.951665122
495.43800,7.613998014
495.43850,10.66594209
495.43900,10.66594209
495.43950,6.698414791
495.44000,1.51010986
495.44050,-0.3210565858
495.44100,0.2893322296
495.44150,0.899721045
495.44200,-0.01586217811
495.44250,-0.6262509935
495.44300,-0.01586217811
495.44350,-0.01586217811
495.44400,-0.01586217811
495.44450,-1.236639809
495.44500,-2.152223032
495.44550,-3.067806255
495.44600,-3.678195071
495.44650,-3.067806255
495.44700,-2.45741744
495.44750,-1.847028624
495.44800,-0.9314454012
495.44850,1.51010986
495.44900,3.646470714
495.44950,1.204915453
495.45000,-4.593778294
495.45050,-8.866500001
495.45100,-8.256111186
495.45150,-7.645722371
495.45200,-11.00286086
495.45250,-13.13922171
495.45300,-7.340527963
495.45350,3.341276307
495.45400,10.9711365
495.45450,11.88671972
495.45500,10.66594209
495.45550,10.66594209
495.45600,8.529581238
495.45650,3.646470714
495.45700,-0.6262509935
495.45750,-2.152223032
495.45800,-2.45741744
495.45850,-3.067806255
495.45900,-2.152223032
495.45950,1.815304268
495.46000,6.088025976
495.46050,6.698414791
495.46100,4.867248345
495.46150,3.341276307
495.46200,1.204915453
495.46250,-3.067806255
495.46300,-7.035333555
495.46350,-4.288583886
495.46400,2.730887491
495.46450,4.562053937
495.46500,-4.288583886
495.46550,-15.88597138
495.46600,-14.66519375
495.46650,-0.01586217811
495.46700,13.41269176
495.46750,12.49710854
495.46800,2.120498676
495.46850,-4.898972701
495.46900,-4.898972701
495.46950,-4.593778294
495.47000,-7.035333555
495.47050,-8.256111186
495.47100,-5.814555924
495.47150,-4.288583886
495.47200,-7.035333555
495.47250,-9.476888817
495.47300,-4.898972701
495.47350,3.036081899
495.47400,7.308803607
495.47450,5.172442753
495.47500,1.815304268
495.47550,-0.01586217811
495.47600,-1.847028624
495.47650,-3.678195071
495.47700,-3.067806255
495.47750,0.5945266373
495.47800,4.562053937
495.47850,5.477637161
495.47900,4.867248345
495.47950,4.867248345
495.48000,5.172442753
495.48050,2.730887491
495.48100,-0.01586217811
495.48150,0.5945266373
495.48200,3.646470714
495.48250,3.951665122
495.48300,-0.01586217811
495.48350,-4.288583886
495.48400,-4.288583886
495.48450,-0.6262509935
495.48500,2.425693084
495.48550,3.646470714
495.48600,3.036081899
495.48650,2.120498676
495.48700,1.204915453
495.48750,1.51010986
495.48800,4.25685953
495.48850,7.308803607
495.48900,7.003609199
495.48950,2.730887491
495.49000,-0.9314454012
495.49050,-1.847028624
495.49100,-1.236639809
495.49150,-2.762611847
495.49200,-5.509361517
495.49250,-7.035333555
495.49300,-6.42494474
495.49350,-4.593778294
495.49400,-1.236639809
495.49450,1.815304268
495.49500,3.341276307
495.49550,2.730887491
495.49600,3.341276307
495.49650,6.393220384
495.49700,6.088025976
495.49750,-1.541834217
495.49800,-11.61324967
495.49850,-14.97038816
495.49900,-12.52883289
495.49950,-13.13922171
495.50000,-18.63272105
495.50050,-19.54830427
495.50100,-10.08727763
495.50150,2.730887491
495.50200,9.139970053
495.50250,8.529581238
495.50300,5.782831568
495.50350,4.562053937
495.50400,3.951665122
495.50450,4.867248345
495.50500,6.393220384
495.50550,6.393220384
495.50600,2.730887491
495.50650,-0.9314454012
495.50700,-0.3210565858
495.50750,2.730887491
495.50800,4.562053937
495.50850,2.730887491
495.50900,-0.01586217811
495.50950,-0.3210565858
495.51000,0.5945266373
495.51050,1.51010986
495.51100,0.899721045
495.51150,-0.3210565858
495.51200,-1.541834217
495.51250,-1.236639809
495.51300,0.899721045
495.51350,4.25685953
495.51400,7.003609199
495.51450,7.613998014
495.51500,7.308803607
495.51550,7.613998014
495.51600,7.919192422
495.51650,6.393220384
495.51700,-0.01586217811
495.51750,-8.256111186
495.51800,-12.8340273
495.51850,-11.00286086
495.51900,-7.645722371
495.51950,-7.645722371
495.52000,-9.171694409
495.52050,-6.730139148
495.52100,-0.6262509935
495.52150,3.646470714
495.52200,3.951665122
495.52250,2.120498676
495.52300,1.204915453
495.52350,1.204915453
495.52400,0.2893322296
495.52450,-0.6262509935
495.52500,-1.541834217
495.52550,-2.762611847
495.52600,-3.373000663
495.52650,-2.45741744
495.52700,-0.6262509935
495.52750,-0.6262509935
495.52800,-3.678195071
495.52850,-6.119750332
495.52900,-6.42494474
495.52950,-5.204167109
495.53000,-3.678195071
495.53050,0.899721045
495.53100,8.22438683
495.53150,12.19191413
495.53200,8.22438683
495.53250,2.120498676
495.53300,1.204915453
495.53350,3.951665122
495.53400,0.899721045
495.53450,-8.256111186
495.53500,-12.52883289
495.53550,-5.509361517
495.53600,5.172442753
495.53650,9.445164461
495.53700,7.613998014
495.53750,7.308803607
495.53800,10.66594209
495.53850,11.88671972
495.53900,8.529581238
495.53950,4.562053937
495.54000,3.341276307
495.54050,3.646470714
495.54100,4.562053937
495.54150,6.698414791
495.54200,7.919192422
495.54250,6.698414791
495.54300,5.172442753
495.54350,7.308803607
495.54400,10.05555328
495.54450,8.529581238
495.54500,3.646470714
495.54550,3.341276307
495.54600,7.308803607
495.54650,3.646470714
495.54700,-11.91844408
495.54750,-28.39894209
495.54800,-31.14569176
495.54850,-22.60024835
495.54900,-14.66519375
495.54950,-11.30805526
495.55000,-7.950916778
495.55050,-2.45741744
495.55100,0.5945266373
495.55150,-1.236639809
495.55200,-4.898972701
495.55250,-6.119750332
495.55300,-3.983389478
495.55350,-1.236639809
495.55400,-4.898972701
495.55450,-17.71713782
495.55500,-32.06127499
495.55550,-33.28205262
495.55600,-21.07427631
495.55650,-13.44441612
495.55700,-20.7690819
495.55750,-26.26258124
495.55800,-5.814555924
495.55850,34.7763003
495.55900,62.5489914
495.55950,56.13990884
495.56000,29.58799537
495.56050,9.750358868
495.56100,4.562053937
495.56150,4.562053937
495.56200,2.425693084
495.56250,-0.9314454012
495.56300,-2.762611847
495.56350,-1.847028624
495.56400,-0.01586217811
495.56450,0.5945266373
495.56500,0.2893322296
495.56550,0.899721045
495.56600,6.088025976
495.56650,13.71788617
495.56700,16.46463584
495.56750,11.58152531
495.56800,4.867248345
495.56850,1.51010986
495.56900,-0.9314454012
495.56950,-6.42494474
495.57000,-11.91844408
495.57050,-11.30805526
495.57100,-5.814555924
495.57150,-2.762611847
495.57200,-3.983389478
495.57250,-6.119750332
495.57300,-6.119750332
495.57350,-5.204167109
495.57400,-5.204167109
495.57450,-5.509361517
495.57500,-5.814555924
495.57550,-7.035333555
495.57600,-7.035333555
495.57650,-0.9314454012
495.57700,8.22438683
495.57750,13.41269176
495.57800,10.66594209
495.57850,5.782831568
495.57900,7.613998014
495.57950,14.32827498
495.58000,15.85424702
495.58050,8.22438683
495.58100,-1.236639809
495.58150,-4.288583886
495.58200,-0.3210565858
495.58250,2.120498676
495.58300,-0.01586217811
495.58350,-3.983389478
495.58400,-4.898972701
495.58450,-3.067806255
495.58500,-4.898972701
495.58550,-11.91844408
495.58600,-17.10674901
495.58650,-14.97038816
495.58700,-9.476888817
495.58750,-7.645722371
495.58800,-7.035333555
495.58850,-0.6262509935
495.58900,10.36074768
495.58950,15.54905261
495.59000,8.834775645
495.59050,-1.541834217
495.59100,-5.509361517
495.59150,-3.983389478
495.59200,-3.678195071
495.59250,-5.509361517
495.59300,-4.898972701
495.59350,-2.152223032
495.59400,-2.762611847
495.59450,-7.035333555
495.59500,-9.782083225
495.59550,-7.035333555
495.59600,-1.847028624
495.59650,-0.01586217811
495.59700,-1.541834217
495.59750,-2.762611847
495.59800,-1.847028624
495.59850,-0.3210565858
495.59900,-0.6262509935
495.59950,-1.847028624
495.60000,-1.541834217
495.60050,0.2893322296
495.60100,2.730887491
495.60150,4.25685953
495.60200,4.25685953
495.60250,3.951665122
495.60300,3.341276307
495.60350,1.815304268
495.60400,1.204915453
495.60450,1.51010986
495.60500,2.730887491
495.60550,3.341276307
495.60600,3.341276307
495.60650,3.341276307
495.60700,2.730887491
495.60750,2.120498676
495.60800,2.730887491
495.60850,4.867248345
495.60900,7.003609199
495.60950,8.22438683
495.61000,9.750358868
495.61050,10.9711365
495.61100,9.139970053
495.61150,3.646470714
495.61200,-1.541834217
495.61250,-2.762611847
495.61300,-3.678195071
495.61350,-9.782083225
495.61400,-17.41194342
495.61450,-18.02233223
495.61500,-10.39247204
495.61550,-0.9314454012
495.61600,2.730887491
495.61650,2.425693084
495.61700,2.730887491
495.61750,3.951665122
495.61800,3.951665122
495.61850,3.646470714
495.61900,4.25685953
495.61950,4.867248345
495.62000,3.341276307
495.62050,0.899721045
495.62100,-0.3210565858
495.62150,-1.236639809
495.62200,-2.45741744
495.62250,-2.45741744
495.62300,-0.01586217811
495.62350,2.730887491
495.62400,1.815304268
495.62450,-0.3210565858
495.62500,-0.3210565858
495.62550,1.815304268
495.62600,1.51010986
495.62650,-1.236639809
495.62700,-2.762611847
495.62750,-0.9314454012
495.62800,0.2893322296
495.62850,1.815304268
495.62900,7.308803607
495.62950,14.32827498
495.63000,13.41269176
495.63050,1.815304268
495.63100,-8.561305594
495.63150,-7.340527963
495.63200,-0.01586217811
495.63250,-0.3210565858
495.63300,-8.561305594
495.63350,-14.05480493
495.63400,-10.08727763
495.63450,-0.9314454012
495.63500,7.919192422
495.63550,14.9386638
495.63600,17.68541347
495.63650,14.9386638
495.63700,9.139970053
495.63750,6.088025976
495.63800,5.477637161
495.63850,4.25685953
495.63900,1.204915453
495.63950,-0.6262509935
495.64000,-1.541834217
495.64050,-3.067806255
495.64100,-4.593778294
495.64150,-4.288583886
495.64200,-2.762611847
495.64250,-1.541834217
495.64300,-0.01586217811
495.64350,3.036081899
495.64400,6.698414791
495.64450,8.22438683
495.64500,7.613998014
495.64550,7.919192422
495.64600,9.139970053
495.64650,8.529581238
495.64700,5.782831568
495.64750,2.730887491
495.64800,1.204915453
495.64850,0.2893322296
495.64900,-2.45741744
495.64950,-7.645722371
495.65000,-12.52883289
495.65050,-14.35999934
495.65100,-11.91844408
495.65150,-7.340527963
495.65200,-3.983389478
495.65250,-3.678195071
495.65300,-4.593778294
495.65350,-3.983389478
495.65400,-1.541834217
495.65450,-0.6262509935
495.65500,-2.762611847
495.65550,-6.42494474
495.65600,-8.256111186
495.65650,-8.256111186
495.65700,-10.08727763
495.65750,-11.91844408
495.65800,-8.256111186
495.65850,-0.6262509935
495.65900,-0.01586217811
495.65950,-12.22363849
495.66000,-25.34699802
495.66050,-25.95738683
495.66100,-19.24310986
495.66150,-20.15869309
495.66200,-26.56777565
495.66250,-16.19116579
495.66300,17.99060788
495.66350,53.69835358
495.66400,64.38015785
495.66450,50.6464095
495.66500,32.63993945
495.66550,21.65294077
495.66600,13.10749735
495.66650,3.036081899
495.66700,-2.45741744
495.66750,-2.152223032
495.66800,-1.847028624
495.66850,-5.814555924
495.66900,-10.39247204
495.66950,-11.00286086
495.67000,-10.08727763
495.67050,-10.39247204
495.67100,-8.561305594
495.67150,-1.541834217
495.67200,5.782831568
495.67250,6.088025976
495.67300,0.2893322296
495.67350,-2.45741744
495.67400,-0.3210565858
495.67450,-0.01586217811
495.67500,-3.067806255
495.67550,-3.678195071
495.67600,2.425693084
495.67650,7.919192422
495.67700,6.393220384
495.67750,4.562053937
495.67800,11.27633091
495.67850,20.43216314
495.67900,16.46463584
495.67950,-0.01586217811
495.68000,-12.22363849
495.68050,-11.30805526
495.68100,-8.256111186
495.68150,-12.8340273
495.68200,-19.85349868
495.68250,-18.63272105
495.68300,-8.866500001
495.68350,1.204915453
495.68400,6.698414791
495.68450,7.308803607
495.68500,3.036081899
495.68550,-2.45741744
495.68600,-3.983389478
495.68650,-0.01586217811
495.68700,4.25685953
495.68750,4.25685953
495.68800,2.425693084
495.68850,3.036081899
495.68900,3.646470714
495.68950,-0.01586217811
495.69000,-6.730139148
495.69050,-11.61324967
495.69100,-11.30805526
495.69150,-6.42494474
495.69200,0.2893322296
495.69250,4.867248345
495.69300,0.5945266373
495.69350,-10.69766645
495.69400,-20.46388749
495.69450,-19.24310986
495.69500,-9.782083225
495.69550,-3.067806255
495.69600,-2.45741744
495.69650,-2.152223032
495.69700,1.204915453
495.69750,4.562053937
495.69800,3.036081899
495.69850,-0.9314454012
495.69900,-3.067806255
495.69950,-3.067806255
495.70000,-3.678195071
495.70050,-4.288583886
495.70100,-1.541834217
495.70150,3.036081899
495.70200,4.867248345
495.70250,2.120498676
495.70300,0.899721045
495.70350,5.172442753
495.70400,8.834775645
495.70450,3.646470714
495.70500,-7.950916778
495.70550,-13.44441612
495.70600,-6.119750332
495.70650,6.088025976
495.70700,12.80230295
495.70750,12.49710854
495.70800,10.66594209
495.70850,11.27633091
495.70900,11.27633091
495.70950,8.834775645
495.71000,6.088025976
495.71050,5.172442753
495.71100,4.562053937
495.71150,1.815304268
495.71200,-0.3210565858
495.71250,0.2893322296
495.71300,2.730887491
495.71350,1.815304268
495.71400,-1.541834217
495.71450,-2.762611847
495.71500,-0.01586217811
495.71550,2.120498676
495.71600,2.425693084
495.71650,3.341276307
495.71700,6.393220384
495.71750,7.003609199
495.71800,3.341276307
495.71850,0.899721045
495.71900,4.867248345
495.71950,9.139970053
495.72000,4.562053937
495.72050,-5.204167109
495.72100,-10.08727763
495.72150,-7.645722371
495.72200,-8.256111186
495.72250,-14.66519375
495.72300,-17.71713782
495.72350,-11.00286086
495.72400,-2.762611847
495.72450,-1.236639809
495.72500,-3.067806255
495.72550,0.899721045
495.72600,8.529581238
495.72650,10.36074768
495.72700,5.477637161
495.72750,1.204915453
495.72800,1.815304268
495.72850,2.730887491
495.72900,1.51010986
495.72950,2.120498676
495.73000,5.477637161
495.73050,6.088025976
495.73100,1.204915453
495.73150,-3.067806255
495.73200,-1.236639809
495.73250,2.425693084
495.73300,1.204915453
495.73350,-5.814555924
495.73400,-11.00286086
495.73450,-9.782083225
495.73500,-5.509361517
495.73550,-3.067806255
495.73600,-3.067806255
495.73650,-3.067806255
495.73700,-2.762611847
495.73750,-2.45741744
495.73800,-1.847028624
495.73850,0.5945266373
495.73900,3.951665122
495.73950,5.782831568
495.74000,5.172442753
495.74050,3.341276307
495.74100,2.730887491
495.74150,3.951665122
495.74200,5.172442753
495.74250,3.951665122
495.74300,1.51010986
495.74350,-0.01586217811
495.74400,1.204915453
495.74450,2.730887491
495.74500,1.204915453
495.74550,-2.152223032
495.74600,-5.204167109
495.74650,-5.509361517
495.74700,-3.983389478
495.74750,-2.762611847
495.74800,-2.45741744
495.74850,-3.373000663
495.74900,-4.593778294
495.74950,-4.898972701
495.75000,-3.067806255
495.75050,-0.01586217811
495.75100,0.899721045
495.75150,-0.01586217811
495.75200,-1.236639809
495.75250,-0.01586217811
495.75300,3.036081899
495.75350,5.782831568
495.75400,7.003609199
495.75450,8.22438683
495.75500,10.9711365
495.75550,14.63346939
495.75600,15.85424702
495.75650,12.49710854
495.75700,7.003609199
495.75750,3.646470714
495.75800,1.815304268
495.75850,-4.288583886
495.75900,-15.88597138
495.75950,-25.65219243
495.76000,-23.51583157
495.76050,-10.39247204
495.76100,3.341276307
495.76150,9.445164461
495.76200,8.834775645
495.76250,5.477637161
495.76300,1.815304268
495.76350,-0.9314454012
495.76400,-1.236639809
495.76450,1.204915453
495.76500,3.646470714
495.76550,1.815304268
495.76600,-1.847028624
495.76650,-4.593778294
495.76700,-5.509361517
495.76750,-6.42494474
495.76800,-6.730139148
495.76850,-5.509361517
495.76900,-3.067806255
495.76950,-2.762611847
495.77000,-3.678195071
495.77050,-3.067806255
495.77100,-0.01586217811
495.77150,2.730887491
495.77200,3.646470714
495.77250,2.730887491
495.77300,2.120498676
495.77350,1.51010986
495.77400,0.5945266373
495.77450,-0.3210565858
495.77500,-0.6262509935
495.77550,-0.01586217811
495.77600,1.204915453
495.77650,2.425693084
495.77700,3.036081899
495.77750,2.730887491
495.77800,-0.01586217811
495.77850,-7.340527963
495.77900,-19.54830427
495.77950,-30.23010854
495.78000,-32.06127499
495.78050,-26.87297006
495.78100,-23.51583157
495.78150,-19.24310986
495.78200,-0.3210565858
495.78250,35.38668912
495.78300,66.21132429
495.78350,66.82171311
495.78400,42.10096608
495.78450,18.9061911
495.78500,12.19191413
495.78550,12.80230295
495.78600,9.139970053
495.78650,4.562053937
495.78700,5.172442753
495.78750,7.919192422
495.78800,5.172442753
495.78850,-2.762611847
495.78900,-8.866500001
495.78950,-9.171694409
495.79000,-5.204167109
495.79050,-0.3210565858
495.79100,2.120498676
495.79150,0.2893322296
495.79200,-3.983389478
495.79250,-6.730139148
495.79300,-7.035333555
495.79350,-8.866500001
495.79400,-13.74961052
495.79450,-16.49636019
495.79500,-12.8340273
495.79550,-7.035333555
495.79600,-4.593778294
495.79650,-4.898972701
495.79700,-3.678195071
495.79750,-0.3210565858
495.79800,0.899721045
495.79850,0.5945266373
495.79900,0.899721045
495.79950,3.036081899
495.80000,3.341276307
495.80050,0.899721045
495.80100,-0.6262509935
495.80150,-0.3210565858
495.80200,-0.9314454012
495.80250,-6.119750332
495.80300,-13.44441612
495.80350,-15.88597138
495.80400,-11.91844408
495.80450,-5.509361517
495.80500,-2.762611847
495.80550,-3.067806255
495.80600,-3.373000663
495.80650,-2.45741744
495.80700,0.5945266373
495.80750,7.003609199
495.80800,15.54905261
495.80850,18.9061911
495.80900,13.41269176
495.80950,6.088025976
495.81000,6.393220384
495.81050,11.88671972
495.81100,11.27633091
495.81150,3.036081899
495.81200,-3.373000663
495.81250,-3.373000663
495.81300,-3.678195071
495.81350,-11.30805526
495.81400,-20.15869309
495.81450,-21.98985953
495.81500,-18.63272105
495.81550,-17.41194342
495.81600,-19.54830427
495.81650,-18.63272105
495.81700,-12.22363849
495.81750,-5.204167109
495.81800,0.899721045
495.81850,8.22438683
495.81900,15.24385821
495.81950,17.38021906
495.82000,12.80230295
495.82050,6.698414791
495.82100,4.562053937
495.82150,4.562053937
495.82200,3.341276307
495.82250,-0.6262509935
495.82300,-3.678195071
495.82350,-0.3210565858
495.82400,9.445164461
495.82450,17.99060788
495.82500,17.68541347
495.82550,10.66594209
495.82600,6.393220384
495.82650,8.22438683
495.82700,7.613998014
495.82750,-3.373000663
495.82800,-18.63272105
495.82850,-23.51583157
495.82900,-15.27558256
495.82950,-3.373000663
495.83000,1.815304268
495.83050,0.899721045
495.83100,-0.3210565858
495.83150,0.2893322296
495.83200,3.036081899
495.83250,5.172442753
495.83300,4.25685953
495.83350,2.425693084
495.83400,2.120498676
495.83450,3.341276307
495.83500,1.815304268
495.83550,-3.373000663
495.83600,-7.645722371
495.83650,-5.509361517
495.83700,-0.9314454012
495.83750,-0.9314454012
495.83800,-5.509361517
495.83850,-9.171694409
495.83900,-8.561305594
495.83950,-7.645722371
495.84000,-7.340527963
495.84050,-6.119750332
495.84100,-2.762611847
495.84150,1.51010986
495.84200,6.698414791
495.84250,12.49710854
495.84300,16.46463584
495.84350,14.32827498
495.84400,8.22438683
495.84450,3.341276307
495.84500,2.120498676
495.84550,2.120498676
495.84600,2.425693084
495.84650,3.951665122
495.84700,4.867248345
495.84750,2.730887491
495.84800,-0.6262509935
495.84850,-1.236639809
495.84900,-0.9314454012
495.84950,-3.983389478
495.85000,-8.561305594
495.85050,-7.035333555
495.85100,2.425693084
495.85150,11.58152531
495.85200,12.80230295
495.85250,7.308803607
495.85300,1.815304268
495.85350,-1.541834217
495.85400,-4.593778294
495.85450,-5.814555924
495.85500,-3.373000663
495.85550,-0.01586217811
495.85600,1.204915453
495.85650,-0.01586217811
495.85700,-3.067806255
495.85750,-5.814555924
495.85800,-6.730139148
495.85850,-4.898972701
495.85900,-0.9314454012
495.85950,0.2893322296
495.86000,-2.45741744
495.86050,-5.814555924
495.86100,-5.509361517
495.86150,-1.541834217
495.86200,1.51010986
495.86250,3.341276307
495.86300,4.25685953
495.86350,2.120498676
495.86400,-4.288583886
495.86450,-11.00286086
495.86500,-10.08727763
495.86550,-1.541834217
495.86600,7.003609199
495.86650,10.05555328
495.86700,9.445164461
495.86750,9.445164461
495.86800,7.919192422
495.86850,0.5945266373
495.86900,-9.782083225
495.86950,-15.58077697
495.87000,-13.44441612
495.87050,-8.256111186
495.87100,-4.898972701
495.87150,-3.678195071
495.87200,-2.762611847
495.87250,-2.45741744
495.87300,-3.067806255
495.87350,-3.067806255
495.87400,-1.541834217
495.87450,-0.3210565858
495.87500,-0.01586217811
495.87550,-0.9314454012
495.87600,-1.541834217
495.87650,-2.152223032
495.87700,-2.152223032
495.87750,-1.236639809
495.87800,-0.3210565858
495.87850,-0.3210565858
495.87900,-0.6262509935
495.87950,-0.01586217811
495.88000,1.204915453
495.88050,0.899721045
495.88100,0.2893322296
495.88150,1.815304268
495.88200,5.477637161
495.88250,7.308803607
495.88300,6.088025976
495.88350,3.951665122
495.88400,4.25685953
495.88450,5.782831568
495.88500,6.393220384
495.88550,5.782831568
495.88600,5.172442753
495.88650,4.867248345
495.88700,3.646470714
495.88750,0.899721045
495.88800,-1.847028624
495.88850,-4.593778294
495.88900,-5.204167109
495.88950,-4.593778294
495.89000,-3.678195071
495.89050,-3.067806255
495.89100,-1.847028624
495.89150,-0.01586217811
495.89200,0.2893322296
495.89250,-0.3210565858
495.89300,-0.6262509935
495.89350,-0.01586217811
495.89400,-1.236639809
495.89450,-4.898972701
495.89500,-6.42494474
495.89550,-4.593778294
495.89600,-3.983389478
495.89650,-7.950916778
495.89700,-10.08727763
495.89750,-3.067806255
495.89800,7.919192422
495.89850,13.41269176
495.89900,12.49710854
495.89950,11.58152531
495.90000,11.27633091
495.90050,8.529581238
495.90100,5.477637161
495.90150,8.834775645
495.90200,15.85424702
495.90250,17.68541347
495.90300,10.9711365
495.90350,0.2893322296
495.90400,-12.52883289
495.90450,-26.87297006
495.90500,-33.89244143
495.90550,-28.09374769
495.90600,-22.29505394
495.90650,-29.31452532
495.90700,-36.33399669
495.90750,-15.88597138
495.90800,28.67241215
495.90850,58.88665851
495.90900,49.42563187
495.90950,20.73735755
495.91000,5.477637161
495.91050,6.698414791
495.91100,5.782831568
495.91150,-1.541834217
495.91200,-4.898972701
495.91250,-1.236639809
495.91300,0.2893322296
495.91350,-2.45741744
495.91400,-3.983389478
495.91450,-1.541834217
495.91500,-0.6262509935
495.91550,-2.152223032
495.91600,-1.236639809
495.91650,3.036081899
495.91700,6.088025976
495.91750,5.172442753
495.91800,3.951665122
495.91850,4.562053937
495.91900,4.562053937
495.91950,2.425693084
495.92000,1.204915453
495.92050,2.425693084
495.92100,3.036081899
495.92150,0.2893322296
495.92200,-2.45741744
495.92250,-2.45741744
495.92300,-0.01586217811
495.92350,1.204915453
495.92400,0.2893322296
495.92450,-1.236639809
495.92500,-1.541834217
495.92550,-0.9314454012
495.92600,-1.236639809
495.92650,-2.152223032
495.92700,-2.45741744
495.92750,-2.152223032
495.92800,-2.152223032
495.92850,-2.152223032
495.92900,-1.847028624
495.92950,-0.6262509935
495.93000,-0.01586217811
495.93050,-0.01586217811
495.93100,-0.3210565858
495.93150,-1.541834217
495.93200,-2.45741744
495.93250,-2.45741744
495.93300,-0.9314454012
495.93350,-0.3210565858
495.93400,-1.847028624
495.93450,-3.373000663
495.93500,-2.762611847
495.93550,-0.6262509935
495.93600,-0.9314454012
495.93650,-3.067806255
495.93700,-3.067806255
495.93750,-0.01586217811
495.93800,2.425693084
495.93850,1.815304268
495.93900,0.899721045
495.93950,1.51010986
495.94000,2.120498676
495.94050,1.815304268
495.94100,3.036081899
495.94150,6.393220384
495.94200,8.22438683
495.94250,7.003609199
495.94300,5.477637161
495.94350,6.698414791
495.94400,7.003609199
495.94450,4.25685953
495.94500,0.2893322296
495.94550,-1.236639809
495.94600,-0.01586217811
495.94650,4.867248345
495.94700,14.02308058
495.94750,20.43216314
495.94800,10.9711365
495.94850,-14.97038816
495.94900,-39.08074636
495.94950,-42.74307926
495.95000,-29.92491413
495.95050,-19.24310986
495.95100,-18.63272105
495.95150,-19.54830427
495.95200,-14.97038816
495.95250,-9.476888817
495.95300,-6.730139148
495.95350,-3.678195071
495.95400,3.341276307
495.95450,9.445164461
495.95500,9.750358868
495.95550,5.477637161
495.95600,2.425693084
495.95650,1.204915453
495.95700,0.5945266373
495.95750,-0.01586217811
495.95800,-0.3210565858
495.95850,-0.3210565858
495.95900,-0.9314454012
495.95950,-0.6262509935
495.96000,0.2893322296
495.96050,1.815304268
495.96100,3.951665122
495.96150,7.613998014
495.96200,11.58152531
495.96250,13.71788617
495.96300,12.80230295
495.96350,8.834775645
495.96400,0.899721045
495.96450,-9.782083225
495.96500,-17.71713782
495.96550,-15.88597138
495.96600,-6.730139148
495.96650,1.204915453
495.96700,3.951665122
495.96750,5.477637161
495.96800,8.834775645
495.96850,10.05555328
495.96900,7.003609199
495.96950,3.341276307
495.97000,3.951665122
495.97050,6.698414791
495.97100,6.698414791
495.97150,4.25685953
495.97200,2.730887491
495.97250,2.730887491
495.97300,1.815304268
495.97350,-0.01586217811
495.97400,-0.9314454012
495.97450,-0.3210565858
495.97500,0.2893322296
495.97550,0.5945266373
495.97600,1.204915453
495.97650,1.815304268
495.97700,1.51010986
495.97750,0.2893322296
495.97800,-0.01586217811
495.97850,-0.01586217811
495.97900,0.5945266373
495.97950,1.204915453
495.98000,2.120498676
495.98050,3.341276307
495.98100,4.25685953
495.98150,4.562053937
495.98200,4.562053937
495.98250,4.25685953
495.98300,4.25685953
495.98350,3.951665122
495.98400,4.562053937
495.98450,5.172442753
495.98500,4.867248345
495.98550,3.951665122
495.98600,3.341276307
495.98650,2.425693084
495.98700,1.204915453
495.98750,0.2893322296
495.98800,0.5945266373
495.98850,0.5945266373
495.98900,-0.3210565858
495.98950,-1.541834217
495.99000,-1.236639809
495.99050,-0.01586217811
495.99100,-0.01586217811
495.99150,-2.152223032
495.99200,-3.678195071
495.99250,-4.288583886
495.99300,-5.509361517
495.99350,-6.42494474
495.99400,-4.898972701
495.99450,-2.45741744
495.99500,-2.762611847
495.99550,-4.593778294
495.99600,-1.541834217
495.99650,6.698414791
495.99700,12.19191413
495.99750,6.393220384
495.99800,-4.898972701
495.99850,-10.08727763
495.99900,-6.730139148
495.99950,-3.067806255
496.00000,-4.593778294
496.00050,-5.204167109
496.00100,-0.01586217811
496.00150,8.22438683
496.00200,11.88671972
496.00250,11.27633091
496.00300,11.88671972
496.00350,14.02308058
496.00400,12.19191413
496.00450,4.867248345
496.00500,-0.01586217811
496.00550,3.341276307
496.00600,10.9711365
496.00650,12.19191413
496.00700,3.341276307
496.00750,-6.730139148
496.00800,-8.256111186
496.00850,-3.067806255
496.00900,-2.152223032
496.00950,-10.08727763
496.01000,-18.93791546
496.01050,-18.63272105
496.01100,-10.69766645
496.01150,-3.373000663
496.01200,-0.6262509935
496.01250,0.2893322296
496.01300,2.120498676
496.01350,1.815304268
496.01400,-3.983389478
496.01450,-11.61324967
496.01500,-15.27558256
496.01550,-12.52883289
496.01600,-7.645722371
496.01650,-5.509361517
496.01700,-6.119750332
496.01750,-6.119750332
496.01800,-3.983389478
496.01850,-1.541834217
496.01900,-2.152223032
496.01950,-4.288583886
496.02000,-2.152223032
496.02050,5.782831568
496.02100,11.88671972
496.02150,7.919192422
496.02200,-1.541834217
496.02250,-7.340527963
496.02300,-4.593778294
496.02350,-0.6262509935
496.02400,-0.6262509935
496.02450,-2.45741744
496.02500,-2.45741744
496.02550,-2.152223032
496.02600,-2.45741744
496.02650,-1.847028624
496.02700,-0.01586217811
496.02750,1.815304268
496.02800,0.899721045
496.02850,0.2893322296
496.02900,2.120498676
496.02950,5.172442753
496.03000,7.003609199
496.03050,6.088025976
496.03100,4.562053937
496.03150,3.646470714
496.03200,4.25685953
496.03250,3.951665122
496.03300,1.815304268
496.03350,-0.3210565858
496.03400,-0.6262509935
496.03450,-3.067806255
496.03500,-12.52883289
496.03550,-24.7366092
496.03600,-27.17816446
496.03650,-18.93791546
496.03700,-14.97038816
496.03750,-23.51583157
496.03800,-26.26258124
496.03850,-2.152223032
496.03900,38.13343878
496.03950,61.63340818
496.04000,53.08796476
496.04050,31.11396741
496.04100,17.99060788
496.04150,14.32827498
496.04200,10.05555328
496.04250,3.341276307
496.04300,-1.847028624
496.04350,-4.593778294
496.04400,-4.593778294
496.04450,0.899721045
496.04500,10.66594209
496.04550,14.02308058
496.04600,4.562053937
496.04650,-11.00286086
496.04700,-20.7690819
496.04750,-20.7690819
496.04800,-16.49636019
496.04850,-12.8340273
496.04900,-10.69766645
496.04950,-10.08727763
496.05000,-10.39247204
496.05050,-9.171694409
496.05100,-5.814555924
496.05150,-3.373000663
496.05200,-4.288583886
496.05250,-5.509361517
496.05300,-3.983389478
496.05350,-1.541834217
496.05400,-1.541834217
496.05450,-2.152223032
496.05500,0.2893322296
496.05550,6.088025976
496.05600,10.36074768
496.05650,9.139970053
496.05700,3.951665122
496.05750,-1.847028624
496.05800,-5.509361517
496.05850,-5.204167109
496.05900,-2.152223032
496.05950,-0.01586217811
496.06000,-0.3210565858
496.06050,-0.6262509935
496.06100,0.5945266373
496.06150,2.425693084
496.06200,0.5945266373
496.06250,-2.762611847
496.06300,-2.762611847
496.06350,1.51010986
496.06400,6.698414791
496.06450,8.834775645
496.06500,9.139970053
496.06550,8.834775645
496.06600,7.308803607
496.06650,5.172442753
496.06700,3.341276307
496.06750,1.815304268
496.06800,-2.152223032
496.06850,-8.256111186
496.06900,-11.61324967
496.06950,-9.782083225
496.07000,-5.204167109
496.07050,-2.152223032
496.07100,-1.847028624
496.07150,-2.762611847
496.07200,-3.678195071
496.07250,-4.288583886
496.07300,-2.45741744
496.07350,1.815304268
496.07400,5.477637161
496.07450,5.782831568
496.07500,3.951665122
496.07550,2.730887491
496.07600,2.425693084
496.07650,1.815304268
496.07700,0.2893322296
496.07750,-0.01586217811
496.07800,-0.01586217811
496.07850,0.2893322296
496.07900,-0.01586217811
496.07950,-0.3210565858
496.08000,-1.236639809
496.08050,-0.9314454012
496.08100,1.204915453
496.08150,5.477637161
496.08200,7.919192422
496.08250,6.698414791
496.08300,3.036081899
496.08350,0.2893322296
496.08400,-0.01586217811
496.08450,0.899721045
496.08500,0.2893322296
496.08550,-0.3210565858
496.08600,-0.01586217811
496.08650,1.51010986
496.08700,3.036081899
496.08750,0.899721045
496.08800,-1.847028624
496.08850,-1.847028624
496.08900,1.51010986
496.08950,4.562053937
496.09000,3.646470714
496.09050,1.204915453
496.09100,-0.01586217811
496.09150,-1.236639809
496.09200,-3.373000663
496.09250,-4.288583886
496.09300,-0.6262509935
496.09350,3.341276307
496.09400,3.951665122
496.09450,3.646470714
496.09500,5.782831568
496.09550,7.919192422
496.09600,4.867248345
496.09650,-2.762611847
496.09700,-8.561305594
496.09750,-8.866500001
496.09800,-6.730139148
496.09850,-4.288583886
496.09900,-0.9314454012
496.09950,1.204915453
496.10000,1.204915453
496.10050,-0.01586217811
496.10100,2.425693084
496.10150,9.445164461
496.10200,16.46463584
496.10250,17.68541347
496.10300,13.10749735
496.10350,5.477637161
496.10400,-0.3210565858
496.10450,-2.152223032
496.10500,-1.847028624
496.10550,-3.983389478
496.10600,-10.08727763
496.10650,-16.49636019
496.10700,-18.32752664
496.10750,-14.97038816
496.10800,-8.561305594
496.10850,-2.762611847
496.10900,-0.3210565858
496.10950,-1.847028624
496.11000,-6.119750332
496.11050,-9.171694409
496.11100,-9.476888817
496.11150,-8.866500001
496.11200,-8.256111186
496.11250,-4.898972701
496.11300,0.899721045
496.11350,5.172442753
496.11400,4.562053937
496.11450,0.5945266373
496.11500,-3.067806255
496.11550,-4.593778294
496.11600,-1.541834217
496.11650,6.088025976
496.11700,13.10749735
496.11750,11.58152531
496.11800,2.120498676
496.11850,-4.593778294
496.11900,-2.45741744
496.11950,4.562053937
496.12000,8.22438683
496.12050,6.393220384
496.12100,3.646470714
496.12150,1.51010986
496.12200,-0.01586217811
496.12250,-1.236639809
496.12300,-1.541834217
496.12350,-0.9314454012
496.12400,-0.01586217811
496.12450,0.5945266373
496.12500,1.204915453
496.12550,0.5945266373
496.12600,-1.541834217
496.12650,-3.373000663
496.12700,-3.067806255
496.12750,-1.541834217
496.12800,-1.541834217
496.12850,-1.847028624
496.12900,-0.3210565858
496.12950,3.036081899
496.13000,5.477637161
496.13050,5.172442753
496.13100,3.036081899
496.13150,1.815304268
496.13200,2.425693084
496.13250,2.425693084
496.13300,0.5945266373
496.13350,-0.6262509935
496.13400,-0.6262509935
496.13450,1.204915453
496.13500,2.730887491
496.13550,1.204915453
496.13600,-1.847028624
496.13650,-3.983389478
496.13700,-3.067806255
496.13750,-0.01586217811
496.13800,0.2893322296
496.13850,-1.847028624
496.13900,-3.983389478
496.13950,-3.678195071
496.14000,-2.45741744
496.14050,-1.541834217
496.14100,0.2893322296
496.14150,3.646470714
496.14200,5.172442753
496.14250,3.951665122
496.14300,3.341276307
496.14350,5.782831568
496.14400,7.308803607
496.14450,3.951665122
496.14500,-0.6262509935
496.14550,-0.9314454012
496.14600,1.815304268
496.14650,0.899721045
496.14700,-3.983389478
496.14750,-7.950916778
496.14800,-6.42494474
496.14850,-1.847028624
496.14900,0.899721045
496.14950,-0.9314454012
496.15000,-10.69766645
496.15050,-23.51583157
496.15100,-28.39894209
496.15150,-22.29505394
496.15200,-17.10674901
496.15250,-21.68466512
496.15300,-21.68466512
496.15350,3.341276307
496.15400,43.62693812
496.15450,62.85418581
496.15500,45.15291016
496.15550,14.9386638
496.15600,1.815304268
496.15650,3.036081899
496.15700,-1.847028624
496.15750,-15.27558256
496.15800,-21.37947072
496.15850,-14.05480493
496.15900,-4.593778294
496.15950,-1.847028624
496.16000,-0.01586217811
496.16050,8.22438683
496.16100,18.9061911
496.16150,24.09449603
496.16200,20.12696873
496.16250,9.445164461
496.16300,-3.067806255
496.16350,-10.39247204
496.16400,-8.561305594
496.16450,-0.6262509935
496.16500,4.867248345
496.16550,5.172442753
496.16600,3.646470714
496.16650,3.341276307
496.16700,4.25685953
496.16750,3.646470714
496.16800,0.899721045
496.16850,-3.678195071
496.16900,-9.476888817
496.16950,-12.52883289
496.17000,-9.171694409
496.17050,-3.678195071
496.17100,-2.762611847
496.17150,-6.42494474
496.17200,-7.645722371
496.17250,-2.45741744
496.17300,3.036081899
496.17350,3.646470714
496.17400,1.204915453
496.17450,1.51010986
496.17500,3.036081899
496.17550,0.2893322296
496.17600,-5.509361517
496.17650,-8.561305594
496.17700,-5.204167109
496.17750,-1.236639809
496.17800,-0.9314454012
496.17850,-1.541834217
496.17900,-0.01586217811
496.17950,2.425693084
496.18000,1.51010986
496.18050,-0.6262509935
496.18100,-1.236639809
496.18150,0.2893322296
496.18200,1.815304268
496.18250,2.425693084
496.18300,2.425693084
496.18350,2.120498676
496.18400,0.5945266373
496.18450,-0.6262509935
496.18500,-0.01586217811
496.18550,1.51010986
496.18600,2.120498676
496.18650,1.815304268
496.18700,1.815304268
496.18750,2.425693084
496.18800,1.815304268
496.18850,0.2893322296
496.18900,0.2893322296
496.18950,1.815304268
496.19000,2.425693084
496.19050,1.204915453
496.19100,0.2893322296
496.19150,0.2893322296
496.19200,-0.9314454012
496.19250,-3.983389478
496.19300,-4.898972701
496.19350,-0.9314454012
496.19400,5.172442753
496.19450,8.834775645
496.19500,8.834775645
496.19550,6.393220384
496.19600,3.951665122
496.19650,2.120498676
496.19700,1.815304268
496.19750,0.899721045
496.19800,-4.593778294
496.19850,-14.05480493
496.19900,-21.68466512
496.19950,-21.37947072
496.20000,-14.05480493
496.20050,-4.898972701
496.20100,2.120498676
496.20150,7.919192422
496.20200,10.36074768
496.20250,7.003609199
496.20300,0.5945266373
496.20350,-3.373000663
496.20400,-2.45741744
496.20450,-0.3210565858
496.20500,-1.236639809
496.20550,-3.373000663
496.20600,-3.678195071
496.20650,-1.236639809
496.20700,0.899721045
496.20750,2.120498676
496.20800,2.425693084
496.20850,1.204915453
496.20900,-0.9314454012
496.20950,-2.762611847
496.21000,-0.9314454012
496.21050,3.951665122
496.21100,7.613998014
496.21150,6.393220384
496.21200,2.425693084
496.21250,0.5945266373
496.21300,1.51010986
496.21350,2.425693084
496.21400,1.815304268
496.21450,1.204915453
496.21500,0.5945266373
496.21550,-0.6262509935
496.21600,-3.678195071
496.21650,-6.730139148
496.21700,-7.645722371
496.21750,-6.119750332
496.21800,-3.983389478
496.21850,-3.373000663
496.21900,-2.152223032
496.21950,3.341276307
496.22000,11.88671972
496.22050,17.68541347
496.22100,16.76983025
496.22150,13.71788617
496.22200,13.41269176
496.22250,12.49710854
496.22300,3.646470714
496.22350,-10.08727763
496.22400,-18.63272105
496.22450,-16.8015546
496.22500,-10.39247204
496.22550,-6.730139148
496.22600,-5.509361517
496.22650,-4.288583886
496.22700,-3.983389478
496.22750,-5.204167109
496.22800,-4.898972701
496.22850,-0.9314454012
496.22900,3.341276307
496.22950,4.562053937
496.23000,4.25685953
496.23050,4.867248345
496.23100,5.477637161
496.23150,4.562053937
496.23200,5.782831568
496.23250,9.445164461
496.23300,8.834775645
496.23350,-0.3210565858
496.23400,-11.30805526
496.23450,-13.13922171
496.23500,-6.730139148
496.23550,-1.847028624
496.23600,-2.45741744
496.23650,-3.373000663
496.23700,-1.541834217
496.23750,-0.01586217811
496.23800,-0.9314454012
496.23850,-0.9314454012
496.23900,1.815304268
496.23950,4.25685953
496.24000,1.815304268
496.24050,-3.067806255
496.24100,-5.509361517
496.24150,-3.373000663
496.24200,0.2893322296
496.24250,3.036081899
496.24300,5.172442753
496.24350,7.003609199
496.24400,7.919192422
496.24450,7.308803607
496.24500,6.088025976
496.24550,5.172442753
496.24600,4.25685953
496.24650,-0.01586217811
496.24700,-8.561305594
496.24750,-17.71713782
496.24800,-21.37947072
496.24850,-17.71713782
496.24900,-10.69766645
496.24950,-4.593778294
496.25000,-1.236639809
496.25050,-0.01586217811
496.25100,0.2893322296
496.25150,-1.541834217
496.25200,-5.204167109
496.25250,-8.256111186
496.25300,-8.866500001
496.25350,-8.256111186
496.25400,-8.256111186
496.25450,-8.256111186
496.25500,-5.814555924
496.25550,-1.541834217
496.25600,1.51010986
496.25650,3.646470714
496.25700,7.003609199
496.25750,12.49710854
496.25800,16.46463584
496.25850,15.85424702
496.25900,12.80230295
496.25950,10.66594209
496.26000,8.529581238
496.26050,5.172442753
496.26100,0.5945266373
496.26150,-0.9314454012
496.26200,-0.9314454012
496.26250,-0.6262509935
496.26300,0.899721045
496.26350,4.867248345
496.26400,8.529581238
496.26450,7.308803607
496.26500,2.730887491
496.26550,-1.236639809
496.26600,-3.983389478
496.26650,-6.730139148
496.26700,-7.950916778
496.26750,-5.814555924
496.26800,-3.373000663
496.26850,-3.067806255
496.26900,-3.678195071
496.26950,-1.236639809
496.27000,3.036081899
496.27050,4.867248345
496.27100,4.867248345
496.27150,5.477637161
496.27200,5.782831568
496.27250,3.036081899
496.27300,-0.3210565858
496.27350,-0.01586217811
496.27400,3.341276307
496.27450,4.562053937
496.27500,2.425693084
496.27550,0.899721045
496.27600,0.899721045
496.27650,-0.01586217811
496.27700,-1.236639809
496.27750,-0.01586217811
496.27800,1.51010986
496.27850,-0.6262509935
496.27900,-6.42494474
496.27950,-11.91844408
496.28000,-17.41194342
496.28050,-23.51583157
496.28100,-25.34699802
496.28150,-20.15869309
496.28200,-16.49636019
496.28250,-20.46388749
496.28300,-19.54830427
496.28350,2.730887491
496.28400,39.96460523
496.28450,61.02301936
496.28500,50.95160391
496.28550,27.14644011
496.28600,13.41269176
496.28650,11.58152531
496.28700,10.66594209
496.28750,7.308803607
496.28800,7.308803607
496.28850,10.36074768
496.28900,10.36074768
496.28950,5.477637161
496.29000,1.204915453
496.29050,1.51010986
496.29100,4.25685953
496.29150,3.036081899
496.29200,-4.593778294
496.29250,-15.58077697
496.29300,-21.07427631
496.29350,-16.8015546
496.29400,-7.645722371
496.29450,-1.847028624
496.29500,-0.9314454012
496.29550,1.204915453
496.29600,7.003609199
496.29650,10.9711365
496.29700,9.750358868
496.29750,5.477637161
496.29800,1.204915453
496.29850,-1.847028624
496.29900,-2.152223032
496.29950,3.341276307
496.30000,10.66594209
496.30050,8.22438683
496.30100,-7.645722371
496.30150,-24.7366092
496.30200,-26.87297006
496.30250,-14.35999934
496.30300,-3.067806255
496.30350,-4.898972701
496.30400,-15.27558256
496.30450,-21.37947072
496.30500,-18.63272105
496.30550,-12.22363849
496.30600,-9.476888817
496.30650,-9.782083225
496.30700,-9.782083225
496.30750,-8.256111186
496.30800,-6.119750332
496.30850,-2.762611847
496.30900,3.341276307
496.30950,11.27633091
496.31000,14.02308058
496.31050,9.750358868
496.31100,3.646470714
496.31150,1.815304268
496.31200,3.036081899
496.31250,3.341276307
496.31300,1.51010986
496.31350,-0.01586217811
496.31400,-0.6262509935
496.31450,-1.541834217
496.31500,-2.152223032
496.31550,-2.45741744
496.31600,-4.288583886
496.31650,-7.035333555
496.31700,-5.814555924
496.31750,-0.01586217811
496.31800,3.646470714
496.31850,-0.6262509935
496.31900,-6.730139148
496.31950,-1.847028624
496.32000,12.49710854
496.32050,22.56852399
496.32100,19.21138551
496.32150,9.139970053
496.32200,3.036081899
496.32250,2.425693084
496.32300,2.425693084
496.32350,2.120498676
496.32400,1.51010986
496.32450,0.5945266373
496.32500,-1.541834217
496.32550,-2.152223032
496.32600,0.5945266373
496.32650,3.036081899
496.32700,-0.01586217811
496.32750,-5.204167109
496.32800,-6.119750332
496.32850,-2.45741744
496.32900,0.2893322296
496.32950,-0.9314454012
496.33000,-1.847028624
496.33050,2.730887491
496.33100,10.66594209
496.33150,14.9386638
496.33200,12.49710854
496.33250,6.393220384
496.33300,1.51010986
496.33350,-0.6262509935
496.33400,-0.3210565858
496.33450,0.2893322296
496.33500,0.5945266373
496.33550,1.815304268
496.33600,6.393220384
496.33650,14.02308058
496.33700,17.99060788
496.33750,11.27633091
496.33800,-2.152223032
496.33850,-12.8340273
496.33900,-15.27558256
496.33950,-14.97038816
496.34000,-15.58077697
496.34050,-14.66519375
496.34100,-11.30805526
496.34150,-11.30805526
496.34200,-15.27558256
496.34250,-10.69766645
496.34300,8.834775645
496.34350,30.19838418
496.34400,33.86071708
496.34450,21.65294077
496.34500,11.58152531
496.34550,10.9711365
496.34600,10.05555328
496.34650,3.951665122
496.34700,-0.3210565858
496.34750,-0.01586217811
496.34800,-3.067806255
496.34850,-14.66519375
496.34900,-24.7366092
496.34950,-22.90544276
496.35000,-13.74961052
496.35050,-7.645722371
496.35100,-7.035333555
496.35150,-5.814555924
496.35200,-3.373000663
496.35250,-2.45741744
496.35300,-3.067806255
496.35350,-3.373000663
496.35400,-2.762611847
496.35450,-2.762611847
496.35500,-3.067806255
496.35550,-2.152223032
496.35600,-0.9314454012
496.35650,-1.236639809
496.35700,-2.152223032
496.35750,-2.152223032
496.35800,-0.9314454012
496.35850,-0.3210565858
496.35900,-0.6262509935
496.35950,-1.541834217
496.36000,-2.762611847
496.36050,-4.593778294
496.36100,-5.204167109
496.36150,-5.204167109
496.36200,-4.898972701
496.36250,-3.678195071
496.36300,-0.01586217811
496.36350,6.393220384
496.36400,13.10749735
496.36450,15.85424702
496.36500,13.10749735
496.36550,6.698414791
496.36600,1.51010986
496.36650,-0.3210565858
496.36700,0.2893322296
496.36750,1.815304268
496.36800,2.120498676
496.36850,2.425693084
496.36900,2.120498676
496.36950,2.120498676
496.37000,4.25685953
496.37050,8.22438683
496.37100,11.88671972
496.37150,12.19191413
496.37200,9.750358868
496.37250,7.003609199
496.37300,2.425693084
496.37350,-6.730139148
496.37400,-18.63272105
496.37450,-24.7366092
496.37500,-21.37947072
496.37550,-14.05480493
496.37600,-9.782083225
496.37650,-9.476888817
496.37700,-7.645722371
496.37750,-1.847028624
496.37800,4.562053937
496.37850,6.698414791
496.37900,6.088025976
496.37950,6.698414791
496.38000,6.698414791
496.38050,0.2893322296
496.38100,-11.30805526
496.38150,-18.32752664
496.38200,-14.97038816
496.38250,-11.00286086
496.38300,-17.71713782
496.38350,-24.7366092
496.38400,-11.61324967
496.38450,23.17891281
496.38500,53.39315917
496.38550,56.13990884
496.38600,38.43863319
496.38650,23.17891281
496.38700,18.9061911
496.38750,14.63346939
496.38800,2.730887491
496.38850,-11.91844408
496.38900,-20.7690819
496.38950,-21.98985953
496.39000,-18.93791546
496.39050,-15.58077697
496.39100,-13.13922171
496.39150,-9.782083225
496.39200,-5.204167109
496.39250,-1.541834217
496.39300,-0.9314454012
496.39350,-0.9314454012
496.39400,1.204915453
496.39450,4.867248345
496.39500,3.951665122
496.39550,-1.847028624
496.39600,-6.42494474
496.39650,-5.509361517
496.39700,-2.45741744
496.39750,-2.45741744
496.39800,-3.983389478
496.39850,-3.983389478
496.39900,-2.45741744
496.39950,-1.541834217
496.40000,-1.236639809
496.40050,-0.9314454012
496.40100,-1.236639809
496.40150,-2.45741744
496.40200,-2.762611847
496.40250,-0.9314454012
496.40300,0.2893322296
496.40350,-0.01586217811
496.40400,-0.9314454012
496.40450,-0.9314454012
496.40500,-0.9314454012
496.40550,-1.236639809
496.40600,-1.847028624
496.40650,-1.847028624
496.40700,-1.541834217
496.40750,-0.3210565858
496.40800,1.815304268
496.40850,4.25685953
496.40900,4.25685953
496.40950,2.120498676
496.41000,0.5945266373
496.41050,0.5945266373
496.41100,0.2893322296
496.41150,-0.6262509935
496.41200,-1.541834217
496.41250,-1.236639809
496.41300,-0.6262509935
496.41350,-0.9314454012
496.41400,-2.152223032
496.41450,-3.373000663
496.41500,-4.593778294
496.41550,-4.593778294
496.41600,-1.541834217
496.41650,2.425693084
496.41700,3.951665122
496.41750,2.120498676
496.41800,1.815304268
496.41850,6.393220384
496.41900,11.88671972
496.41950,12.49710854
496.42000,8.529581238
496.42050,6.088025976
496.42100,7.308803607
496.42150,9.445164461
496.42200,8.834775645
496.42250,7.308803607
496.42300,6.393220384
496.42350,5.477637161
496.42400,3.951665122
496.42450,3.036081899
496.42500,1.204915453
496.42550,-3.373000663
496.42600,-8.256111186
496.42650,-7.035333555
496.42700,-0.9314454012
496.42750,1.51010986
496.42800,-0.3210565858
496.42850,-0.3210565858
496.42900,2.120498676
496.42950,-0.9314454012
496.43000,-11.91844408
496.43050,-16.8015546
496.43100,-7.035333555
496.43150,7.613998014
496.43200,13.71788617
496.43250,13.71788617
496.43300,17.68541347
496.43350,22.56852399
496.43400,17.68541347
496.43450,4.867248345
496.43500,-4.288583886
496.43550,-7.035333555
496.43600,-9.782083225
496.43650,-15.27558256
496.43700,-16.49636019
496.43750,-12.8340273
496.43800,-8.561305594
496.43850,-4.593778294
496.43900,2.730887491
496.43950,11.27633091
496.44000,11.27633091
496.44050,3.646470714
496.44100,-2.152223032
496.44150,-1.236639809
496.44200,0.899721045
496.44250,0.2893322296
496.44300,-1.236639809
496.44350,-1.236639809
496.44400,-0.6262509935
496.44450,-0.9314454012
496.44500,-1.847028624
496.44550,-3.678195071
496.44600,-6.119750332
496.44650,-6.119750332
496.44700,-1.847028624
496.44750,3.646470714
496.44800,6.088025976
496.44850,4.562053937
496.44900,3.341276307
496.44950,3.341276307
496.45000,3.036081899
496.45050,2.730887491
496.45100,4.562053937
496.45150,7.613998014
496.45200,7.308803607
496.45250,2.730887491
496.45300,-2.45741744
496.45350,-5.204167109
496.45400,-3.373000663
496.45450,0.2893322296
496.45500,1.51010986
496.45550,-3.373000663
496.45600,-11.91844408
496.45650,-16.19116579
496.45700,-11.00286086
496.45750,-1.236639809
496.45800,5.172442753
496.45850,4.867248345
496.45900,1.815304268
496.45950,0.2893322296
496.46000,1.204915453
496.46050,2.120498676
496.46100,1.815304268
496.46150,1.204915453
496.46200,1.815304268
496.46250,3.341276307
496.46300,2.730887491
496.46350,-0.9314454012
496.46400,-4.593778294
496.46450,-3.678195071
496.46500,0.2893322296
496.46550,2.730887491
496.46600,-0.01586217811
496.46650,-4.288583886
496.46700,-5.814555924
496.46750,-4.898972701
496.46800,-5.509361517
496.46850,-9.171694409
496.46900,-11.61324967
496.46950,-8.561305594
496.47000,-1.847028624
496.47050,1.815304268
496.47100,0.5945266373
496.47150,-2.45741744
496.47200,-4.288583886
496.47250,-6.119750332
496.47300,-7.950916778
496.47350,-4.593778294
496.47400,7.308803607
496.47450,21.04255195
496.47500,24.09449603
496.47550,15.85424702
496.47600,6.698414791
496.47650,2.120498676
496.47700,-0.3210565858
496.47750,-3.678195071
496.47800,-3.983389478
496.47850,-1.236639809
496.47900,-0.3210565858
496.47950,-3.373000663
496.48000,-4.898972701
496.48050,-2.152223032
496.48100,1.204915453
496.48150,1.204915453
496.48200,-0.6262509935
496.48250,-1.236639809
496.48300,-0.6262509935
496.48350,-0.3210565858
496.48400,0.2893322296
496.48450,2.730887491
496.48500,6.393220384
496.48550,7.919192422
496.48600,3.646470714
496.48650,-9.476888817
496.48700,-25.95738683
496.48750,-34.19763584
496.48800,-32.06127499
496.48850,-29.92491413
496.48900,-32.97685821
496.48950,-26.56777565
496.49000,2.730887491
496.49050,39.65941082
496.49100,51.86718713
496.49150,33.25032826
496.49200,10.05555328
496.49250,5.477637161
496.49300,11.88671972
496.49350,10.9711365
496.49400,3.036081899
496.49450,0.5945266373
496.49500,5.172442753
496.49550,7.308803607
496.49600,3.951665122
496.49650,-0.01586217811
496.49700,-0.01586217811
496.49750,1.51010986
496.49800,2.730887491
496.49850,2.425693084
496.49900,-1.541834217
496.49950,-7.035333555
496.50000,-7.645722371
496.50050,-0.9314454012
496.50100,5.477637161
496.50150,5.477637161
496.50200,1.815304268
496.50250,1.204915453
496.50300,3.646470714
496.50350,2.730887491
496.50400,-0.6262509935
496.50450,-1.847028624
496.50500,0.2893322296
496.50550,1.204915453
496.50600,-0.6262509935
496.50650,-2.45741744
496.50700,-1.847028624
496.50750,-1.541834217
496.50800,-3.373000663
496.50850,-5.509361517
496.50900,-7.950916778
496.50950,-15.27558256
496.51000,-24.43141479
496.51050,-25.95738683
496.51100,-17.71713782
496.51150,-10.69766645
496.51200,-14.35999934
496.51250,-21.07427631
496.51300,-17.10674901
496.51350,-2.762611847
496.51400,6.698414791
496.51450,6.088025976
496.51500,3.341276307
496.51550,5.782831568
496.51600,9.139970053
496.51650,7.003609199
496.51700,4.25685953
496.51750,6.698414791
496.51800,10.05555328
496.51850,8.529581238
496.51900,5.172442753
496.51950,7.003609199
496.52000,11.88671972
496.52050,11.88671972
496.52100,6.393220384
496.52150,3.341276307
496.52200,5.782831568
496.52250,8.529581238
496.52300,6.698414791
496.52350,3.036081899
496.52400,1.815304268
496.52450,2.730887491
496.52500,3.341276307
496.52550,3.646470714
496.52600,3.646470714
496.52650,2.120498676
496.52700,0.5945266373
496.52750,1.815304268
496.52800,5.782831568
496.52850,7.003609199
496.52900,2.120498676
496.52950,-3.983389478
496.53000,-6.119750332
496.53050,-2.762611847
496.53100,1.204915453
496.53150,3.341276307
496.53200,3.951665122
496.53250,3.646470714
496.53300,2.425693084
496.53350,1.51010986
496.53400,0.5945266373
496.53450,-1.236639809
496.53500,-3.983389478
496.53550,-4.898972701
496.53600,-2.152223032
496.53650,1.51010986
496.53700,3.341276307
496.53750,3.646470714
496.53800,3.951665122
496.53850,4.562053937
496.53900,4.867248345
496.53950,5.782831568
496.54000,6.698414791
496.54050,2.425693084
496.54100,-9.782083225
496.54150,-22.60024835
496.54200,-24.43141479
496.54250,-14.66519375
496.54300,-4.898972701
496.54350,-1.847028624
496.54400,-0.01586217811
496.54450,7.003609199
496.54500,16.76983025
496.54550,19.51657991
496.54600,12.19191413
496.54650,-0.01586217811
496.54700,-9.782083225
496.54750,-12.8340273
496.54800,-7.950916778
496.54850,-0.01586217811
496.54900,2.120498676
496.54950,-1.847028624
496.55000,-5.509361517
496.55050,-3.067806255
496.55100,-0.01586217811
496.55150,-3.983389478
496.55200,-12.52883289
496.55250,-15.88597138
496.55300,-12.22363849
496.55350,-9.782083225
496.55400,-12.8340273
496.55450,-16.19116579
496.55500,-12.52883289
496.55550,-4.898972701
496.55600,-0.01586217811
496.55650,0.899721045
496.55700,3.036081899
496.55750,9.445164461
496.55800,15.85424702
496.55850,17.68541347
496.55900,14.02308058
496.55950,9.139970053
496.56000,7.003609199
496.56050,7.308803607
496.56100,6.393220384
496.56150,2.120498676
496.56200,-1.541834217
496.56250,-2.45741744
496.56300,-1.236639809
496.56350,-1.236639809
496.56400,-2.762611847
496.56450,-3.373000663
496.56500,-2.762611847
496.56550,-2.762611847
496.56600,-1.847028624
496.56650,3.341276307
496.56700,11.27633091
496.56750,15.24385821
496.56800,12.80230295
496.56850,7.919192422
496.56900,4.562053937
496.56950,1.815304268
496.57000,-0.9314454012
496.57050,-2.45741744
496.57100,-1.236639809
496.57150,-0.6262509935
496.57200,-1.236639809
496.57250,-0.9314454012
496.57300,2.120498676
496.57350,6.698414791
496.57400,9.750358868
496.57450,12.19191413
496.57500,13.10749735
496.57550,11.88671972
496.57600,9.139970053
496.57650,7.003609199
496.57700,3.951665122
496.57750,-4.593778294
496.57800,-18.02233223
496.57850,-26.87297006
496.57900,-25.65219243
496.57950,-19.54830427
496.58000,-14.35999934
496.58050,-10.08727763
496.58100,-5.204167109
496.58150,-2.762611847
496.58200,-3.983389478
496.58250,-1.847028624
496.58300,5.477637161
496.58350,11.27633091
496.58400,8.22438683
496.58450,0.5945266373
496.58500,-2.762611847
496.58550,-2.152223032
496.58600,-2.152223032
496.58650,-3.678195071
496.58700,-3.067806255
496.58750,-1.541834217
496.58800,-1.541834217
496.58850,-0.01586217811
496.58900,5.782831568
496.58950,12.19191413
496.59000,11.88671972
496.59050,5.782831568
496.59100,1.51010986
496.59150,1.815304268
496.59200,2.120498676
496.59250,0.2893322296
496.59300,-0.3210565858
496.59350,1.204915453
496.59400,1.815304268
496.59450,-1.236639809
496.59500,-4.898972701
496.59550,-5.509361517
496.59600,-2.45741744
496.59650,1.815304268
496.59700,4.25685953
496.59750,2.120498676
496.59800,-2.152223032
496.59850,-4.288583886
496.59900,-2.45741744
496.59950,-2.152223032
496.60000,-7.950916778
496.60050,-14.05480493
496.60100,-11.61324967
496.60150,-0.6262509935
496.60200,10.66594209
496.60250,16.46463584
496.60300,16.76983025
496.60350,14.63346939
496.60400,11.58152531
496.60450,6.698414791
496.60500,-2.45741744
496.60550,-14.35999934
496.60600,-20.15869309
496.60650,-16.49636019
496.60700,-12.8340273
496.60750,-20.15869309
496.60800,-27.78855328
496.60850,-11.91844408
496.60900,28.06202333
496.60950,60.71782495
496.61000,56.44510325
496.61050,25.31527366
496.61100,0.5945266373
496.61150,-3.678195071
496.61200,-1.847028624
496.61250,-7.035333555
496.61300,-14.97038816
496.61350,-16.8015546
496.61400,-12.8340273
496.61450,-8.866500001
496.61500,-7.035333555
496.61550,-6.42494474
496.61600,-5.509361517
496.61650,-2.762611847
496.61700,0.5945266373
496.61750,2.730887491
496.61800,0.5945266373
496.61850,-2.762611847
496.61900,-3.067806255
496.61950,-1.236639809
496.62000,-1.847028624
496.62050,-5.814555924
496.62100,-9.171694409
496.62150,-8.866500001
496.62200,-5.204167109
496.62250,-0.9314454012
496.62300,2.425693084
496.62350,5.172442753
496.62400,7.919192422
496.62450,11.88671972
496.62500,15.54905261
496.62550,15.54905261
496.62600,12.49710854
496.62650,9.139970053
496.62700,6.393220384
496.62750,3.646470714
496.62800,0.899721045
496.62850,0.5945266373
496.62900,0.899721045
496.62950,-1.236639809
496.63000,-7.035333555
496.63050,-10.08727763
496.63100,-7.340527963
496.63150,-2.45741744
496.63200,-2.152223032
496.63250,-5.204167109
496.63300,-7.340527963
496.63350,-7.340527963
496.63400,-7.645722371
496.63450,-7.950916778
496.63500,-6.42494474
496.63550,-3.678195071
496.63600,-2.152223032
496.63650,-2.152223032
496.63700,-0.9314454012
496.63750,1.51010986
496.63800,2.730887491
496.63850,0.5945266373
496.63900,-1.236639809
496.63950,-0.01586217811
496.64000,3.646470714
496.64050,3.646470714
496.64100,-1.541834217
496.64150,-8.561305594
496.64200,-11.91844408
496.64250,-9.782083225
496.64300,-6.730139148
496.64350,-4.593778294
496.64400,-3.067806255
496.64450,-0.01586217811
496.64500,2.425693084
496.64550,2.120498676
496.64600,-0.01586217811
496.64650,0.2893322296
496.64700,3.036081899
496.64750,4.562053937
496.64800,1.815304268
496.64850,-1.236639809
496.64900,0.5945266373
496.64950,7.003609199
496.65000,10.66594209
496.65050,7.919192422
496.65100,4.867248345
496.65150,8.22438683
496.65200,14.63346939
496.65250,15.85424702
496.65300,10.36074768
496.65350,4.562053937
496.65400,1.204915453
496.65450,-5.204167109
496.65500,-18.32752664
496.65550,-29.92491413
496.65600,-29.92491413
496.65650,-18.93791546
496.65700,-6.730139148
496.65750,-0.01586217811
496.65800,1.815304268
496.65850,1.204915453
496.65900,-1.236639809
496.65950,-3.373000663
496.66000,-2.45741744
496.66050,0.899721045
496.66100,4.25685953
496.66150,3.951665122
496.66200,1.815304268
496.66250,-0.3210565858
496.66300,-2.152223032
496.66350,-3.373000663
496.66400,-3.067806255
496.66450,-2.45741744
496.66500,-2.45741744
496.66550,-1.541834217
496.66600,2.425693084
496.66650,9.139970053
496.66700,13.71788617
496.66750,14.32827498
496.66800,12.49710854
496.66850,10.36074768
496.66900,7.919192422
496.66950,3.951665122
496.67000,-0.6262509935
496.67050,-4.593778294
496.67100,-7.340527963
496.67150,-8.256111186
496.67200,-8.561305594
496.67250,-8.866500001
496.67300,-9.171694409
496.67350,-9.476888817
496.67400,-9.782083225
496.67450,-11.00286086
496.67500,-11.30805526
496.67550,-7.035333555
496.67600,3.036081899
496.67650,14.63346939
496.67700,20.12696873
496.67750,17.07502465
496.67800,9.750358868
496.67850,5.172442753
496.67900,4.867248345
496.67950,7.003609199
496.68000,8.834775645
496.68050,7.613998014
496.68100,2.120498676
496.68150,-4.898972701
496.68200,-9.782083225
496.68250,-9.782083225
496.68300,-6.730139148
496.68350,-4.288583886
496.68400,-3.067806255
496.68450,-1.236639809
496.68500,0.2893322296
496.68550,1.51010986
496.68600,2.425693084
496.68650,3.951665122
496.68700,4.867248345
496.68750,3.646470714
496.68800,0.899721045
496.68850,-0.01586217811
496.68900,-0.01586217811
496.68950,-0.6262509935
496.69000,-2.762611847
496.69050,-2.762611847
496.69100,0.899721045
496.69150,5.172442753
496.69200,6.393220384
496.69250,5.782831568
496.69300,6.088025976
496.69350,7.003609199
496.69400,7.308803607
496.69450,7.003609199
496.69500,8.22438683
496.69550,10.66594209
496.69600,11.27633091
496.69650,10.05555328
496.69700,8.529581238
496.69750,5.477637161
496.69800,-1.541834217
496.69850,-9.782083225
496.69900,-12.8340273
496.69950,-9.476888817
496.70000,-4.898972701
496.70050,-3.678195071
496.70100,-3.678195071
496.70150,-0.6262509935
496.70200,3.036081899
496.70250,3.341276307
496.70300,0.5945266373
496.70350,-1.541834217
496.70400,-0.9314454012
496.70450,0.2893322296
496.70500,-1.541834217
496.70550,-10.69766645
496.70600,-24.12622039
496.70650,-32.97685821
496.70700,-31.75608058
496.70750,-25.95738683
496.70800,-25.04180361
496.70850,-22.90544276
496.70900,-3.983389478
496.70950,30.50357859
496.71000,56.75029765
496.71050,54.30874239
496.71100,31.72435622
496.71150,12.80230295
496.71200,6.393220384
496.71250,5.172442753
496.71300,3.951665122
496.71350,6.393220384
496.71400,12.49710854
496.71450,14.02308058
496.71500,8.529581238
496.71550,2.425693084
496.71600,2.120498676
496.71650,3.646470714
496.71700,1.51010986
496.71750,-2.762611847
496.71800,-5.509361517
496.71850,-7.340527963
496.71900,-10.69766645
496.71950,-15.88597138
496.72000,-18.93791546
496.72050,-15.58077697
496.72100,-6.119750332
496.72150,3.036081899
496.72200,6.698414791
496.72250,3.341276307
496.72300,-0.01586217811
496.72350,0.899721045
496.72400,4.867248345
496.72450,6.088025976
496.72500,2.425693084
496.72550,-3.678195071
496.72600,-9.171694409
496.72650,-11.00286086
496.72700,-7.950916778
496.72750,-4.288583886
496.72800,-3.678195071
496.72850,-5.204167109
496.72900,-1.541834217
496.72950,9.139970053
496.73000,18.60099669
496.73050,18.29580228
496.73100,10.66594209
496.73150,3.646470714
496.73200,0.899721045
496.73250,-1.541834217
496.73300,-6.42494474
496.73350,-11.30805526
496.73400,-13.13922171
496.73450,-12.52883289
496.73500,-10.69766645
496.73550,-9.171694409
496.73600,-8.866500001
496.73650,-7.950916778
496.73700,-3.678195071
496.73750,2.120498676
496.73800,6.393220384
496.73850,5.477637161
496.73900,2.120498676
496.73950,-0.01586217811
496.74000,0.5945266373
496.74050,3.341276307
496.74100,5.477637161
496.74150,4.25685953
496.74200,-1.236639809
496.74250,-7.950916778
496.74300,-10.39247204
496.74350,-7.950916778
496.74400,-4.288583886
496.74450,-2.152223032
496.74500,-0.9314454012
496.74550,-0.01586217811
496.74600,-0.01586217811
496.74650,-0.01586217811
496.74700,1.815304268
496.74750,3.646470714
496.74800,0.5945266373
496.74850,-5.204167109
496.74900,-7.950916778
496.74950,-5.204167109
496.75000,-2.762611847
496.75050,-3.067806255
496.75100,-1.847028624
496.75150,2.730887491
496.75200,6.393220384
496.75250,4.867248345
496.75300,0.899721045
496.75350,-0.3210565858
496.75400,-2.45741744
496.75450,-8.561305594
496.75500,-14.35999934
496.75550,-13.44441612
496.75600,-7.645722371
496.75650,-2.762611847
496.75700,0.2893322296
496.75750,6.088025976
496.75800,13.10749735
496.75850,13.71788617
496.75900,6.393220384
496.75950,-0.6262509935
496.76000,-0.3210565858
496.76050,3.951665122
496.76100,6.088025976
496.76150,4.25685953
496.76200,3.341276307
496.76250,5.172442753
496.76300,4.867248345
496.76350,-0.9314454012
496.76400,-7.645722371
496.76450,-8.561305594
496.76500,-4.898972701
496.76550,-3.983389478
496.76600,-8.256111186
496.76650,-11.00286086
496.76700,-9.171694409
496.76750,-8.256111186
496.76800,-9.782083225
496.76850,-5.814555924
496.76900,10.9711365
496.76950,32.33474504
496.77000,42.10096608
496.77050,38.13343878
496.77100,30.808773
496.77150,25.31527366
496.77200,17.07502465
496.77250,4.867248345
496.77300,-4.288583886
496.77350,-10.08727763
496.77400,-18.32752664
496.77450,-31.75608058
496.77500,-39.38594077
496.77550,-32.36646939
496.77600,-16.49636019
496.77650,-5.814555924
496.77700,-6.730139148
496.77750,-13.13922171
496.77800,-16.8015546
496.77850,-14.66519375
496.77900,-8.866500001
496.77950,-2.45741744
496.78000,2.425693084
496.78050,6.698414791
496.78100,9.750358868
496.78150,10.66594209
496.78200,7.919192422
496.78250,3.951665122
496.78300,2.730887491
496.78350,4.25685953
496.78400,5.477637161
496.78450,4.562053937
496.78500,3.341276307
496.78550,3.951665122
496.78600,5.477637161
496.78650,6.393220384
496.78700,7.003609199
496.78750,7.003609199
496.78800,5.172442753
496.78850,1.815304268
496.78900,-0.01586217811
496.78950,-0.01586217811
496.79000,0.5945266373
496.79050,0.5945266373
496.79100,0.5945266373
496.79150,1.51010986
496.79200,1.815304268
496.79250,1.51010986
496.79300,1.815304268
496.79350,4.562053937
496.79400,7.003609199
496.79450,6.393220384
496.79500,3.036081899
496.79550,0.5945266373
496.79600,0.5945266373
496.79650,0.899721045
496.79700,0.2893322296
496.79750,0.2893322296
496.79800,1.51010986
496.79850,2.425693084
496.79900,0.2893322296
496.79950,-2.152223032
496.80000,-3.067806255
496.80050,-1.541834217
496.80100,-0.3210565858
496.80150,-1.236639809
496.80200,-2.762611847
496.80250,-3.678195071
496.80300,-4.288583886
496.80350,-5.204167109
496.80400,-5.204167109
496.80450,-3.373000663
496.80500,0.2893322296
496.80550,5.172442753
496.80600,8.529581238
496.80650,8.22438683
496.80700,5.782831568
496.80750,5.477637161
496.80800,8.22438683
496.80850,10.9711365
496.80900,10.66594209
496.80950,7.003609199
496.81000,2.120498676
496.81050,-4.288583886
496.81100,-11.61324967
496.81150,-16.19116579
496.81200,-14.97038816
496.81250,-9.476888817
496.81300,-3.678195071
496.81350,1.51010986
496.81400,3.646470714
496.81450,-1.236639809
496.81500,-14.35999934
496.81550,-25.95738683
496.81600,-27.78855328
496.81650,-24.43141479
496.81700,-25.95738683
496.81750,-29.92491413
496.81800,-20.15869309
496.81850,9.445164461
496.81900,42.7113549
496.81950,55.22432562
496.82000,41.79577168
496.82050,19.82177432
496.82100,7.308803607
496.82150,5.782831568
496.82200,5.172442753
496.82250,0.899721045
496.82300,-3.067806255
496.82350,-2.762611847
496.82400,-0.3210565858
496.82450,0.5945266373
496.82500,0.2893322296
496.82550,1.815304268
496.82600,5.172442753
496.82650,8.529581238
496.82700,10.36074768
496.82750,9.445164461
496.82800,4.867248345
496.82850,-3.678195071
496.82900,-12.22363849
496.82950,-15.27558256
496.83000,-11.61324967
496.83050,-6.119750332
496.83100,-3.983389478
496.83150,-5.204167109
496.83200,-6.730139148
496.83250,-6.42494474
496.83300,-2.152223032
496.83350,3.341276307
496.83400,5.782831568
496.83450,1.815304268
496.83500,-5.204167109
496.83550,-8.866500001
496.83600,-6.119750332
496.83650,-0.9314454012
496.83700,1.204915453
496.83750,0.5945266373
496.83800,-0.6262509935
496.83850,0.2893322296
496.83900,4.562053937
496.83950,7.308803607
496.84000,4.562053937
496.84050,-3.373000663
496.84100,-9.171694409
496.84150,-7.035333555
496.84200,-0.9314454012
496.84250,1.51010986
496.84300,-0.01586217811
496.84350,-0.9314454012
496.84400,-0.01586217811
496.84450,0.5945266373
496.84500,-0.01586217811
496.84550,-0.3210565858
496.84600,-0.01586217811
496.84650,-0.01586217811
496.84700,-1.847028624
496.84750,-2.152223032
496.84800,-0.3210565858
496.84850,0.899721045
496.84900,0.899721045
496.84950,0.2893322296
496.85000,0.5945266373
496.85050,0.2893322296
496.85100,-0.01586217811
496.85150,0.2893322296
496.85200,0.5945266373
496.85250,-0.01586217811
496.85300,-0.3210565858
496.85350,1.204915453
496.85400,4.562053937
496.85450,6.088025976
496.85500,3.646470714
496.85550,0.5945266373
496.85600,-0.3210565858
496.85650,-0.01586217811
496.85700,0.2893322296
496.85750,-0.3210565858
496.85800,-0.9314454012
496.85850,-1.236639809
496.85900,-1.236639809
496.85950,-1.541834217
496.86000,-1.236639809
496.86050,-0.3210565858
496.86100,0.2893322296
496.86150,1.204915453
496.86200,1.815304268
496.86250,1.815304268
496.86300,-0.01586217811
496.86350,-6.730139148
496.86400,-14.66519375
496.86450,-17.71713782
496.86500,-14.05480493
496.86550,-11.30805526
496.86600,-15.58077697
496.86650,-17.41194342
496.86700,-1.236639809
496.86750,30.808773
496.86800,58.27626969
496.86850,62.5489914
496.86900,46.06849338
496.86950,22.8737184
496.87000,1.204915453
496.87050,-17.41194342
496.87100,-30.84049736
496.87150,-34.19763584
496.87200,-29.92491413
496.87250,-24.43141479
496.87300,-20.15869309
496.87350,-15.27558256
496.87400,-10.69766645
496.87450,-9.171694409
496.87500,-7.340527963
496.87550,-0.9314454012
496.87600,8.529581238
496.87650,13.41269176
496.87700,10.9711365
496.87750,7.003609199
496.87800,6.088025976
496.87850,5.477637161
496.87900,1.51010986
496.87950,-4.288583886
496.88000,-7.950916778
496.88050,-6.42494474
496.88100,-2.45741744
496.88150,-0.01586217811
496.88200,-0.01586217811
496.88250,-0.3210565858
496.88300,1.204915453
496.88350,5.477637161
496.88400,8.529581238
496.88450,7.919192422
496.88500,5.477637161
496.88550,4.25685953
496.88600,4.867248345
496.88650,4.867248345
496.88700,2.730887491
496.88750,0.5945266373
496.88800,-0.01586217811
496.88850,0.5945266373
496.88900,3.036081899
496.88950,4.562053937
496.89000,4.25685953
496.89050,2.120498676
496.89100,0.899721045
496.89150,1.51010986
496.89200,2.425693084
496.89250,1.815304268
496.89300,0.5945266373
496.89350,0.2893322296
496.89400,0.899721045
496.89450,0.2893322296
496.89500,-0.9314454012
496.89550,-1.541834217
496.89600,-0.9314454012
496.89650,-0.01586217811
496.89700,-0.01586217811
496.89750,0.2893322296
496.89800,0.899721045
496.89850,0.5945266373
496.89900,-0.01586217811
496.89950,-0.01586217811
496.90000,-0.01586217811
496.90050,-0.3210565858
496.90100,-0.9314454012
496.90150,-0.3210565858
496.90200,0.2893322296
496.90250,-0.01586217811
496.90300,-0.6262509935
496.90350,-0.01586217811
496.90400,1.204915453
496.90450,0.899721045
496.90500,-0.01586217811
496.90550,-0.01586217811
496.90600,0.2893322296
496.90650,0.5945266373
496.90700,1.204915453
496.90750,3.341276307
496.90800,4.25685953
496.90850,3.036081899
496.90900,0.5945266373
496.90950,-0.01586217811
496.91000,0.5945266373
496.91050,-0.01586217811
496.91100,-0.9314454012
496.91150,-1.847028624
496.91200,-3.067806255
496.91250,-3.678195071
496.91300,-0.3210565858
496.91350,4.25685953
496.91400,2.425693084
496.91450,-5.204167109
496.91500,-8.561305594
496.91550,-3.067806255
496.91600,-2.45741744
496.91650,-17.10674901
496.91700,-33.28205262
496.91750,-29.31452532
496.91800,-5.814555924
496.91850,14.02308058
496.91900,14.9386638
496.91950,3.341276307
496.92000,-8.561305594
496.92050,-15.27558256
496.92100,-14.97038816
496.92150,-9.782083225
496.92200,-8.561305594
496.92250,-14.97038816
496.92300,-14.05480493
496.92350,10.66594209
496.92400,47.89965983
496.92450,65.60093548
496.92500,52.78277035
496.92550,30.19838418
496.92600,17.68541347
496.92650,10.36074768
496.92700,-3.373000663
496.92750,-17.71713782
496.92800,-18.93791546
496.92850,-10.08727763
496.92900,-3.678195071
496.92950,-3.678195071
496.93000,-4.898972701
496.93050,-5.509361517
496.93100,-6.42494474
496.93150,-6.730139148
496.93200,-5.204167109
496.93250,-3.678195071
496.93300,-5.204167109
496.93350,-6.730139148
496.93400,-5.204167109
496.93450,-1.847028624
496.93500,-1.541834217
496.93550,-3.678195071
496.93600,-4.898972701
496.93650,-5.204167109
496.93700,-5.204167109
496.93750,-4.593778294
496.93800,-3.067806255
496.93850,-3.373000663
496.93900,-5.814555924
496.93950,-6.730139148
496.94000,-2.762611847
496.94050,2.730887491
496.94100,5.477637161
496.94150,4.25685953
496.94200,1.51010986
496.94250,0.2893322296
496.94300,-0.01586217811
496.94350,0.2893322296
496.94400,0.899721045
496.94450,1.51010986
496.94500,1.815304268
496.94550,1.51010986
496.94600,0.899721045
496.94650,0.5945266373
496.94700,0.2893322296
496.94750,-0.01586217811
496.94800,-0.3210565858
496.94850,-0.9314454012
496.94900,-0.6262509935
496.94950,0.899721045
496.95000,2.730887491
496.95050,3.036081899
496.95100,0.899721045
496.95150,-1.541834217
496.95200,-3.678195071
496.95250,-3.983389478
496.95300,-3.067806255
496.95350,-2.45741744
496.95400,-1.847028624
496.95450,-1.847028624
496.95500,-1.847028624
496.95550,-2.45741744
496.95600,-3.373000663
496.95650,-3.983389478
496.95700,-3.678195071
496.95750,-3.373000663
496.95800,-3.678195071
496.95850,-3.373000663
496.95900,-0.9314454012
496.95950,1.51010986
496.96000,1.815304268
496.96050,2.120498676
496.96100,5.172442753
496.96150,9.139970053
496.96200,9.750358868
496.96250,4.867248345
496.96300,-0.9314454012
496.96350,-4.593778294
496.96400,-7.035333555
496.96450,-8.256111186
496.96500,-6.730139148
496.96550,-1.236639809
496.96600,5.477637161
496.96650,10.66594209
496.96700,12.49710854
496.96750,9.139970053
496.96800,0.899721045
496.96850,-3.678195071
496.96900,2.730887491
496.96950,16.46463584
496.97000,23.17891281
496.97050,17.38021906
496.97100,8.529581238
496.97150,5.172442753
496.97200,1.204915453
496.97250,-8.561305594
496.97300,-16.19116579
496.97350,-11.00286086
496.97400,-0.01586217811
496.97450,2.120498676
496.97500,-5.814555924
496.97550,-11.61324967
496.97600,-8.561305594
496.97650,-5.204167109
496.97700,-6.42494474
496.97750,-7.035333555
496.97800,-1.847028624
496.97850,2.120498676
496.97900,-1.236639809
496.97950,-8.866500001
496.98000,-9.782083225
496.98050,-3.067806255
496.98100,2.730887491
496.98150,2.730887491
496.98200,-0.01586217811
496.98250,-0.01586217811
496.98300,2.120498676
496.98350,2.730887491
496.98400,0.899721045
496.98450,-0.01586217811
496.98500,1.204915453
496.98550,2.425693084
496.98600,0.2893322296
496.98650,-2.762611847
496.98700,-3.678195071
496.98750,-0.6262509935
496.98800,2.120498676
496.98850,2.425693084
496.98900,1.815304268
496.98950,2.730887491
496.99000,4.25685953
496.99050,3.646470714
496.99100,1.204915453
496.99150,-0.01586217811
496.99200,-0.6262509935
496.99250,-0.6262509935
496.99300,-0.6262509935
496.99350,-0.01586217811
496.99400,1.204915453
496.99450,3.036081899
496.99500,3.646470714
496.99550,2.730887491
496.99600,1.204915453
496.99650,1.204915453
496.99700,2.730887491
496.99750,3.951665122
496.99800,3.646470714
496.99850,2.730887491
496.99900,3.341276307
496.99950,4.25685953
497.00000,3.646470714
497.00050,2.120498676
497.00100,2.120498676
497.00150,3.036081899
497.00200,2.730887491
497.00250,1.51010986
497.00300,1.51010986
497.00350,2.730887491
497.00400,3.036081899
497.00450,2.120498676
497.00500,2.120498676
497.00550,4.867248345
497.00600,8.834775645
497.00650,10.9711365
497.00700,10.05555328
497.00750,5.782831568
497.00800,1.204915453
497.00850,-0.9314454012
497.00900,-2.762611847
497.00950,-9.171694409
497.01000,-19.54830427
497.01050,-25.34699802
497.01100,-21.37947072
497.01150,-13.13922171
497.01200,-10.39247204
497.01250,-9.476888817
497.01300,-0.3210565858
497.01350,15.24385821
497.01400,21.95813518
497.01450,12.80230295
497.01500,0.2893322296
497.01550,-2.45741744
497.01600,-0.3210565858
497.01650,-3.983389478
497.01700,-13.74961052
497.01750,-21.37947072
497.01800,-26.26258124
497.01850,-31.45088617
497.01900,-31.75608058
497.01950,-20.46388749
497.02000,-5.509361517
497.02050,-0.6262509935
497.02100,-2.45741744
497.02150,7.613998014
497.02200,34.7763003
497.02250,57.05549206
497.02300,55.22432562
497.02350,35.69188352
497.02400,20.12696873
497.02450,15.85424702
497.02500,14.02308058
497.02550,9.445164461
497.02600,6.088025976
497.02650,6.393220384
497.02700,6.088025976
497.02750,3.341276307
497.02800,1.815304268
497.02850,3.036081899
497.02900,3.341276307
497.02950,-0.3210565858
497.03000,-5.509361517
497.03050,-8.256111186
497.03100,-8.256111186
497.03150,-7.035333555
497.03200,-5.509361517
497.03250,-4.288583886
497.03300,-3.983389478
497.03350,-5.509361517
497.03400,-7.035333555
497.03450,-7.340527963
497.03500,-6.730139148
497.03550,-5.814555924
497.03600,-5.204167109
497.03650,-4.593778294
497.03700,-4.898972701
497.03750,-4.898972701
497.03800,-3.373000663
497.03850,-1.847028624
497.03900,-1.847028624
497.03950,-3.067806255
497.04000,-3.678195071
497.04050,-3.067806255
497.04100,-1.847028624
497.04150,-1.847028624
497.04200,-2.762611847
497.04250,-4.288583886
497.04300,-6.42494474
497.04350,-8.561305594
497.04400,-8.561305594
497.04450,-7.340527963
497.04500,-6.730139148
497.04550,-8.561305594
497.04600,-8.866500001
497.04650,-3.983389478
497.04700,4.867248345
497.04750,11.88671972
497.04800,11.58152531
497.04850,5.782831568
497.04900,-0.01586217811
497.04950,-2.45741744
497.05000,-2.45741744
497.05050,-1.847028624
497.05100,-1.236639809
497.05150,-0.3210565858
497.05200,-0.01586217811
497.05250,-0.3210565858
497.05300,-0.9314454012
497.05350,-1.541834217
497.05400,-0.6262509935
497.05450,1.815304268
497.05500,4.25685953
497.05550,2.730887491
497.05600,-3.983389478
497.05650,-11.61324967
497.05700,-12.8340273
497.05750,-6.119750332
497.05800,2.120498676
497.05850,5.172442753
497.05900,2.425693084
497.05950,-0.3210565858
497.06000,0.2893322296
497.06050,2.730887491
497.06100,2.425693084
497.06150,-0.6262509935
497.06200,-1.541834217
497.06250,0.899721045
497.06300,2.425693084
497.06350,-1.236639809
497.06400,-7.645722371
497.06450,-8.866500001
497.06500,-3.067806255
497.06550,5.477637161
497.06600,14.32827498
497.06650,21.34774636
497.06700,24.39969044
497.06750,22.26332958
497.06800,17.38021906
497.06850,11.88671972
497.06900,3.341276307
497.06950,-9.171694409
497.07000,-18.63272105
497.07050,-16.49636019
497.07100,-7.340527963
497.07150,-3.678195071
497.07200,-9.171694409
497.07250,-14.35999934
497.07300,-11.91844408
497.07350,-6.730139148
497.07400,-4.593778294
497.07450,-4.593778294
497.07500,-3.983389478
497.07550,-3.373000663
497.07600,-5.509361517
497.07650,-7.645722371
497.07700,-7.035333555
497.07750,-3.678195071
497.07800,-0.01586217811
497.07850,3.341276307
497.07900,5.477637161
497.07950,5.172442753
497.08000,2.120498676
497.08050,-0.01586217811
497.08100,1.51010986
497.08150,5.477637161
497.08200,7.919192422
497.08250,7.613998014
497.08300,6.698414791
497.08350,5.782831568
497.08400,3.646470714
497.08450,-2.152223032
497.08500,-11.00286086
497.08550,-16.19116579
497.08600,-13.44441612
497.08650,-5.509361517
497.08700,-0.01586217811
497.08750,0.2893322296
497.08800,-0.9314454012
497.08850,-0.3210565858
497.08900,0.5945266373
497.08950,0.5945266373
497.09000,0.899721045
497.09050,3.341276307
497.09100,7.003609199
497.09150,10.05555328
497.09200,12.49710854
497.09250,14.63346939
497.09300,14.63346939
497.09350,11.88671972
497.09400,7.919192422
497.09450,1.815304268
497.09500,-7.950916778
497.09550,-19.85349868
497.09600,-27.17816446
497.09650,-27.48335887
497.09700,-23.51583157
497.09750,-16.8015546
497.09800,-6.42494474
497.09850,5.477637161
497.09900,10.66594209
497.09950,5.477637161
497.10000,-0.9314454012
497.10050,-0.01586217811
497.10100,4.867248345
497.10150,5.172442753
497.10200,-0.01586217811
497.10250,-2.762611847
497.10300,1.204915453
497.10350,6.698414791
497.10400,6.698414791
497.10450,4.562053937
497.10500,6.088025976
497.10550,10.66594209
497.10600,11.88671972
497.10650,9.445164461
497.10700,7.919192422
497.10750,9.750358868
497.10800,8.834775645
497.10850,-1.847028624
497.10900,-18.02233223
497.10950,-27.78855328
497.11000,-24.43141479
497.11050,-14.35999934
497.11100,-6.730139148
497.11150,-3.067806255
497.11200,0.899721045
497.11250,6.393220384
497.11300,8.529581238
497.11350,5.782831568
497.11400,2.120498676
497.11450,1.204915453
497.11500,1.204915453
497.11550,0.899721045
497.11600,1.815304268
497.11650,4.562053937
497.11700,6.698414791
497.11750,5.477637161
497.11800,2.425693084
497.11850,2.120498676
497.11900,3.646470714
497.11950,4.25685953
497.12000,2.730887491
497.12050,1.51010986
497.12100,2.425693084
497.12150,3.951665122
497.12200,4.25685953
497.12250,3.951665122
497.12300,5.172442753
497.12350,7.919192422
497.12400,10.36074768
497.12450,11.27633091
497.12500,10.66594209
497.12550,9.139970053
497.12600,7.308803607
497.12650,6.088025976
497.12700,4.25685953
497.12750,-0.3210565858
497.12800,-8.866500001
497.12850,-15.58077697
497.12900,-14.35999934
497.12950,-6.119750332
497.13000,2.120498676
497.13050,5.477637161
497.13100,3.951665122
497.13150,0.899721045
497.13200,-1.541834217
497.13250,-3.678195071
497.13300,-4.593778294
497.13350,-3.678195071
497.13400,-1.236639809
497.13450,1.204915453
497.13500,2.730887491
497.13550,3.036081899
497.13600,4.25685953
497.13650,8.22438683
497.13700,12.49710854
497.13750,11.58152531
497.13800,4.562053937
497.13850,-2.45741744
497.13900,-6.119750332
497.13950,-11.00286086
497.14000,-20.46388749
497.14050,-27.48335887
497.14100,-24.7366092
497.14150,-18.32752664
497.14200,-20.46388749
497.14250,-25.95738683
497.14300,-16.19116579
497.14350,13.71788617
497.14400,42.40616049
497.14450,47.28927102
497.14500,32.33474504
497.14550,18.60099669
497.14600,16.46463584
497.14650,18.9061911
497.14700,17.38021906
497.14750,12.19191413
497.14800,7.003609199
497.14850,2.425693084
497.14900,0.5945266373
497.14950,3.341276307
497.15000,7.613998014
497.15050,7.613998014
497.15100,2.120498676
497.15150,-1.847028624
497.15200,-0.01586217811
497.15250,4.25685953
497.15300,5.782831568
497.15350,3.036081899
497.15400,-0.01586217811
497.15450,-1.847028624
497.15500,-2.152223032
497.15550,-2.152223032
497.15600,-2.152223032
497.15650,-3.678195071
497.15700,-5.509361517
497.15750,-5.204167109
497.15800,-2.762611847
497.15850,-1.236639809
497.15900,-2.152223032
497.15950,-4.288583886
497.16000,-5.509361517
497.16050,-5.204167109
497.16100,-3.983389478
497.16150,-2.45741744
497.16200,-0.9314454012
497.16250,-0.6262509935
497.16300,-0.6262509935
497.16350,-0.3210565858
497.16400,-0.01586217811
497.16450,-0.01586217811
497.16500,-0.01586217811
497.16550,0.2893322296
497.16600,-0.01586217811
497.16650,-3.373000663
497.16700,-8.866500001
497.16750,-11.61324967
497.16800,-9.476888817
497.16850,-6.42494474
497.16900,-6.730139148
497.16950,-9.782083225
497.17000,-10.69766645
497.17050,-8.561305594
497.17100,-7.035333555
497.17150,-8.866500001
497.17200,-11.30805526
497.17250,-11.61324967
497.17300,-10.39247204
497.17350,-10.08727763
497.17400,-10.08727763
497.17450,-6.119750332
497.17500,1.51010986
497.17550,7.613998014
497.17600,4.867248345
497.17650,-3.678195071
497.17700,-10.69766645
497.17750,-12.22363849
497.17800,-12.52883289
497.17850,-14.05480493
497.17900,-12.22363849
497.17950,-0.6262509935
497.18000,16.46463584
497.18050,28.36721774
497.18100,28.06202333
497.18150,22.26332958
497.18200,18.60099669
497.18250,16.76983025
497.18300,10.36074768
497.18350,-1.236639809
497.18400,-12.52883289
497.18450,-15.88597138
497.18500,-13.44441612
497.18550,-11.30805526
497.18600,-11.61324967
497.18650,-10.08727763
497.18700,-3.983389478
497.18750,3.341276307
497.18800,6.393220384
497.18850,4.562053937
497.18900,1.815304268
497.18950,0.2893322296
497.19000,-0.01586217811
497.19050,-0.01586217811
497.19100,1.51010986
497.19150,0.899721045
497.19200,-6.42494474
497.19250,-18.02233223
497.19300,-24.12622039
497.19350,-18.32752664
497.19400,-8.256111186
497.19450,-4.898972701
497.19500,-7.035333555
497.19550,-4.898972701
497.19600,4.562053937
497.19650,12.80230295
497.19700,11.58152531
497.19750,5.782831568
497.19800,3.951665122
497.19850,7.003609199
497.19900,9.139970053
497.19950,7.308803607
497.20000,4.25685953
497.20050,1.815304268
497.20100,0.2893322296
497.20150,-0.3210565858
497.20200,-1.236639809
497.20250,-1.541834217
497.20300,-1.541834217
497.20350,-0.3210565858
497.20400,1.815304268
497.20450,3.341276307
497.20500,2.120498676
497.20550,0.899721045
497.20600,2.120498676
497.20650,4.867248345
497.20700,4.562053937
497.20750,0.5945266373
497.20800,-1.847028624
497.20850,-0.9314454012
497.20900,0.5945266373
497.20950,0.5945266373
497.21000,-0.01586217811
497.21050,-0.01586217811
497.21100,0.899721045
497.21150,1.51010986
497.21200,2.120498676
497.21250,2.120498676
497.21300,1.204915453
497.21350,-0.6262509935
497.21400,-1.847028624
497.21450,-1.541834217
497.21500,-0.9314454012
497.21550,-2.45741744
497.21600,-4.593778294
497.21650,-6.119750332
497.21700,-5.814555924
497.21750,-4.593778294
497.21800,-3.373000663
497.21850,-1.847028624
497.21900,-1.236639809
497.21950,-0.01586217811
497.22000,2.425693084
497.22050,4.25685953
497.22100,1.815304268
497.22150,-2.762611847
497.22200,-3.373000663
497.22250,2.425693084
497.22300,8.834775645
497.22350,8.834775645
497.22400,4.25685953
497.22450,2.120498676
497.22500,4.25685953
497.22550,5.477637161
497.22600,4.562053937
497.22650,4.867248345
497.22700,8.22438683
497.22750,10.05555328
497.22800,7.919192422
497.22850,5.477637161
497.22900,5.782831568
497.22950,4.867248345
497.23000,-1.847028624
497.23050,-12.8340273
497.23100,-19.54830427
497.23150,-16.8015546
497.23200,-8.866500001
497.23250,-3.067806255
497.23300,-0.9314454012
497.23350,-0.6262509935
497.23400,-0.3210565858
497.23450,-0.01586217811
497.23500,-0.6262509935
497.23550,-0.6262509935
497.23600,-0.01586217811
497.23650,0.899721045
497.23700,-0.01586217811
497.23750,-3.373000663
497.23800,-4.898972701
497.23850,-2.45741744
497.23900,3.951665122
497.23950,9.750358868
497.24000,10.66594209
497.24050,10.36074768
497.24100,15.54905261
497.24150,25.31527366
497.24200,25.01007925
497.24250,5.172442753
497.24300,-23.82102598
497.24350,-41.82749603
497.24400,-45.79502333
497.24450,-47.93138419
497.24500,-47.62618978
497.24550,-25.95738683
497.24600,18.60099669
497.24650,53.69835358
497.24700,48.20485424
497.24750,14.9386638
497.24800,-6.119750332
497.24850,-1.236639809
497.24900,8.22438683
497.24950,4.867248345
497.25000,-3.067806255
497.25050,-1.847028624
497.25100,4.25685953
497.25150,4.867248345
497.25200,1.204915453
497.25250,1.204915453
497.25300,6.698414791
497.25350,12.49710854
497.25400,14.32827498
497.25450,14.32827498
497.25500,14.02308058
497.25550,12.80230295
497.25600,8.22438683
497.25650,-0.01586217811
497.25700,-9.476888817
497.25750,-14.05480493
497.25800,-11.61324967
497.25850,-6.42494474
497.25900,-3.983389478
497.25950,-3.983389478
497.26000,-3.373000663
497.26050,-2.762611847
497.26100,-5.204167109
497.26150,-8.256111186
497.26200,-7.035333555
497.26250,-2.152223032
497.26300,1.815304268
497.26350,3.951665122
497.26400,7.308803607
497.26450,12.19191413
497.26500,14.9386638
497.26550,11.27633091
497.26600,4.867248345
497.26650,0.899721045
497.26700,1.815304268
497.26750,3.341276307
497.26800,3.341276307
497.26850,2.730887491
497.26900,3.036081899
497.26950,3.951665122
497.27000,3.341276307
497.27050,1.815304268
497.27100,0.899721045
497.27150,1.51010986
497.27200,2.425693084
497.27250,4.867248345
497.27300,9.750358868
497.27350,13.41269176
497.27400,12.49710854
497.27450,7.919192422
497.27500,3.951665122
497.27550,-0.3210565858
497.27600,-11.61324967
497.27650,-25.65219243
497.27700,-31.45088617
497.27750,-23.21063716
497.27800,-11.61324967
497.27850,-5.509361517
497.27900,-1.541834217
497.27950,6.393220384
497.28000,14.63346939
497.28050,14.63346939
497.28100,9.750358868
497.28150,7.919192422
497.28200,10.36074768
497.28250,10.05555328
497.28300,5.782831568
497.28350,1.815304268
497.28400,-1.541834217
497.28450,-7.340527963
497.28500,-12.22363849
497.28550,-10.08727763
497.28600,-3.373000663
497.28650,-1.847028624
497.28700,-6.42494474
497.28750,-9.476888817
497.28800,-6.730139148
497.28850,-5.204167109
497.28900,-9.782083225
497.28950,-15.58077697
497.29000,-15.27558256
497.29050,-10.39247204
497.29100,-6.730139148
497.29150,-5.509361517
497.29200,-4.288583886
497.29250,-3.067806255
497.29300,-3.983389478
497.29350,-5.509361517
497.29400,-2.45741744
497.29450,5.477637161
497.29500,14.32827498
497.29550,17.68541347
497.29600,14.63346939
497.29650,10.66594209
497.29700,10.36074768
497.29750,11.27633091
497.29800,10.05555328
497.29850,5.172442753
497.29900,0.2893322296
497.29950,-1.541834217
497.30000,-1.236639809
497.30050,-0.6262509935
497.30100,-0.01586217811
497.30150,1.204915453
497.30200,2.730887491
497.30250,3.341276307
497.30300,4.25685953
497.30350,3.951665122
497.30400,1.815304268
497.30450,-0.6262509935
497.30500,-1.236639809
497.30550,-0.01586217811
497.30600,-0.01586217811
497.30650,-1.236639809
497.30700,-0.9314454012
497.30750,1.815304268
497.30800,3.646470714
497.30850,2.120498676
497.30900,2.120498676
497.30950,5.477637161
497.31000,4.867248345
497.31050,-4.593778294
497.31100,-16.8015546
497.31150,-18.93791546
497.31200,-11.30805526
497.31250,-3.983389478
497.31300,-3.373000663
497.31350,-5.509361517
497.31400,-5.509361517
497.31450,-3.067806255
497.31500,-0.9314454012
497.31550,1.204915453
497.31600,3.341276307
497.31650,3.341276307
497.31700,1.51010986
497.31750,0.5945266373
497.31800,0.5945266373
497.31850,-1.236639809
497.31900,-5.814555924
497.31950,-8.561305594
497.32000,-6.119750332
497.32050,-0.01586217811
497.32100,4.25685953
497.32150,5.172442753
497.32200,4.25685953
497.32250,4.562053937
497.32300,5.172442753
497.32350,1.815304268
497.32400,-6.730139148
497.32450,-16.19116579
497.32500,-18.32752664
497.32550,-12.52883289
497.32600,-6.42494474
497.32650,-5.509361517
497.32700,-6.42494474
497.32750,-4.288583886
497.32800,-0.01586217811
497.32850,0.2893322296
497.32900,-1.847028624
497.32950,-2.762611847
497.33000,-0.6262509935
497.33050,-0.01586217811
497.33100,-2.762611847
497.33150,-4.898972701
497.33200,-1.541834217
497.33250,4.25685953
497.33300,7.613998014
497.33350,6.393220384
497.33400,3.646470714
497.33450,2.425693084
497.33500,2.730887491
497.33550,3.036081899
497.33600,3.036081899
497.33650,2.120498676
497.33700,-0.01586217811
497.33750,-2.45741744
497.33800,-3.983389478
497.33850,-3.983389478
497.33900,-3.373000663
497.33950,-2.762611847
497.34000,-2.152223032
497.34050,-0.9314454012
497.34100,-0.01586217811
497.34150,-0.3210565858
497.34200,-0.9314454012
497.34250,-0.6262509935
497.34300,-0.01586217811
497.34350,-0.9314454012
497.34400,-1.236639809
497.34450,0.5945266373
497.34500,3.341276307
497.34550,1.815304268
497.34600,-2.762611847
497.34650,-4.593778294
497.34700,-0.01586217811
497.34750,5.477637161
497.34800,6.393220384
497.34850,3.341276307
497.34900,0.2893322296
497.34950,-0.9314454012
497.35000,-1.847028624
497.35050,-2.152223032
497.35100,-0.01586217811
497.35150,4.562053937
497.35200,8.834775645
497.35250,11.58152531
497.35300,12.19191413
497.35350,10.9711365
497.35400,7.919192422
497.35450,4.562053937
497.35500,0.2893322296
497.35550,-4.898972701
497.35600,-10.08727763
497.35650,-10.69766645
497.35700,-7.035333555
497.35750,-3.678195071
497.35800,-3.373000663
497.35850,-4.898972701
497.35900,-9.171694409
497.35950,-17.71713782
497.36000,-25.95738683
497.36050,-24.43141479
497.36100,-16.19116579
497.36150,-13.13922171
497.36200,-16.49636019
497.36250,-8.256111186
497.36300,21.65294077
497.36350,54.30874239
497.36400,61.63340818
497.36450,41.49057727
497.36500,18.29580228
497.36550,10.36074768
497.36600,13.41269176
497.36650,15.85424702
497.36700,12.49710854
497.36750,5.782831568
497.36800,-1.236639809
497.36850,-4.593778294
497.36900,-2.762611847
497.36950,-0.9314454012
497.37000,-5.204167109
497.37050,-13.74961052
497.37100,-20.15869309
497.37150,-22.90544276
497.37200,-22.90544276
497.37250,-17.10674901
497.37300,-3.373000663
497.37350,11.88671972
497.37400,19.82177432
497.37450,17.38021906
497.37500,10.66594209
497.37550,2.730887491
497.37600,-7.340527963
497.37650,-16.19116579
497.37700,-18.02233223
497.37750,-12.8340273
497.37800,-6.730139148
497.37850,-2.45741744
497.37900,-0.01586217811
497.37950,3.036081899
497.38000,7.308803607
497.38050,12.80230295
497.38100,15.85424702
497.38150,10.05555328
497.38200,-3.067806255
497.38250,-12.8340273
497.38300,-12.22363849
497.38350,-8.256111186
497.38400,-10.08727763
497.38450,-12.8340273
497.38500,-6.42494474
497.38550,6.088025976
497.38600,13.71788617
497.38650,12.49710854
497.38700,10.36074768
497.38750,11.88671972
497.38800,13.71788617
497.38850,11.27633091
497.38900,7.003609199
497.38950,3.341276307
497.39000,0.899721045
497.39050,-0.3210565858
497.39100,-1.847028624
497.39150,-4.593778294
497.39200,-8.561305594
497.39250,-9.782083225
497.39300,-5.509361517
497.39350,0.2893322296
497.39400,2.730887491
497.39450,2.425693084
497.39500,3.036081899
497.39550,3.951665122
497.39600,3.036081899
497.39650,1.51010986
497.39700,3.646470714
497.39750,6.393220384
497.39800,3.951665122
497.39850,-2.152223032
497.39900,-5.814555924
497.39950,-5.509361517
497.40000,-6.119750332
497.40050,-9.782083225
497.40100,-12.8340273
497.40150,-11.00286086
497.40200,-7.340527963
497.40250,-4.898972701
497.40300,-3.678195071
497.40350,-2.45741744
497.40400,-0.6262509935
497.40450,0.899721045
497.40500,3.036081899
497.40550,3.951665122
497.40600,2.120498676
497.40650,-0.01586217811
497.40700,1.204915453
497.40750,5.477637161
497.40800,7.613998014
497.40850,5.172442753
497.40900,1.204915453
497.40950,-0.01586217811
497.41000,-0.01586217811
497.41050,0.899721045
497.41100,2.425693084
497.41150,5.477637161
497.41200,8.22438683
497.41250,8.834775645
497.41300,7.308803607
497.41350,5.477637161
497.41400,3.341276307
497.41450,0.2893322296
497.41500,-5.204167109
497.41550,-12.52883289
497.41600,-18.32752664
497.41650,-15.88597138
497.41700,-4.288583886
497.41750,8.834775645
497.41800,12.19191413
497.41850,3.341276307
497.41900,-7.950916778
497.41950,-12.22363849
497.42000,-7.950916778
497.42050,-3.678195071
497.42100,-4.593778294
497.42150,-8.256111186
497.42200,-9.782083225
497.42250,-7.340527963
497.42300,-4.593778294
497.42350,-3.678195071
497.42400,-3.678195071
497.42450,-0.3210565858
497.42500,6.393220384
497.42550,12.49710854
497.42600,13.41269176
497.42650,9.750358868
497.42700,6.393220384
497.42750,6.088025976
497.42800,7.308803607
497.42850,7.613998014
497.42900,7.003609199
497.42950,7.003609199
497.43000,6.698414791
497.43050,4.562053937
497.43100,1.204915453
497.43150,-0.01586217811
497.43200,1.815304268
497.43250,5.477637161
497.43300,6.393220384
497.43350,4.562053937
497.43400,1.815304268
497.43450,0.5945266373
497.43500,-0.01586217811
497.43550,-0.3210565858
497.43600,-0.6262509935
497.43650,-1.236639809
497.43700,-3.067806255
497.43750,-5.204167109
497.43800,-6.119750332
497.43850,-4.288583886
497.43900,-1.236639809
497.43950,-0.01586217811
497.44000,-0.01586217811
497.44050,0.5945266373
497.44100,2.425693084
497.44150,2.425693084
497.44200,1.204915453
497.44250,0.899721045
497.44300,1.51010986
497.44350,-0.3210565858
497.44400,-6.730139148
497.44450,-12.8340273
497.44500,-11.91844408
497.44550,-4.898972701
497.44600,-0.3210565858
497.44650,-2.152223032
497.44700,-6.119750332
497.44750,-4.898972701
497.44800,0.5945266373
497.44850,4.562053937
497.44900,3.341276307
497.44950,-0.01586217811
497.45000,-0.3210565858
497.45050,0.2893322296
497.45100,-0.01586217811
497.45150,-1.236639809
497.45200,-0.6262509935
497.45250,0.5945266373
497.45300,0.5945266373
497.45350,-1.236639809
497.45400,-3.067806255
497.45450,-3.067806255
497.45500,-2.152223032
497.45550,-1.847028624
497.45600,-1.541834217
497.45650,-0.9314454012
497.45700,-0.9314454012
497.45750,-1.236639809
497.45800,-0.6262509935
497.45850,-0.01586217811
497.45900,-0.01586217811
497.45950,-1.541834217
497.46000,-3.678195071
497.46050,-3.983389478
497.46100,-2.762611847
497.46150,-2.152223032
497.46200,-2.152223032
497.46250,-1.541834217
497.46300,-0.3210565858
497.46350,-0.01586217811
497.46400,-0.01586217811
497.46450,-0.01586217811
497.46500,2.120498676
497.46550,4.25685953
497.46600,4.25685953
497.46650,2.120498676
497.46700,-0.01586217811
497.46750,-0.6262509935
497.46800,-0.01586217811
497.46850,0.5945266373
497.46900,0.5945266373
497.46950,-0.01586217811
497.47000,-0.01586217811
497.47050,2.120498676
497.47100,5.172442753
497.47150,6.393220384
497.47200,3.646470714
497.47250,-0.3210565858
497.47300,-3.983389478
497.47350,-8.866500001
497.47400,-17.71713782
497.47450,-28.09374769
497.47500,-32.97685821
497.47550,-29.00933091
497.47600,-23.21063716
497.47650,-19.85349868
497.47700,-12.22363849
497.47750,11.27633091
497.47800,46.06849338
497.47850,68.95807396
497.47900,63.46457462
497.47950,39.65941082
497.48000,20.73735755
497.48050,15.24385821
497.48100,10.9711365
497.48150,-2.152223032
497.48200,-17.71713782
497.48250,-21.07427631
497.48300,-12.22363849
497.48350,-1.541834217
497.48400,1.51010986
497.48450,-0.3210565858
497.48500,-5.204167109
497.48550,-10.69766645
497.48600,-12.52883289
497.48650,-6.42494474
497.48700,2.730887491
497.48750,4.867248345
497.48800,-2.762611847
497.48850,-10.69766645
497.48900,-8.866500001
497.48950,-0.6262509935
497.49000,2.425693084
497.49050,-2.45741744
497.49100,-9.782083225
497.49150,-12.52883289
497.49200,-11.00286086
497.49250,-7.950916778
497.49300,-4.288583886
497.49350,-0.01586217811
497.49400,5.172442753
497.49450,10.9711365
497.49500,15.85424702
497.49550,17.38021906
497.49600,14.32827498
497.49650,8.22438683
497.49700,1.204915453
497.49750,-3.983389478
497.49800,-5.814555924
497.49850,-5.509361517
497.49900,-5.814555924
497.49950,-7.035333555
497.50000,-7.340527963
497.50050,-4.288583886
497.50100,-0.9314454012
497.50150,-0.6262509935
497.50200,-1.236639809
497.50250,0.5945266373
497.50300,3.036081899
497.50350,-0.01586217811
497.50400,-7.645722371
497.50450,-11.30805526
497.50500,-8.256111186
497.50550,-3.373000663
497.50600,-0.9314454012
497.50650,-0.01586217811
497.50700,1.51010986
497.50750,2.425693084
497.50800,3.036081899
497.50850,5.172442753
497.50900,7.919192422
497.50950,8.22438683
497.51000,7.003609199
497.51050,8.22438683
497.51100,12.19191413
497.51150,16.46463584
497.51200,19.51657991
497.51250,19.51657991
497.51300,13.41269176
497.51350,-0.01586217811
497.51400,-12.8340273
497.51450,-19.24310986
497.51500,-23.51583157
497.51550,-32.6716638
497.51600,-41.21710722
497.51650,-37.24957992
497.51700,-22.90544276
497.51750,-11.91844408
497.51800,-9.782083225
497.51850,-9.171694409
497.51900,-5.204167109
497.51950,-3.983389478
497.52000,-7.340527963
497.52050,-7.950916778
497.52100,-1.236639809
497.52150,3.951665122
497.52200,0.899721045
497.52250,-6.42494474
497.52300,-9.782083225
497.52350,-5.509361517
497.52400,5.782831568
497.52450,21.95813518
497.52500,36.60746675
497.52550,39.35421642
497.52600,27.45163452
497.52650,10.36074768
497.52700,-0.9314454012
497.52750,-3.983389478
497.52800,-2.152223032
497.52850,0.5945266373
497.52900,3.646470714
497.52950,4.562053937
497.53000,3.951665122
497.53050,4.25685953
497.53100,6.698414791
497.53150,8.834775645
497.53200,8.834775645
497.53250,7.613998014
497.53300,6.393220384
497.53350,5.172442753
497.53400,3.646470714
497.53450,4.25685953
497.53500,7.919192422
497.53550,11.58152531
497.53600,11.58152531
497.53650,8.22438683
497.53700,5.782831568
497.53750,7.003609199
497.53800,10.36074768
497.53850,10.66594209
497.53900,5.782831568
497.53950,-0.6262509935
497.54000,-3.067806255
497.54050,-0.01586217811
497.54100,3.341276307
497.54150,1.204915453
497.54200,-5.509361517
497.54250,-11.00286086
497.54300,-11.00286086
497.54350,-7.340527963
497.54400,-4.593778294
497.54450,-4.288583886
497.54500,-3.678195071
497.54550,-1.847028624
497.54600,-0.6262509935
497.54650,-3.373000663
497.54700,-7.645722371
497.54750,-9.171694409
497.54800,-6.119750332
497.54850,-3.067806255
497.54900,-2.762611847
497.54950,-1.236639809
497.55000,5.782831568
497.55050,14.63346939
497.55100,16.76983025
497.55150,10.9711365
497.55200,5.172442753
497.55250,3.341276307
497.55300,0.899721045
497.55350,-4.593778294
497.55400,-8.256111186
497.55450,-5.509361517
497.55500,-2.152223032
497.55550,-4.288583886
497.55600,-7.645722371
497.55650,-4.898972701
497.55700,1.204915453
497.55750,2.730887491
497.55800,-1.541834217
497.55850,-4.898972701
497.55900,-3.373000663
497.55950,-0.9314454012
497.56000,-0.9314454012
497.56050,-2.152223032
497.56100,-2.762611847
497.56150,-4.288583886
497.56200,-5.204167109
497.56250,-1.847028624
497.56300,3.646470714
497.56350,4.867248345
497.56400,-1.236639809
497.56450,-8.561305594
497.56500,-8.256111186
497.56550,-2.762611847
497.56600,1.815304268
497.56650,3.646470714
497.56700,4.562053937
497.56750,5.477637161
497.56800,7.308803607
497.56850,11.88671972
497.56900,17.07502465
497.56950,16.76983025
497.57000,7.919192422
497.57050,-2.152223032
497.57100,-4.898972701
497.57150,-2.152223032
497.57200,-1.541834217
497.57250,-4.288583886
497.57300,-4.898972701
497.57350,-3.373000663
497.57400,-3.373000663
497.57450,-5.204167109
497.57500,-7.950916778
497.57550,-14.35999934
497.57600,-25.34699802
497.57650,-32.06127499
497.57700,-26.56777565
497.57750,-18.02233223
497.57800,-19.54830427
497.57850,-22.29505394
497.57900,-3.678195071
497.57950,35.08149471
497.58000,63.15938022
497.58050,56.75029765
497.58100,29.28280096
497.58150,8.529581238
497.58200,2.425693084
497.58250,-0.01586217811
497.58300,-3.983389478
497.58350,-6.42494474
497.58400,-5.814555924
497.58450,-6.42494474
497.58500,-6.42494474
497.58550,-2.762611847
497.58600,0.899721045
497.58650,-0.3210565858
497.58700,-2.45741744
497.58750,3.036081899
497.58800,12.80230295
497.58850,15.54905261
497.58900,9.750358868
497.58950,4.562053937
497.59000,5.477637161
497.59050,6.698414791
497.59100,5.477637161
497.59150,4.25685953
497.59200,2.120498676
497.59250,-7.035333555
497.59300,-22.29505394
497.59350,-31.14569176
497.59400,-27.48335887
497.59450,-18.93791546
497.59500,-14.66519375
497.59550,-13.44441612
497.59600,-9.782083225
497.59650,-4.593778294
497.59700,-2.762611847
497.59750,-3.983389478
497.59800,-4.593778294
497.59850,-3.678195071
497.59900,-2.152223032
497.59950,-1.541834217
497.60000,-1.847028624
497.60050,-4.288583886
497.60100,-6.119750332
497.60150,-4.288583886
497.60200,0.5945266373
497.60250,5.782831568
497.60300,9.750358868
497.60350,12.80230295
497.60400,13.10749735
497.60450,7.003609199
497.60500,-2.152223032
497.60550,-8.256111186
497.60600,-8.866500001
497.60650,-7.035333555
497.60700,-4.593778294
497.60750,-0.01586217811
497.60800,4.25685953
497.60850,3.341276307
497.60900,-1.236639809
497.60950,-3.373000663
497.61000,-0.9314454012
497.61050,0.5945266373
497.61100,-0.3210565858
497.61150,-2.152223032
497.61200,-3.373000663
497.61250,-6.119750332
497.61300,-6.730139148
497.61350,-1.541834217
497.61400,4.562053937
497.61450,5.477637161
497.61500,3.951665122
497.61550,9.139970053
497.61600,16.15944143
497.61650,9.445164461
497.61700,-12.8340273
497.61750,-32.06127499
497.61800,-32.36646939
497.61850,-20.46388749
497.61900,-11.91844408
497.61950,-11.00286086
497.62000,-11.00286086
497.62050,-8.866500001
497.62100,-5.204167109
497.62150,-0.01586217811
497.62200,7.003609199
497.62250,11.27633091
497.62300,9.750358868
497.62350,5.782831568
497.62400,4.562053937
497.62450,6.088025976
497.62500,6.698414791
497.62550,5.782831568
497.62600,5.172442753
497.62650,5.172442753
497.62700,6.088025976
