"type","name","time_units","begin_time","frequency","count","units"
"signal","Ultium EMG-EXT.DIG. RT","s",197.96000,2000,22000,"uV"

"time","value"
197.96000,-1.468471643
197.96050,-1.773666051
197.96100,-0.247694012
197.96150,0.6678892111
197.96200,0.05750039565
197.96250,-1.773666051
197.96300,-2.384054866
197.96350,-1.163277235
197.96400,-0.247694012
197.96450,-1.468471643
197.96500,-3.910026904
197.96550,-4.215221312
197.96600,-2.384054866
197.96650,-0.8580828275
197.96700,-0.247694012
197.96750,0.05750039565
197.96800,1.888666842
197.96850,3.41463888
197.96900,2.804250065
197.96950,0.9730836188
197.97000,0.6678892111
197.97050,2.499055657
197.97100,3.719833288
197.97150,3.41463888
197.97200,2.804250065
197.97250,2.499055657
197.97300,2.499055657
197.97350,2.19386125
197.97400,1.278278026
197.97450,0.6678892111
197.97500,-0.247694012
197.97550,-1.773666051
197.97600,-2.078860458
197.97650,-0.8580828275
197.97700,0.9730836188
197.97750,2.19386125
197.97800,2.19386125
197.97850,1.888666842
197.97900,2.804250065
197.97950,4.025027696
197.98000,4.330222103
197.98050,3.109444473
197.98100,1.583472434
197.98150,0.6678892111
197.98200,0.9730836188
197.98250,1.583472434
197.98300,1.888666842
197.98350,1.583472434
197.98400,0.9730836188
197.98450,0.05750039565
197.98500,0.05750039565
197.98550,0.6678892111
197.98600,1.583472434
197.98650,1.888666842
197.98700,1.583472434
197.98750,0.9730836188
197.98800,0.3626948034
197.98850,-0.247694012
197.98900,-0.5528884197
197.98950,0.05750039565
197.99000,1.583472434
197.99050,2.499055657
197.99100,1.888666842
197.99150,0.6678892111
197.99200,0.05750039565
197.99250,0.6678892111
197.99300,1.888666842
197.99350,4.025027696
197.99400,5.550999734
197.99450,5.856194142
197.99500,5.550999734
197.99550,5.245805327
197.99600,5.245805327
197.99650,4.025027696
197.99700,2.499055657
197.99750,0.9730836188
197.99800,0.05750039565
197.99850,-2.384054866
197.99900,-6.656776574
197.99950,-10.01391506
198.00000,-10.01391506
198.00050,-8.48794302
198.00100,-6.656776574
198.00150,-5.435998943
198.00200,-3.604832497
198.00250,-1.163277235
198.00300,-0.5528884197
198.00350,-2.078860458
198.00400,-3.910026904
198.00450,-4.215221312
198.00500,-2.689249274
198.00550,-0.5528884197
198.00600,1.278278026
198.00650,1.888666842
198.00700,0.3626948034
198.00750,-1.163277235
198.00800,-1.468471643
198.00850,-0.8580828275
198.00900,-0.8580828275
198.00950,-2.384054866
198.01000,-2.994443681
198.01050,-1.468471643
198.01100,0.05750039565
198.01150,0.3626948034
198.01200,0.6678892111
198.01250,1.278278026
198.01300,0.9730836188
198.01350,0.05750039565
198.01400,-0.8580828275
198.01450,0.05750039565
198.01500,1.278278026
198.01550,1.278278026
198.01600,0.3626948034
198.01650,0.05750039565
198.01700,0.05750039565
198.01750,0.05750039565
198.01800,0.05750039565
198.01850,0.05750039565
198.01900,0.05750039565
198.01950,-0.5528884197
198.02000,-0.247694012
198.02050,0.9730836188
198.02100,2.19386125
198.02150,1.278278026
198.02200,0.05750039565
198.02250,0.05750039565
198.02300,0.6678892111
198.02350,0.3626948034
198.02400,-0.247694012
198.02450,0.05750039565
198.02500,1.278278026
198.02550,0.9730836188
198.02600,-1.163277235
198.02650,-2.689249274
198.02700,-1.773666051
198.02750,-0.247694012
198.02800,-0.247694012
198.02850,-1.468471643
198.02900,-2.689249274
198.02950,-3.910026904
198.03000,-5.435998943
198.03050,-6.656776574
198.03100,-7.267165389
198.03150,-7.267165389
198.03200,-7.877554205
198.03250,-7.572359797
198.03300,-5.741193351
198.03350,-2.994443681
198.03400,-0.5528884197
198.03450,0.6678892111
198.03500,1.278278026
198.03550,0.6678892111
198.03600,-0.247694012
198.03650,-1.163277235
198.03700,-0.247694012
198.03750,0.05750039565
198.03800,-0.5528884197
198.03850,-2.078860458
198.03900,-2.384054866
198.03950,-0.8580828275
198.04000,0.3626948034
198.04050,0.6678892111
198.04100,0.3626948034
198.04150,0.6678892111
198.04200,0.9730836188
198.04250,0.3626948034
198.04300,0.3626948034
198.04350,1.278278026
198.04400,3.109444473
198.04450,3.109444473
198.04500,1.888666842
198.04550,0.9730836188
198.04600,0.6678892111
198.04650,0.05750039565
198.04700,-1.468471643
198.04750,-2.384054866
198.04800,-1.468471643
198.04850,0.05750039565
198.04900,-0.247694012
198.04950,-1.163277235
198.05000,-0.5528884197
198.05050,1.278278026
198.05100,2.19386125
198.05150,1.278278026
198.05200,0.05750039565
198.05250,0.05750039565
198.05300,0.6678892111
198.05350,0.3626948034
198.05400,0.6678892111
198.05450,1.888666842
198.05500,3.109444473
198.05550,3.719833288
198.05600,4.330222103
198.05650,5.245805327
198.05700,5.550999734
198.05750,4.635416511
198.05800,3.109444473
198.05850,2.19386125
198.05900,1.583472434
198.05950,1.583472434
198.06000,1.888666842
198.06050,2.804250065
198.06100,3.109444473
198.06150,2.19386125
198.06200,1.888666842
198.06250,2.499055657
198.06300,3.41463888
198.06350,4.025027696
198.06400,3.41463888
198.06450,2.499055657
198.06500,1.583472434
198.06550,0.9730836188
198.06600,0.3626948034
198.06650,0.3626948034
198.06700,0.05750039565
198.06750,0.05750039565
198.06800,-0.8580828275
198.06850,-1.773666051
198.06900,-2.078860458
198.06950,-1.468471643
198.07000,-1.163277235
198.07050,-2.078860458
198.07100,-3.299638089
198.07150,-3.910026904
198.07200,-2.689249274
198.07250,-1.773666051
198.07300,-2.994443681
198.07350,-5.130804535
198.07400,-6.351582166
198.07450,-6.351582166
198.07500,-6.351582166
198.07550,-6.046387758
198.07600,-5.435998943
198.07650,-4.825610128
198.07700,-4.825610128
198.07750,-4.825610128
198.07800,-2.384054866
198.07850,0.9730836188
198.07900,4.330222103
198.07950,6.771777365
198.08000,8.908138219
198.08050,9.823721442
198.08100,8.297749404
198.08150,6.466582957
198.08200,6.771777365
198.08250,8.602943811
198.08300,7.992554996
198.08350,4.025027696
198.08400,-0.247694012
198.08450,-1.773666051
198.08500,-0.247694012
198.08550,0.6678892111
198.08600,0.9730836188
198.08650,0.6678892111
198.08700,0.3626948034
198.08750,0.3626948034
198.08800,0.3626948034
198.08850,-0.247694012
198.08900,-1.773666051
198.08950,-2.689249274
198.09000,-2.994443681
198.09050,-2.689249274
198.09100,-2.384054866
198.09150,-2.384054866
198.09200,-1.773666051
198.09250,-1.163277235
198.09300,-0.8580828275
198.09350,-0.247694012
198.09400,0.6678892111
198.09450,1.888666842
198.09500,1.888666842
198.09550,0.9730836188
198.09600,-0.247694012
198.09650,-1.773666051
198.09700,-2.689249274
198.09750,-2.994443681
198.09800,-2.384054866
198.09850,-2.078860458
198.09900,-2.078860458
198.09950,-1.468471643
198.10000,0.05750039565
198.10050,0.9730836188
198.10100,1.278278026
198.10150,1.278278026
198.10200,1.888666842
198.10250,2.804250065
198.10300,2.804250065
198.10350,2.804250065
198.10400,3.109444473
198.10450,3.41463888
198.10500,3.41463888
198.10550,3.41463888
198.10600,4.330222103
198.10650,5.245805327
198.10700,5.550999734
198.10750,4.940610919
198.10800,4.025027696
198.10850,3.41463888
198.10900,2.499055657
198.10950,1.888666842
198.11000,1.278278026
198.11050,0.05750039565
198.11100,-0.5528884197
198.11150,-0.5528884197
198.11200,0.6678892111
198.11250,1.583472434
198.11300,0.9730836188
198.11350,0.05750039565
198.11400,-0.8580828275
198.11450,-1.163277235
198.11500,-1.468471643
198.11550,-1.468471643
198.11600,-1.163277235
198.11650,-1.163277235
198.11700,-1.468471643
198.11750,-1.468471643
198.11800,-1.468471643
198.11850,-1.468471643
198.11900,-1.773666051
198.11950,-2.078860458
198.12000,-1.468471643
198.12050,-1.163277235
198.12100,-1.773666051
198.12150,-3.299638089
198.12200,-4.215221312
198.12250,-3.604832497
198.12300,-1.773666051
198.12350,-0.5528884197
198.12400,-0.5528884197
198.12450,-1.468471643
198.12500,-1.163277235
198.12550,0.05750039565
198.12600,0.6678892111
198.12650,0.3626948034
198.12700,0.05750039565
198.12750,0.05750039565
198.12800,0.9730836188
198.12850,1.888666842
198.12900,2.499055657
198.12950,2.19386125
198.13000,1.583472434
198.13050,1.278278026
198.13100,1.583472434
198.13150,2.19386125
198.13200,1.583472434
198.13250,0.05750039565
198.13300,-1.773666051
198.13350,-4.52041572
198.13400,-7.877554205
198.13450,-10.01391506
198.13500,-9.403526243
198.13550,-6.046387758
198.13600,-3.299638089
198.13650,-3.299638089
198.13700,-4.215221312
198.13750,-3.910026904
198.13800,-2.994443681
198.13850,-2.078860458
198.13900,-1.773666051
198.13950,-1.468471643
198.14000,-0.8580828275
198.14050,-1.163277235
198.14100,-2.078860458
198.14150,-2.384054866
198.14200,-1.468471643
198.14250,0.05750039565
198.14300,0.3626948034
198.14350,0.05750039565
198.14400,0.05750039565
198.14450,0.05750039565
198.14500,0.3626948034
198.14550,0.6678892111
198.14600,0.6678892111
198.14650,0.9730836188
198.14700,1.888666842
198.14750,2.804250065
198.14800,3.109444473
198.14850,2.804250065
198.14900,2.804250065
198.14950,2.499055657
198.15000,1.888666842
198.15050,0.9730836188
198.15100,0.6678892111
198.15150,0.9730836188
198.15200,1.278278026
198.15250,1.888666842
198.15300,2.499055657
198.15350,3.109444473
198.15400,3.719833288
198.15450,4.025027696
198.15500,3.41463888
198.15550,2.19386125
198.15600,1.278278026
198.15650,2.19386125
198.15700,3.719833288
198.15750,4.330222103
198.15800,3.109444473
198.15850,2.19386125
198.15900,2.499055657
198.15950,3.719833288
198.16000,3.41463888
198.16050,1.583472434
198.16100,0.3626948034
198.16150,0.3626948034
198.16200,0.05750039565
198.16250,-0.5528884197
198.16300,-1.163277235
198.16350,-0.5528884197
198.16400,0.3626948034
198.16450,0.6678892111
198.16500,0.05750039565
198.16550,0.3626948034
198.16600,1.888666842
198.16650,2.804250065
198.16700,2.19386125
198.16750,1.278278026
198.16800,1.583472434
198.16850,2.804250065
198.16900,3.109444473
198.16950,2.804250065
198.17000,2.499055657
198.17050,3.109444473
198.17100,3.41463888
198.17150,1.888666842
198.17200,-0.8580828275
198.17250,-2.994443681
198.17300,-2.689249274
198.17350,0.05750039565
198.17400,1.583472434
198.17450,1.888666842
198.17500,1.278278026
198.17550,0.6678892111
198.17600,0.3626948034
198.17650,0.05750039565
198.17700,-0.8580828275
198.17750,-0.8580828275
198.17800,-0.247694012
198.17850,-0.247694012
198.17900,-0.5528884197
198.17950,0.05750039565
198.18000,0.9730836188
198.18050,0.3626948034
198.18100,-2.078860458
198.18150,-4.215221312
198.18200,-2.994443681
198.18250,0.05750039565
198.18300,1.278278026
198.18350,0.6678892111
198.18400,0.05750039565
198.18450,0.3626948034
198.18500,0.6678892111
198.18550,0.05750039565
198.18600,-1.468471643
198.18650,-2.384054866
198.18700,-2.994443681
198.18750,-2.689249274
198.18800,-2.078860458
198.18850,-0.8580828275
198.18900,0.05750039565
198.18950,-0.247694012
198.19000,-1.468471643
198.19050,-2.994443681
198.19100,-4.215221312
198.19150,-4.52041572
198.19200,-3.910026904
198.19250,-3.299638089
198.19300,-2.689249274
198.19350,-2.994443681
198.19400,-3.299638089
198.19450,-3.604832497
198.19500,-3.604832497
198.19550,-2.994443681
198.19600,-2.078860458
198.19650,-1.468471643
198.19700,-2.078860458
198.19750,-2.689249274
198.19800,-2.384054866
198.19850,-1.468471643
198.19900,-1.468471643
198.19950,-3.299638089
198.20000,-5.435998943
198.20050,-6.046387758
198.20100,-6.046387758
198.20150,-5.741193351
198.20200,-5.130804535
198.20250,-2.994443681
198.20300,-0.8580828275
198.20350,-0.247694012
198.20400,-1.163277235
198.20450,-1.468471643
198.20500,-0.247694012
198.20550,0.6678892111
198.20600,0.3626948034
198.20650,0.05750039565
198.20700,0.3626948034
198.20750,1.278278026
198.20800,1.583472434
198.20850,1.583472434
198.20900,1.583472434
198.20950,1.583472434
198.21000,1.278278026
198.21050,1.583472434
198.21100,3.109444473
198.21150,4.940610919
198.21200,4.940610919
198.21250,3.719833288
198.21300,3.109444473
198.21350,2.804250065
198.21400,1.583472434
198.21450,-0.8580828275
198.21500,-2.078860458
198.21550,-0.8580828275
198.21600,0.3626948034
198.21650,0.3626948034
198.21700,-0.5528884197
198.21750,-0.8580828275
198.21800,-0.5528884197
198.21850,-1.163277235
198.21900,-2.384054866
198.21950,-2.689249274
198.22000,-1.163277235
198.22050,0.6678892111
198.22100,1.888666842
198.22150,1.583472434
198.22200,1.278278026
198.22250,0.6678892111
198.22300,0.05750039565
198.22350,0.05750039565
198.22400,0.05750039565
198.22450,0.05750039565
198.22500,-1.163277235
198.22550,-2.078860458
198.22600,-2.078860458
198.22650,-1.468471643
198.22700,0.05750039565
198.22750,1.583472434
198.22800,2.804250065
198.22850,2.499055657
198.22900,0.3626948034
198.22950,-0.247694012
198.23000,0.05750039565
198.23050,1.888666842
198.23100,2.499055657
198.23150,1.888666842
198.23200,0.9730836188
198.23250,0.3626948034
198.23300,0.05750039565
198.23350,0.05750039565
198.23400,0.6678892111
198.23450,0.9730836188
198.23500,0.05750039565
198.23550,-1.468471643
198.23600,-2.078860458
198.23650,-1.163277235
198.23700,-0.247694012
198.23750,-0.8580828275
198.23800,-2.078860458
198.23850,-3.299638089
198.23900,-2.994443681
198.23950,-0.8580828275
198.24000,0.3626948034
198.24050,0.3626948034
198.24100,-0.8580828275
198.24150,-0.5528884197
198.24200,1.583472434
198.24250,3.41463888
198.24300,2.19386125
198.24350,-0.247694012
198.24400,-0.5528884197
198.24450,1.278278026
198.24500,2.804250065
198.24550,1.583472434
198.24600,0.3626948034
198.24650,0.9730836188
198.24700,2.499055657
198.24750,3.109444473
198.24800,2.804250065
198.24850,2.499055657
198.24900,2.19386125
198.24950,2.804250065
198.25000,4.330222103
198.25050,6.466582957
198.25100,6.771777365
198.25150,4.025027696
198.25200,1.583472434
198.25250,1.888666842
198.25300,3.109444473
198.25350,1.888666842
198.25400,-0.5528884197
198.25450,-2.994443681
198.25500,-2.384054866
198.25550,-0.247694012
198.25600,2.499055657
198.25650,5.550999734
198.25700,6.771777365
198.25750,5.245805327
198.25800,3.719833288
198.25850,4.635416511
198.25900,7.38216618
198.25950,7.687360588
198.26000,4.330222103
198.26050,0.05750039565
198.26100,-2.689249274
198.26150,-5.435998943
198.26200,-7.572359797
198.26250,-7.267165389
198.26300,-4.52041572
198.26350,-1.773666051
198.26400,-1.773666051
198.26450,-2.078860458
198.26500,-0.8580828275
198.26550,0.3626948034
198.26600,0.05750039565
198.26650,-2.078860458
198.26700,-2.384054866
198.26750,-1.163277235
198.26800,-0.8580828275
198.26850,-2.078860458
198.26900,-1.468471643
198.26950,1.888666842
198.27000,4.940610919
198.27050,5.550999734
198.27100,4.635416511
198.27150,4.025027696
198.27200,2.499055657
198.27250,0.05750039565
198.27300,-2.689249274
198.27350,-2.994443681
198.27400,-2.078860458
198.27450,-2.078860458
198.27500,-3.299638089
198.27550,-3.299638089
198.27600,-2.078860458
198.27650,-0.247694012
198.27700,0.9730836188
198.27750,1.888666842
198.27800,2.19386125
198.27850,1.583472434
198.27900,0.9730836188
198.27950,1.278278026
198.28000,2.804250065
198.28050,4.330222103
198.28100,4.940610919
198.28150,4.635416511
198.28200,4.330222103
198.28250,3.41463888
198.28300,2.19386125
198.28350,0.6678892111
198.28400,0.05750039565
198.28450,0.05750039565
198.28500,0.05750039565
198.28550,0.3626948034
198.28600,0.6678892111
198.28650,0.05750039565
198.28700,-0.247694012
198.28750,-0.247694012
198.28800,0.05750039565
198.28850,0.05750039565
198.28900,-0.5528884197
198.28950,-0.5528884197
198.29000,0.3626948034
198.29050,0.9730836188
198.29100,0.05750039565
198.29150,-0.247694012
198.29200,0.05750039565
198.29250,0.6678892111
198.29300,0.3626948034
198.29350,-0.5528884197
198.29400,-1.773666051
198.29450,-2.689249274
198.29500,-2.994443681
198.29550,-2.384054866
198.29600,-1.163277235
198.29650,-0.5528884197
198.29700,-0.5528884197
198.29750,-0.5528884197
198.29800,-0.247694012
198.29850,-0.8580828275
198.29900,-1.773666051
198.29950,-1.468471643
198.30000,-0.247694012
198.30050,0.05750039565
198.30100,-1.163277235
198.30150,-2.384054866
198.30200,-2.078860458
198.30250,-2.078860458
198.30300,-3.604832497
198.30350,-5.130804535
198.30400,-4.215221312
198.30450,-1.163277235
198.30500,0.6678892111
198.30550,1.888666842
198.30600,3.41463888
198.30650,4.635416511
198.30700,4.635416511
198.30750,3.41463888
198.30800,2.19386125
198.30850,2.804250065
198.30900,4.025027696
198.30950,4.330222103
198.31000,3.41463888
198.31050,1.583472434
198.31100,-0.247694012
198.31150,-1.773666051
198.31200,-2.994443681
198.31250,-3.299638089
198.31300,-2.384054866
198.31350,0.05750039565
198.31400,1.888666842
198.31450,1.583472434
198.31500,0.05750039565
198.31550,-1.163277235
198.31600,-0.5528884197
198.31650,-0.247694012
198.31700,-1.163277235
198.31750,-1.163277235
198.31800,0.05750039565
198.31850,1.278278026
198.31900,0.6678892111
198.31950,-0.5528884197
198.32000,-0.8580828275
198.32050,0.05750039565
198.32100,0.05750039565
198.32150,-1.773666051
198.32200,-2.689249274
198.32250,-1.773666051
198.32300,0.05750039565
198.32350,0.3626948034
198.32400,-0.247694012
198.32450,-1.163277235
198.32500,-1.163277235
198.32550,-1.468471643
198.32600,-2.078860458
198.32650,-1.773666051
198.32700,-0.8580828275
198.32750,-0.8580828275
198.32800,-2.078860458
198.32850,-2.994443681
198.32900,-2.384054866
198.32950,-1.773666051
198.33000,-2.689249274
198.33050,-3.299638089
198.33100,-2.384054866
198.33150,-0.5528884197
198.33200,0.05750039565
198.33250,-0.5528884197
198.33300,-0.8580828275
198.33350,0.05750039565
198.33400,0.3626948034
198.33450,-0.247694012
198.33500,-1.468471643
198.33550,-2.078860458
198.33600,-2.384054866
198.33650,-2.994443681
198.33700,-2.384054866
198.33750,-0.5528884197
198.33800,0.05750039565
198.33850,-0.5528884197
198.33900,-0.8580828275
198.33950,0.3626948034
198.34000,1.583472434
198.34050,0.6678892111
198.34100,-0.5528884197
198.34150,-0.5528884197
198.34200,0.6678892111
198.34250,2.19386125
198.34300,3.41463888
198.34350,4.940610919
198.34400,5.245805327
198.34450,2.499055657
198.34500,-1.163277235
198.34550,-2.994443681
198.34600,-1.468471643
198.34650,-0.247694012
198.34700,-0.8580828275
198.34750,-2.689249274
198.34800,-3.299638089
198.34850,-2.384054866
198.34900,-1.468471643
198.34950,-1.773666051
198.35000,-3.299638089
198.35050,-4.825610128
198.35100,-4.825610128
198.35150,-3.604832497
198.35200,-2.078860458
198.35250,-1.468471643
198.35300,-1.163277235
198.35350,-0.8580828275
198.35400,-0.8580828275
198.35450,-1.468471643
198.35500,-1.773666051
198.35550,-1.163277235
198.35600,-0.247694012
198.35650,0.05750039565
198.35700,-0.5528884197
198.35750,-0.247694012
198.35800,0.05750039565
198.35850,0.3626948034
198.35900,-0.247694012
198.35950,-1.163277235
198.36000,-1.468471643
198.36050,-0.8580828275
198.36100,-0.5528884197
198.36150,-1.468471643
198.36200,-2.384054866
198.36250,-2.689249274
198.36300,-1.468471643
198.36350,0.3626948034
198.36400,1.278278026
198.36450,0.6678892111
198.36500,0.3626948034
198.36550,0.3626948034
198.36600,-0.5528884197
198.36650,-2.994443681
198.36700,-4.215221312
198.36750,-2.384054866
198.36800,-0.247694012
198.36850,-0.247694012
198.36900,-1.468471643
198.36950,-1.163277235
198.37000,0.6678892111
198.37050,1.888666842
198.37100,2.19386125
198.37150,2.804250065
198.37200,4.025027696
198.37250,4.025027696
198.37300,3.41463888
198.37350,3.109444473
198.37400,3.41463888
198.37450,3.109444473
198.37500,2.804250065
198.37550,3.109444473
198.37600,3.41463888
198.37650,2.19386125
198.37700,0.05750039565
198.37750,0.05750039565
198.37800,2.19386125
198.37850,2.499055657
198.37900,0.05750039565
198.37950,-1.773666051
198.38000,-0.5528884197
198.38050,0.9730836188
198.38100,0.05750039565
198.38150,-2.384054866
198.38200,-1.468471643
198.38250,1.278278026
198.38300,2.804250065
198.38350,0.6678892111
198.38400,-1.163277235
198.38450,-0.5528884197
198.38500,0.6678892111
198.38550,0.9730836188
198.38600,0.9730836188
198.38650,1.888666842
198.38700,3.41463888
198.38750,4.330222103
198.38800,3.41463888
198.38850,1.888666842
198.38900,0.3626948034
198.38950,0.05750039565
198.39000,0.05750039565
198.39050,1.583472434
198.39100,3.109444473
198.39150,3.41463888
198.39200,2.19386125
198.39250,0.05750039565
198.39300,-2.078860458
198.39350,-3.910026904
198.39400,-3.910026904
198.39450,-2.689249274
198.39500,-0.8580828275
198.39550,0.05750039565
198.39600,-0.247694012
198.39650,-1.468471643
198.39700,-2.689249274
198.39750,-2.689249274
198.39800,-1.468471643
198.39850,0.05750039565
198.39900,0.3626948034
198.39950,0.05750039565
198.40000,0.3626948034
198.40050,1.888666842
198.40100,3.719833288
198.40150,3.719833288
198.40200,1.583472434
198.40250,0.05750039565
198.40300,0.05750039565
198.40350,0.3626948034
198.40400,0.05750039565
198.40450,-0.5528884197
198.40500,-0.5528884197
198.40550,0.9730836188
198.40600,3.719833288
198.40650,5.245805327
198.40700,5.550999734
198.40750,4.635416511
198.40800,4.635416511
198.40850,5.245805327
198.40900,5.550999734
198.40950,4.635416511
198.41000,2.499055657
198.41050,0.3626948034
198.41100,-1.163277235
198.41150,-3.299638089
198.41200,-5.435998943
198.41250,-6.046387758
198.41300,-3.910026904
198.41350,-0.5528884197
198.41400,0.9730836188
198.41450,1.278278026
198.41500,0.6678892111
198.41550,0.9730836188
198.41600,0.9730836188
198.41650,0.3626948034
198.41700,-0.247694012
198.41750,-1.773666051
198.41800,-2.994443681
198.41850,-3.910026904
198.41900,-3.604832497
198.41950,-2.994443681
198.42000,-2.994443681
198.42050,-3.604832497
198.42100,-3.910026904
198.42150,-3.910026904
198.42200,-3.910026904
198.42250,-3.604832497
198.42300,-1.468471643
198.42350,1.278278026
198.42400,3.719833288
198.42450,3.41463888
198.42500,1.888666842
198.42550,1.583472434
198.42600,3.109444473
198.42650,5.550999734
198.42700,7.076971773
198.42750,7.687360588
198.42800,7.687360588
198.42850,6.771777365
198.42900,5.245805327
198.42950,4.330222103
198.43000,4.330222103
198.43050,4.025027696
198.43100,1.888666842
198.43150,-0.5528884197
198.43200,-1.163277235
198.43250,0.05750039565
198.43300,1.278278026
198.43350,0.9730836188
198.43400,0.05750039565
198.43450,-0.8580828275
198.43500,-0.8580828275
198.43550,-1.163277235
198.43600,-2.078860458
198.43650,-2.994443681
198.43700,-2.994443681
198.43750,-1.773666051
198.43800,0.05750039565
198.43850,0.9730836188
198.43900,-0.247694012
198.43950,-2.078860458
198.44000,-1.773666051
198.44050,0.3626948034
198.44100,1.278278026
198.44150,0.3626948034
198.44200,-0.247694012
198.44250,0.3626948034
198.44300,1.583472434
198.44350,1.583472434
198.44400,0.6678892111
198.44450,0.05750039565
198.44500,0.05750039565
198.44550,-0.8580828275
198.44600,-1.468471643
198.44650,0.05750039565
198.44700,3.41463888
198.44750,4.940610919
198.44800,3.719833288
198.44850,1.583472434
198.44900,0.05750039565
198.44950,0.05750039565
198.45000,0.05750039565
198.45050,1.583472434
198.45100,2.804250065
198.45150,2.499055657
198.45200,0.6678892111
198.45250,0.05750039565
198.45300,0.05750039565
198.45350,0.6678892111
198.45400,0.3626948034
198.45450,0.05750039565
198.45500,0.05750039565
198.45550,-1.163277235
198.45600,-3.299638089
198.45650,-5.435998943
198.45700,-4.52041572
198.45750,-1.773666051
198.45800,0.05750039565
198.45850,-0.8580828275
198.45900,-2.384054866
198.45950,-2.078860458
198.46000,0.3626948034
198.46050,2.19386125
198.46100,1.888666842
198.46150,0.3626948034
198.46200,0.05750039565
198.46250,0.05750039565
198.46300,0.3626948034
198.46350,0.3626948034
198.46400,1.583472434
198.46450,3.109444473
198.46500,3.719833288
198.46550,3.109444473
198.46600,2.499055657
198.46650,2.804250065
198.46700,2.804250065
198.46750,3.109444473
198.46800,3.719833288
198.46850,3.719833288
198.46900,2.499055657
198.46950,-0.247694012
198.47000,-2.384054866
198.47050,-2.994443681
198.47100,-2.078860458
198.47150,-2.078860458
198.47200,-2.384054866
198.47250,-1.773666051
198.47300,-0.5528884197
198.47350,0.05750039565
198.47400,0.05750039565
198.47450,0.05750039565
198.47500,-0.247694012
198.47550,-0.5528884197
198.47600,-1.773666051
198.47650,-3.604832497
198.47700,-4.825610128
198.47750,-4.215221312
198.47800,-2.689249274
198.47850,-2.078860458
198.47900,-2.994443681
198.47950,-3.604832497
198.48000,-2.384054866
198.48050,-0.247694012
198.48100,0.05750039565
198.48150,-1.163277235
198.48200,-2.689249274
198.48250,-2.994443681
198.48300,-2.689249274
198.48350,-2.994443681
198.48400,-3.604832497
198.48450,-3.604832497
198.48500,-2.994443681
198.48550,-1.773666051
198.48600,-0.5528884197
198.48650,-0.5528884197
198.48700,-0.8580828275
198.48750,-0.247694012
198.48800,2.19386125
198.48850,4.330222103
198.48900,3.719833288
198.48950,0.3626948034
198.49000,-2.689249274
198.49050,-4.215221312
198.49100,-5.741193351
198.49150,-8.182748612
198.49200,-9.708720651
198.49250,-8.182748612
198.49300,-5.130804535
198.49350,-4.215221312
198.49400,-5.435998943
198.49450,-5.435998943
198.49500,-2.994443681
198.49550,0.05750039565
198.49600,0.3626948034
198.49650,-0.247694012
198.49700,-0.8580828275
198.49750,0.3626948034
198.49800,1.888666842
198.49850,1.888666842
198.49900,0.9730836188
198.49950,0.9730836188
198.50000,2.19386125
198.50050,4.025027696
198.50100,5.245805327
198.50150,5.550999734
198.50200,5.550999734
198.50250,4.940610919
198.50300,3.109444473
198.50350,1.278278026
198.50400,0.3626948034
198.50450,0.6678892111
198.50500,1.278278026
198.50550,1.278278026
198.50600,1.583472434
198.50650,3.41463888
198.50700,4.940610919
198.50750,4.330222103
198.50800,2.499055657
198.50850,1.278278026
198.50900,1.888666842
198.50950,3.719833288
198.51000,3.719833288
198.51050,1.888666842
198.51100,0.6678892111
198.51150,0.9730836188
198.51200,0.6678892111
198.51250,-1.468471643
198.51300,-3.604832497
198.51350,-3.910026904
198.51400,-2.994443681
198.51450,-3.604832497
198.51500,-5.435998943
198.51550,-4.215221312
198.51600,0.05750039565
198.51650,2.499055657
198.51700,1.278278026
198.51750,-0.5528884197
198.51800,0.05750039565
198.51850,1.888666842
198.51900,1.888666842
198.51950,0.05750039565
198.52000,0.3626948034
198.52050,2.499055657
198.52100,2.804250065
198.52150,0.9730836188
198.52200,-0.247694012
198.52250,0.05750039565
198.52300,0.6678892111
198.52350,0.05750039565
198.52400,0.05750039565
198.52450,0.6678892111
198.52500,1.278278026
198.52550,0.3626948034
198.52600,0.05750039565
198.52650,0.3626948034
198.52700,0.9730836188
198.52750,0.9730836188
198.52800,0.9730836188
198.52850,1.888666842
198.52900,2.499055657
198.52950,1.888666842
198.53000,0.9730836188
198.53050,0.6678892111
198.53100,0.9730836188
198.53150,1.278278026
198.53200,1.278278026
198.53250,0.9730836188
198.53300,-0.247694012
198.53350,-1.773666051
198.53400,-1.773666051
198.53450,-0.247694012
198.53500,0.6678892111
198.53550,0.3626948034
198.53600,0.05750039565
198.53650,0.3626948034
198.53700,0.05750039565
198.53750,-0.5528884197
198.53800,-1.163277235
198.53850,-0.5528884197
198.53900,0.05750039565
198.53950,0.05750039565
198.54000,0.05750039565
198.54050,0.05750039565
198.54100,0.9730836188
198.54150,1.278278026
198.54200,1.278278026
198.54250,2.499055657
198.54300,3.719833288
198.54350,4.635416511
198.54400,4.940610919
198.54450,4.635416511
198.54500,3.109444473
198.54550,0.6678892111
198.54600,-0.8580828275
198.54650,-1.163277235
198.54700,-1.468471643
198.54750,-2.994443681
198.54800,-5.435998943
198.54850,-6.656776574
198.54900,-5.741193351
198.54950,-4.52041572
198.55000,-5.130804535
198.55050,-7.267165389
198.55100,-8.48794302
198.55150,-8.182748612
198.55200,-6.351582166
198.55250,-4.52041572
198.55300,-2.689249274
198.55350,-0.247694012
198.55400,1.583472434
198.55450,0.9730836188
198.55500,-1.163277235
198.55550,-2.994443681
198.55600,-2.689249274
198.55650,-1.773666051
198.55700,-2.078860458
198.55750,-2.384054866
198.55800,-2.078860458
198.55850,-1.163277235
198.55900,-1.468471643
198.55950,-2.078860458
198.56000,-2.078860458
198.56050,-1.468471643
198.56100,-1.468471643
198.56150,-2.384054866
198.56200,-2.384054866
198.56250,-0.8580828275
198.56300,0.9730836188
198.56350,1.888666842
198.56400,1.583472434
198.56450,1.278278026
198.56500,0.9730836188
198.56550,0.6678892111
198.56600,0.3626948034
198.56650,0.9730836188
198.56700,1.888666842
198.56750,2.804250065
198.56800,2.804250065
198.56850,2.19386125
198.56900,0.6678892111
198.56950,-0.247694012
198.57000,-0.5528884197
198.57050,0.6678892111
198.57100,1.888666842
198.57150,1.888666842
198.57200,0.3626948034
198.57250,-0.5528884197
198.57300,-0.5528884197
198.57350,0.05750039565
198.57400,0.05750039565
198.57450,0.3626948034
198.57500,0.6678892111
198.57550,0.6678892111
198.57600,0.6678892111
198.57650,0.6678892111
198.57700,0.9730836188
198.57750,1.583472434
198.57800,1.888666842
198.57850,1.583472434
198.57900,0.3626948034
198.57950,0.05750039565
198.58000,0.05750039565
198.58050,1.583472434
198.58100,3.41463888
198.58150,4.330222103
198.58200,4.330222103
198.58250,4.330222103
198.58300,3.719833288
198.58350,2.19386125
198.58400,0.3626948034
198.58450,0.05750039565
198.58500,0.6678892111
198.58550,0.9730836188
198.58600,0.6678892111
198.58650,0.6678892111
198.58700,0.05750039565
198.58750,-1.468471643
198.58800,-3.910026904
198.58850,-4.215221312
198.58900,-1.773666051
198.58950,0.6678892111
198.59000,1.278278026
198.59050,0.9730836188
198.59100,2.499055657
198.59150,5.856194142
198.59200,8.908138219
198.59250,9.823721442
198.59300,8.602943811
198.59350,7.076971773
198.59400,6.771777365
198.59450,7.38216618
198.59500,7.687360588
198.59550,6.16138855
198.59600,4.025027696
198.59650,2.499055657
198.59700,0.3626948034
198.59750,-2.078860458
198.59800,-4.215221312
198.59850,-3.910026904
198.59900,-1.468471643
198.59950,0.3626948034
198.60000,0.6678892111
198.60050,-0.247694012
198.60100,-1.773666051
198.60150,-2.078860458
198.60200,-1.163277235
198.60250,0.05750039565
198.60300,0.3626948034
198.60350,-0.8580828275
198.60400,-3.299638089
198.60450,-4.52041572
198.60500,-3.910026904
198.60550,-2.384054866
198.60600,-0.8580828275
198.60650,-0.5528884197
198.60700,-0.5528884197
198.60750,-0.5528884197
198.60800,-1.163277235
198.60850,-2.078860458
198.60900,-2.384054866
198.60950,-1.468471643
198.61000,0.05750039565
198.61050,0.3626948034
198.61100,-0.247694012
198.61150,-1.468471643
198.61200,-1.773666051
198.61250,-1.773666051
198.61300,-2.078860458
198.61350,-2.689249274
198.61400,-2.078860458
198.61450,0.05750039565
198.61500,0.9730836188
198.61550,0.05750039565
198.61600,-1.773666051
198.61650,-1.773666051
198.61700,0.05750039565
198.61750,2.499055657
198.61800,2.804250065
198.61850,1.278278026
198.61900,-0.247694012
198.61950,-1.163277235
198.62000,-0.8580828275
198.62050,-0.8580828275
198.62100,-1.163277235
198.62150,-0.247694012
198.62200,0.9730836188
198.62250,1.278278026
198.62300,-0.247694012
198.62350,-2.384054866
198.62400,-1.468471643
198.62450,1.583472434
198.62500,2.804250065
198.62550,0.9730836188
198.62600,-0.247694012
198.62650,0.05750039565
198.62700,2.19386125
198.62750,2.804250065
198.62800,1.583472434
198.62850,0.3626948034
198.62900,0.05750039565
198.62950,0.3626948034
198.63000,0.6678892111
198.63050,1.278278026
198.63100,1.888666842
198.63150,1.583472434
198.63200,0.3626948034
198.63250,-0.5528884197
198.63300,-0.247694012
198.63350,0.6678892111
198.63400,0.9730836188
198.63450,-0.247694012
198.63500,-2.384054866
198.63550,-2.994443681
198.63600,-1.773666051
198.63650,0.05750039565
198.63700,1.278278026
198.63750,1.888666842
198.63800,1.278278026
198.63850,0.05750039565
198.63900,-0.8580828275
198.63950,-1.163277235
198.64000,-0.5528884197
198.64050,0.05750039565
198.64100,-0.247694012
198.64150,-0.247694012
198.64200,0.05750039565
198.64250,0.3626948034
198.64300,0.05750039565
198.64350,-0.8580828275
198.64400,-1.468471643
198.64450,-1.163277235
198.64500,0.05750039565
198.64550,0.6678892111
198.64600,0.6678892111
198.64650,0.05750039565
198.64700,0.05750039565
198.64750,0.9730836188
198.64800,1.583472434
198.64850,0.9730836188
198.64900,0.05750039565
198.64950,-0.5528884197
198.65000,-0.5528884197
198.65050,-1.468471643
198.65100,-2.689249274
198.65150,-2.994443681
198.65200,-2.994443681
198.65250,-4.215221312
198.65300,-5.741193351
198.65350,-5.435998943
198.65400,-2.994443681
198.65450,-0.8580828275
198.65500,-0.247694012
198.65550,-0.247694012
198.65600,0.05750039565
198.65650,0.05750039565
198.65700,0.05750039565
198.65750,0.6678892111
198.65800,2.499055657
198.65850,2.499055657
198.65900,0.9730836188
198.65950,0.05750039565
198.66000,1.888666842
198.66050,5.550999734
198.66100,7.687360588
198.66150,7.687360588
198.66200,6.466582957
198.66250,4.940610919
198.66300,3.719833288
198.66350,2.19386125
198.66400,1.278278026
198.66450,0.6678892111
198.66500,0.9730836188
198.66550,0.9730836188
198.66600,0.9730836188
198.66650,0.6678892111
198.66700,0.05750039565
198.66750,-0.8580828275
198.66800,-1.468471643
198.66850,-2.078860458
198.66900,-2.384054866
198.66950,-2.384054866
198.67000,-2.384054866
198.67050,-2.078860458
198.67100,-2.078860458
198.67150,-2.384054866
198.67200,-2.384054866
198.67250,-1.468471643
198.67300,-0.8580828275
198.67350,-0.8580828275
198.67400,-1.163277235
198.67450,-0.247694012
198.67500,0.6678892111
198.67550,0.6678892111
198.67600,-0.5528884197
198.67650,-2.994443681
198.67700,-4.825610128
198.67750,-6.046387758
198.67800,-6.046387758
198.67850,-4.825610128
198.67900,-2.994443681
198.67950,-1.468471643
198.68000,-1.468471643
198.68050,-1.163277235
198.68100,0.05750039565
198.68150,1.278278026
198.68200,0.9730836188
198.68250,-0.247694012
198.68300,-2.078860458
198.68350,-3.299638089
198.68400,-3.604832497
198.68450,-3.604832497
198.68500,-2.689249274
198.68550,-1.163277235
198.68600,0.05750039565
198.68650,1.278278026
198.68700,2.804250065
198.68750,3.109444473
198.68800,2.19386125
198.68850,1.278278026
198.68900,1.278278026
198.68950,2.499055657
198.69000,2.804250065
198.69050,2.19386125
198.69100,0.6678892111
198.69150,0.05750039565
198.69200,0.05750039565
198.69250,-0.8580828275
198.69300,-2.689249274
198.69350,-4.215221312
198.69400,-3.910026904
198.69450,-2.689249274
198.69500,-0.8580828275
198.69550,0.05750039565
198.69600,1.278278026
198.69650,1.888666842
198.69700,2.19386125
198.69750,1.583472434
198.69800,1.583472434
198.69850,2.499055657
198.69900,2.804250065
198.69950,1.583472434
198.70000,-0.247694012
198.70050,-1.773666051
198.70100,-2.689249274
198.70150,-3.299638089
198.70200,-3.604832497
198.70250,-2.994443681
198.70300,-2.689249274
198.70350,-3.299638089
198.70400,-3.910026904
198.70450,-2.994443681
198.70500,-1.163277235
198.70550,0.05750039565
198.70600,-1.163277235
198.70650,-2.689249274
198.70700,-2.689249274
198.70750,-1.468471643
198.70800,0.05750039565
198.70850,0.3626948034
198.70900,-0.247694012
198.70950,-1.163277235
198.71000,-1.163277235
198.71050,-0.8580828275
198.71100,-0.8580828275
198.71150,-1.468471643
198.71200,-2.384054866
198.71250,-2.384054866
198.71300,-1.468471643
198.71350,-0.247694012
198.71400,0.3626948034
198.71450,0.05750039565
198.71500,-0.247694012
198.71550,-1.163277235
198.71600,-1.468471643
198.71650,-1.163277235
198.71700,0.05750039565
198.71750,1.278278026
198.71800,1.888666842
198.71850,1.888666842
198.71900,1.583472434
198.71950,1.888666842
198.72000,3.41463888
198.72050,5.245805327
198.72100,6.16138855
198.72150,4.330222103
198.72200,1.583472434
198.72250,0.05750039565
198.72300,1.278278026
198.72350,3.109444473
198.72400,3.109444473
198.72450,1.888666842
198.72500,1.278278026
198.72550,2.804250065
198.72600,4.635416511
198.72650,5.245805327
198.72700,4.330222103
198.72750,2.804250065
198.72800,1.888666842
198.72850,2.804250065
198.72900,4.330222103
198.72950,5.550999734
198.73000,5.550999734
198.73050,5.550999734
198.73100,5.856194142
198.73150,5.856194142
198.73200,5.550999734
198.73250,5.550999734
198.73300,7.076971773
198.73350,8.602943811
198.73400,7.992554996
198.73450,5.856194142
198.73500,3.41463888
198.73550,2.19386125
198.73600,1.583472434
198.73650,1.278278026
198.73700,0.9730836188
198.73750,0.3626948034
198.73800,-0.247694012
198.73850,-1.163277235
198.73900,-2.078860458
198.73950,-3.299638089
198.74000,-4.215221312
198.74050,-5.130804535
198.74100,-6.046387758
198.74150,-6.656776574
198.74200,-5.741193351
198.74250,-3.299638089
198.74300,-1.163277235
198.74350,-0.247694012
198.74400,0.3626948034
198.74450,1.583472434
198.74500,3.109444473
198.74550,3.109444473
198.74600,3.109444473
198.74650,3.109444473
198.74700,2.499055657
198.74750,0.05750039565
198.74800,-3.299638089
198.74850,-4.825610128
198.74900,-5.435998943
198.74950,-5.741193351
198.75000,-5.130804535
198.75050,-2.994443681
198.75100,-1.773666051
198.75150,-2.994443681
198.75200,-5.130804535
198.75250,-5.130804535
198.75300,-2.994443681
198.75350,-2.384054866
198.75400,-4.215221312
198.75450,-5.435998943
198.75500,-3.910026904
198.75550,-0.8580828275
198.75600,0.3626948034
198.75650,0.6678892111
198.75700,1.278278026
198.75750,0.9730836188
198.75800,-0.247694012
198.75850,-1.468471643
198.75900,-1.468471643
198.75950,-0.5528884197
198.76000,0.3626948034
198.76050,0.9730836188
198.76100,0.9730836188
198.76150,0.05750039565
198.76200,-1.468471643
198.76250,-2.384054866
198.76300,-1.468471643
198.76350,-0.5528884197
198.76400,0.05750039565
198.76450,0.6678892111
198.76500,1.278278026
198.76550,0.6678892111
198.76600,-1.773666051
198.76650,-3.910026904
198.76700,-3.299638089
198.76750,-0.8580828275
198.76800,0.05750039565
198.76850,-0.5528884197
198.76900,-2.078860458
198.76950,-1.773666051
198.77000,-0.5528884197
198.77050,0.05750039565
198.77100,0.05750039565
198.77150,0.9730836188
198.77200,2.19386125
198.77250,2.499055657
198.77300,0.9730836188
198.77350,-0.5528884197
198.77400,-0.8580828275
198.77450,0.6678892111
198.77500,2.499055657
198.77550,3.109444473
198.77600,2.804250065
198.77650,3.109444473
198.77700,3.41463888
198.77750,3.109444473
198.77800,2.499055657
198.77850,2.499055657
198.77900,3.109444473
198.77950,3.109444473
198.78000,2.19386125
198.78050,1.278278026
198.78100,0.9730836188
198.78150,0.6678892111
198.78200,0.05750039565
198.78250,-0.247694012
198.78300,0.05750039565
198.78350,0.9730836188
198.78400,0.9730836188
198.78450,0.9730836188
198.78500,1.583472434
198.78550,2.804250065
198.78600,3.719833288
198.78650,4.025027696
198.78700,4.330222103
198.78750,4.635416511
198.78800,3.719833288
198.78850,1.888666842
198.78900,0.3626948034
198.78950,0.05750039565
198.79000,0.3626948034
198.79050,0.3626948034
198.79100,-0.247694012
198.79150,-2.384054866
198.79200,-3.910026904
198.79250,-3.604832497
198.79300,-2.078860458
198.79350,-0.8580828275
198.79400,-1.773666051
198.79450,-3.604832497
198.79500,-4.52041572
198.79550,-4.215221312
198.79600,-2.994443681
198.79650,-2.078860458
198.79700,-2.078860458
198.79750,-2.994443681
198.79800,-3.910026904
198.79850,-3.604832497
198.79900,-2.994443681
198.79950,-2.994443681
198.80000,-3.910026904
198.80050,-3.910026904
198.80100,-1.468471643
198.80150,1.583472434
198.80200,2.499055657
198.80250,0.3626948034
198.80300,-1.163277235
198.80350,-0.8580828275
198.80400,0.3626948034
198.80450,0.6678892111
198.80500,-0.247694012
198.80550,-0.5528884197
198.80600,0.9730836188
198.80650,3.41463888
198.80700,4.635416511
198.80750,4.330222103
198.80800,4.025027696
198.80850,4.025027696
198.80900,3.41463888
198.80950,2.499055657
198.81000,2.19386125
198.81050,1.888666842
198.81100,1.278278026
198.81150,0.3626948034
198.81200,1.278278026
198.81250,2.804250065
198.81300,2.804250065
198.81350,0.9730836188
198.81400,0.05750039565
198.81450,1.278278026
198.81500,2.804250065
198.81550,1.583472434
198.81600,-0.5528884197
198.81650,-2.384054866
198.81700,-2.994443681
198.81750,-2.994443681
198.81800,-2.384054866
198.81850,-1.163277235
198.81900,0.05750039565
198.81950,0.05750039565
198.82000,-0.5528884197
198.82050,-1.468471643
198.82100,-2.384054866
198.82150,-3.299638089
198.82200,-3.910026904
198.82250,-3.299638089
198.82300,-2.384054866
198.82350,-2.078860458
198.82400,-1.773666051
198.82450,-0.5528884197
198.82500,0.3626948034
198.82550,0.05750039565
198.82600,-1.468471643
198.82650,-3.299638089
198.82700,-3.299638089
198.82750,-1.468471643
198.82800,0.6678892111
198.82850,1.888666842
198.82900,1.278278026
198.82950,0.05750039565
198.83000,-0.247694012
198.83050,0.05750039565
198.83100,1.278278026
198.83150,1.278278026
198.83200,0.3626948034
198.83250,0.05750039565
198.83300,1.583472434
198.83350,4.025027696
198.83400,5.245805327
198.83450,3.719833288
198.83500,1.278278026
198.83550,0.6678892111
198.83600,1.583472434
198.83650,3.109444473
198.83700,4.025027696
198.83750,4.330222103
198.83800,4.330222103
198.83850,4.025027696
198.83900,2.19386125
198.83950,0.05750039565
198.84000,-0.247694012
198.84050,0.05750039565
198.84100,0.3626948034
198.84150,0.6678892111
198.84200,1.278278026
198.84250,2.19386125
198.84300,3.109444473
198.84350,3.41463888
198.84400,3.41463888
198.84450,2.804250065
198.84500,1.888666842
198.84550,0.6678892111
198.84600,0.3626948034
198.84650,1.278278026
198.84700,1.888666842
198.84750,0.6678892111
198.84800,-1.468471643
198.84850,-2.994443681
198.84900,-2.689249274
198.84950,-2.384054866
198.85000,-3.299638089
198.85050,-3.604832497
198.85100,-2.078860458
198.85150,0.3626948034
198.85200,0.6678892111
198.85250,-1.773666051
198.85300,-5.130804535
198.85350,-6.046387758
198.85400,-5.741193351
198.85450,-6.046387758
198.85500,-6.961970981
198.85550,-6.961970981
198.85600,-5.741193351
198.85650,-5.130804535
198.85700,-5.130804535
198.85750,-4.52041572
198.85800,-3.299638089
198.85850,-2.689249274
198.85900,-2.994443681
198.85950,-2.994443681
198.86000,-1.773666051
198.86050,0.05750039565
198.86100,1.278278026
198.86150,1.583472434
198.86200,1.278278026
198.86250,0.9730836188
198.86300,1.278278026
198.86350,2.19386125
198.86400,3.719833288
198.86450,5.550999734
198.86500,7.076971773
198.86550,7.38216618
198.86600,6.466582957
198.86650,4.635416511
198.86700,3.41463888
198.86750,2.499055657
198.86800,1.583472434
198.86850,0.3626948034
198.86900,-0.8580828275
198.86950,-2.078860458
198.87000,-2.078860458
198.87050,-1.468471643
198.87100,0.05750039565
198.87150,2.499055657
198.87200,4.025027696
198.87250,4.330222103
198.87300,4.025027696
198.87350,4.330222103
198.87400,4.635416511
198.87450,4.025027696
198.87500,2.804250065
198.87550,1.583472434
198.87600,0.3626948034
198.87650,0.05750039565
198.87700,-0.5528884197
198.87750,-1.468471643
198.87800,-3.299638089
198.87850,-4.825610128
198.87900,-4.825610128
198.87950,-2.384054866
198.88000,0.3626948034
198.88050,1.583472434
198.88100,0.6678892111
198.88150,-0.247694012
198.88200,0.05750039565
198.88250,0.9730836188
198.88300,1.583472434
198.88350,0.3626948034
198.88400,-0.8580828275
198.88450,-2.689249274
198.88500,-4.825610128
198.88550,-8.182748612
198.88600,-11.23469269
198.88650,-11.23469269
198.88700,-8.48794302
198.88750,-5.741193351
198.88800,-4.215221312
198.88850,-2.994443681
198.88900,-2.078860458
198.88950,-1.773666051
198.89000,-2.994443681
198.89050,-3.910026904
198.89100,-2.689249274
198.89150,-0.247694012
198.89200,0.05750039565
198.89250,-0.5528884197
198.89300,-1.163277235
198.89350,-1.163277235
198.89400,-1.468471643
198.89450,-2.078860458
198.89500,-1.773666051
198.89550,0.3626948034
198.89600,3.109444473
198.89650,4.635416511
198.89700,4.635416511
198.89750,3.719833288
198.89800,3.41463888
198.89850,3.41463888
198.89900,3.41463888
198.89950,2.499055657
198.90000,0.6678892111
198.90050,0.05750039565
198.90100,1.278278026
198.90150,3.719833288
198.90200,4.940610919
198.90250,4.635416511
198.90300,4.330222103
198.90350,4.940610919
198.90400,4.635416511
198.90450,2.499055657
198.90500,0.05750039565
198.90550,-0.5528884197
198.90600,-0.5528884197
198.90650,-1.163277235
198.90700,-2.689249274
198.90750,-2.689249274
198.90800,-0.8580828275
198.90850,0.05750039565
198.90900,-1.773666051
198.90950,-3.604832497
198.91000,-2.994443681
198.91050,-0.247694012
198.91100,1.278278026
198.91150,1.278278026
198.91200,0.3626948034
198.91250,-0.247694012
198.91300,-1.468471643
198.91350,-1.163277235
198.91400,0.05750039565
198.91450,0.9730836188
198.91500,0.3626948034
198.91550,-0.5528884197
198.91600,-0.8580828275
198.91650,-0.5528884197
198.91700,-0.8580828275
198.91750,-1.468471643
198.91800,-0.247694012
198.91850,1.888666842
198.91900,2.19386125
198.91950,0.3626948034
198.92000,-0.8580828275
198.92050,-0.247694012
198.92100,0.05750039565
198.92150,-0.247694012
198.92200,0.05750039565
198.92250,1.583472434
198.92300,3.109444473
198.92350,2.804250065
198.92400,2.19386125
198.92450,2.499055657
198.92500,1.888666842
198.92550,-0.5528884197
198.92600,-2.994443681
198.92650,-3.604832497
198.92700,-2.384054866
198.92750,-1.468471643
198.92800,-1.163277235
198.92850,-0.247694012
198.92900,0.3626948034
198.92950,0.3626948034
198.93000,-0.5528884197
198.93050,-0.8580828275
198.93100,0.05750039565
198.93150,1.888666842
198.93200,3.41463888
198.93250,3.109444473
198.93300,1.888666842
198.93350,0.6678892111
198.93400,0.05750039565
198.93450,0.3626948034
198.93500,0.9730836188
198.93550,0.3626948034
198.93600,-1.163277235
198.93650,-3.299638089
198.93700,-4.52041572
198.93750,-4.215221312
198.93800,-2.384054866
198.93850,-0.8580828275
198.93900,-0.247694012
198.93950,-0.247694012
198.94000,0.05750039565
198.94050,-0.5528884197
198.94100,-1.773666051
198.94150,-2.994443681
198.94200,-2.384054866
198.94250,-0.247694012
198.94300,1.278278026
198.94350,1.278278026
198.94400,0.6678892111
198.94450,0.9730836188
198.94500,1.888666842
198.94550,2.499055657
198.94600,1.888666842
198.94650,1.888666842
198.94700,2.499055657
198.94750,4.025027696
198.94800,4.940610919
198.94850,4.940610919
198.94900,4.025027696
198.94950,2.499055657
198.95000,0.9730836188
198.95050,1.278278026
198.95100,3.109444473
198.95150,4.635416511
198.95200,3.41463888
198.95250,0.9730836188
198.95300,0.05750039565
198.95350,1.278278026
198.95400,2.804250065
198.95450,3.109444473
198.95500,2.19386125
198.95550,1.583472434
198.95600,0.9730836188
198.95650,-0.247694012
198.95700,-2.078860458
198.95750,-2.994443681
198.95800,-2.078860458
198.95850,-1.163277235
198.95900,-1.468471643
198.95950,-2.384054866
198.96000,-2.384054866
198.96050,-1.468471643
198.96100,-1.773666051
198.96150,-3.910026904
198.96200,-6.046387758
198.96250,-5.741193351
198.96300,-3.910026904
198.96350,-2.689249274
198.96400,-2.689249274
198.96450,-2.689249274
198.96500,-0.8580828275
198.96550,0.6678892111
198.96600,0.6678892111
198.96650,0.05750039565
198.96700,0.9730836188
198.96750,3.109444473
198.96800,4.330222103
198.96850,3.109444473
198.96900,1.888666842
198.96950,2.19386125
198.97000,3.109444473
198.97050,3.719833288
198.97100,3.41463888
198.97150,2.499055657
198.97200,0.9730836188
198.97250,-0.8580828275
198.97300,-2.078860458
198.97350,-1.468471643
198.97400,-0.247694012
198.97450,0.05750039565
198.97500,0.05750039565
198.97550,0.05750039565
198.97600,1.583472434
198.97650,2.804250065
198.97700,3.109444473
198.97750,3.41463888
198.97800,3.719833288
198.97850,3.109444473
198.97900,0.9730836188
198.97950,-0.8580828275
198.98000,-1.468471643
198.98050,-0.5528884197
198.98100,-0.247694012
198.98150,-0.5528884197
198.98200,-0.247694012
198.98250,0.05750039565
198.98300,0.05750039565
198.98350,-1.468471643
198.98400,-2.384054866
198.98450,-1.773666051
198.98500,-0.8580828275
198.98550,-0.247694012
198.98600,-0.247694012
198.98650,0.05750039565
198.98700,0.05750039565
198.98750,0.9730836188
198.98800,2.19386125
198.98850,3.719833288
198.98900,4.330222103
198.98950,3.41463888
198.99000,1.583472434
198.99050,0.05750039565
198.99100,-0.5528884197
198.99150,-0.247694012
198.99200,-1.468471643
198.99250,-5.130804535
198.99300,-8.793137428
198.99350,-9.708720651
198.99400,-6.351582166
198.99450,-2.078860458
198.99500,0.05750039565
198.99550,0.05750039565
198.99600,-0.247694012
198.99650,-0.8580828275
198.99700,-1.163277235
198.99750,-1.163277235
198.99800,-0.247694012
198.99850,-0.247694012
198.99900,-1.163277235
198.99950,-2.078860458
199.00000,-1.163277235
199.00050,0.6678892111
199.00100,2.19386125
199.00150,3.109444473
199.00200,4.940610919
199.00250,6.771777365
199.00300,7.076971773
199.00350,5.550999734
199.00400,3.109444473
199.00450,1.583472434
199.00500,0.9730836188
199.00550,0.6678892111
199.00600,0.9730836188
199.00650,1.888666842
199.00700,2.499055657
199.00750,2.19386125
199.00800,1.278278026
199.00850,0.3626948034
199.00900,0.6678892111
199.00950,1.888666842
199.01000,2.499055657
199.01050,1.888666842
199.01100,0.6678892111
199.01150,0.6678892111
199.01200,1.888666842
199.01250,2.499055657
199.01300,1.583472434
199.01350,0.3626948034
199.01400,0.05750039565
199.01450,-0.5528884197
199.01500,-3.299638089
199.01550,-6.656776574
199.01600,-7.572359797
199.01650,-6.351582166
199.01700,-4.52041572
199.01750,-2.689249274
199.01800,-2.078860458
199.01850,-2.689249274
199.01900,-3.910026904
199.01950,-3.910026904
199.02000,-1.773666051
199.02050,0.05750039565
199.02100,0.3626948034
199.02150,0.3626948034
199.02200,1.888666842
199.02250,3.109444473
199.02300,2.19386125
199.02350,0.05750039565
199.02400,-0.247694012
199.02450,0.6678892111
199.02500,1.583472434
199.02550,1.888666842
199.02600,1.888666842
199.02650,1.278278026
199.02700,0.05750039565
199.02750,-0.5528884197
199.02800,0.6678892111
199.02850,2.19386125
199.02900,0.9730836188
199.02950,-2.078860458
199.03000,-2.994443681
199.03050,-0.5528884197
199.03100,2.19386125
199.03150,2.499055657
199.03200,0.3626948034
199.03250,-2.384054866
199.03300,-5.130804535
199.03350,-6.046387758
199.03400,-4.52041572
199.03450,-2.384054866
199.03500,-1.468471643
199.03550,-2.384054866
199.03600,-3.299638089
199.03650,-4.215221312
199.03700,-5.130804535
199.03750,-5.435998943
199.03800,-5.435998943
199.03850,-5.435998943
199.03900,-5.130804535
199.03950,-3.604832497
199.04000,-0.5528884197
199.04050,1.583472434
199.04100,1.888666842
199.04150,1.583472434
199.04200,2.804250065
199.04250,3.109444473
199.04300,0.05750039565
199.04350,-4.215221312
199.04400,-5.435998943
199.04450,-3.604832497
199.04500,-2.078860458
199.04550,-2.384054866
199.04600,-1.163277235
199.04650,1.583472434
199.04700,2.804250065
199.04750,0.9730836188
199.04800,-0.8580828275
199.04850,-0.5528884197
199.04900,0.05750039565
199.04950,-0.247694012
199.05000,-1.163277235
199.05050,0.05750039565
199.05100,2.499055657
199.05150,3.719833288
199.05200,2.804250065
199.05250,1.583472434
199.05300,0.3626948034
199.05350,-0.8580828275
199.05400,-2.078860458
199.05450,-1.773666051
199.05500,-0.247694012
199.05550,0.3626948034
199.05600,0.9730836188
199.05650,0.6678892111
199.05700,0.3626948034
199.05750,0.9730836188
199.05800,2.499055657
199.05850,4.330222103
199.05900,4.330222103
199.05950,2.19386125
199.06000,0.3626948034
199.06050,0.3626948034
199.06100,1.583472434
199.06150,1.888666842
199.06200,0.9730836188
199.06250,-0.247694012
199.06300,-2.384054866
199.06350,-3.910026904
199.06400,-3.299638089
199.06450,-0.247694012
199.06500,2.19386125
199.06550,2.499055657
199.06600,1.278278026
199.06650,1.278278026
199.06700,2.499055657
199.06750,2.499055657
199.06800,1.278278026
199.06850,0.3626948034
199.06900,0.6678892111
199.06950,1.888666842
199.07000,2.19386125
199.07050,2.19386125
199.07100,1.888666842
199.07150,1.583472434
199.07200,1.583472434
199.07250,1.888666842
199.07300,2.499055657
199.07350,3.41463888
199.07400,4.940610919
199.07450,6.16138855
199.07500,5.550999734
199.07550,3.109444473
199.07600,0.9730836188
199.07650,0.3626948034
199.07700,0.05750039565
199.07750,-0.247694012
199.07800,-0.247694012
199.07850,0.3626948034
199.07900,0.9730836188
199.07950,0.9730836188
199.08000,1.278278026
199.08050,2.19386125
199.08100,2.19386125
199.08150,0.9730836188
199.08200,-0.247694012
199.08250,0.05750039565
199.08300,0.05750039565
199.08350,-0.8580828275
199.08400,-2.689249274
199.08450,-2.689249274
199.08500,-0.247694012
199.08550,1.278278026
199.08600,0.9730836188
199.08650,0.3626948034
199.08700,0.6678892111
199.08750,1.583472434
199.08800,1.888666842
199.08850,1.278278026
199.08900,0.6678892111
199.08950,0.05750039565
199.09000,-0.247694012
199.09050,-1.468471643
199.09100,-2.384054866
199.09150,-2.689249274
199.09200,-2.078860458
199.09250,-1.163277235
199.09300,-0.5528884197
199.09350,-0.5528884197
199.09400,-0.247694012
199.09450,0.3626948034
199.09500,1.888666842
199.09550,3.109444473
199.09600,3.41463888
199.09650,2.804250065
199.09700,1.583472434
199.09750,0.6678892111
199.09800,-0.5528884197
199.09850,-2.384054866
199.09900,-3.604832497
199.09950,-3.604832497
199.10000,-2.078860458
199.10050,-0.247694012
199.10100,0.9730836188
199.10150,1.888666842
199.10200,2.499055657
199.10250,2.804250065
199.10300,3.41463888
199.10350,4.025027696
199.10400,4.025027696
199.10450,3.41463888
199.10500,1.888666842
199.10550,-0.5528884197
199.10600,-3.604832497
199.10650,-5.741193351
199.10700,-5.741193351
199.10750,-3.299638089
199.10800,-0.5528884197
199.10850,0.05750039565
199.10900,-0.247694012
199.10950,-0.247694012
199.11000,0.9730836188
199.11050,2.19386125
199.11100,1.888666842
199.11150,1.278278026
199.11200,2.19386125
199.11250,4.330222103
199.11300,4.635416511
199.11350,3.109444473
199.11400,1.278278026
199.11450,0.3626948034
199.11500,0.05750039565
199.11550,0.05750039565
199.11600,0.6678892111
199.11650,2.19386125
199.11700,2.499055657
199.11750,1.888666842
199.11800,0.6678892111
199.11850,-0.247694012
199.11900,-1.163277235
199.11950,-1.773666051
199.12000,-1.163277235
199.12050,-0.247694012
199.12100,0.05750039565
199.12150,-0.5528884197
199.12200,-1.773666051
199.12250,-2.384054866
199.12300,-2.078860458
199.12350,-2.078860458
199.12400,-2.994443681
199.12450,-3.910026904
199.12500,-4.52041572
199.12550,-4.52041572
199.12600,-4.825610128
199.12650,-5.130804535
199.12700,-6.046387758
199.12750,-6.046387758
199.12800,-5.130804535
199.12850,-2.689249274
199.12900,-0.5528884197
199.12950,0.05750039565
199.13000,0.05750039565
199.13050,-1.163277235
199.13100,-1.773666051
199.13150,-1.163277235
199.13200,0.05750039565
199.13250,0.05750039565
199.13300,-1.773666051
199.13350,-3.910026904
199.13400,-4.52041572
199.13450,-2.994443681
199.13500,-1.773666051
199.13550,-2.384054866
199.13600,-3.299638089
199.13650,-2.994443681
199.13700,-1.773666051
199.13750,-0.5528884197
199.13800,1.278278026
199.13850,4.025027696
199.13900,6.466582957
199.13950,6.16138855
199.14000,3.109444473
199.14050,-0.247694012
199.14100,-2.689249274
199.14150,-2.689249274
199.14200,-1.773666051
199.14250,0.05750039565
199.14300,2.19386125
199.14350,3.109444473
199.14400,2.804250065
199.14450,1.583472434
199.14500,0.6678892111
199.14550,0.05750039565
199.14600,0.05750039565
199.14650,0.3626948034
199.14700,1.888666842
199.14750,3.109444473
199.14800,2.499055657
199.14850,0.9730836188
199.14900,-0.5528884197
199.14950,-1.163277235
199.15000,-1.468471643
199.15050,-1.163277235
199.15100,0.05750039565
199.15150,1.278278026
199.15200,0.9730836188
199.15250,-0.247694012
199.15300,-1.773666051
199.15350,-2.384054866
199.15400,-3.299638089
199.15450,-5.130804535
199.15500,-6.656776574
199.15550,-5.435998943
199.15600,-2.078860458
199.15650,0.3626948034
199.15700,0.3626948034
199.15750,-0.8580828275
199.15800,-2.078860458
199.15850,-1.773666051
199.15900,0.05750039565
199.15950,0.9730836188
199.16000,1.278278026
199.16050,0.9730836188
199.16100,0.6678892111
199.16150,0.6678892111
199.16200,0.3626948034
199.16250,0.05750039565
199.16300,0.05750039565
199.16350,0.3626948034
199.16400,1.583472434
199.16450,2.19386125
199.16500,3.109444473
199.16550,4.025027696
199.16600,3.109444473
199.16650,0.9730836188
199.16700,0.05750039565
199.16750,0.05750039565
199.16800,0.9730836188
199.16850,0.3626948034
199.16900,-0.247694012
199.16950,-0.5528884197
199.17000,-1.163277235
199.17050,-1.773666051
199.17100,-2.078860458
199.17150,-1.163277235
199.17200,0.05750039565
199.17250,0.9730836188
199.17300,2.499055657
199.17350,4.635416511
199.17400,5.245805327
199.17450,3.41463888
199.17500,1.583472434
199.17550,1.888666842
199.17600,2.804250065
199.17650,2.804250065
199.17700,2.499055657
199.17750,2.804250065
199.17800,3.109444473
199.17850,2.804250065
199.17900,2.19386125
199.17950,1.888666842
199.18000,1.583472434
199.18050,0.3626948034
199.18100,0.6678892111
199.18150,2.804250065
199.18200,4.330222103
199.18250,3.719833288
199.18300,1.583472434
199.18350,1.278278026
199.18400,2.19386125
199.18450,2.804250065
199.18500,2.499055657
199.18550,2.19386125
199.18600,1.888666842
199.18650,0.9730836188
199.18700,0.3626948034
199.18750,0.9730836188
199.18800,1.888666842
199.18850,1.278278026
199.18900,0.05750039565
199.18950,-0.8580828275
199.19000,-1.468471643
199.19050,-1.468471643
199.19100,-0.5528884197
199.19150,1.278278026
199.19200,3.109444473
199.19250,2.804250065
199.19300,1.888666842
199.19350,1.583472434
199.19400,0.6678892111
199.19450,-1.773666051
199.19500,-5.130804535
199.19550,-6.351582166
199.19600,-7.267165389
199.19650,-9.708720651
199.19700,-12.76066473
199.19750,-12.76066473
199.19800,-10.01391506
199.19850,-6.961970981
199.19900,-5.435998943
199.19950,-4.52041572
199.20000,-3.604832497
199.20050,-2.994443681
199.20100,-2.384054866
199.20150,-2.078860458
199.20200,-1.468471643
199.20250,-1.163277235
199.20300,-0.5528884197
199.20350,0.05750039565
199.20400,0.05750039565
199.20450,-1.468471643
199.20500,-2.994443681
199.20550,-2.384054866
199.20600,-0.8580828275
199.20650,0.3626948034
199.20700,1.278278026
199.20750,2.499055657
199.20800,4.025027696
199.20850,4.635416511
199.20900,4.025027696
199.20950,3.109444473
199.21000,2.499055657
199.21050,1.278278026
199.21100,0.6678892111
199.21150,1.278278026
199.21200,2.19386125
199.21250,1.278278026
199.21300,-0.5528884197
199.21350,-2.384054866
199.21400,-1.773666051
199.21450,-0.247694012
199.21500,0.6678892111
199.21550,0.9730836188
199.21600,1.278278026
199.21650,1.888666842
199.21700,2.19386125
199.21750,1.583472434
199.21800,0.9730836188
199.21850,0.6678892111
199.21900,0.9730836188
199.21950,0.9730836188
199.22000,0.6678892111
199.22050,1.278278026
199.22100,2.19386125
199.22150,1.583472434
199.22200,0.3626948034
199.22250,0.3626948034
199.22300,1.888666842
199.22350,2.499055657
199.22400,1.278278026
199.22450,0.05750039565
199.22500,0.3626948034
199.22550,0.05750039565
199.22600,-3.299638089
199.22650,-8.182748612
199.22700,-10.01391506
199.22750,-7.877554205
199.22800,-5.435998943
199.22850,-3.604832497
199.22900,-0.5528884197
199.22950,3.719833288
199.23000,6.16138855
199.23050,4.330222103
199.23100,1.583472434
199.23150,0.6678892111
199.23200,1.888666842
199.23250,1.888666842
199.23300,0.6678892111
199.23350,0.05750039565
199.23400,0.05750039565
199.23450,0.05750039565
199.23500,0.3626948034
199.23550,1.278278026
199.23600,2.804250065
199.23650,3.719833288
199.23700,3.41463888
199.23750,1.888666842
199.23800,1.583472434
199.23850,3.109444473
199.23900,6.466582957
199.23950,8.602943811
199.24000,7.687360588
199.24050,4.940610919
199.24100,3.109444473
199.24150,2.804250065
199.24200,2.499055657
199.24250,0.9730836188
199.24300,0.6678892111
199.24350,1.888666842
199.24400,3.719833288
199.24450,3.719833288
199.24500,3.109444473
199.24550,2.804250065
199.24600,2.499055657
199.24650,0.6678892111
199.24700,-1.468471643
199.24750,-2.384054866
199.24800,-2.384054866
199.24850,-2.078860458
199.24900,-2.078860458
199.24950,-1.468471643
199.25000,-0.247694012
199.25050,0.05750039565
199.25100,0.05750039565
199.25150,-0.8580828275
199.25200,-1.773666051
199.25250,-2.689249274
199.25300,-3.910026904
199.25350,-4.52041572
199.25400,-4.52041572
199.25450,-3.604832497
199.25500,-1.468471643
199.25550,0.6678892111
199.25600,2.499055657
199.25650,2.499055657
199.25700,1.583472434
199.25750,1.278278026
199.25800,1.583472434
199.25850,1.278278026
199.25900,0.05750039565
199.25950,-0.5528884197
199.26000,-0.247694012
199.26050,0.6678892111
199.26100,1.583472434
199.26150,0.6678892111
199.26200,-1.163277235
199.26250,-1.468471643
199.26300,-0.247694012
199.26350,0.9730836188
199.26400,0.9730836188
199.26450,0.05750039565
199.26500,-0.247694012
199.26550,0.05750039565
199.26600,-0.247694012
199.26650,-0.5528884197
199.26700,-1.163277235
199.26750,-1.163277235
199.26800,-0.8580828275
199.26850,-0.5528884197
199.26900,-0.247694012
199.26950,-0.5528884197
199.27000,-1.468471643
199.27050,-1.163277235
199.27100,0.3626948034
199.27150,1.583472434
199.27200,0.05750039565
199.27250,-2.078860458
199.27300,-1.773666051
199.27350,0.6678892111
199.27400,2.19386125
199.27450,1.278278026
199.27500,0.05750039565
199.27550,-0.5528884197
199.27600,-0.8580828275
199.27650,-2.078860458
199.27700,-2.994443681
199.27750,-2.689249274
199.27800,-1.468471643
199.27850,-1.163277235
199.27900,-1.468471643
199.27950,-2.078860458
199.28000,-2.689249274
199.28050,-2.384054866
199.28100,-0.8580828275
199.28150,0.3626948034
199.28200,0.05750039565
199.28250,-0.8580828275
199.28300,-1.163277235
199.28350,-0.5528884197
199.28400,-0.8580828275
199.28450,-1.773666051
199.28500,-1.773666051
199.28550,-0.8580828275
199.28600,-0.8580828275
199.28650,-2.689249274
199.28700,-4.215221312
199.28750,-3.910026904
199.28800,-2.689249274
199.28850,-1.773666051
199.28900,-1.163277235
199.28950,-0.8580828275
199.29000,-1.468471643
199.29050,-2.689249274
199.29100,-3.604832497
199.29150,-2.689249274
199.29200,-1.163277235
199.29250,0.05750039565
199.29300,0.9730836188
199.29350,0.9730836188
199.29400,0.3626948034
199.29450,0.05750039565
199.29500,0.3626948034
199.29550,1.583472434
199.29600,2.19386125
199.29650,2.19386125
199.29700,2.19386125
199.29750,2.804250065
199.29800,3.719833288
199.29850,4.025027696
199.29900,3.719833288
199.29950,3.41463888
199.30000,3.719833288
199.30050,4.025027696
199.30100,4.025027696
199.30150,3.109444473
199.30200,1.583472434
199.30250,0.9730836188
199.30300,2.19386125
199.30350,4.025027696
199.30400,4.940610919
199.30450,4.635416511
199.30500,3.109444473
199.30550,0.9730836188
199.30600,-2.384054866
199.30650,-6.046387758
199.30700,-7.572359797
199.30750,-6.351582166
199.30800,-3.910026904
199.30850,-2.689249274
199.30900,-2.384054866
199.30950,-2.078860458
199.31000,-1.773666051
199.31050,-1.163277235
199.31100,-1.163277235
199.31150,-1.163277235
199.31200,-0.8580828275
199.31250,0.05750039565
199.31300,0.9730836188
199.31350,1.583472434
199.31400,1.278278026
199.31450,0.6678892111
199.31500,0.3626948034
199.31550,0.6678892111
199.31600,0.9730836188
199.31650,0.9730836188
199.31700,1.583472434
199.31750,3.109444473
199.31800,4.635416511
199.31850,4.940610919
199.31900,3.719833288
199.31950,2.499055657
199.32000,1.888666842
199.32050,1.278278026
199.32100,0.6678892111
199.32150,0.3626948034
199.32200,1.278278026
199.32250,2.499055657
199.32300,2.19386125
199.32350,0.9730836188
199.32400,0.9730836188
199.32450,2.19386125
199.32500,2.499055657
199.32550,1.278278026
199.32600,0.05750039565
199.32650,0.05750039565
199.32700,0.05750039565
199.32750,0.6678892111
199.32800,0.9730836188
199.32850,1.583472434
199.32900,1.583472434
199.32950,1.278278026
199.33000,0.05750039565
199.33050,-0.5528884197
199.33100,-1.163277235
199.33150,-1.163277235
199.33200,-0.5528884197
199.33250,0.05750039565
199.33300,0.6678892111
199.33350,0.6678892111
199.33400,0.3626948034
199.33450,0.05750039565
199.33500,-1.163277235
199.33550,-2.384054866
199.33600,-2.384054866
199.33650,-1.468471643
199.33700,-0.8580828275
199.33750,-1.468471643
199.33800,-1.773666051
199.33850,0.05750039565
199.33900,1.888666842
199.33950,1.888666842
199.34000,-0.247694012
199.34050,-2.384054866
199.34100,-2.689249274
199.34150,-2.384054866
199.34200,-2.994443681
199.34250,-3.604832497
199.34300,-2.994443681
199.34350,-1.773666051
199.34400,-1.773666051
199.34450,-3.604832497
199.34500,-5.130804535
199.34550,-4.825610128
199.34600,-2.384054866
199.34650,0.6678892111
199.34700,2.804250065
199.34750,4.025027696
199.34800,4.025027696
199.34850,3.41463888
199.34900,2.804250065
199.34950,1.278278026
199.35000,-0.247694012
199.35050,-2.078860458
199.35100,-2.689249274
199.35150,-1.163277235
199.35200,0.3626948034
199.35250,0.9730836188
199.35300,0.05750039565
199.35350,-0.8580828275
199.35400,-1.468471643
199.35450,-3.299638089
199.35500,-6.656776574
199.35550,-8.793137428
199.35600,-7.267165389
199.35650,-2.689249274
199.35700,0.6678892111
199.35750,1.278278026
199.35800,0.05750039565
199.35850,-0.247694012
199.35900,-0.8580828275
199.35950,-1.163277235
199.36000,-1.468471643
199.36050,-1.163277235
199.36100,-1.773666051
199.36150,-2.689249274
199.36200,-2.078860458
199.36250,-0.247694012
199.36300,0.9730836188
199.36350,0.6678892111
199.36400,0.05750039565
199.36450,0.6678892111
199.36500,1.888666842
199.36550,1.278278026
199.36600,-0.247694012
199.36650,-0.8580828275
199.36700,0.05750039565
199.36750,0.3626948034
199.36800,0.05750039565
199.36850,-1.468471643
199.36900,-2.384054866
199.36950,-2.384054866
199.37000,-2.078860458
199.37050,-1.468471643
199.37100,-0.247694012
199.37150,0.9730836188
199.37200,2.804250065
199.37250,3.41463888
199.37300,2.499055657
199.37350,0.6678892111
199.37400,0.05750039565
199.37450,0.3626948034
199.37500,0.6678892111
199.37550,0.3626948034
199.37600,0.05750039565
199.37650,0.05750039565
199.37700,0.05750039565
199.37750,-0.247694012
199.37800,-0.247694012
199.37850,0.3626948034
199.37900,0.9730836188
199.37950,0.05750039565
199.38000,-0.247694012
199.38050,-0.247694012
199.38100,0.05750039565
199.38150,0.05750039565
199.38200,-0.8580828275
199.38250,-1.468471643
199.38300,-2.384054866
199.38350,-3.910026904
199.38400,-4.825610128
199.38450,-3.910026904
199.38500,-1.773666051
199.38550,-0.247694012
199.38600,0.05750039565
199.38650,0.05750039565
199.38700,0.05750039565
199.38750,0.3626948034
199.38800,1.583472434
199.38850,3.719833288
199.38900,4.635416511
199.38950,4.330222103
199.39000,3.719833288
199.39050,4.940610919
199.39100,6.771777365
199.39150,6.771777365
199.39200,5.550999734
199.39250,4.940610919
199.39300,4.940610919
199.39350,3.719833288
199.39400,1.888666842
199.39450,1.888666842
199.39500,3.719833288
199.39550,4.025027696
199.39600,1.888666842
199.39650,0.05750039565
199.39700,-1.163277235
199.39750,-2.078860458
199.39800,-3.299638089
199.39850,-3.299638089
199.39900,-1.163277235
199.39950,0.3626948034
199.40000,0.05750039565
199.40050,-1.163277235
199.40100,-1.468471643
199.40150,-1.163277235
199.40200,-1.773666051
199.40250,-2.384054866
199.40300,-2.078860458
199.40350,-0.8580828275
199.40400,-0.247694012
199.40450,-0.5528884197
199.40500,-0.8580828275
199.40550,-1.163277235
199.40600,-1.163277235
199.40650,-1.163277235
199.40700,0.05750039565
199.40750,0.9730836188
199.40800,1.583472434
199.40850,1.888666842
199.40900,2.804250065
199.40950,3.719833288
199.41000,3.41463888
199.41050,2.19386125
199.41100,1.278278026
199.41150,1.583472434
199.41200,1.888666842
199.41250,0.9730836188
199.41300,-0.247694012
199.41350,-0.247694012
199.41400,0.9730836188
199.41450,2.499055657
199.41500,2.499055657
199.41550,1.583472434
199.41600,0.6678892111
199.41650,1.278278026
199.41700,1.888666842
199.41750,1.583472434
199.41800,1.583472434
199.41850,2.19386125
199.41900,3.109444473
199.41950,3.109444473
199.42000,2.19386125
199.42050,0.9730836188
199.42100,0.3626948034
199.42150,0.9730836188
199.42200,1.888666842
199.42250,2.499055657
199.42300,1.583472434
199.42350,0.05750039565
199.42400,-0.247694012
199.42450,-0.247694012
199.42500,-0.247694012
199.42550,0.05750039565
199.42600,0.3626948034
199.42650,1.278278026
199.42700,0.9730836188
199.42750,0.3626948034
199.42800,0.3626948034
199.42850,0.9730836188
199.42900,0.6678892111
199.42950,0.05750039565
199.43000,-0.5528884197
199.43050,-1.163277235
199.43100,-2.078860458
199.43150,-2.384054866
199.43200,-0.5528884197
199.43250,1.888666842
199.43300,1.888666842
199.43350,0.05750039565
199.43400,-0.247694012
199.43450,2.19386125
199.43500,4.635416511
199.43550,4.635416511
199.43600,2.804250065
199.43650,1.278278026
199.43700,0.05750039565
199.43750,-2.078860458
199.43800,-3.299638089
199.43850,-2.689249274
199.43900,-1.468471643
199.43950,-1.468471643
199.44000,-2.078860458
199.44050,-2.078860458
199.44100,-1.773666051
199.44150,-1.773666051
199.44200,-0.5528884197
199.44250,0.9730836188
199.44300,1.888666842
199.44350,0.6678892111
199.44400,-0.8580828275
199.44450,-1.773666051
199.44500,-2.384054866
199.44550,-2.994443681
199.44600,-3.604832497
199.44650,-3.299638089
199.44700,-2.689249274
199.44750,-2.078860458
199.44800,-1.468471643
199.44850,-0.247694012
199.44900,0.05750039565
199.44950,-0.247694012
199.45000,-1.468471643
199.45050,-1.468471643
199.45100,-1.163277235
199.45150,-1.773666051
199.45200,-2.689249274
199.45250,-2.384054866
199.45300,-0.8580828275
199.45350,-0.8580828275
199.45400,-2.078860458
199.45450,-2.994443681
199.45500,-1.773666051
199.45550,-0.5528884197
199.45600,-0.5528884197
199.45650,-0.8580828275
199.45700,0.05750039565
199.45750,1.278278026
199.45800,1.888666842
199.45850,0.9730836188
199.45900,-0.247694012
199.45950,-0.8580828275
199.46000,0.3626948034
199.46050,2.19386125
199.46100,2.804250065
199.46150,2.19386125
199.46200,0.9730836188
199.46250,0.6678892111
199.46300,0.6678892111
199.46350,0.6678892111
199.46400,0.6678892111
199.46450,1.888666842
199.46500,2.499055657
199.46550,1.583472434
199.46600,-0.247694012
199.46650,-1.773666051
199.46700,-1.468471643
199.46750,0.05750039565
199.46800,0.3626948034
199.46850,0.6678892111
199.46900,1.583472434
199.46950,2.499055657
199.47000,2.499055657
199.47050,1.278278026
199.47100,0.05750039565
199.47150,0.05750039565
199.47200,0.9730836188
199.47250,0.9730836188
199.47300,0.05750039565
199.47350,-1.773666051
199.47400,-2.994443681
199.47450,-3.299638089
199.47500,-3.604832497
199.47550,-5.130804535
199.47600,-6.351582166
199.47650,-6.351582166
199.47700,-5.435998943
199.47750,-5.130804535
199.47800,-6.046387758
199.47850,-6.656776574
199.47900,-6.046387758
199.47950,-4.52041572
199.48000,-2.994443681
199.48050,-2.994443681
199.48100,-3.604832497
199.48150,-3.604832497
199.48200,-2.689249274
199.48250,-0.247694012
199.48300,1.583472434
199.48350,2.499055657
199.48400,2.499055657
199.48450,3.109444473
199.48500,4.635416511
199.48550,6.771777365
199.48600,7.687360588
199.48650,6.771777365
199.48700,5.856194142
199.48750,5.245805327
199.48800,4.330222103
199.48850,2.804250065
199.48900,1.278278026
199.48950,0.3626948034
199.49000,0.3626948034
199.49050,0.9730836188
199.49100,0.9730836188
199.49150,0.6678892111
199.49200,0.3626948034
199.49250,0.6678892111
199.49300,1.888666842
199.49350,2.804250065
199.49400,2.499055657
199.49450,1.278278026
199.49500,0.05750039565
199.49550,-0.5528884197
199.49600,-2.078860458
199.49650,-2.994443681
199.49700,-1.773666051
199.49750,0.3626948034
199.49800,1.888666842
199.49850,1.278278026
199.49900,0.3626948034
199.49950,0.6678892111
199.50000,1.888666842
199.50050,2.804250065
199.50100,3.109444473
199.50150,2.499055657
199.50200,0.6678892111
199.50250,-0.8580828275
199.50300,-0.8580828275
199.50350,0.3626948034
199.50400,1.278278026
199.50450,-0.5528884197
199.50500,-2.384054866
199.50550,-2.078860458
199.50600,-0.247694012
199.50650,0.3626948034
199.50700,0.05750039565
199.50750,0.3626948034
199.50800,1.583472434
199.50850,2.804250065
199.50900,3.109444473
199.50950,3.109444473
199.51000,2.804250065
199.51050,1.583472434
199.51100,0.6678892111
199.51150,0.6678892111
199.51200,0.9730836188
199.51250,0.3626948034
199.51300,-0.5528884197
199.51350,-1.163277235
199.51400,-0.5528884197
199.51450,-0.247694012
199.51500,-0.8580828275
199.51550,-0.5528884197
199.51600,0.05750039565
199.51650,0.05750039565
199.51700,-0.5528884197
199.51750,-2.384054866
199.51800,-3.299638089
199.51850,-3.910026904
199.51900,-3.910026904
199.51950,-2.689249274
199.52000,-0.5528884197
199.52050,0.6678892111
199.52100,1.583472434
199.52150,2.19386125
199.52200,2.804250065
199.52250,2.499055657
199.52300,1.278278026
199.52350,-0.247694012
199.52400,-1.468471643
199.52450,-2.078860458
199.52500,-1.468471643
199.52550,0.3626948034
199.52600,4.025027696
199.52650,6.466582957
199.52700,6.771777365
199.52750,4.940610919
199.52800,3.109444473
199.52850,2.499055657
199.52900,2.499055657
199.52950,2.499055657
199.53000,1.278278026
199.53050,0.05750039565
199.53100,-0.5528884197
199.53150,-0.8580828275
199.53200,-1.468471643
199.53250,-2.994443681
199.53300,-4.52041572
199.53350,-5.435998943
199.53400,-6.351582166
199.53450,-7.267165389
199.53500,-8.182748612
199.53550,-7.572359797
199.53600,-6.656776574
199.53650,-6.656776574
199.53700,-6.656776574
199.53750,-5.435998943
199.53800,-3.910026904
199.53850,-3.604832497
199.53900,-4.215221312
199.53950,-3.604832497
199.54000,-1.468471643
199.54050,-0.247694012
199.54100,-0.247694012
199.54150,-0.247694012
199.54200,0.6678892111
199.54250,1.888666842
199.54300,1.278278026
199.54350,-0.247694012
199.54400,-1.163277235
199.54450,-2.078860458
199.54500,-3.910026904
199.54550,-5.435998943
199.54600,-5.741193351
199.54650,-4.52041572
199.54700,-3.604832497
199.54750,-2.689249274
199.54800,-1.163277235
199.54850,0.3626948034
199.54900,1.583472434
199.54950,3.109444473
199.55000,4.940610919
199.55050,6.16138855
199.55100,4.940610919
199.55150,2.19386125
199.55200,0.05750039565
199.55250,-0.8580828275
199.55300,-3.299638089
199.55350,-7.572359797
199.55400,-11.23469269
199.55450,-10.92949828
199.55500,-7.877554205
199.55550,-4.825610128
199.55600,-3.299638089
199.55650,-2.384054866
199.55700,-1.773666051
199.55750,-0.8580828275
199.55800,-0.5528884197
199.55850,0.05750039565
199.55900,0.9730836188
199.55950,3.109444473
199.56000,5.550999734
199.56050,6.466582957
199.56100,4.940610919
199.56150,2.19386125
199.56200,1.278278026
199.56250,4.025027696
199.56300,7.687360588
199.56350,8.908138219
199.56400,6.16138855
199.56450,2.804250065
199.56500,1.888666842
199.56550,3.109444473
199.56600,3.109444473
199.56650,1.888666842
199.56700,1.583472434
199.56750,2.804250065
199.56800,4.025027696
199.56850,3.41463888
199.56900,2.19386125
199.56950,2.499055657
199.57000,3.109444473
199.57050,2.804250065
199.57100,1.888666842
199.57150,1.888666842
199.57200,1.583472434
199.57250,-0.247694012
199.57300,-2.689249274
199.57350,-2.689249274
199.57400,-0.5528884197
199.57450,0.6678892111
199.57500,0.05750039565
199.57550,0.05750039565
199.57600,0.9730836188
199.57650,2.19386125
199.57700,1.888666842
199.57750,1.278278026
199.57800,2.499055657
199.57850,4.940610919
199.57900,5.856194142
199.57950,5.245805327
199.58000,4.025027696
199.58050,3.41463888
199.58100,2.499055657
199.58150,0.6678892111
199.58200,0.05750039565
199.58250,0.9730836188
199.58300,2.804250065
199.58350,3.41463888
199.58400,1.583472434
199.58450,0.3626948034
199.58500,1.278278026
199.58550,4.025027696
199.58600,5.856194142
199.58650,4.635416511
199.58700,1.888666842
199.58750,0.3626948034
199.58800,0.9730836188
199.58850,2.19386125
199.58900,2.499055657
199.58950,1.278278026
199.59000,0.05750039565
199.59050,-0.8580828275
199.59100,-1.468471643
199.59150,-1.773666051
199.59200,-1.163277235
199.59250,-0.247694012
199.59300,0.05750039565
199.59350,-0.247694012
199.59400,-1.163277235
199.59450,-0.5528884197
199.59500,0.9730836188
199.59550,3.109444473
199.59600,4.330222103
199.59650,4.025027696
199.59700,3.109444473
199.59750,1.583472434
199.59800,0.05750039565
199.59850,0.05750039565
199.59900,1.888666842
199.59950,4.025027696
199.60000,4.635416511
199.60050,2.804250065
199.60100,0.05750039565
199.60150,-2.384054866
199.60200,-2.384054866
199.60250,-1.163277235
199.60300,0.05750039565
199.60350,0.3626948034
199.60400,-0.247694012
199.60450,-1.468471643
199.60500,-2.384054866
199.60550,-2.384054866
199.60600,-1.468471643
199.60650,0.05750039565
199.60700,1.888666842
199.60750,2.499055657
199.60800,0.6678892111
199.60850,-2.384054866
199.60900,-5.741193351
199.60950,-7.877554205
199.61000,-9.403526243
199.61050,-9.708720651
199.61100,-8.182748612
199.61150,-5.130804535
199.61200,-2.078860458
199.61250,-0.247694012
199.61300,0.05750039565
199.61350,-0.247694012
199.61400,-0.5528884197
199.61450,-0.5528884197
199.61500,0.05750039565
199.61550,-0.247694012
199.61600,-0.5528884197
199.61650,-0.5528884197
199.61700,-0.247694012
199.61750,-0.247694012
199.61800,-1.468471643
199.61850,-2.078860458
199.61900,-2.078860458
199.61950,-2.384054866
199.62000,-3.299638089
199.62050,-3.604832497
199.62100,-1.468471643
199.62150,0.9730836188
199.62200,1.583472434
199.62250,0.05750039565
199.62300,-1.163277235
199.62350,-0.247694012
199.62400,0.05750039565
199.62450,-1.468471643
199.62500,-2.384054866
199.62550,-1.163277235
199.62600,0.3626948034
199.62650,0.05750039565
199.62700,-1.468471643
199.62750,-2.078860458
199.62800,0.05750039565
199.62850,2.19386125
199.62900,3.41463888
199.62950,3.719833288
199.63000,4.025027696
199.63050,4.330222103
199.63100,4.330222103
199.63150,4.025027696
199.63200,3.109444473
199.63250,1.888666842
199.63300,2.499055657
199.63350,4.330222103
199.63400,5.245805327
199.63450,4.025027696
199.63500,1.888666842
199.63550,0.6678892111
199.63600,0.05750039565
199.63650,-0.5528884197
199.63700,-0.8580828275
199.63750,0.05750039565
199.63800,1.583472434
199.63850,1.888666842
199.63900,1.278278026
199.63950,1.278278026
199.64000,1.278278026
199.64050,0.05750039565
199.64100,-1.163277235
199.64150,-1.773666051
199.64200,-2.384054866
199.64250,-5.130804535
199.64300,-9.403526243
199.64350,-11.8450815
199.64400,-10.92949828
199.64450,-7.877554205
199.64500,-4.825610128
199.64550,-2.078860458
199.64600,-0.247694012
199.64650,-0.247694012
199.64700,-0.5528884197
199.64750,-0.247694012
199.64800,0.05750039565
199.64850,0.05750039565
199.64900,-0.247694012
199.64950,0.05750039565
199.65000,0.9730836188
199.65050,0.9730836188
199.65100,0.6678892111
199.65150,0.6678892111
199.65200,0.9730836188
199.65250,0.3626948034
199.65300,0.05750039565
199.65350,0.05750039565
199.65400,0.3626948034
199.65450,-0.247694012
199.65500,-1.773666051
199.65550,-2.078860458
199.65600,-0.8580828275
199.65650,0.6678892111
199.65700,1.583472434
199.65750,1.583472434
199.65800,0.9730836188
199.65850,0.3626948034
199.65900,0.9730836188
199.65950,1.583472434
199.66000,1.583472434
199.66050,1.278278026
199.66100,2.19386125
199.66150,3.41463888
199.66200,3.41463888
199.66250,2.19386125
199.66300,1.888666842
199.66350,4.025027696
199.66400,4.940610919
199.66450,3.109444473
199.66500,0.3626948034
199.66550,0.6678892111
199.66600,2.804250065
199.66650,3.109444473
199.66700,2.19386125
199.66750,2.499055657
199.66800,3.109444473
199.66850,2.19386125
199.66900,0.05750039565
199.66950,0.05750039565
199.67000,1.278278026
199.67050,0.9730836188
199.67100,-1.773666051
199.67150,-5.435998943
199.67200,-5.435998943
199.67250,-2.384054866
199.67300,0.05750039565
199.67350,0.9730836188
199.67400,0.3626948034
199.67450,-0.247694012
199.67500,-0.8580828275
199.67550,-1.468471643
199.67600,-2.078860458
199.67650,-2.384054866
199.67700,-2.078860458
199.67750,-1.468471643
199.67800,-1.163277235
199.67850,-0.5528884197
199.67900,0.3626948034
199.67950,0.9730836188
199.68000,0.3626948034
199.68050,-0.8580828275
199.68100,-1.163277235
199.68150,0.05750039565
199.68200,0.6678892111
199.68250,0.3626948034
199.68300,0.05750039565
199.68350,-0.247694012
199.68400,-0.8580828275
199.68450,-1.773666051
199.68500,-1.773666051
199.68550,-0.8580828275
199.68600,0.05750039565
199.68650,-0.8580828275
199.68700,-2.078860458
199.68750,-1.468471643
199.68800,0.05750039565
199.68850,0.3626948034
199.68900,0.3626948034
199.68950,0.3626948034
199.69000,0.9730836188
199.69050,1.278278026
199.69100,1.583472434
199.69150,2.19386125
199.69200,2.499055657
199.69250,2.804250065
199.69300,4.330222103
199.69350,6.466582957
199.69400,6.771777365
199.69450,4.635416511
199.69500,3.109444473
199.69550,3.41463888
199.69600,3.109444473
199.69650,0.9730836188
199.69700,-0.5528884197
199.69750,0.05750039565
199.69800,0.6678892111
199.69850,-0.5528884197
199.69900,-3.299638089
199.69950,-3.910026904
199.70000,-3.910026904
199.70050,-6.046387758
199.70100,-8.48794302
199.70150,-8.793137428
199.70200,-6.656776574
199.70250,-5.130804535
199.70300,-4.215221312
199.70350,-2.384054866
199.70400,0.05750039565
199.70450,0.05750039565
199.70500,-1.163277235
199.70550,-1.163277235
199.70600,-0.5528884197
199.70650,-1.468471643
199.70700,-3.604832497
199.70750,-3.299638089
199.70800,0.05750039565
199.70850,3.109444473
199.70900,3.719833288
199.70950,2.804250065
199.71000,1.888666842
199.71050,1.278278026
199.71100,0.3626948034
199.71150,-0.5528884197
199.71200,-0.5528884197
199.71250,0.05750039565
199.71300,0.6678892111
199.71350,0.9730836188
199.71400,0.3626948034
199.71450,0.05750039565
199.71500,0.6678892111
199.71550,3.109444473
199.71600,5.245805327
199.71650,5.245805327
199.71700,2.804250065
199.71750,0.6678892111
199.71800,0.6678892111
199.71850,1.888666842
199.71900,3.41463888
199.71950,3.719833288
199.72000,2.19386125
199.72050,-0.247694012
199.72100,-2.078860458
199.72150,-2.078860458
199.72200,-0.5528884197
199.72250,0.05750039565
199.72300,0.05750039565
199.72350,0.3626948034
199.72400,0.05750039565
199.72450,0.05750039565
199.72500,-0.8580828275
199.72550,-1.773666051
199.72600,-2.994443681
199.72650,-4.52041572
199.72700,-4.825610128
199.72750,-3.299638089
199.72800,-1.163277235
199.72850,0.05750039565
199.72900,0.6678892111
199.72950,0.6678892111
199.73000,0.05750039565
199.73050,-1.468471643
199.73100,-1.468471643
199.73150,0.6678892111
199.73200,2.804250065
199.73250,2.804250065
199.73300,1.888666842
199.73350,1.888666842
199.73400,1.278278026
199.73450,-0.8580828275
199.73500,-3.299638089
199.73550,-2.994443681
199.73600,-0.8580828275
199.73650,0.3626948034
199.73700,0.6678892111
199.73750,1.888666842
199.73800,2.804250065
199.73850,1.888666842
199.73900,0.05750039565
199.73950,-0.247694012
199.74000,0.9730836188
199.74050,0.6678892111
199.74100,-1.163277235
199.74150,-2.689249274
199.74200,-1.163277235
199.74250,0.9730836188
199.74300,1.278278026
199.74350,1.278278026
199.74400,2.19386125
199.74450,3.41463888
199.74500,3.109444473
199.74550,1.278278026
199.74600,0.3626948034
199.74650,0.3626948034
199.74700,0.05750039565
199.74750,-0.247694012
199.74800,-0.8580828275
199.74850,-1.163277235
199.74900,-2.078860458
199.74950,-2.384054866
199.75000,-2.078860458
199.75050,-1.773666051
199.75100,-2.384054866
199.75150,-3.299638089
199.75200,-3.299638089
199.75250,-2.689249274
199.75300,-1.773666051
199.75350,-0.8580828275
199.75400,0.05750039565
199.75450,0.05750039565
199.75500,-1.163277235
199.75550,-2.078860458
199.75600,-0.8580828275
199.75650,0.6678892111
199.75700,0.9730836188
199.75750,-0.247694012
199.75800,-1.468471643
199.75850,-1.468471643
199.75900,-2.078860458
199.75950,-2.689249274
199.76000,-2.689249274
199.76050,-1.163277235
199.76100,0.6678892111
199.76150,1.583472434
199.76200,1.888666842
199.76250,1.888666842
199.76300,1.583472434
199.76350,0.6678892111
199.76400,-0.247694012
199.76450,-0.247694012
199.76500,0.6678892111
199.76550,2.19386125
199.76600,2.804250065
199.76650,1.888666842
199.76700,0.6678892111
199.76750,0.6678892111
199.76800,1.888666842
199.76850,2.804250065
199.76900,2.499055657
199.76950,0.9730836188
199.77000,0.05750039565
199.77050,0.05750039565
199.77100,0.9730836188
199.77150,1.278278026
199.77200,0.6678892111
199.77250,-0.5528884197
199.77300,-1.163277235
199.77350,-0.5528884197
199.77400,0.6678892111
199.77450,0.6678892111
199.77500,-0.247694012
199.77550,-1.468471643
199.77600,-1.468471643
199.77650,-0.8580828275
199.77700,-0.5528884197
199.77750,0.05750039565
199.77800,0.6678892111
199.77850,1.888666842
199.77900,2.19386125
199.77950,2.499055657
199.78000,2.19386125
199.78050,1.278278026
199.78100,0.05750039565
199.78150,-0.247694012
199.78200,0.3626948034
199.78250,1.278278026
199.78300,1.583472434
199.78350,1.888666842
199.78400,3.109444473
199.78450,4.330222103
199.78500,4.330222103
199.78550,2.804250065
199.78600,1.278278026
199.78650,0.6678892111
199.78700,0.05750039565
199.78750,-0.5528884197
199.78800,-0.8580828275
199.78850,-0.8580828275
199.78900,-0.8580828275
199.78950,-0.8580828275
199.79000,0.05750039565
199.79050,0.3626948034
199.79100,0.05750039565
199.79150,-0.5528884197
199.79200,0.05750039565
199.79250,1.888666842
199.79300,3.109444473
199.79350,3.109444473
199.79400,2.804250065
199.79450,1.583472434
199.79500,-0.247694012
199.79550,-4.215221312
199.79600,-8.182748612
199.79650,-10.31910947
199.79700,-10.31910947
199.79750,-9.098331835
199.79800,-6.961970981
199.79850,-4.825610128
199.79900,-2.994443681
199.79950,-1.468471643
199.80000,-0.247694012
199.80050,0.3626948034
199.80100,0.9730836188
199.80150,0.9730836188
199.80200,0.3626948034
199.80250,0.3626948034
199.80300,1.888666842
199.80350,4.635416511
199.80400,7.076971773
199.80450,6.466582957
199.80500,4.025027696
199.80550,1.278278026
199.80600,0.05750039565
199.80650,0.05750039565
199.80700,0.05750039565
199.80750,0.05750039565
199.80800,-0.247694012
199.80850,-0.5528884197
199.80900,-0.5528884197
199.80950,0.05750039565
199.81000,0.6678892111
199.81050,0.05750039565
199.81100,-2.078860458
199.81150,-4.52041572
199.81200,-5.435998943
199.81250,-4.52041572
199.81300,-2.689249274
199.81350,-1.163277235
199.81400,-0.247694012
199.81450,-0.5528884197
199.81500,-2.078860458
199.81550,-2.994443681
199.81600,-2.384054866
199.81650,-1.163277235
199.81700,0.05750039565
199.81750,0.6678892111
199.81800,1.583472434
199.81850,1.888666842
199.81900,1.278278026
199.81950,0.3626948034
199.82000,0.05750039565
199.82050,0.3626948034
199.82100,0.05750039565
199.82150,-0.5528884197
199.82200,-0.5528884197
199.82250,-0.247694012
199.82300,0.05750039565
199.82350,0.3626948034
199.82400,0.9730836188
199.82450,0.6678892111
199.82500,-0.8580828275
199.82550,-2.078860458
199.82600,-0.5528884197
199.82650,1.583472434
199.82700,2.19386125
199.82750,0.9730836188
199.82800,0.6678892111
199.82850,1.888666842
199.82900,2.499055657
199.82950,1.583472434
199.83000,0.9730836188
199.83050,1.888666842
199.83100,2.804250065
199.83150,1.888666842
199.83200,0.9730836188
199.83250,1.278278026
199.83300,1.583472434
199.83350,0.6678892111
199.83400,0.05750039565
199.83450,0.9730836188
199.83500,3.41463888
199.83550,4.330222103
199.83600,3.109444473
199.83650,0.9730836188
199.83700,-0.247694012
199.83750,-0.5528884197
199.83800,0.05750039565
199.83850,0.9730836188
199.83900,1.888666842
199.83950,1.583472434
199.84000,0.05750039565
199.84050,-0.8580828275
199.84100,-0.8580828275
199.84150,-0.247694012
199.84200,0.05750039565
199.84250,-0.5528884197
199.84300,-1.773666051
199.84350,-2.689249274
199.84400,-2.689249274
199.84450,-2.384054866
199.84500,-2.384054866
199.84550,-2.994443681
199.84600,-3.604832497
199.84650,-3.604832497
199.84700,-2.994443681
199.84750,-2.384054866
199.84800,-0.8580828275
199.84850,0.3626948034
199.84900,1.888666842
199.84950,2.804250065
199.85000,3.719833288
199.85050,4.025027696
199.85100,3.41463888
199.85150,2.499055657
199.85200,2.499055657
199.85250,3.719833288
199.85300,4.330222103
199.85350,3.719833288
199.85400,2.499055657
199.85450,1.888666842
199.85500,0.9730836188
199.85550,-0.247694012
199.85600,-1.773666051
199.85650,-2.384054866
199.85700,-1.773666051
199.85750,-0.247694012
199.85800,0.9730836188
199.85850,1.888666842
199.85900,1.583472434
199.85950,0.6678892111
199.86000,0.3626948034
199.86050,0.3626948034
199.86100,0.05750039565
199.86150,0.05750039565
199.86200,0.05750039565
199.86250,0.05750039565
199.86300,-0.247694012
199.86350,-1.163277235
199.86400,-0.5528884197
199.86450,0.9730836188
199.86500,1.583472434
199.86550,0.9730836188
199.86600,0.6678892111
199.86650,1.278278026
199.86700,2.19386125
199.86750,2.19386125
199.86800,1.583472434
199.86850,1.278278026
199.86900,0.3626948034
199.86950,-0.5528884197
199.87000,-0.8580828275
199.87050,0.05750039565
199.87100,0.9730836188
199.87150,1.278278026
199.87200,1.278278026
199.87250,2.19386125
199.87300,3.719833288
199.87350,4.635416511
199.87400,4.635416511
199.87450,4.635416511
199.87500,4.025027696
199.87550,2.19386125
199.87600,0.3626948034
199.87650,-0.247694012
199.87700,0.05750039565
199.87750,0.05750039565
199.87800,0.3626948034
199.87850,0.6678892111
199.87900,1.278278026
199.87950,0.9730836188
199.88000,0.05750039565
199.88050,-0.247694012
199.88100,0.05750039565
199.88150,0.3626948034
199.88200,0.3626948034
199.88250,0.05750039565
199.88300,0.05750039565
199.88350,0.9730836188
199.88400,2.19386125
199.88450,2.804250065
199.88500,2.19386125
199.88550,0.9730836188
199.88600,0.05750039565
199.88650,0.6678892111
199.88700,2.19386125
199.88750,3.41463888
199.88800,2.804250065
199.88850,1.888666842
199.88900,1.888666842
199.88950,2.19386125
199.89000,2.19386125
199.89050,1.278278026
199.89100,1.278278026
199.89150,1.583472434
199.89200,0.9730836188
199.89250,-0.247694012
199.89300,-1.468471643
199.89350,-1.163277235
199.89400,-0.8580828275
199.89450,-1.163277235
199.89500,-2.384054866
199.89550,-3.299638089
199.89600,-3.604832497
199.89650,-3.910026904
199.89700,-4.52041572
199.89750,-5.435998943
199.89800,-5.435998943
199.89850,-4.825610128
199.89900,-3.604832497
199.89950,-2.994443681
199.90000,-2.689249274
199.90050,-2.384054866
199.90100,-2.384054866
199.90150,-2.689249274
199.90200,-2.994443681
199.90250,-2.078860458
199.90300,0.05750039565
199.90350,0.6678892111
199.90400,-0.8580828275
199.90450,-3.299638089
199.90500,-3.910026904
199.90550,-2.384054866
199.90600,-0.8580828275
199.90650,-0.247694012
199.90700,0.3626948034
199.90750,2.19386125
199.90800,2.804250065
199.90850,0.9730836188
199.90900,-0.5528884197
199.90950,-1.468471643
199.91000,-1.163277235
199.91050,-0.5528884197
199.91100,-0.247694012
199.91150,0.05750039565
199.91200,-0.5528884197
199.91250,-2.994443681
199.91300,-5.741193351
199.91350,-6.656776574
199.91400,-5.741193351
199.91450,-4.215221312
199.91500,-3.910026904
199.91550,-3.910026904
199.91600,-3.299638089
199.91650,-2.994443681
199.91700,-3.604832497
199.91750,-3.910026904
199.91800,-3.604832497
199.91850,-2.384054866
199.91900,-1.468471643
199.91950,-0.8580828275
199.92000,-0.247694012
199.92050,0.3626948034
199.92100,0.6678892111
199.92150,0.05750039565
199.92200,-1.468471643
199.92250,-2.994443681
199.92300,-2.078860458
199.92350,0.05750039565
199.92400,0.9730836188
199.92450,0.6678892111
199.92500,0.3626948034
199.92550,1.278278026
199.92600,2.499055657
199.92650,2.19386125
199.92700,0.3626948034
199.92750,-0.5528884197
199.92800,-1.163277235
199.92850,-1.773666051
199.92900,-2.384054866
199.92950,-2.078860458
199.93000,-0.8580828275
199.93050,-0.247694012
199.93100,-0.5528884197
199.93150,-0.5528884197
199.93200,-0.5528884197
199.93250,-0.8580828275
199.93300,-1.468471643
199.93350,-2.078860458
199.93400,-1.468471643
199.93450,-1.468471643
199.93500,-1.163277235
199.93550,-0.247694012
199.93600,1.583472434
199.93650,2.499055657
199.93700,1.888666842
199.93750,0.9730836188
199.93800,1.278278026
199.93850,2.499055657
199.93900,2.499055657
199.93950,1.888666842
199.94000,1.583472434
199.94050,1.888666842
199.94100,2.499055657
199.94150,2.499055657
199.94200,1.888666842
199.94250,1.278278026
199.94300,1.583472434
199.94350,2.804250065
199.94400,4.025027696
199.94450,4.025027696
199.94500,2.804250065
199.94550,1.278278026
199.94600,0.6678892111
199.94650,0.9730836188
199.94700,1.278278026
199.94750,0.3626948034
199.94800,-1.468471643
199.94850,-2.689249274
199.94900,-2.078860458
199.94950,0.05750039565
199.95000,1.278278026
199.95050,0.05750039565
199.95100,-1.163277235
199.95150,-1.773666051
199.95200,-1.468471643
199.95250,-2.384054866
199.95300,-3.910026904
199.95350,-3.910026904
199.95400,-1.468471643
199.95450,0.6678892111
199.95500,1.278278026
199.95550,0.9730836188
199.95600,1.888666842
199.95650,4.025027696
199.95700,5.245805327
199.95750,4.330222103
199.95800,2.804250065
199.95850,2.804250065
199.95900,3.109444473
199.95950,3.109444473
199.96000,2.499055657
199.96050,1.888666842
199.96100,1.278278026
199.96150,0.3626948034
199.96200,0.05750039565
199.96250,-0.8580828275
199.96300,-1.163277235
199.96350,-0.247694012
199.96400,1.278278026
199.96450,1.583472434
199.96500,0.05750039565
199.96550,-1.773666051
199.96600,-1.773666051
199.96650,-0.247694012
199.96700,0.3626948034
199.96750,0.05750039565
199.96800,0.05750039565
199.96850,0.3626948034
199.96900,0.05750039565
199.96950,-0.8580828275
199.97000,-1.468471643
199.97050,0.05750039565
199.97100,2.19386125
199.97150,2.499055657
199.97200,0.9730836188
199.97250,0.3626948034
199.97300,0.9730836188
199.97350,1.583472434
199.97400,0.3626948034
199.97450,-1.773666051
199.97500,-2.384054866
199.97550,-1.163277235
199.97600,0.3626948034
199.97650,0.9730836188
199.97700,0.05750039565
199.97750,-0.5528884197
199.97800,-0.8580828275
199.97850,-0.247694012
199.97900,0.6678892111
199.97950,0.6678892111
199.98000,0.05750039565
199.98050,-0.5528884197
199.98100,0.05750039565
199.98150,1.583472434
199.98200,2.19386125
199.98250,0.6678892111
199.98300,-0.8580828275
199.98350,-0.8580828275
199.98400,1.278278026
199.98450,3.719833288
199.98500,3.719833288
199.98550,2.19386125
199.98600,0.3626948034
199.98650,0.05750039565
199.98700,-0.247694012
199.98750,-0.247694012
199.98800,-0.247694012
199.98850,-0.247694012
199.98900,-0.8580828275
199.98950,-1.773666051
199.99000,-2.078860458
199.99050,-1.468471643
199.99100,-1.163277235
199.99150,-1.163277235
199.99200,-1.163277235
199.99250,0.05750039565
199.99300,0.9730836188
199.99350,1.278278026
199.99400,0.6678892111
199.99450,-0.247694012
199.99500,-0.8580828275
199.99550,-0.8580828275
199.99600,0.05750039565
199.99650,1.583472434
199.99700,2.19386125
199.99750,0.9730836188
199.99800,-0.5528884197
199.99850,-1.163277235
199.99900,-0.5528884197
199.99950,-0.5528884197
200.00000,-1.773666051
200.00050,-2.078860458
200.00100,-0.5528884197
200.00150,0.3626948034
200.00200,0.3626948034
200.00250,0.3626948034
200.00300,1.888666842
200.00350,3.719833288
200.00400,4.025027696
200.00450,4.330222103
200.00500,5.550999734
200.00550,6.16138855
200.00600,4.635416511
200.00650,2.499055657
200.00700,0.9730836188
200.00750,0.6678892111
200.00800,0.05750039565
200.00850,-1.468471643
200.00900,-1.163277235
200.00950,-0.247694012
200.01000,0.05750039565
200.01050,0.05750039565
200.01100,0.9730836188
200.01150,2.19386125
200.01200,0.9730836188
200.01250,-1.468471643
200.01300,-1.163277235
200.01350,1.583472434
200.01400,3.41463888
200.01450,0.6678892111
200.01500,-2.994443681
200.01550,-3.910026904
200.01600,-2.689249274
200.01650,-1.773666051
200.01700,-1.773666051
200.01750,-1.773666051
200.01800,-2.689249274
200.01850,-4.825610128
200.01900,-5.130804535
200.01950,-2.689249274
200.02000,-0.5528884197
200.02050,-1.468471643
200.02100,-3.604832497
200.02150,-2.384054866
200.02200,0.05750039565
200.02250,0.05750039565
200.02300,-2.689249274
200.02350,-4.52041572
200.02400,-3.604832497
200.02450,-2.384054866
200.02500,-2.384054866
200.02550,-2.384054866
200.02600,-1.468471643
200.02650,-0.5528884197
200.02700,0.05750039565
200.02750,1.278278026
200.02800,3.109444473
200.02850,2.804250065
200.02900,0.9730836188
200.02950,0.3626948034
200.03000,1.583472434
200.03050,2.19386125
200.03100,1.278278026
200.03150,0.6678892111
200.03200,1.583472434
200.03250,3.109444473
200.03300,2.499055657
200.03350,0.6678892111
200.03400,0.3626948034
200.03450,2.499055657
200.03500,6.16138855
200.03550,8.297749404
200.03600,7.076971773
200.03650,4.025027696
200.03700,1.888666842
200.03750,2.19386125
200.03800,2.499055657
200.03850,0.3626948034
200.03900,-2.078860458
200.03950,-2.994443681
200.04000,-2.078860458
200.04050,-3.299638089
200.04100,-6.046387758
200.04150,-7.267165389
200.04200,-5.435998943
200.04250,-3.299638089
200.04300,-2.689249274
200.04350,-2.689249274
200.04400,-2.078860458
200.04450,-0.8580828275
200.04500,-0.8580828275
200.04550,-2.689249274
200.04600,-4.215221312
200.04650,-4.825610128
200.04700,-4.215221312
200.04750,-2.689249274
200.04800,-1.468471643
200.04850,-1.468471643
200.04900,-1.163277235
200.04950,-0.5528884197
200.05000,0.05750039565
200.05050,0.05750039565
200.05100,-0.247694012
200.05150,0.05750039565
200.05200,0.9730836188
200.05250,1.888666842
200.05300,1.583472434
200.05350,0.9730836188
200.05400,2.19386125
200.05450,4.330222103
200.05500,5.245805327
200.05550,3.719833288
200.05600,1.888666842
200.05650,1.583472434
200.05700,2.499055657
200.05750,2.499055657
200.05800,0.9730836188
200.05850,0.05750039565
200.05900,0.05750039565
200.05950,0.6678892111
200.06000,1.278278026
200.06050,2.19386125
200.06100,2.804250065
200.06150,3.719833288
200.06200,4.330222103
200.06250,4.025027696
200.06300,3.109444473
200.06350,2.19386125
200.06400,2.19386125
200.06450,2.804250065
200.06500,2.804250065
200.06550,0.9730836188
200.06600,0.05750039565
200.06650,0.05750039565
200.06700,0.6678892111
200.06750,0.3626948034
200.06800,-0.5528884197
200.06850,-1.468471643
200.06900,-1.773666051
200.06950,-1.468471643
200.07000,-0.5528884197
200.07050,0.6678892111
200.07100,2.499055657
200.07150,2.804250065
200.07200,2.19386125
200.07250,2.19386125
200.07300,3.41463888
200.07350,5.550999734
200.07400,7.076971773
200.07450,7.076971773
200.07500,5.550999734
200.07550,2.804250065
200.07600,-0.247694012
200.07650,-2.689249274
200.07700,-3.299638089
200.07750,-2.994443681
200.07800,-2.689249274
200.07850,-3.299638089
200.07900,-2.994443681
200.07950,-2.078860458
200.08000,-0.8580828275
200.08050,-0.8580828275
200.08100,-1.468471643
200.08150,-1.468471643
200.08200,-1.468471643
200.08250,-3.299638089
200.08300,-5.741193351
200.08350,-7.267165389
200.08400,-6.656776574
200.08450,-5.435998943
200.08500,-4.52041572
200.08550,-3.604832497
200.08600,-2.078860458
200.08650,-1.163277235
200.08700,-0.8580828275
200.08750,-0.8580828275
200.08800,-0.247694012
200.08850,0.05750039565
200.08900,0.05750039565
200.08950,-0.5528884197
200.09000,-0.247694012
200.09050,0.9730836188
200.09100,2.19386125
200.09150,2.499055657
200.09200,1.888666842
200.09250,0.6678892111
200.09300,0.05750039565
200.09350,0.05750039565
200.09400,1.278278026
200.09450,2.499055657
200.09500,2.804250065
200.09550,2.804250065
200.09600,3.41463888
200.09650,4.330222103
200.09700,4.940610919
200.09750,3.41463888
200.09800,0.6678892111
200.09850,-1.773666051
200.09900,-2.384054866
200.09950,-2.384054866
200.10000,-1.773666051
200.10050,-1.468471643
200.10100,-0.8580828275
200.10150,-1.163277235
200.10200,-1.773666051
200.10250,-1.468471643
200.10300,0.05750039565
200.10350,1.583472434
200.10400,1.278278026
200.10450,0.05750039565
200.10500,0.6678892111
200.10550,3.719833288
200.10600,5.550999734
200.10650,4.635416511
200.10700,2.499055657
200.10750,1.888666842
200.10800,1.583472434
200.10850,0.3626948034
200.10900,-1.773666051
200.10950,-2.689249274
200.11000,-1.468471643
200.11050,0.6678892111
200.11100,1.888666842
200.11150,1.583472434
200.11200,0.3626948034
200.11250,0.05750039565
200.11300,0.6678892111
200.11350,2.499055657
200.11400,4.025027696
200.11450,4.025027696
200.11500,2.499055657
200.11550,0.05750039565
200.11600,-1.773666051
200.11650,-2.384054866
200.11700,-2.078860458
200.11750,-2.078860458
200.11800,-2.689249274
200.11850,-3.910026904
200.11900,-3.910026904
200.11950,-2.994443681
200.12000,-1.773666051
200.12050,-1.163277235
200.12100,-0.8580828275
200.12150,-1.773666051
200.12200,-3.299638089
200.12250,-4.215221312
200.12300,-3.604832497
200.12350,-2.384054866
200.12400,-2.078860458
200.12450,-2.689249274
200.12500,-2.384054866
200.12550,-0.5528884197
200.12600,0.05750039565
200.12650,-0.247694012
200.12700,-1.773666051
200.12750,-2.384054866
200.12800,-2.689249274
200.12850,-3.604832497
200.12900,-4.825610128
200.12950,-4.52041572
200.13000,-2.994443681
200.13050,-1.773666051
200.13100,-1.163277235
200.13150,-1.468471643
200.13200,-2.078860458
200.13250,-2.994443681
200.13300,-3.604832497
200.13350,-2.689249274
200.13400,-1.163277235
200.13450,-0.5528884197
200.13500,-1.468471643
200.13550,-2.994443681
200.13600,-2.994443681
200.13650,-1.468471643
200.13700,0.05750039565
200.13750,0.6678892111
200.13800,0.05750039565
200.13850,-0.5528884197
200.13900,-0.247694012
200.13950,0.9730836188
200.14000,2.499055657
200.14050,3.41463888
200.14100,3.719833288
200.14150,3.719833288
200.14200,3.109444473
200.14250,2.19386125
200.14300,0.9730836188
200.14350,0.6678892111
200.14400,0.6678892111
200.14450,1.278278026
200.14500,2.804250065
200.14550,4.940610919
200.14600,6.16138855
200.14650,5.245805327
200.14700,2.804250065
200.14750,0.9730836188
200.14800,0.3626948034
200.14850,0.3626948034
200.14900,0.05750039565
200.14950,0.05750039565
200.15000,0.05750039565
200.15050,-0.5528884197
200.15100,-1.773666051
200.15150,-2.384054866
200.15200,-1.773666051
200.15250,-0.5528884197
200.15300,-0.5528884197
200.15350,-0.5528884197
200.15400,0.05750039565
200.15450,0.6678892111
200.15500,-0.5528884197
200.15550,-2.994443681
200.15600,-3.910026904
200.15650,-2.689249274
200.15700,-1.468471643
200.15750,-2.384054866
200.15800,-4.215221312
200.15850,-4.52041572
200.15900,-3.910026904
200.15950,-3.299638089
200.16000,-3.299638089
200.16050,-2.994443681
200.16100,-2.689249274
200.16150,-2.689249274
200.16200,-3.299638089
200.16250,-3.299638089
200.16300,-2.078860458
200.16350,0.05750039565
200.16400,2.19386125
200.16450,3.109444473
200.16500,3.109444473
200.16550,2.804250065
200.16600,2.804250065
200.16650,3.109444473
200.16700,4.025027696
200.16750,4.635416511
200.16800,4.025027696
200.16850,3.109444473
200.16900,2.804250065
200.16950,3.719833288
200.17000,4.635416511
200.17050,4.330222103
200.17100,2.804250065
200.17150,2.19386125
200.17200,1.888666842
200.17250,0.3626948034
200.17300,-2.078860458
200.17350,-3.299638089
200.17400,-1.163277235
200.17450,1.888666842
200.17500,4.330222103
200.17550,4.330222103
200.17600,2.499055657
200.17650,0.6678892111
200.17700,-0.8580828275
200.17750,-1.773666051
200.17800,-0.8580828275
200.17850,0.3626948034
200.17900,1.583472434
200.17950,1.888666842
200.18000,1.278278026
200.18050,0.6678892111
200.18100,0.9730836188
200.18150,1.583472434
200.18200,1.583472434
200.18250,0.9730836188
200.18300,0.3626948034
200.18350,0.9730836188
200.18400,2.19386125
200.18450,2.804250065
200.18500,1.583472434
200.18550,0.05750039565
200.18600,-0.8580828275
200.18650,-0.5528884197
200.18700,-0.247694012
200.18750,-0.247694012
200.18800,0.05750039565
200.18850,0.6678892111
200.18900,1.888666842
200.18950,2.499055657
200.19000,1.888666842
200.19050,1.888666842
200.19100,3.719833288
200.19150,5.550999734
200.19200,5.550999734
200.19250,4.025027696
200.19300,3.109444473
200.19350,3.109444473
200.19400,2.19386125
200.19450,0.3626948034
200.19500,0.3626948034
200.19550,1.888666842
200.19600,2.19386125
200.19650,0.3626948034
200.19700,-0.5528884197
200.19750,0.3626948034
200.19800,1.583472434
200.19850,0.3626948034
200.19900,-1.163277235
200.19950,-1.163277235
200.20000,0.05750039565
200.20050,0.05750039565
200.20100,-1.163277235
200.20150,-2.078860458
200.20200,-2.689249274
200.20250,-3.299638089
200.20300,-3.910026904
200.20350,-2.994443681
200.20400,-2.078860458
200.20450,-2.384054866
200.20500,-2.078860458
200.20550,-0.5528884197
200.20600,0.3626948034
200.20650,0.05750039565
200.20700,-1.468471643
200.20750,-1.773666051
200.20800,-1.468471643
200.20850,-1.773666051
200.20900,-1.773666051
200.20950,0.05750039565
200.21000,1.278278026
200.21050,0.9730836188
200.21100,-0.247694012
200.21150,-0.247694012
200.21200,0.3626948034
200.21250,0.3626948034
200.21300,-0.247694012
200.21350,0.05750039565
200.21400,1.583472434
200.21450,0.9730836188
200.21500,-0.8580828275
200.21550,-2.384054866
200.21600,-2.078860458
200.21650,-2.384054866
200.21700,-3.910026904
200.21750,-5.435998943
200.21800,-5.435998943
200.21850,-4.825610128
200.21900,-4.825610128
200.21950,-4.825610128
200.22000,-4.215221312
200.22050,-3.910026904
200.22100,-3.910026904
200.22150,-3.910026904
200.22200,-3.299638089
200.22250,-2.994443681
200.22300,-2.384054866
200.22350,-1.468471643
200.22400,-0.247694012
200.22450,0.05750039565
200.22500,-0.5528884197
200.22550,-0.247694012
200.22600,0.3626948034
200.22650,0.6678892111
200.22700,0.05750039565
200.22750,-0.247694012
200.22800,0.6678892111
200.22850,1.583472434
200.22900,0.3626948034
200.22950,-0.5528884197
200.23000,-0.247694012
200.23050,0.6678892111
200.23100,0.9730836188
200.23150,0.05750039565
200.23200,0.05750039565
200.23250,0.9730836188
200.23300,0.9730836188
200.23350,0.3626948034
200.23400,0.3626948034
200.23450,1.888666842
200.23500,3.719833288
200.23550,4.025027696
200.23600,3.109444473
200.23650,1.583472434
200.23700,0.9730836188
200.23750,1.583472434
200.23800,2.19386125
200.23850,1.888666842
200.23900,2.19386125
200.23950,2.804250065
200.24000,3.719833288
200.24050,3.109444473
200.24100,1.278278026
200.24150,0.05750039565
200.24200,-0.5528884197
200.24250,-0.8580828275
200.24300,-0.5528884197
200.24350,2.19386125
200.24400,7.687360588
200.24450,11.65488789
200.24500,10.73930467
200.24550,6.771777365
200.24600,5.245805327
200.24650,7.076971773
200.24700,9.518527034
200.24750,9.518527034
200.24800,7.687360588
200.24850,5.550999734
200.24900,4.025027696
200.24950,2.499055657
200.25000,1.278278026
200.25050,0.05750039565
200.25100,-1.163277235
200.25150,-2.384054866
200.25200,-2.384054866
200.25250,-1.163277235
200.25300,0.05750039565
200.25350,0.05750039565
200.25400,-0.8580828275
200.25450,-2.078860458
200.25500,-2.994443681
200.25550,-3.910026904
200.25600,-4.215221312
200.25650,-4.215221312
200.25700,-4.825610128
200.25750,-5.130804535
200.25800,-4.52041572
200.25850,-2.994443681
200.25900,-1.773666051
200.25950,-1.468471643
200.26000,-1.773666051
200.26050,-2.384054866
200.26100,-3.299638089
200.26150,-4.215221312
200.26200,-4.215221312
200.26250,-2.994443681
200.26300,-1.163277235
200.26350,-0.247694012
200.26400,0.05750039565
200.26450,0.05750039565
200.26500,0.9730836188
200.26550,3.109444473
200.26600,5.245805327
200.26650,5.245805327
200.26700,3.41463888
200.26750,2.804250065
200.26800,4.330222103
200.26850,5.550999734
200.26900,4.025027696
200.26950,0.6678892111
200.27000,-1.163277235
200.27050,-2.689249274
200.27100,-4.825610128
200.27150,-7.267165389
200.27200,-6.961970981
200.27250,-3.910026904
200.27300,-2.384054866
200.27350,-2.384054866
200.27400,-1.773666051
200.27450,0.05750039565
200.27500,0.6678892111
200.27550,-0.5528884197
200.27600,-1.773666051
200.27650,-0.8580828275
200.27700,-0.5528884197
200.27750,-2.384054866
200.27800,-3.604832497
200.27850,-1.773666051
200.27900,0.3626948034
200.27950,0.05750039565
200.28000,-2.384054866
200.28050,-2.994443681
200.28100,-1.468471643
200.28150,-0.8580828275
200.28200,-2.384054866
200.28250,-3.299638089
200.28300,-2.078860458
200.28350,-0.247694012
200.28400,0.3626948034
200.28450,0.6678892111
200.28500,1.583472434
200.28550,2.19386125
200.28600,2.19386125
200.28650,1.278278026
200.28700,0.3626948034
200.28750,0.05750039565
200.28800,0.05750039565
200.28850,0.05750039565
200.28900,-0.247694012
200.28950,-1.468471643
200.29000,-2.689249274
200.29050,-2.384054866
200.29100,-0.5528884197
200.29150,0.9730836188
200.29200,1.278278026
200.29250,0.6678892111
200.29300,0.9730836188
200.29350,2.19386125
200.29400,2.19386125
200.29450,0.3626948034
200.29500,-0.8580828275
200.29550,-0.5528884197
200.29600,0.6678892111
200.29650,0.6678892111
200.29700,-0.5528884197
200.29750,-2.384054866
200.29800,-3.299638089
200.29850,-3.299638089
200.29900,-2.994443681
200.29950,-2.078860458
200.30000,-0.8580828275
200.30050,-0.5528884197
200.30100,-1.468471643
200.30150,-3.299638089
200.30200,-5.130804535
200.30250,-6.046387758
200.30300,-4.825610128
200.30350,-2.078860458
200.30400,0.05750039565
200.30450,0.3626948034
200.30500,0.3626948034
200.30550,0.6678892111
200.30600,1.583472434
200.30650,3.109444473
200.30700,4.025027696
200.30750,3.719833288
200.30800,3.719833288
200.30850,4.635416511
200.30900,6.16138855
200.30950,7.076971773
200.31000,6.466582957
200.31050,5.856194142
200.31100,6.16138855
200.31150,6.16138855
200.31200,4.940610919
200.31250,3.719833288
200.31300,3.719833288
200.31350,5.245805327
200.31400,6.16138855
200.31450,5.550999734
200.31500,4.025027696
200.31550,2.499055657
200.31600,1.278278026
200.31650,0.3626948034
200.31700,0.6678892111
200.31750,1.278278026
200.31800,1.278278026
200.31850,0.6678892111
200.31900,-0.247694012
200.31950,-2.384054866
200.32000,-5.130804535
200.32050,-6.656776574
200.32100,-6.046387758
200.32150,-3.910026904
200.32200,-2.384054866
200.32250,-0.5528884197
200.32300,1.583472434
200.32350,3.109444473
200.32400,2.19386125
200.32450,-0.8580828275
200.32500,-2.384054866
200.32550,-0.8580828275
200.32600,0.05750039565
200.32650,-0.247694012
200.32700,-2.078860458
200.32750,-2.078860458
200.32800,-0.8580828275
200.32850,0.6678892111
200.32900,1.888666842
200.32950,2.499055657
200.33000,1.583472434
200.33050,0.05750039565
200.33100,0.05750039565
200.33150,0.05750039565
200.33200,0.05750039565
200.33250,-0.5528884197
200.33300,-1.163277235
200.33350,-0.5528884197
200.33400,0.05750039565
200.33450,-1.163277235
200.33500,-3.604832497
200.33550,-4.52041572
200.33600,-2.994443681
200.33650,-1.163277235
200.33700,-0.247694012
200.33750,-0.5528884197
200.33800,-0.8580828275
200.33850,-0.5528884197
200.33900,0.05750039565
200.33950,0.3626948034
200.34000,0.05750039565
200.34050,-0.247694012
200.34100,-1.163277235
200.34150,-1.773666051
200.34200,-2.384054866
200.34250,-2.384054866
200.34300,-1.468471643
200.34350,0.05750039565
200.34400,0.9730836188
200.34450,0.05750039565
200.34500,-2.078860458
200.34550,-2.689249274
200.34600,-1.773666051
200.34650,-1.163277235
200.34700,-2.078860458
200.34750,-2.994443681
200.34800,-2.384054866
200.34850,0.05750039565
200.34900,1.583472434
200.34950,1.888666842
200.35000,0.9730836188
200.35050,-0.5528884197
200.35100,-2.078860458
200.35150,-2.689249274
200.35200,-2.384054866
200.35250,-2.078860458
200.35300,-2.689249274
200.35350,-3.299638089
200.35400,-2.689249274
200.35450,-0.5528884197
200.35500,0.05750039565
200.35550,-0.8580828275
200.35600,-2.689249274
200.35650,-2.994443681
200.35700,-1.773666051
200.35750,-0.247694012
200.35800,0.05750039565
200.35850,-0.247694012
200.35900,0.05750039565
200.35950,1.278278026
200.36000,2.499055657
200.36050,3.41463888
200.36100,3.719833288
200.36150,3.719833288
200.36200,3.719833288
200.36250,3.41463888
200.36300,2.804250065
200.36350,2.499055657
200.36400,2.19386125
200.36450,1.888666842
200.36500,0.05750039565
200.36550,-2.994443681
200.36600,-3.910026904
200.36650,-1.468471643
200.36700,2.19386125
200.36750,4.025027696
200.36800,2.19386125
200.36850,0.05750039565
200.36900,0.05750039565
200.36950,0.9730836188
200.37000,1.583472434
200.37050,0.3626948034
200.37100,-0.8580828275
200.37150,-1.468471643
200.37200,-1.773666051
200.37250,-2.078860458
200.37300,-2.078860458
200.37350,-1.773666051
200.37400,-1.773666051
200.37450,-2.384054866
200.37500,-2.384054866
200.37550,-1.163277235
200.37600,0.6678892111
200.37650,2.19386125
200.37700,2.499055657
200.37750,1.888666842
200.37800,1.278278026
200.37850,0.6678892111
200.37900,0.6678892111
200.37950,1.888666842
200.38000,3.719833288
200.38050,4.635416511
200.38100,5.550999734
200.38150,5.550999734
200.38200,4.635416511
200.38250,2.804250065
200.38300,1.278278026
200.38350,1.888666842
200.38400,2.804250065
200.38450,3.109444473
200.38500,2.19386125
200.38550,1.583472434
200.38600,1.583472434
200.38650,1.583472434
200.38700,1.583472434
200.38750,1.583472434
200.38800,1.583472434
200.38850,0.6678892111
200.38900,-0.5528884197
200.38950,-1.163277235
200.39000,-0.8580828275
200.39050,-1.163277235
200.39100,-2.078860458
200.39150,-1.773666051
200.39200,-0.5528884197
200.39250,0.05750039565
200.39300,-0.247694012
200.39350,-0.5528884197
200.39400,-0.5528884197
200.39450,-1.163277235
200.39500,-2.078860458
200.39550,-2.689249274
200.39600,-1.773666051
200.39650,-0.8580828275
200.39700,-0.247694012
200.39750,0.05750039565
200.39800,0.05750039565
200.39850,-0.5528884197
200.39900,-1.773666051
200.39950,-1.468471643
200.40000,-1.468471643
200.40050,-2.994443681
200.40100,-4.825610128
200.40150,-4.825610128
200.40200,-3.299638089
200.40250,-2.384054866
200.40300,-1.773666051
200.40350,-0.5528884197
200.40400,0.9730836188
200.40450,1.278278026
200.40500,0.05750039565
200.40550,-0.247694012
200.40600,0.05750039565
200.40650,0.05750039565
200.40700,-1.163277235
200.40750,-1.773666051
200.40800,-0.8580828275
200.40850,0.05750039565
200.40900,0.05750039565
200.40950,0.3626948034
200.41000,2.19386125
200.41050,4.025027696
200.41100,4.330222103
200.41150,4.025027696
200.41200,2.804250065
200.41250,1.278278026
200.41300,0.05750039565
200.41350,0.9730836188
200.41400,2.499055657
200.41450,3.109444473
200.41500,1.888666842
200.41550,0.6678892111
200.41600,0.05750039565
200.41650,-0.247694012
200.41700,-1.163277235
200.41750,-1.163277235
200.41800,-0.247694012
200.41850,0.05750039565
200.41900,-0.5528884197
200.41950,-2.384054866
200.42000,-2.689249274
200.42050,-2.689249274
200.42100,-2.994443681
200.42150,-3.299638089
200.42200,-2.689249274
200.42250,-0.5528884197
200.42300,1.278278026
200.42350,2.19386125
200.42400,2.19386125
200.42450,1.888666842
200.42500,1.583472434
200.42550,1.888666842
200.42600,1.583472434
200.42650,0.05750039565
200.42700,-0.5528884197
200.42750,-0.247694012
200.42800,0.3626948034
200.42850,0.3626948034
200.42900,-0.247694012
200.42950,-0.8580828275
200.43000,-0.247694012
200.43050,0.05750039565
200.43100,-0.247694012
200.43150,-1.468471643
200.43200,-2.078860458
200.43250,-2.689249274
200.43300,-2.994443681
200.43350,-2.689249274
200.43400,-1.773666051
200.43450,-1.773666051
200.43500,-2.689249274
200.43550,-2.994443681
200.43600,-2.689249274
200.43650,-2.384054866
200.43700,-3.910026904
200.43750,-6.046387758
200.43800,-6.656776574
200.43850,-5.435998943
200.43900,-4.825610128
200.43950,-5.435998943
200.44000,-5.435998943
200.44050,-4.215221312
200.44100,-2.078860458
200.44150,0.6678892111
200.44200,3.109444473
200.44250,3.719833288
200.44300,2.499055657
200.44350,1.278278026
200.44400,1.888666842
200.44450,3.109444473
200.44500,3.719833288
200.44550,2.804250065
200.44600,1.278278026
200.44650,0.3626948034
200.44700,0.05750039565
200.44750,0.05750039565
200.44800,0.05750039565
200.44850,0.3626948034
200.44900,0.05750039565
200.44950,0.05750039565
200.45000,0.05750039565
200.45050,0.3626948034
200.45100,0.05750039565
200.45150,-0.247694012
200.45200,0.05750039565
200.45250,0.6678892111
200.45300,0.9730836188
200.45350,0.6678892111
200.45400,0.6678892111
200.45450,1.888666842
200.45500,3.41463888
200.45550,4.025027696
200.45600,3.719833288
200.45650,3.109444473
200.45700,1.278278026
200.45750,-0.5528884197
200.45800,-2.078860458
200.45850,-2.078860458
200.45900,-1.468471643
200.45950,-1.163277235
200.46000,-1.163277235
200.46050,-0.5528884197
200.46100,0.05750039565
200.46150,0.3626948034
200.46200,1.583472434
200.46250,4.940610919
200.46300,9.823721442
200.46350,12.2652767
200.46400,9.823721442
200.46450,4.635416511
200.46500,1.888666842
200.46550,2.804250065
200.46600,4.940610919
200.46650,5.245805327
200.46700,4.635416511
200.46750,4.635416511
200.46800,4.635416511
200.46850,3.41463888
200.46900,1.583472434
200.46950,0.3626948034
200.47000,0.05750039565
200.47050,-1.468471643
200.47100,-2.994443681
200.47150,-3.299638089
200.47200,-2.078860458
200.47250,-1.468471643
200.47300,-2.384054866
200.47350,-2.994443681
200.47400,-2.078860458
200.47450,0.05750039565
200.47500,1.278278026
200.47550,1.278278026
200.47600,0.9730836188
200.47650,0.3626948034
200.47700,0.05750039565
200.47750,-1.468471643
200.47800,-2.689249274
200.47850,-3.299638089
200.47900,-2.689249274
200.47950,-1.468471643
200.48000,-0.8580828275
200.48050,-0.5528884197
200.48100,-0.8580828275
200.48150,-0.5528884197
200.48200,0.05750039565
200.48250,0.05750039565
200.48300,0.05750039565
200.48350,0.6678892111
200.48400,2.19386125
200.48450,4.330222103
200.48500,5.245805327
200.48550,4.025027696
200.48600,2.19386125
200.48650,0.6678892111
200.48700,0.05750039565
200.48750,0.05750039565
200.48800,0.05750039565
200.48850,-0.247694012
200.48900,-0.247694012
200.48950,-0.8580828275
200.49000,-1.468471643
200.49050,-0.8580828275
200.49100,0.3626948034
200.49150,1.583472434
200.49200,0.9730836188
200.49250,-0.8580828275
200.49300,-2.994443681
200.49350,-3.910026904
200.49400,-4.52041572
200.49450,-4.52041572
200.49500,-2.994443681
200.49550,0.3626948034
200.49600,3.41463888
200.49650,3.719833288
200.49700,1.888666842
200.49750,1.278278026
200.49800,2.804250065
200.49850,4.330222103
200.49900,3.719833288
200.49950,2.19386125
200.50000,1.583472434
200.50050,2.19386125
200.50100,3.109444473
200.50150,3.719833288
200.50200,3.109444473
200.50250,2.19386125
200.50300,2.19386125
200.50350,3.41463888
200.50400,4.635416511
200.50450,4.025027696
200.50500,1.888666842
200.50550,0.3626948034
200.50600,0.05750039565
200.50650,-1.468471643
200.50700,-4.825610128
200.50750,-7.267165389
200.50800,-6.656776574
200.50850,-4.825610128
200.50900,-3.604832497
200.50950,-3.299638089
200.51000,-3.299638089
200.51050,-2.994443681
200.51100,-3.299638089
200.51150,-2.994443681
200.51200,-1.163277235
200.51250,0.05750039565
200.51300,-0.247694012
200.51350,-1.163277235
200.51400,0.05750039565
200.51450,2.499055657
200.51500,2.499055657
200.51550,0.05750039565
200.51600,-1.468471643
200.51650,-0.5528884197
200.51700,0.05750039565
200.51750,-0.247694012
200.51800,-1.468471643
200.51850,-1.163277235
200.51900,0.05750039565
200.51950,0.9730836188
200.52000,0.9730836188
200.52050,0.6678892111
200.52100,0.3626948034
200.52150,0.05750039565
200.52200,-0.247694012
200.52250,0.05750039565
200.52300,1.278278026
200.52350,0.9730836188
200.52400,-0.5528884197
200.52450,-2.078860458
200.52500,-1.773666051
200.52550,0.05750039565
200.52600,0.6678892111
200.52650,0.3626948034
200.52700,0.05750039565
200.52750,0.6678892111
200.52800,1.888666842
200.52850,2.499055657
200.52900,2.19386125
200.52950,1.278278026
200.53000,0.6678892111
200.53050,0.9730836188
200.53100,1.278278026
200.53150,0.9730836188
200.53200,0.05750039565
200.53250,-0.5528884197
200.53300,0.05750039565
200.53350,1.583472434
200.53400,1.888666842
200.53450,0.6678892111
200.53500,-0.247694012
200.53550,-0.5528884197
200.53600,-1.163277235
200.53650,-2.384054866
200.53700,-4.215221312
200.53750,-6.046387758
200.53800,-7.572359797
200.53850,-7.877554205
200.53900,-6.351582166
200.53950,-4.52041572
200.54000,-3.604832497
200.54050,-4.215221312
200.54100,-4.215221312
200.54150,-3.299638089
200.54200,-2.689249274
200.54250,-2.689249274
200.54300,-2.078860458
200.54350,-0.5528884197
200.54400,0.05750039565
200.54450,0.05750039565
200.54500,0.05750039565
200.54550,0.3626948034
200.54600,1.278278026
200.54650,1.278278026
200.54700,1.583472434
200.54750,2.19386125
200.54800,1.888666842
200.54850,0.05750039565
200.54900,-0.5528884197
200.54950,0.6678892111
200.55000,3.719833288
200.55050,4.940610919
200.55100,4.025027696
200.55150,2.804250065
200.55200,1.888666842
200.55250,1.278278026
200.55300,1.278278026
200.55350,2.19386125
200.55400,2.804250065
200.55450,2.804250065
200.55500,2.499055657
200.55550,3.109444473
200.55600,3.719833288
200.55650,3.109444473
200.55700,0.9730836188
200.55750,-0.5528884197
200.55800,-0.8580828275
200.55850,-0.5528884197
200.55900,-1.773666051
200.55950,-3.299638089
200.56000,-3.299638089
200.56050,-1.773666051
200.56100,-0.5528884197
200.56150,-0.5528884197
200.56200,-0.247694012
200.56250,0.05750039565
200.56300,0.9730836188
200.56350,1.583472434
200.56400,2.499055657
200.56450,4.025027696
200.56500,4.025027696
200.56550,2.19386125
200.56600,0.3626948034
200.56650,0.6678892111
200.56700,2.19386125
200.56750,2.499055657
200.56800,0.6678892111
200.56850,-0.8580828275
200.56900,-1.773666051
200.56950,-1.773666051
200.57000,-2.078860458
200.57050,-1.468471643
200.57100,-0.247694012
200.57150,0.05750039565
200.57200,-0.5528884197
200.57250,-2.078860458
200.57300,-3.299638089
200.57350,-3.910026904
200.57400,-4.52041572
200.57450,-4.825610128
200.57500,-3.299638089
200.57550,-0.5528884197
200.57600,1.583472434
200.57650,2.19386125
200.57700,0.9730836188
200.57750,-0.5528884197
200.57800,-1.468471643
200.57850,-1.773666051
200.57900,-2.078860458
200.57950,-2.078860458
200.58000,-0.8580828275
200.58050,0.05750039565
200.58100,0.05750039565
200.58150,-2.078860458
200.58200,-3.299638089
200.58250,-2.689249274
200.58300,-1.468471643
200.58350,-1.468471643
200.58400,-2.689249274
200.58450,-3.299638089
200.58500,-2.994443681
200.58550,-2.689249274
200.58600,-2.384054866
200.58650,-1.163277235
200.58700,-0.247694012
200.58750,-0.5528884197
