"type","name","time_units","begin_time","frequency","count","units"
"signal","Ultium EMG-BRACHIORAD. RT","s",307.96000,2000,22000,"uV"

"time","value"
307.96000,6.078722198
307.96050,7.604694237
307.96100,8.52027746
307.96150,8.825471868
307.96200,8.52027746
307.96250,8.215083052
307.96300,7.909888645
307.96350,7.299499829
307.96400,5.773527791
307.96450,3.026778121
307.96500,-0.6355547711
307.96550,-4.603082071
307.96600,-6.739442925
307.96650,-6.739442925
307.96700,-4.908276479
307.96750,-2.466721217
307.96800,0.8904172674
307.96850,4.55275016
307.96900,5.468333383
307.96950,1.500806083
307.97000,-4.603082071
307.97050,-9.791387002
307.97100,-11.92774786
307.97150,-13.14852549
307.97200,-14.36930312
307.97250,-13.7589143
307.97300,-11.01216463
307.97350,-8.265414964
307.97400,-9.180998187
307.97450,-13.14852549
307.97500,-17.11605279
307.97550,-19.55760805
307.97600,-20.16799686
307.97650,-19.25241364
307.97700,-18.33683042
307.97750,-17.7264416
307.97800,-17.11605279
307.97850,-14.67449753
307.97900,-9.486192594
307.97950,-3.077110033
307.98000,1.806000491
307.98050,4.55275016
307.98100,6.383916606
307.98150,8.215083052
307.98200,12.79299917
307.98250,22.25402581
307.98300,35.68257975
307.98350,47.27996724
307.98400,50.02671691
307.98450,41.48127349
307.98500,25.9163587
307.98550,10.65663831
307.98600,0.280028452
307.98650,-3.077110033
307.98700,-1.551137994
307.98750,2.416389306
307.98800,6.078722198
307.98850,6.994305421
307.98900,5.773527791
307.98950,4.247555752
307.99000,3.331972529
307.99050,3.026778121
307.99100,1.195611675
307.99150,-1.856332402
307.99200,-5.213470887
307.99250,-7.044637333
307.99300,-7.34983174
307.99350,-7.655026148
307.99400,-8.875803779
307.99450,-10.40177582
307.99500,-10.70697023
307.99550,-10.40177582
307.99600,-11.31735904
307.99650,-12.53813667
307.99700,-13.45371989
307.99750,-12.84333108
307.99800,-11.01216463
307.99850,-9.180998187
307.99900,-7.655026148
307.99950,-6.12905411
308.00000,-4.603082071
308.00050,-3.38230444
308.00100,-2.16152681
308.00150,-1.245943586
308.00200,-0.02516595566
308.00250,1.195611675
308.00300,2.721583714
308.00350,3.026778121
308.00400,2.416389306
308.00450,1.195611675
308.00500,1.195611675
308.00550,2.416389306
308.00600,4.247555752
308.00650,4.55275016
308.00700,3.942361344
308.00750,3.942361344
308.00800,4.55275016
308.00850,3.637166937
308.00900,1.195611675
308.00950,-0.9407491788
308.01000,-0.6355547711
308.01050,0.5852228597
308.01100,0.8904172674
308.01150,-0.3303603634
308.01200,-1.856332402
308.01250,-2.771915625
308.01300,-3.992693256
308.01350,-4.297887663
308.01400,-2.16152681
308.01450,0.5852228597
308.01500,1.195611675
308.01550,-1.856332402
308.01600,-4.603082071
308.01650,-3.992693256
308.01700,-0.9407491788
308.01750,-0.3303603634
308.01800,-3.992693256
308.01850,-9.486192594
308.01900,-11.92774786
308.01950,-9.180998187
308.02000,-4.908276479
308.02050,-2.771915625
308.02100,-3.077110033
308.02150,-3.992693256
308.02200,-4.297887663
308.02250,-4.908276479
308.02300,-5.823859702
308.02350,-5.213470887
308.02400,-2.16152681
308.02450,0.8904172674
308.02500,2.111194898
308.02550,3.026778121
308.02600,6.383916606
308.02650,10.96183272
308.02700,12.18261035
308.02750,8.215083052
308.02800,2.416389306
308.02850,0.8904172674
308.02900,4.857944568
308.02950,10.96183272
308.03000,13.40338798
308.03050,10.0462495
308.03100,3.637166937
308.03150,-1.551137994
308.03200,-2.771915625
308.03250,-1.245943586
308.03300,0.8904172674
308.03350,1.500806083
308.03400,-0.02516595566
308.03450,-3.687498848
308.03500,-7.34983174
308.03550,-9.180998187
308.03600,-8.570609371
308.03650,-7.34983174
308.03700,-6.739442925
308.03750,-7.044637333
308.03800,-8.265414964
308.03850,-11.31735904
308.03900,-15.59008075
308.03950,-15.89527516
308.04000,-10.09658141
308.04050,-0.9407491788
308.04100,5.468333383
308.04150,7.909888645
308.04200,8.52027746
308.04250,9.435860683
308.04300,8.825471868
308.04350,6.994305421
308.04400,5.468333383
308.04450,5.163138975
308.04500,5.163138975
308.04550,4.247555752
308.04600,3.637166937
308.04650,3.637166937
308.04700,1.806000491
308.04750,-2.466721217
308.04800,-4.297887663
308.04850,-0.02516595566
308.04900,7.909888645
308.04950,13.40338798
308.05000,14.62416561
308.05050,13.70858239
308.05100,13.09819358
308.05150,11.26702713
308.05200,6.689111014
308.05250,0.8904172674
308.05300,-3.992693256
308.05350,-7.655026148
308.05400,-10.70697023
308.05450,-14.67449753
308.05500,-19.86280246
308.05550,-25.35630179
308.05600,-27.79785706
308.05650,-24.13552416
308.05700,-14.36930312
308.05750,-4.297887663
308.05800,0.280028452
308.05850,-0.02516595566
308.05900,-0.02516595566
308.05950,3.942361344
308.06000,9.130666275
308.06050,9.741055091
308.06100,4.857944568
308.06150,-0.02516595566
308.06200,0.280028452
308.06250,6.078722198
308.06300,13.09819358
308.06350,17.06572088
308.06400,15.53974884
308.06450,9.435860683
308.06500,3.331972529
308.06550,3.026778121
308.06600,10.96183272
308.06650,20.72805377
308.06700,25.00077548
308.06750,21.64363699
308.06800,14.31897121
308.06850,8.52027746
308.06900,6.078722198
308.06950,4.247555752
308.07000,0.8904172674
308.07050,-3.38230444
308.07100,-8.265414964
308.07150,-11.01216463
308.07200,-11.01216463
308.07250,-8.570609371
308.07300,-5.823859702
308.07350,-5.213470887
308.07400,-7.34983174
308.07450,-10.40177582
308.07500,-12.53813667
308.07550,-12.53813667
308.07600,-12.23294226
308.07650,-11.31735904
308.07700,-9.791387002
308.07750,-7.34983174
308.07800,-6.434248517
308.07850,-7.960220556
308.07900,-9.791387002
308.07950,-9.486192594
308.08000,-6.434248517
308.08050,-3.38230444
308.08100,-2.16152681
308.08150,-1.551137994
308.08200,0.5852228597
308.08250,5.163138975
308.08300,10.35144391
308.08350,14.31897121
308.08400,16.15013765
308.08450,16.45533206
308.08500,15.84494324
308.08550,15.23455443
308.08600,14.31897121
308.08650,13.09819358
308.08700,10.65663831
308.08750,8.215083052
308.08800,5.468333383
308.08850,1.806000491
308.08900,-2.16152681
308.08950,-5.823859702
308.09000,-6.739442925
308.09050,-5.518665294
308.09100,-4.297887663
308.09150,-4.297887663
308.09200,-4.908276479
308.09250,-5.518665294
308.09300,-6.12905411
308.09350,-7.655026148
308.09400,-9.486192594
308.09450,-11.62255345
308.09500,-12.84333108
308.09550,-13.14852549
308.09600,-12.23294226
308.09650,-11.01216463
308.09700,-10.09658141
308.09750,-8.570609371
308.09800,-6.434248517
308.09850,-5.213470887
308.09900,-6.12905411
308.09950,-7.34983174
308.10000,-6.12905411
308.10050,-2.16152681
308.10100,0.5852228597
308.10150,2.111194898
308.10200,2.111194898
308.10250,1.195611675
308.10300,-0.6355547711
308.10350,-1.856332402
308.10400,-0.02516595566
308.10450,2.111194898
308.10500,1.195611675
308.10550,-2.771915625
308.10600,-6.12905411
308.10650,-5.823859702
308.10700,-4.908276479
308.10750,-4.297887663
308.10800,-3.687498848
308.10850,-1.856332402
308.10900,0.280028452
308.10950,3.026778121
308.11000,7.604694237
308.11050,14.31897121
308.11100,20.42285936
308.11150,22.55922021
308.11200,21.9488314
308.11250,19.81247054
308.11300,17.9813041
308.11350,17.37091528
308.11400,19.50727614
308.11450,23.16960903
308.11500,25.30596988
308.11550,23.77999785
308.11600,20.42285936
308.11650,17.06572088
308.11700,12.18261035
308.11750,3.942361344
308.11800,-7.960220556
308.11850,-18.94721923
308.11900,-23.83032976
308.11950,-21.08358009
308.12000,-14.36930312
308.12050,-10.09658141
308.12100,-9.180998187
308.12150,-8.875803779
308.12200,-4.297887663
308.12250,2.416389306
308.12300,5.773527791
308.12350,1.195611675
308.12400,-7.655026148
308.12450,-13.14852549
308.12500,-11.01216463
308.12550,-4.908276479
308.12600,-1.856332402
308.12650,-3.992693256
308.12700,-6.739442925
308.12750,-5.823859702
308.12800,-1.856332402
308.12850,0.280028452
308.12900,-0.9407491788
308.12950,-3.077110033
308.13000,-3.077110033
308.13050,-1.551137994
308.13100,-1.245943586
308.13150,-3.38230444
308.13200,-5.518665294
308.13250,-6.434248517
308.13300,-6.739442925
308.13350,-7.655026148
308.13400,-8.570609371
308.13450,-8.875803779
308.13500,-8.570609371
308.13550,-8.265414964
308.13600,-8.875803779
308.13650,-9.486192594
308.13700,-9.180998187
308.13750,-7.044637333
308.13800,-3.992693256
308.13850,-1.245943586
308.13900,-0.6355547711
308.13950,-0.9407491788
308.14000,-0.9407491788
308.14050,-0.9407491788
308.14100,-1.245943586
308.14150,-1.245943586
308.14200,0.5852228597
308.14250,4.247555752
308.14300,7.604694237
308.14350,9.435860683
308.14400,10.96183272
308.14450,12.48780476
308.14500,13.09819358
308.14550,11.87741594
308.14600,10.0462495
308.14650,8.825471868
308.14700,8.52027746
308.14750,8.825471868
308.14800,9.435860683
308.14850,9.741055091
308.14900,9.435860683
308.14950,7.604694237
308.15000,5.468333383
308.15050,3.331972529
308.15100,1.806000491
308.15150,-0.02516595566
308.15200,-2.771915625
308.15250,-7.044637333
308.15300,-11.01216463
308.15350,-11.92774786
308.15400,-10.40177582
308.15450,-8.265414964
308.15500,-7.960220556
308.15550,-9.486192594
308.15600,-11.92774786
308.15650,-13.14852549
308.15700,-11.31735904
308.15750,-6.739442925
308.15800,-1.551137994
308.15850,-0.02516595566
308.15900,-1.856332402
308.15950,-2.16152681
308.16000,3.026778121
308.16050,11.57222154
308.16100,17.37091528
308.16150,18.59169291
308.16200,17.67610969
308.16250,16.45533206
308.16300,13.70858239
308.16350,9.435860683
308.16400,8.215083052
308.16450,10.96183272
308.16500,13.70858239
308.16550,11.87741594
308.16600,6.689111014
308.16650,3.026778121
308.16700,2.721583714
308.16750,2.416389306
308.16800,-0.02516595566
308.16850,-3.687498848
308.16900,-5.823859702
308.16950,-5.213470887
308.17000,-4.297887663
308.17050,-4.297887663
308.17100,-4.297887663
308.17150,-2.16152681
308.17200,3.026778121
308.17250,9.130666275
308.17300,11.26702713
308.17350,6.689111014
308.17400,-0.02516595566
308.17450,-1.551137994
308.17500,2.721583714
308.17550,8.825471868
308.17600,10.35144391
308.17650,8.52027746
308.17700,5.468333383
308.17750,2.721583714
308.17800,-0.6355547711
308.17850,-3.38230444
308.17900,-3.077110033
308.17950,-0.3303603634
308.18000,-0.02516595566
308.18050,-3.687498848
308.18100,-7.960220556
308.18150,-9.180998187
308.18200,-8.570609371
308.18250,-8.875803779
308.18300,-9.791387002
308.18350,-8.265414964
308.18400,-4.297887663
308.18450,-0.3303603634
308.18500,1.195611675
308.18550,1.195611675
308.18600,1.195611675
308.18650,1.806000491
308.18700,2.111194898
308.18750,2.111194898
308.18800,1.500806083
308.18850,1.806000491
308.18900,3.331972529
308.18950,4.55275016
308.19000,3.637166937
308.19050,0.8904172674
308.19100,-1.856332402
308.19150,-4.603082071
308.19200,-7.960220556
308.19250,-11.62255345
308.19300,-13.45371989
308.19350,-13.7589143
308.19400,-14.06410871
308.19450,-15.28488634
308.19500,-14.06410871
308.19550,-8.570609371
308.19600,-2.466721217
308.19650,-0.3303603634
308.19700,-0.9407491788
308.19750,-1.856332402
308.19800,-3.077110033
308.19850,-6.12905411
308.19900,-9.180998187
308.19950,-9.180998187
308.20000,-6.739442925
308.20050,-5.823859702
308.20100,-4.908276479
308.20150,-1.245943586
308.20200,5.468333383
308.20250,10.0462495
308.20300,9.435860683
308.20350,6.994305421
308.20400,6.078722198
308.20450,5.773527791
308.20500,6.383916606
308.20550,8.52027746
308.20600,11.57222154
308.20650,11.26702713
308.20700,6.994305421
308.20750,3.331972529
308.20800,3.331972529
308.20850,3.942361344
308.20900,-0.02516595566
308.20950,-5.213470887
308.21000,-3.992693256
308.21050,3.026778121
308.21100,6.689111014
308.21150,1.195611675
308.21200,-8.570609371
308.21250,-12.84333108
308.21300,-10.70697023
308.21350,-7.655026148
308.21400,-7.34983174
308.21450,-6.739442925
308.21500,-3.992693256
308.21550,-0.6355547711
308.21600,0.5852228597
308.21650,2.111194898
308.21700,3.637166937
308.21750,2.416389306
308.21800,-3.077110033
308.21850,-8.570609371
308.21900,-9.180998187
308.21950,-6.434248517
308.22000,-4.297887663
308.22050,-3.992693256
308.22100,-3.077110033
308.22150,-2.16152681
308.22200,-2.771915625
308.22250,-4.297887663
308.22300,-5.213470887
308.22350,-6.12905411
308.22400,-8.570609371
308.22450,-10.40177582
308.22500,-6.434248517
308.22550,2.721583714
308.22600,12.18261035
308.22650,17.9813041
308.22700,21.03324818
308.22750,21.64363699
308.22800,18.59169291
308.22850,12.18261035
308.22900,5.773527791
308.22950,1.195611675
308.23000,-1.856332402
308.23050,-5.213470887
308.23100,-6.12905411
308.23150,-3.077110033
308.23200,0.8904172674
308.23250,2.721583714
308.23300,0.8904172674
308.23350,-1.245943586
308.23400,-2.466721217
308.23450,-2.16152681
308.23500,-0.02516595566
308.23550,2.721583714
308.23600,5.468333383
308.23650,6.689111014
308.23700,6.994305421
308.23750,5.468333383
308.23800,2.721583714
308.23850,-2.466721217
308.23900,-9.180998187
308.23950,-15.59008075
308.24000,-17.7264416
308.24050,-14.36930312
308.24100,-7.044637333
308.24150,-0.3303603634
308.24200,2.416389306
308.24250,2.721583714
308.24300,3.331972529
308.24350,4.55275016
308.24400,5.468333383
308.24450,5.468333383
308.24500,5.163138975
308.24550,4.857944568
308.24600,4.55275016
308.24650,4.55275016
308.24700,5.773527791
308.24750,6.994305421
308.24800,7.604694237
308.24850,6.383916606
308.24900,5.163138975
308.24950,4.55275016
308.25000,3.637166937
308.25050,1.500806083
308.25100,-1.856332402
308.25150,-4.908276479
308.25200,-5.518665294
308.25250,-4.297887663
308.25300,-4.603082071
308.25350,-8.265414964
308.25400,-12.84333108
308.25450,-14.67449753
308.25500,-13.45371989
308.25550,-12.84333108
308.25600,-13.45371989
308.25650,-11.92774786
308.25700,-8.570609371
308.25750,-6.739442925
308.25800,-8.265414964
308.25850,-9.791387002
308.25900,-6.12905411
308.25950,-0.3303603634
308.26000,1.500806083
308.26050,-2.16152681
308.26100,-8.570609371
308.26150,-10.70697023
308.26200,-7.044637333
308.26250,-0.02516595566
308.26300,9.435860683
308.26350,18.28649851
308.26400,23.47480344
308.26450,22.86441462
308.26500,17.67610969
308.26550,10.65663831
308.26600,4.55275016
308.26650,0.5852228597
308.26700,-0.02516595566
308.26750,1.195611675
308.26800,4.55275016
308.26850,8.825471868
308.26900,12.48780476
308.26950,12.79299917
308.27000,8.825471868
308.27050,3.331972529
308.27100,2.111194898
308.27150,8.52027746
308.27200,17.9813041
308.27250,23.47480344
308.27300,21.9488314
308.27350,17.06572088
308.27400,13.40338798
308.27450,11.57222154
308.27500,9.741055091
308.27550,4.857944568
308.27600,-1.856332402
308.27650,-8.570609371
308.27700,-10.70697023
308.27750,-9.180998187
308.27800,-7.960220556
308.27850,-11.31735904
308.27900,-15.89527516
308.27950,-16.20046956
308.28000,-11.92774786
308.28050,-8.875803779
308.28100,-9.180998187
308.28150,-9.486192594
308.28200,-6.434248517
308.28250,-1.551137994
308.28300,1.500806083
308.28350,2.416389306
308.28400,2.416389306
308.28450,2.111194898
308.28500,1.500806083
308.28550,1.500806083
308.28600,3.942361344
308.28650,6.689111014
308.28700,6.078722198
308.28750,3.637166937
308.28800,1.806000491
308.28850,1.195611675
308.28900,-0.6355547711
308.28950,-4.297887663
308.29000,-6.434248517
308.29050,-5.823859702
308.29100,-4.908276479
308.29150,-5.823859702
308.29200,-7.960220556
308.29250,-9.180998187
308.29300,-10.09658141
308.29350,-11.31735904
308.29400,-11.92774786
308.29450,-11.31735904
308.29500,-10.70697023
308.29550,-11.92774786
308.29600,-13.45371989
308.29650,-13.7589143
308.29700,-12.53813667
308.29750,-13.14852549
308.29800,-14.67449753
308.29850,-14.67449753
308.29900,-11.62255345
308.29950,-7.655026148
308.30000,-4.908276479
308.30050,-3.077110033
308.30100,-0.9407491788
308.30150,-0.9407491788
308.30200,-4.908276479
308.30250,-9.791387002
308.30300,-9.486192594
308.30350,-1.856332402
308.30400,8.825471868
308.30450,16.15013765
308.30500,17.67610969
308.30550,14.31897121
308.30600,10.0462495
308.30650,7.909888645
308.30700,9.435860683
308.30750,15.84494324
308.30800,24.08519225
308.30850,29.27349718
308.30900,28.66310837
308.30950,23.77999785
308.31000,18.28649851
308.31050,14.0137768
308.31100,9.741055091
308.31150,6.078722198
308.31200,3.331972529
308.31250,-0.02516595566
308.31300,-3.687498848
308.31350,-6.739442925
308.31400,-5.823859702
308.31450,-2.466721217
308.31500,-1.551137994
308.31550,-4.603082071
308.31600,-9.486192594
308.31650,-13.14852549
308.31700,-16.20046956
308.31750,-18.64202483
308.31800,-18.03163601
308.31850,-13.14852549
308.31900,-5.823859702
308.31950,-0.3303603634
308.32000,1.195611675
308.32050,-0.02516595566
308.32100,-1.551137994
308.32150,-1.245943586
308.32200,2.416389306
308.32250,10.0462495
308.32300,17.37091528
308.32350,19.81247054
308.32400,16.76052647
308.32450,10.96183272
308.32500,6.689111014
308.32550,4.857944568
308.32600,5.468333383
308.32650,7.299499829
308.32700,8.52027746
308.32750,7.299499829
308.32800,3.331972529
308.32850,-0.9407491788
308.32900,-4.908276479
308.32950,-7.960220556
308.33000,-10.40177582
308.33050,-11.62255345
308.33100,-11.62255345
308.33150,-11.31735904
308.33200,-11.62255345
308.33250,-12.23294226
308.33300,-12.53813667
308.33350,-13.45371989
308.33400,-14.67449753
308.33450,-15.28488634
308.33500,-13.7589143
308.33550,-9.486192594
308.33600,-3.992693256
308.33650,0.8904172674
308.33700,4.247555752
308.33750,6.383916606
308.33800,7.604694237
308.33850,7.909888645
308.33900,9.435860683
308.33950,11.87741594
308.34000,14.62416561
308.34050,16.45533206
308.34100,17.9813041
308.34150,19.81247054
308.34200,20.72805377
308.34250,18.28649851
308.34300,11.57222154
308.34350,2.111194898
308.34400,-4.908276479
308.34450,-7.960220556
308.34500,-6.434248517
308.34550,-2.771915625
308.34600,0.8904172674
308.34650,3.942361344
308.34700,6.078722198
308.34750,6.689111014
308.34800,6.078722198
308.34850,4.857944568
308.34900,3.637166937
308.34950,1.500806083
308.35000,-0.9407491788
308.35050,-3.38230444
308.35100,-5.518665294
308.35150,-6.739442925
308.35200,-7.960220556
308.35250,-8.265414964
308.35300,-8.265414964
308.35350,-8.265414964
308.35400,-9.180998187
308.35450,-10.70697023
308.35500,-11.62255345
308.35550,-11.31735904
308.35600,-10.09658141
308.35650,-9.180998187
308.35700,-10.09658141
308.35750,-12.53813667
308.35800,-14.67449753
308.35850,-16.20046956
308.35900,-17.42124719
308.35950,-18.94721923
308.36000,-18.64202483
308.36050,-15.59008075
308.36100,-9.791387002
308.36150,-3.992693256
308.36200,-0.02516595566
308.36250,1.806000491
308.36300,2.111194898
308.36350,3.026778121
308.36400,6.689111014
308.36450,10.65663831
308.36500,12.18261035
308.36550,12.79299917
308.36600,16.76052647
308.36650,25.61116429
308.36700,31.40985804
308.36750,28.96830278
308.36800,21.03324818
308.36850,16.76052647
308.36900,17.06572088
308.36950,16.15013765
308.37000,11.57222154
308.37050,6.689111014
308.37100,3.637166937
308.37150,0.280028452
308.37200,-5.518665294
308.37250,-11.01216463
308.37300,-11.92774786
308.37350,-8.265414964
308.37400,-3.077110033
308.37450,2.111194898
308.37500,6.383916606
308.37550,6.689111014
308.37600,1.500806083
308.37650,-6.12905411
308.37700,-12.23294226
308.37750,-15.89527516
308.37800,-16.50566397
308.37850,-14.06410871
308.37900,-8.265414964
308.37950,-0.3303603634
308.38000,8.215083052
308.38050,17.06572088
308.38100,23.16960903
308.38150,23.47480344
308.38200,19.20208173
308.38250,15.23455443
308.38300,14.62416561
308.38350,14.31897121
308.38400,10.65663831
308.38450,6.383916606
308.38500,5.468333383
308.38550,7.299499829
308.38600,8.52027746
308.38650,6.689111014
308.38700,4.857944568
308.38750,3.026778121
308.38800,-0.02516595566
308.38850,-3.992693256
308.38900,-6.739442925
308.38950,-6.739442925
308.39000,-5.213470887
308.39050,-3.687498848
308.39100,-3.38230444
308.39150,-3.992693256
308.39200,-6.12905411
308.39250,-9.486192594
308.39300,-13.7589143
308.39350,-16.81085838
308.39400,-17.7264416
308.39450,-15.89527516
308.39500,-13.14852549
308.39550,-11.31735904
308.39600,-11.31735904
308.39650,-11.01216463
308.39700,-10.40177582
308.39750,-10.70697023
308.39800,-12.84333108
308.39850,-14.67449753
308.39900,-14.06410871
308.39950,-12.84333108
308.40000,-13.14852549
308.40050,-12.84333108
308.40100,-10.09658141
308.40150,-6.434248517
308.40200,-5.823859702
308.40250,-7.044637333
308.40300,-6.12905411
308.40350,-1.856332402
308.40400,0.8904172674
308.40450,-0.02516595566
308.40500,-2.466721217
308.40550,-1.551137994
308.40600,3.026778121
308.40650,7.909888645
308.40700,10.35144391
308.40750,11.26702713
308.40800,12.18261035
308.40850,13.70858239
308.40900,15.53974884
308.40950,16.76052647
308.41000,15.84494324
308.41050,12.18261035
308.41100,7.299499829
308.41150,3.942361344
308.41200,2.721583714
308.41250,1.806000491
308.41300,-0.02516595566
308.41350,-1.245943586
308.41400,-1.245943586
308.41450,-0.6355547711
308.41500,-1.245943586
308.41550,-3.38230444
308.41600,-5.213470887
308.41650,-5.213470887
308.41700,-4.297887663
308.41750,-3.077110033
308.41800,-2.466721217
308.41850,-1.856332402
308.41900,-1.856332402
308.41950,-1.551137994
308.42000,-0.02516595566
308.42050,2.111194898
308.42100,3.331972529
308.42150,3.637166937
308.42200,5.163138975
308.42250,8.825471868
308.42300,12.48780476
308.42350,13.40338798
308.42400,11.87741594
308.42450,10.96183272
308.42500,10.65663831
308.42550,8.825471868
308.42600,4.55275016
308.42650,0.8904172674
308.42700,0.280028452
308.42750,2.416389306
308.42800,4.55275016
308.42850,5.163138975
308.42900,4.55275016
308.42950,3.942361344
308.43000,3.331972529
308.43050,1.500806083
308.43100,-0.3303603634
308.43150,-1.856332402
308.43200,-2.16152681
308.43250,-2.16152681
308.43300,-3.992693256
308.43350,-6.434248517
308.43400,-8.265414964
308.43450,-8.265414964
308.43500,-7.960220556
308.43550,-8.875803779
308.43600,-10.40177582
308.43650,-11.62255345
308.43700,-13.14852549
308.43750,-14.36930312
308.43800,-14.97969193
308.43850,-13.7589143
308.43900,-10.70697023
308.43950,-7.044637333
308.44000,-4.603082071
308.44050,-3.38230444
308.44100,-2.16152681
308.44150,-0.6355547711
308.44200,0.280028452
308.44250,-0.02516595566
308.44300,-0.9407491788
308.44350,-0.6355547711
308.44400,-0.02516595566
308.44450,-0.02516595566
308.44500,-1.551137994
308.44550,-2.771915625
308.44600,-2.771915625
308.44650,-2.771915625
308.44700,-3.687498848
308.44750,-4.908276479
308.44800,-6.434248517
308.44850,-7.655026148
308.44900,-8.265414964
308.44950,-8.570609371
308.45000,-9.486192594
308.45050,-12.53813667
308.45100,-14.36930312
308.45150,-11.62255345
308.45200,-5.823859702
308.45250,-1.551137994
308.45300,-2.16152681
308.45350,-3.687498848
308.45400,-3.38230444
308.45450,-1.856332402
308.45500,-0.6355547711
308.45550,0.5852228597
308.45600,2.111194898
308.45650,0.8904172674
308.45700,-3.38230444
308.45750,-7.044637333
308.45800,-5.823859702
308.45850,-0.3303603634
308.45900,5.773527791
308.45950,11.26702713
308.46000,15.23455443
308.46050,16.76052647
308.46100,16.45533206
308.46150,17.06572088
308.46200,18.89688732
308.46250,18.28649851
308.46300,12.79299917
308.46350,5.773527791
308.46400,2.416389306
308.46450,1.500806083
308.46500,-3.077110033
308.46550,-11.62255345
308.46600,-16.81085838
308.46650,-12.53813667
308.46700,-1.245943586
308.46750,9.741055091
308.46800,16.15013765
308.46850,18.59169291
308.46900,18.28649851
308.46950,17.67610969
308.47000,16.45533206
308.47050,15.23455443
308.47100,14.92936002
308.47150,15.53974884
308.47200,17.37091528
308.47250,17.9813041
308.47300,16.15013765
308.47350,12.79299917
308.47400,9.741055091
308.47450,8.215083052
308.47500,6.078722198
308.47550,1.500806083
308.47600,-4.297887663
308.47650,-8.875803779
308.47700,-11.01216463
308.47750,-10.70697023
308.47800,-9.180998187
308.47850,-7.960220556
308.47900,-7.34983174
308.47950,-7.044637333
308.48000,-6.434248517
308.48050,-5.823859702
308.48100,-5.213470887
308.48150,-4.908276479
308.48200,-3.992693256
308.48250,-2.16152681
308.48300,-0.3303603634
308.48350,1.195611675
308.48400,2.721583714
308.48450,3.637166937
308.48500,4.55275016
308.48550,4.857944568
308.48600,4.857944568
308.48650,4.247555752
308.48700,3.331972529
308.48750,2.416389306
308.48800,0.5852228597
308.48850,-0.9407491788
308.48900,-1.856332402
308.48950,-1.245943586
308.49000,-1.245943586
308.49050,-3.992693256
308.49100,-7.655026148
308.49150,-8.570609371
308.49200,-5.823859702
308.49250,-3.077110033
308.49300,-3.077110033
308.49350,-4.603082071
308.49400,-5.518665294
308.49450,-5.823859702
308.49500,-7.044637333
308.49550,-8.875803779
308.49600,-7.960220556
308.49650,-4.908276479
308.49700,-1.551137994
308.49750,-0.6355547711
308.49800,-0.6355547711
308.49850,-0.3303603634
308.49900,0.280028452
308.49950,0.8904172674
308.50000,0.8904172674
308.50050,0.280028452
308.50100,0.5852228597
308.50150,1.500806083
308.50200,2.721583714
308.50250,3.942361344
308.50300,4.857944568
308.50350,5.163138975
308.50400,4.247555752
308.50450,3.331972529
308.50500,2.721583714
308.50550,2.416389306
308.50600,0.280028452
308.50650,-2.466721217
308.50700,-4.908276479
308.50750,-4.908276479
308.50800,-3.38230444
308.50850,-2.466721217
308.50900,-2.16152681
308.50950,-1.856332402
308.51000,-1.551137994
308.51050,-0.9407491788
308.51100,-0.6355547711
308.51150,-0.6355547711
308.51200,-2.466721217
308.51250,-5.823859702
308.51300,-9.180998187
308.51350,-10.09658141
308.51400,-10.09658141
308.51450,-10.70697023
308.51500,-12.23294226
308.51550,-12.23294226
308.51600,-11.31735904
308.51650,-10.40177582
308.51700,-9.486192594
308.51750,-7.34983174
308.51800,-4.603082071
308.51850,-2.16152681
308.51900,0.5852228597
308.51950,4.857944568
308.52000,8.215083052
308.52050,8.215083052
308.52100,6.689111014
308.52150,6.994305421
308.52200,10.65663831
308.52250,14.0137768
308.52300,14.62416561
308.52350,13.70858239
308.52400,12.79299917
308.52450,10.96183272
308.52500,7.909888645
308.52550,5.773527791
308.52600,5.163138975
308.52650,5.163138975
308.52700,4.247555752
308.52750,3.331972529
308.52800,2.416389306
308.52850,1.806000491
308.52900,1.500806083
308.52950,2.416389306
308.53000,3.942361344
308.53050,3.637166937
308.53100,1.500806083
308.53150,0.5852228597
308.53200,1.500806083
308.53250,1.195611675
308.53300,-2.466721217
308.53350,-8.265414964
308.53400,-11.62255345
308.53450,-12.53813667
308.53500,-12.23294226
308.53550,-12.23294226
308.53600,-11.01216463
308.53650,-8.265414964
308.53700,-4.603082071
308.53750,-1.856332402
308.53800,-1.245943586
308.53850,-1.551137994
308.53900,-0.3303603634
308.53950,2.111194898
308.54000,3.942361344
308.54050,1.806000491
308.54100,-2.771915625
308.54150,-4.908276479
308.54200,-2.466721217
308.54250,0.5852228597
308.54300,2.416389306
308.54350,4.857944568
308.54400,10.96183272
308.54450,17.67610969
308.54500,19.81247054
308.54550,16.45533206
308.54600,12.48780476
308.54650,9.741055091
308.54700,6.689111014
308.54750,1.806000491
308.54800,-2.771915625
308.54850,-4.908276479
308.54900,-3.077110033
308.54950,0.8904172674
308.55000,4.55275016
308.55050,3.942361344
308.55100,-0.3303603634
308.55150,-3.077110033
308.55200,0.5852228597
308.55250,8.52027746
308.55300,10.96183272
308.55350,4.857944568
308.55400,-4.908276479
308.55450,-11.62255345
308.55500,-14.97969193
308.55550,-18.03163601
308.55600,-20.16799686
308.55650,-19.86280246
308.55700,-15.89527516
308.55750,-10.70697023
308.55800,-7.34983174
308.55850,-7.960220556
308.55900,-11.31735904
308.55950,-14.36930312
308.56000,-12.84333108
308.56050,-6.434248517
308.56100,0.8904172674
308.56150,6.689111014
308.56200,10.35144391
308.56250,14.31897121
308.56300,18.59169291
308.56350,21.9488314
308.56400,24.39038666
308.56450,25.9163587
308.56500,24.69558107
308.56550,18.59169291
308.56600,8.825471868
308.56650,-0.02516595566
308.56700,-3.38230444
308.56750,-0.02516595566
308.56800,5.163138975
308.56850,7.299499829
308.56900,2.721583714
308.56950,-4.297887663
308.57000,-8.570609371
308.57050,-8.875803779
308.57100,-9.486192594
308.57150,-14.06410871
308.57200,-19.55760805
308.57250,-21.38877449
308.57300,-19.25241364
308.57350,-16.50566397
308.57400,-14.97969193
308.57450,-13.45371989
308.57500,-10.40177582
308.57550,-6.12905411
308.57600,-2.466721217
308.57650,-0.6355547711
308.57700,-1.245943586
308.57750,-2.16152681
308.57800,-2.466721217
308.57850,-5.518665294
308.57900,-13.7589143
308.57950,-21.99916331
308.58000,-20.16799686
308.58050,-5.823859702
308.58100,10.96183272
308.58150,20.42285936
308.58200,21.9488314
308.58250,20.42285936
308.58300,16.76052647
308.58350,11.26702713
308.58400,7.909888645
308.58450,11.26702713
308.58500,17.37091528
308.58550,18.89688732
308.58600,14.31897121
308.58650,9.741055091
308.58700,9.130666275
308.58750,10.0462495
308.58800,8.52027746
308.58850,5.468333383
308.58900,3.942361344
308.58950,3.942361344
308.59000,3.942361344
308.59050,2.111194898
308.59100,0.280028452
308.59150,-1.245943586
308.59200,-2.771915625
308.59250,-3.38230444
308.59300,-2.771915625
308.59350,-1.245943586
308.59400,-0.9407491788
308.59450,-3.38230444
308.59500,-6.739442925
308.59550,-8.570609371
308.59600,-8.875803779
308.59650,-8.875803779
308.59700,-9.791387002
308.59750,-10.40177582
308.59800,-10.09658141
308.59850,-8.875803779
308.59900,-7.34983174
308.59950,-5.823859702
308.60000,-4.603082071
308.60050,-5.518665294
308.60100,-8.265414964
308.60150,-9.791387002
308.60200,-7.34983174
308.60250,-2.16152681
308.60300,2.111194898
308.60350,4.55275016
308.60400,5.468333383
308.60450,4.857944568
308.60500,3.942361344
308.60550,3.942361344
308.60600,5.468333383
308.60650,6.994305421
308.60700,7.909888645
308.60750,8.215083052
308.60800,7.909888645
308.60850,6.078722198
308.60900,3.331972529
308.60950,2.721583714
308.61000,3.942361344
308.61050,4.247555752
308.61100,1.500806083
308.61150,-1.856332402
308.61200,-3.687498848
308.61250,-3.992693256
308.61300,-6.12905411
308.61350,-8.875803779
308.61400,-10.09658141
308.61450,-9.791387002
308.61500,-11.62255345
308.61550,-15.59008075
308.61600,-18.03163601
308.61650,-16.50566397
308.61700,-13.14852549
308.61750,-10.09658141
308.61800,-8.570609371
308.61850,-7.044637333
308.61900,-4.603082071
308.61950,-1.551137994
308.62000,0.8904172674
308.62050,2.416389306
308.62100,1.195611675
308.62150,-0.6355547711
308.62200,-2.16152681
308.62250,-3.077110033
308.62300,-4.297887663
308.62350,-5.518665294
308.62400,-3.687498848
308.62450,0.8904172674
308.62500,6.383916606
308.62550,11.26702713
308.62600,16.15013765
308.62650,20.11766495
308.62700,20.11766495
308.62750,16.15013765
308.62800,11.26702713
308.62850,9.130666275
308.62900,8.52027746
308.62950,6.689111014
308.63000,3.942361344
308.63050,4.55275016
308.63100,8.825471868
308.63150,13.09819358
308.63200,12.48780476
308.63250,7.604694237
308.63300,0.8904172674
308.63350,-4.297887663
308.63400,-7.960220556
308.63450,-11.01216463
308.63500,-14.67449753
308.63550,-18.64202483
308.63600,-19.55760805
308.63650,-13.45371989
308.63700,-0.9407491788
308.63750,10.96183272
308.63800,15.53974884
308.63850,11.87741594
308.63900,6.994305421
308.63950,6.689111014
308.64000,9.435860683
308.64050,10.0462495
308.64100,7.604694237
308.64150,4.247555752
308.64200,2.111194898
308.64250,2.111194898
308.64300,3.942361344
308.64350,6.689111014
308.64400,7.909888645
308.64450,6.994305421
308.64500,6.383916606
308.64550,8.825471868
308.64600,10.96183272
308.64650,8.825471868
308.64700,3.637166937
308.64750,2.111194898
308.64800,7.299499829
308.64850,12.18261035
308.64900,10.65663831
308.64950,5.163138975
308.65000,1.806000491
308.65050,2.111194898
308.65100,3.026778121
308.65150,1.500806083
308.65200,-1.856332402
308.65250,-6.434248517
308.65300,-11.01216463
308.65350,-14.67449753
308.65400,-16.20046956
308.65450,-17.42124719
308.65500,-19.55760805
308.65550,-21.08358009
308.65600,-16.50566397
308.65650,-4.603082071
308.65700,8.825471868
308.65750,14.0137768
308.65800,4.857944568
308.65850,-11.01216463
308.65900,-21.08358009
308.65950,-18.94721923
308.66000,-8.875803779
308.66050,-0.9407491788
308.66100,1.500806083
308.66150,0.5852228597
308.66200,-0.9407491788
308.66250,-1.856332402
308.66300,-0.02516595566
308.66350,5.468333383
308.66400,10.65663831
308.66450,11.87741594
308.66500,10.0462495
308.66550,9.435860683
308.66600,10.96183272
308.66650,11.57222154
308.66700,9.741055091
308.66750,8.52027746
308.66800,8.52027746
308.66850,7.909888645
308.66900,4.247555752
308.66950,-0.02516595566
308.67000,-3.687498848
308.67050,-5.823859702
308.67100,-7.34983174
308.67150,-7.044637333
308.67200,-4.908276479
308.67250,-2.771915625
308.67300,-3.687498848
308.67350,-7.960220556
308.67400,-13.45371989
308.67450,-16.50566397
308.67500,-15.89527516
308.67550,-12.23294226
308.67600,-9.486192594
308.67650,-11.62255345
308.67700,-18.33683042
308.67750,-23.83032976
308.67800,-22.30435772
308.67850,-15.28488634
308.67900,-7.34983174
308.67950,-2.466721217
308.68000,-0.9407491788
308.68050,-0.02516595566
308.68100,3.331972529
308.68150,8.825471868
308.68200,14.31897121
308.68250,18.28649851
308.68300,19.81247054
308.68350,20.11766495
308.68400,21.33844258
308.68450,22.55922021
308.68500,22.55922021
308.68550,21.33844258
308.68600,21.64363699
308.68650,24.69558107
308.68700,27.74752515
308.68750,27.13713633
308.68800,23.47480344
308.68850,18.89688732
308.68900,12.79299917
308.68950,2.721583714
308.69000,-11.01216463
308.69050,-21.6939689
308.69100,-24.74591298
308.69150,-21.6939689
308.69200,-16.20046956
308.69250,-10.09658141
308.69300,-3.077110033
308.69350,0.5852228597
308.69400,-2.16152681
308.69450,-9.486192594
308.69500,-15.28488634
308.69550,-14.97969193
308.69600,-11.92774786
308.69650,-9.791387002
308.69700,-9.180998187
308.69750,-9.486192594
308.69800,-10.70697023
308.69850,-12.84333108
308.69900,-14.67449753
308.69950,-14.06410871
308.70000,-11.92774786
308.70050,-9.486192594
308.70100,-7.960220556
308.70150,-5.823859702
308.70200,-3.38230444
308.70250,-0.9407491788
308.70300,0.280028452
308.70350,1.500806083
308.70400,3.026778121
308.70450,4.55275016
308.70500,4.55275016
308.70550,2.721583714
308.70600,0.280028452
308.70650,-0.02516595566
308.70700,1.195611675
308.70750,3.637166937
308.70800,5.163138975
308.70850,4.857944568
308.70900,3.331972529
308.70950,-0.02516595566
308.71000,-3.992693256
308.71050,-7.34983174
308.71100,-7.34983174
308.71150,-6.434248517
308.71200,-7.044637333
308.71250,-8.875803779
308.71300,-8.875803779
308.71350,-5.213470887
308.71400,-1.856332402
308.71450,-2.16152681
308.71500,-5.823859702
308.71550,-9.791387002
308.71600,-11.31735904
308.71650,-10.70697023
308.71700,-9.180998187
308.71750,-8.265414964
308.71800,-8.265414964
308.71850,-7.960220556
308.71900,-6.434248517
308.71950,-3.077110033
308.72000,-0.6355547711
308.72050,-0.6355547711
308.72100,-2.16152681
308.72150,-2.466721217
308.72200,-1.245943586
308.72250,0.280028452
308.72300,1.806000491
308.72350,3.637166937
308.72400,6.689111014
308.72450,12.18261035
308.72500,17.67610969
308.72550,21.03324818
308.72600,20.72805377
308.72650,17.9813041
308.72700,14.92936002
308.72750,14.0137768
308.72800,15.23455443
308.72850,16.15013765
308.72900,14.92936002
308.72950,11.57222154
308.73000,7.909888645
308.73050,5.773527791
308.73100,6.078722198
308.73150,7.299499829
308.73200,6.689111014
308.73250,4.247555752
308.73300,1.195611675
308.73350,-0.02516595566
308.73400,-0.3303603634
308.73450,-0.9407491788
308.73500,-2.16152681
308.73550,-2.16152681
308.73600,-1.245943586
308.73650,-1.245943586
308.73700,-3.992693256
308.73750,-7.34983174
308.73800,-9.486192594
308.73850,-11.01216463
308.73900,-12.53813667
308.73950,-12.23294226
308.74000,-7.34983174
308.74050,-0.9407491788
308.74100,1.500806083
308.74150,-0.02516595566
308.74200,-0.9407491788
308.74250,-0.6355547711
308.74300,-2.16152681
308.74350,-5.518665294
308.74400,-4.603082071
308.74450,2.416389306
308.74500,10.0462495
308.74550,10.35144391
308.74600,3.026778121
308.74650,-3.687498848
308.74700,-5.823859702
308.74750,-3.687498848
308.74800,-0.9407491788
308.74850,1.195611675
308.74900,3.637166937
308.74950,8.52027746
308.75000,17.06572088
308.75050,25.00077548
308.75100,25.9163587
308.75150,18.89688732
308.75200,9.741055091
308.75250,4.247555752
308.75300,1.806000491
308.75350,-0.9407491788
308.75400,-4.908276479
308.75450,-8.570609371
308.75500,-10.70697023
308.75550,-11.01216463
308.75600,-11.01216463
308.75650,-12.53813667
308.75700,-15.89527516
308.75750,-17.42124719
308.75800,-13.14852549
308.75850,-3.687498848
308.75900,3.942361344
308.75950,4.55275016
308.76000,0.8904172674
308.76050,-0.3303603634
308.76100,1.806000491
308.76150,4.857944568
308.76200,4.857944568
308.76250,3.026778121
308.76300,1.806000491
308.76350,1.806000491
308.76400,3.026778121
308.76450,3.331972529
308.76500,2.416389306
308.76550,1.500806083
308.76600,1.500806083
308.76650,1.806000491
308.76700,0.5852228597
308.76750,-1.245943586
308.76800,-2.466721217
308.76850,-2.16152681
308.76900,-1.245943586
308.76950,-1.245943586
308.77000,-2.771915625
308.77050,-4.603082071
308.77100,-6.12905411
308.77150,-6.739442925
308.77200,-6.739442925
308.77250,-6.739442925
308.77300,-7.960220556
308.77350,-10.40177582
308.77400,-12.84333108
308.77450,-12.53813667
308.77500,-10.70697023
308.77550,-9.791387002
308.77600,-10.40177582
308.77650,-11.01216463
308.77700,-10.40177582
308.77750,-9.180998187
308.77800,-7.655026148
308.77850,-4.908276479
308.77900,-1.245943586
308.77950,1.500806083
308.78000,2.721583714
308.78050,3.331972529
308.78100,4.247555752
308.78150,4.55275016
308.78200,3.637166937
308.78250,4.857944568
308.78300,10.35144391
308.78350,17.37091528
308.78400,20.72805377
308.78450,18.89688732
308.78500,16.15013765
308.78550,17.67610969
308.78600,23.16960903
308.78650,29.27349718
308.78700,31.71505245
308.78750,30.49427481
308.78800,28.05271955
308.78850,25.9163587
308.78900,22.86441462
308.78950,16.45533206
308.79000,5.773527791
308.79050,-7.044637333
308.79100,-18.94721923
308.79150,-26.57707943
308.79200,-27.79785706
308.79250,-23.52513535
308.79300,-16.50566397
308.79350,-11.62255345
308.79400,-10.40177582
308.79450,-10.70697023
308.79500,-9.791387002
308.79550,-8.875803779
308.79600,-10.09658141
308.79650,-13.14852549
308.79700,-15.28488634
308.79750,-14.67449753
308.79800,-10.40177582
308.79850,-3.992693256
308.79900,2.111194898
308.79950,5.773527791
308.80000,4.55275016
308.80050,-0.02516595566
308.80100,-4.908276479
308.80150,-7.655026148
308.80200,-8.570609371
308.80250,-8.875803779
308.80300,-8.570609371
308.80350,-6.12905411
308.80400,-2.16152681
308.80450,2.111194898
308.80500,6.689111014
308.80550,9.435860683
308.80600,9.130666275
308.80650,6.383916606
308.80700,3.942361344
308.80750,4.247555752
308.80800,6.689111014
308.80850,8.825471868
308.80900,9.741055091
308.80950,11.26702713
308.81000,13.40338798
308.81050,12.79299917
308.81100,6.689111014
308.81150,-1.856332402
308.81200,-8.265414964
308.81250,-9.486192594
308.81300,-8.875803779
308.81350,-9.486192594
308.81400,-9.791387002
308.81450,-7.044637333
308.81500,-2.771915625
308.81550,-0.02516595566
308.81600,0.280028452
308.81650,0.280028452
308.81700,0.8904172674
308.81750,0.280028452
308.81800,-1.551137994
308.81850,-3.077110033
308.81900,-2.466721217
308.81950,-1.551137994
308.82000,-2.16152681
308.82050,-3.38230444
308.82100,-3.38230444
308.82150,-1.856332402
308.82200,-0.02516595566
308.82250,0.8904172674
308.82300,2.721583714
308.82350,4.247555752
308.82400,5.163138975
308.82450,5.468333383
308.82500,6.689111014
308.82550,8.215083052
308.82600,8.52027746
308.82650,7.604694237
308.82700,6.994305421
308.82750,7.299499829
308.82800,6.994305421
308.82850,5.773527791
308.82900,6.383916606
308.82950,8.215083052
308.83000,8.215083052
308.83050,4.857944568
308.83100,0.280028452
308.83150,-2.466721217
308.83200,-3.992693256
308.83250,-5.823859702
308.83300,-7.34983174
308.83350,-9.791387002
308.83400,-13.45371989
308.83450,-17.7264416
308.83500,-19.55760805
308.83550,-17.11605279
308.83600,-14.06410871
308.83650,-12.53813667
308.83700,-11.01216463
308.83750,-7.044637333
308.83800,-1.245943586
308.83850,3.026778121
308.83900,5.468333383
308.83950,6.994305421
308.84000,7.299499829
308.84050,4.857944568
308.84100,1.195611675
308.84150,-0.6355547711
308.84200,-0.3303603634
308.84250,1.195611675
308.84300,3.331972529
308.84350,6.078722198
308.84400,9.130666275
308.84450,11.26702713
308.84500,11.26702713
308.84550,10.65663831
308.84600,10.96183272
308.84650,11.57222154
308.84700,10.0462495
308.84750,8.52027746
308.84800,8.52027746
308.84850,9.435860683
308.84900,8.52027746
308.84950,3.942361344
308.85000,-0.02516595566
308.85050,-0.02516595566
308.85100,1.500806083
308.85150,0.280028452
308.85200,-3.077110033
308.85250,-5.823859702
308.85300,-6.739442925
308.85350,-8.570609371
308.85400,-11.31735904
308.85450,-11.92774786
308.85500,-8.570609371
308.85550,-4.908276479
308.85600,-3.687498848
308.85650,-4.297887663
308.85700,-4.908276479
308.85750,-6.739442925
308.85800,-9.791387002
308.85850,-11.62255345
308.85900,-9.791387002
308.85950,-6.12905411
308.86000,-4.297887663
308.86050,-4.297887663
308.86100,-3.992693256
308.86150,-2.771915625
308.86200,-1.856332402
308.86250,-1.245943586
308.86300,-0.3303603634
308.86350,-0.02516595566
308.86400,-0.02516595566
308.86450,-0.02516595566
308.86500,0.8904172674
308.86550,0.5852228597
308.86600,-0.6355547711
308.86650,-0.6355547711
308.86700,0.280028452
308.86750,-0.02516595566
308.86800,-2.466721217
308.86850,-2.771915625
308.86900,3.026778121
308.86950,10.35144391
308.87000,13.40338798
308.87050,12.18261035
308.87100,10.35144391
308.87150,9.435860683
308.87200,6.994305421
308.87250,4.55275016
308.87300,4.247555752
308.87350,5.163138975
308.87400,3.942361344
308.87450,-0.02516595566
308.87500,-4.297887663
308.87550,-7.044637333
308.87600,-7.960220556
308.87650,-5.823859702
308.87700,-1.856332402
308.87750,-0.02516595566
308.87800,-3.992693256
308.87850,-9.486192594
308.87900,-10.40177582
308.87950,-5.823859702
308.88000,-1.551137994
308.88050,-1.245943586
308.88100,-2.16152681
308.88150,-0.9407491788
308.88200,0.280028452
308.88250,0.5852228597
308.88300,0.280028452
308.88350,2.721583714
308.88400,6.689111014
308.88450,8.215083052
308.88500,6.078722198
308.88550,3.637166937
308.88600,3.331972529
308.88650,3.942361344
308.88700,1.195611675
308.88750,-5.823859702
308.88800,-13.14852549
308.88850,-15.28488634
308.88900,-10.40177582
308.88950,-0.6355547711
308.89000,10.0462495
308.89050,17.67610969
308.89100,19.50727614
308.89150,16.45533206
308.89200,12.18261035
308.89250,8.825471868
308.89300,5.163138975
308.89350,-0.02516595566
308.89400,-3.687498848
308.89450,-4.603082071
308.89500,-5.213470887
308.89550,-8.875803779
308.89600,-14.36930312
308.89650,-17.11605279
308.89700,-16.20046956
308.89750,-14.36930312
308.89800,-12.23294226
308.89850,-8.875803779
308.89900,-6.434248517
308.89950,-7.044637333
308.90000,-8.570609371
308.90050,-5.213470887
308.90100,3.637166937
308.90150,13.09819358
308.90200,18.59169291
308.90250,19.81247054
308.90300,19.20208173
308.90350,17.67610969
308.90400,15.53974884
308.90450,13.09819358
308.90500,10.35144391
308.90550,6.689111014
308.90600,3.026778121
308.90650,2.416389306
308.90700,4.55275016
308.90750,6.383916606
308.90800,6.078722198
308.90850,5.468333383
308.90900,6.078722198
308.90950,6.689111014
308.91000,5.773527791
308.91050,4.55275016
308.91100,4.857944568
308.91150,5.468333383
308.91200,4.857944568
308.91250,2.721583714
308.91300,-0.02516595566
308.91350,-4.297887663
308.91400,-11.01216463
308.91450,-18.03163601
308.91500,-21.99916331
308.91550,-21.38877449
308.91600,-18.33683042
308.91650,-13.7589143
308.91700,-8.875803779
308.91750,-5.213470887
308.91800,-3.38230444
308.91850,-1.856332402
308.91900,1.195611675
308.91950,5.773527791
308.92000,7.604694237
308.92050,6.994305421
308.92100,5.773527791
308.92150,5.773527791
308.92200,5.773527791
308.92250,4.247555752
308.92300,2.721583714
308.92350,3.331972529
308.92400,5.163138975
308.92450,6.689111014
308.92500,6.689111014
308.92550,4.857944568
308.92600,2.721583714
308.92650,0.8904172674
308.92700,-0.02516595566
308.92750,-0.02516595566
308.92800,0.280028452
308.92850,0.5852228597
308.92900,0.5852228597
308.92950,0.5852228597
308.93000,0.8904172674
308.93050,0.8904172674
308.93100,-0.02516595566
308.93150,-3.687498848
308.93200,-8.570609371
308.93250,-12.23294226
308.93300,-11.92774786
308.93350,-8.570609371
308.93400,-5.823859702
308.93450,-6.434248517
308.93500,-8.265414964
308.93550,-9.180998187
308.93600,-9.180998187
308.93650,-10.09658141
308.93700,-11.62255345
308.93750,-11.31735904
308.93800,-7.960220556
308.93850,-4.603082071
308.93900,-3.077110033
308.93950,-3.687498848
308.94000,-3.687498848
308.94050,-2.16152681
308.94100,-0.02516595566
308.94150,1.806000491
308.94200,4.55275016
308.94250,7.299499829
308.94300,7.909888645
308.94350,5.773527791
308.94400,2.721583714
308.94450,2.111194898
308.94500,4.247555752
308.94550,6.383916606
308.94600,5.468333383
308.94650,2.111194898
308.94700,-0.02516595566
308.94750,2.416389306
308.94800,6.689111014
308.94850,8.825471868
308.94900,7.299499829
308.94950,4.247555752
308.95000,2.416389306
308.95050,2.111194898
308.95100,1.806000491
308.95150,0.8904172674
308.95200,-0.9407491788
308.95250,-3.687498848
308.95300,-7.34983174
308.95350,-11.31735904
308.95400,-14.97969193
308.95450,-18.64202483
308.95500,-21.08358009
308.95550,-20.47319127
308.95600,-16.81085838
308.95650,-12.53813667
308.95700,-11.01216463
308.95750,-11.62255345
308.95800,-11.01216463
308.95850,-8.570609371
308.95900,-5.213470887
308.95950,-3.38230444
308.96000,-2.16152681
308.96050,-0.02516595566
308.96100,3.331972529
308.96150,5.773527791
308.96200,6.689111014
308.96250,6.078722198
308.96300,4.247555752
308.96350,3.026778121
308.96400,3.331972529
308.96450,4.857944568
308.96500,7.299499829
308.96550,10.96183272
308.96600,17.37091528
308.96650,24.39038666
308.96700,27.74752515
308.96750,24.08519225
308.96800,16.76052647
308.96850,10.65663831
308.96900,6.994305421
308.96950,4.55275016
308.97000,2.416389306
308.97050,2.111194898
308.97100,3.637166937
308.97150,4.857944568
308.97200,3.637166937
308.97250,0.5852228597
308.97300,-3.077110033
308.97350,-7.044637333
308.97400,-10.09658141
308.97450,-11.62255345
308.97500,-12.84333108
308.97550,-15.59008075
308.97600,-17.7264416
308.97650,-15.89527516
308.97700,-9.791387002
308.97750,-3.687498848
308.97800,-0.9407491788
308.97850,-1.245943586
308.97900,-2.16152681
308.97950,-1.245943586
308.98000,0.5852228597
308.98050,3.637166937
308.98100,6.383916606
308.98150,7.909888645
308.98200,8.825471868
308.98250,10.35144391
308.98300,11.87741594
308.98350,14.0137768
308.98400,18.28649851
308.98450,24.69558107
308.98500,29.27349718
308.98550,26.83194192
308.98600,17.37091528
308.98650,6.994305421
308.98700,0.280028452
308.98750,-4.908276479
308.98800,-12.53813667
308.98850,-20.47319127
308.98900,-25.05110739
308.98950,-24.74591298
308.99000,-21.38877449
308.99050,-17.42124719
308.99100,-12.53813667
308.99150,-6.739442925
308.99200,-0.6355547711
308.99250,6.689111014
308.99300,16.45533206
308.99350,25.00077548
308.99400,27.44233074
308.99450,21.9488314
308.99500,11.87741594
308.99550,2.111194898
308.99600,-3.077110033
308.99650,-5.518665294
308.99700,-6.12905411
308.99750,-7.34983174
308.99800,-10.09658141
308.99850,-14.97969193
308.99900,-20.47319127
308.99950,-22.60955213
309.00000,-18.94721923
309.00050,-11.31735904
309.00100,-3.687498848
309.00150,0.280028452
309.00200,2.721583714
309.00250,5.163138975
309.00300,7.604694237
309.00350,7.604694237
309.00400,5.468333383
309.00450,3.637166937
309.00500,3.637166937
309.00550,4.247555752
309.00600,3.637166937
309.00650,2.111194898
309.00700,0.8904172674
309.00750,-0.02516595566
309.00800,-0.02516595566
309.00850,-0.02516595566
309.00900,0.8904172674
309.00950,0.8904172674
309.01000,-0.02516595566
309.01050,-0.3303603634
309.01100,-0.02516595566
309.01150,1.500806083
309.01200,2.416389306
309.01250,2.416389306
309.01300,0.5852228597
309.01350,-1.245943586
309.01400,-2.771915625
309.01450,-2.16152681
309.01500,-0.02516595566
309.01550,0.8904172674
309.01600,0.8904172674
309.01650,1.500806083
309.01700,3.026778121
309.01750,3.637166937
309.01800,-0.02516595566
309.01850,-8.265414964
309.01900,-16.81085838
309.01950,-21.08358009
309.02000,-19.25241364
309.02050,-12.53813667
309.02100,-3.077110033
309.02150,6.383916606
309.02200,14.0137768
309.02250,17.9813041
309.02300,18.28649851
309.02350,16.15013765
309.02400,13.70858239
309.02450,11.57222154
309.02500,9.741055091
309.02550,7.299499829
309.02600,4.55275016
309.02650,2.721583714
309.02700,2.111194898
309.02750,2.111194898
309.02800,0.280028452
309.02850,-1.856332402
309.02900,-3.38230444
309.02950,-2.771915625
309.03000,-3.38230444
309.03050,-6.434248517
309.03100,-10.40177582
309.03150,-10.70697023
309.03200,-6.434248517
309.03250,-1.245943586
309.03300,-0.3303603634
309.03350,-3.077110033
309.03400,-5.823859702
309.03450,-5.823859702
309.03500,-3.38230444
309.03550,-0.9407491788
309.03600,-0.02516595566
309.03650,-0.02516595566
309.03700,-1.856332402
309.03750,-4.297887663
309.03800,-5.213470887
309.03850,-4.603082071
309.03900,-3.077110033
309.03950,-2.16152681
309.04000,-0.6355547711
309.04050,1.195611675
309.04100,2.721583714
309.04150,3.026778121
309.04200,2.416389306
309.04250,2.416389306
309.04300,3.637166937
309.04350,5.468333383
309.04400,6.078722198
309.04450,5.773527791
309.04500,6.994305421
309.04550,9.435860683
309.04600,11.26702713
309.04650,9.741055091
309.04700,6.383916606
309.04750,5.163138975
309.04800,6.994305421
309.04850,9.435860683
309.04900,10.96183272
309.04950,11.26702713
309.05000,10.65663831
309.05050,7.299499829
309.05100,0.280028452
309.05150,-6.739442925
309.05200,-11.01216463
309.05250,-13.45371989
309.05300,-16.50566397
309.05350,-19.55760805
309.05400,-19.55760805
309.05450,-17.11605279
309.05500,-14.67449753
309.05550,-13.7589143
309.05600,-12.23294226
309.05650,-9.180998187
309.05700,-7.044637333
309.05750,-7.34983174
309.05800,-9.180998187
309.05850,-9.791387002
309.05900,-8.265414964
309.05950,-5.823859702
309.06000,-3.992693256
309.06050,-2.466721217
309.06100,-0.6355547711
309.06150,1.195611675
309.06200,1.806000491
309.06250,0.5852228597
309.06300,-1.551137994
309.06350,-2.771915625
309.06400,-2.771915625
309.06450,-2.466721217
309.06500,-0.9407491788
309.06550,1.806000491
309.06600,4.55275016
309.06650,4.247555752
309.06700,2.416389306
309.06750,2.721583714
309.06800,5.773527791
309.06850,7.909888645
309.06900,7.604694237
309.06950,5.773527791
309.07000,4.55275016
309.07050,3.026778121
309.07100,1.195611675
309.07150,0.5852228597
309.07200,0.5852228597
309.07250,-0.6355547711
309.07300,-4.297887663
309.07350,-7.34983174
309.07400,-7.655026148
309.07450,-6.739442925
309.07500,-6.434248517
309.07550,-6.12905411
309.07600,-5.518665294
309.07650,-6.739442925
309.07700,-9.486192594
309.07750,-10.40177582
309.07800,-7.655026148
309.07850,-4.908276479
309.07900,-5.823859702
309.07950,-9.486192594
309.08000,-12.53813667
309.08050,-14.36930312
309.08100,-14.97969193
309.08150,-11.01216463
309.08200,-2.771915625
309.08250,2.416389306
309.08300,-0.3303603634
309.08350,-6.12905411
309.08400,-2.16152681
309.08450,13.09819358
309.08500,28.66310837
309.08550,34.76699652
309.08600,32.32544126
309.08650,29.57869159
309.08700,28.96830278
309.08750,29.57869159
309.08800,30.49427481
309.08850,30.79946922
309.08900,27.74752515
309.08950,19.50727614
309.09000,9.741055091
309.09050,4.55275016
309.09100,6.689111014
309.09150,12.18261035
309.09200,15.23455443
309.09250,12.79299917
309.09300,5.468333383
309.09350,-1.245943586
309.09400,-4.297887663
309.09450,-3.077110033
309.09500,-2.466721217
309.09550,-3.992693256
309.09600,-6.12905411
309.09650,-7.34983174
309.09700,-7.655026148
309.09750,-8.875803779
309.09800,-10.40177582
309.09850,-10.70697023
309.09900,-10.40177582
309.09950,-10.09658141
309.10000,-9.180998187
309.10050,-5.823859702
309.10100,-2.16152681
309.10150,-0.02516595566
309.10200,0.8904172674
309.10250,2.111194898
309.10300,3.637166937
309.10350,4.55275016
309.10400,5.163138975
309.10450,5.468333383
309.10500,6.078722198
309.10550,6.383916606
309.10600,6.078722198
309.10650,5.773527791
309.10700,5.468333383
309.10750,5.468333383
309.10800,4.55275016
309.10850,1.806000491
309.10900,-2.16152681
309.10950,-7.044637333
309.11000,-10.40177582
309.11050,-12.23294226
309.11100,-13.14852549
309.11150,-12.84333108
309.11200,-10.40177582
309.11250,-8.265414964
309.11300,-10.70697023
309.11350,-16.81085838
309.11400,-22.30435772
309.11450,-24.44071857
309.11500,-24.44071857
309.11550,-23.83032976
309.11600,-22.30435772
309.11650,-18.03163601
309.11700,-14.36930312
309.11750,-12.84333108
309.11800,-11.92774786
309.11850,-8.570609371
309.11900,-3.687498848
309.11950,0.280028452
309.12000,3.331972529
309.12050,6.994305421
309.12100,10.96183272
309.12150,14.31897121
309.12200,17.9813041
309.12250,22.25402581
309.12300,25.30596988
309.12350,24.69558107
309.12400,20.42285936
309.12450,13.40338798
309.12500,4.55275016
309.12550,-4.603082071
309.12600,-9.791387002
309.12650,-7.655026148
309.12700,-1.245943586
309.12750,3.026778121
309.12800,3.637166937
309.12850,2.721583714
309.12900,1.195611675
309.12950,-0.6355547711
309.13000,-3.687498848
309.13050,-4.603082071
309.13100,-4.297887663
309.13150,-4.908276479
309.13200,-7.044637333
309.13250,-7.960220556
309.13300,-7.34983174
309.13350,-7.044637333
309.13400,-8.570609371
309.13450,-10.09658141
309.13500,-10.70697023
309.13550,-11.01216463
309.13600,-12.23294226
309.13650,-11.62255345
309.13700,-8.875803779
309.13750,-5.213470887
309.13800,-3.687498848
309.13850,-3.077110033
309.13900,-2.771915625
309.13950,-1.551137994
309.14000,-0.02516595566
309.14050,2.721583714
309.14100,7.604694237
309.14150,10.0462495
309.14200,6.994305421
309.14250,1.500806083
309.14300,-1.551137994
309.14350,-0.9407491788
309.14400,-0.02516595566
309.14450,-0.02516595566
309.14500,0.8904172674
309.14550,3.026778121
309.14600,4.55275016
309.14650,3.331972529
309.14700,1.806000491
309.14750,3.026778121
309.14800,6.689111014
309.14850,9.741055091
309.14900,10.96183272
309.14950,12.79299917
309.15000,14.92936002
309.15050,15.23455443
309.15100,13.09819358
309.15150,12.18261035
309.15200,15.23455443
309.15250,19.50727614
309.15300,19.20208173
309.15350,11.57222154
309.15400,-0.02516595566
309.15450,-10.70697023
309.15500,-16.20046956
309.15550,-15.89527516
309.15600,-12.23294226
309.15650,-7.960220556
309.15700,-5.518665294
309.15750,-3.992693256
309.15800,-2.466721217
309.15850,-1.551137994
309.15900,-2.466721217
309.15950,-4.603082071
309.16000,-5.518665294
309.16050,-4.603082071
309.16100,-2.16152681
309.16150,1.195611675
309.16200,6.383916606
309.16250,10.96183272
309.16300,13.09819358
309.16350,11.87741594
309.16400,10.35144391
309.16450,10.0462495
309.16500,10.35144391
309.16550,11.57222154
309.16600,12.79299917
309.16650,13.70858239
309.16700,11.87741594
309.16750,8.825471868
309.16800,7.299499829
309.16850,7.604694237
309.16900,6.383916606
309.16950,1.806000491
309.17000,-4.297887663
309.17050,-7.960220556
309.17100,-8.875803779
309.17150,-8.570609371
309.17200,-7.34983174
309.17250,-4.297887663
309.17300,-0.6355547711
309.17350,1.500806083
309.17400,1.500806083
309.17450,-0.6355547711
309.17500,-5.518665294
309.17550,-11.31735904
309.17600,-14.36930312
309.17650,-11.92774786
309.17700,-5.518665294
309.17750,-0.3303603634
309.17800,1.500806083
309.17850,2.111194898
309.17900,1.500806083
309.17950,0.5852228597
309.18000,0.5852228597
309.18050,3.026778121
309.18100,6.994305421
309.18150,8.52027746
309.18200,5.773527791
309.18250,1.500806083
309.18300,-0.3303603634
309.18350,-1.245943586
309.18400,-2.771915625
309.18450,-4.297887663
309.18500,-5.518665294
309.18550,-5.518665294
309.18600,-3.992693256
309.18650,-0.9407491788
309.18700,1.195611675
309.18750,0.8904172674
309.18800,-0.9407491788
309.18850,-1.551137994
309.18900,2.111194898
309.18950,8.52027746
309.19000,12.79299917
309.19050,13.09819358
309.19100,11.57222154
309.19150,10.0462495
309.19200,7.909888645
309.19250,5.468333383
309.19300,3.331972529
309.19350,1.806000491
309.19400,0.280028452
309.19450,-1.856332402
309.19500,-4.297887663
309.19550,-7.655026148
309.19600,-12.53813667
309.19650,-18.03163601
309.19700,-20.47319127
309.19750,-19.25241364
309.19800,-17.11605279
309.19850,-15.28488634
309.19900,-12.84333108
309.19950,-9.791387002
309.20000,-7.960220556
309.20050,-7.960220556
309.20100,-6.434248517
309.20150,-1.245943586
309.20200,3.942361344
309.20250,5.773527791
309.20300,3.637166937
309.20350,2.416389306
309.20400,3.331972529
309.20450,4.247555752
309.20500,3.637166937
309.20550,3.026778121
309.20600,3.331972529
309.20650,3.942361344
309.20700,3.637166937
309.20750,2.111194898
309.20800,1.806000491
309.20850,2.111194898
309.20900,2.416389306
309.20950,1.806000491
309.21000,1.500806083
309.21050,1.500806083
309.21100,0.8904172674
309.21150,-0.3303603634
309.21200,-1.551137994
309.21250,-1.856332402
309.21300,-1.551137994
309.21350,-2.16152681
309.21400,-3.687498848
309.21450,-4.603082071
309.21500,-4.908276479
309.21550,-5.518665294
309.21600,-6.434248517
309.21650,-7.34983174
309.21700,-7.960220556
309.21750,-7.655026148
309.21800,-7.044637333
309.21850,-5.823859702
309.21900,-3.38230444
309.21950,-0.02516595566
309.22000,1.806000491
309.22050,2.111194898
309.22100,0.5852228597
309.22150,-0.02516595566
309.22200,0.5852228597
309.22250,2.721583714
309.22300,3.942361344
309.22350,4.857944568
309.22400,5.773527791
309.22450,4.55275016
309.22500,-0.02516595566
309.22550,-5.823859702
309.22600,-5.823859702
309.22650,1.195611675
309.22700,9.741055091
309.22750,12.79299917
309.22800,10.0462495
309.22850,6.078722198
309.22900,3.942361344
309.22950,3.026778121
309.23000,1.806000491
309.23050,0.280028452
309.23100,-0.9407491788
309.23150,-2.771915625
309.23200,-3.687498848
309.23250,-2.16152681
309.23300,-0.02516595566
309.23350,-0.02516595566
309.23400,-2.466721217
309.23450,-5.823859702
309.23500,-7.34983174
309.23550,-7.960220556
309.23600,-8.875803779
309.23650,-10.70697023
309.23700,-12.23294226
309.23750,-11.92774786
309.23800,-10.40177582
309.23850,-8.265414964
309.23900,-5.518665294
309.23950,-3.38230444
309.24000,-3.077110033
309.24050,-3.992693256
309.24100,-4.297887663
309.24150,-1.551137994
309.24200,1.500806083
309.24250,1.806000491
309.24300,-1.551137994
309.24350,-3.687498848
309.24400,2.111194898
309.24450,14.92936002
309.24500,25.00077548
309.24550,25.00077548
309.24600,18.28649851
309.24650,11.26702713
309.24700,4.247555752
309.24750,-6.434248517
309.24800,-19.55760805
309.24850,-26.27188502
309.24900,-22.91474653
309.24950,-14.06410871
309.25000,-5.823859702
309.25050,0.8904172674
309.25100,10.0462495
309.25150,21.64363699
309.25200,32.02024685
309.25250,36.59816297
309.25300,32.02024685
309.25350,19.81247054
309.25400,6.078722198
309.25450,-2.771915625
309.25500,-5.518665294
309.25550,-7.044637333
309.25600,-10.70697023
309.25650,-13.7589143
309.25700,-13.45371989
309.25750,-11.01216463
309.25800,-9.791387002
309.25850,-8.875803779
309.25900,-4.908276479
309.25950,1.195611675
309.26000,6.078722198
309.26050,9.130666275
309.26100,13.70858239
309.26150,20.42285936
309.26200,25.61116429
309.26250,25.9163587
309.26300,23.16960903
309.26350,19.50727614
309.26400,15.23455443
309.26450,10.0462495
309.26500,6.078722198
309.26550,5.163138975
309.26600,5.468333383
309.26650,4.247555752
309.26700,1.806000491
309.26750,0.280028452
309.26800,-0.02516595566
309.26850,-0.6355547711
309.26900,-2.466721217
309.26950,-4.297887663
309.27000,-6.12905411
309.27050,-9.486192594
309.27100,-10.70697023
309.27150,-7.044637333
309.27200,-0.6355547711
309.27250,0.8904172674
309.27300,-4.603082071
309.27350,-11.31735904
309.27400,-12.53813667
309.27450,-9.180998187
309.27500,-7.34983174
309.27550,-7.655026148
309.27600,-7.655026148
309.27650,-5.518665294
309.27700,-4.297887663
309.27750,-5.518665294
309.27800,-7.34983174
309.27850,-7.044637333
309.27900,-5.518665294
309.27950,-4.603082071
309.28000,-5.213470887
309.28050,-6.434248517
309.28100,-7.044637333
309.28150,-6.12905411
309.28200,-4.297887663
309.28250,-1.856332402
309.28300,0.5852228597
309.28350,3.942361344
309.28400,7.299499829
309.28450,8.825471868
309.28500,8.825471868
309.28550,8.825471868
309.28600,10.0462495
309.28650,10.96183272
309.28700,9.435860683
309.28750,6.994305421
309.28800,6.078722198
309.28850,6.689111014
309.28900,7.604694237
309.28950,7.604694237
309.29000,7.299499829
309.29050,7.909888645
309.29100,7.604694237
309.29150,6.383916606
309.29200,3.942361344
309.29250,1.806000491
309.29300,-0.6355547711
309.29350,-3.992693256
309.29400,-7.655026148
309.29450,-11.01216463
309.29500,-14.36930312
309.29550,-18.03163601
309.29600,-21.99916331
309.29650,-24.13552416
309.29700,-22.91474653
309.29750,-18.94721923
309.29800,-14.97969193
309.29850,-11.92774786
309.29900,-10.09658141
309.29950,-7.655026148
309.30000,-5.518665294
309.30050,-4.297887663
309.30100,-4.297887663
309.30150,-3.992693256
309.30200,-2.16152681
309.30250,-0.02516595566
309.30300,0.8904172674
309.30350,1.806000491
309.30400,3.026778121
309.30450,4.857944568
309.30500,6.078722198
309.30550,6.383916606
309.30600,7.299499829
309.30650,8.52027746
309.30700,8.825471868
309.30750,8.52027746
309.30800,6.994305421
309.30850,4.857944568
309.30900,3.026778121
309.30950,2.416389306
309.31000,3.026778121
309.31050,2.721583714
309.31100,0.5852228597
309.31150,-1.856332402
309.31200,-2.771915625
309.31250,-2.466721217
309.31300,-3.687498848
309.31350,-6.739442925
309.31400,-8.570609371
309.31450,-8.875803779
309.31500,-9.791387002
309.31550,-11.62255345
309.31600,-12.84333108
309.31650,-11.62255345
309.31700,-9.486192594
309.31750,-8.570609371
309.31800,-8.570609371
309.31850,-7.960220556
309.31900,-6.12905411
309.31950,-3.38230444
309.32000,-0.9407491788
309.32050,0.8904172674
309.32100,2.111194898
309.32150,2.721583714
309.32200,3.637166937
309.32250,4.247555752
309.32300,4.55275016
309.32350,5.163138975
309.32400,6.689111014
309.32450,8.52027746
309.32500,8.825471868
309.32550,6.994305421
309.32600,4.857944568
309.32650,4.247555752
309.32700,4.857944568
309.32750,5.773527791
309.32800,7.299499829
309.32850,8.52027746
309.32900,8.52027746
309.32950,6.078722198
309.33000,3.026778121
309.33050,0.5852228597
309.33100,-0.02516595566
309.33150,-0.9407491788
309.33200,-2.466721217
309.33250,-3.992693256
309.33300,-5.213470887
309.33350,-5.213470887
309.33400,-3.687498848
309.33450,-1.551137994
309.33500,-0.3303603634
309.33550,-0.6355547711
309.33600,-1.245943586
309.33650,-1.856332402
309.33700,-1.856332402
309.33750,-1.551137994
309.33800,-1.551137994
309.33850,-2.16152681
309.33900,-3.992693256
309.33950,-5.823859702
309.34000,-7.655026148
309.34050,-8.875803779
309.34100,-8.265414964
309.34150,-4.297887663
309.34200,2.111194898
309.34250,8.215083052
309.34300,10.65663831
309.34350,9.435860683
309.34400,6.689111014
309.34450,3.942361344
309.34500,0.8904172674
309.34550,0.5852228597
309.34600,5.468333383
309.34650,14.0137768
309.34700,19.50727614
309.34750,17.06572088
309.34800,9.130666275
309.34850,2.416389306
309.34900,0.8904172674
309.34950,4.247555752
309.35000,8.215083052
309.35050,10.0462495
309.35100,8.52027746
309.35150,5.468333383
309.35200,1.500806083
309.35250,-2.771915625
309.35300,-8.265414964
309.35350,-12.84333108
309.35400,-14.97969193
309.35450,-15.59008075
309.35500,-16.50566397
309.35550,-16.50566397
309.35600,-11.31735904
309.35650,-1.551137994
309.35700,5.773527791
309.35750,4.247555752
309.35800,-3.992693256
309.35850,-8.875803779
309.35900,-5.213470887
309.35950,2.111194898
309.36000,5.773527791
309.36050,5.468333383
309.36100,6.078722198
309.36150,11.26702713
309.36200,18.28649851
309.36250,21.9488314
309.36300,21.9488314
309.36350,21.64363699
309.36400,23.47480344
309.36450,26.83194192
309.36500,29.57869159
309.36550,29.57869159
309.36600,25.30596988
309.36650,15.84494324
309.36700,3.331972529
309.36750,-7.34983174
309.36800,-12.53813667
309.36850,-12.84333108
309.36900,-11.01216463
309.36950,-9.486192594
309.37000,-6.12905411
309.37050,-1.245943586
309.37100,2.111194898
309.37150,1.500806083
309.37200,-3.077110033
309.37250,-7.655026148
309.37300,-8.265414964
309.37350,-6.12905411
309.37400,-6.12905411
309.37450,-9.486192594
309.37500,-14.67449753
309.37550,-17.42124719
309.37600,-17.42124719
309.37650,-16.20046956
309.37700,-15.28488634
309.37750,-14.06410871
309.37800,-12.84333108
309.37850,-13.14852549
309.37900,-13.45371989
309.37950,-13.45371989
309.38000,-11.92774786
309.38050,-9.791387002
309.38100,-7.044637333
309.38150,-3.38230444
309.38200,0.8904172674
309.38250,3.942361344
309.38300,3.942361344
309.38350,3.637166937
309.38400,5.468333383
309.38450,8.215083052
309.38500,8.825471868
309.38550,6.078722198
309.38600,2.416389306
309.38650,1.195611675
309.38700,2.416389306
309.38750,3.331972529
309.38800,2.416389306
309.38850,2.416389306
309.38900,5.773527791
309.38950,10.65663831
309.39000,13.40338798
309.39050,12.18261035
309.39100,9.741055091
309.39150,7.299499829
309.39200,4.55275016
309.39250,1.806000491
309.39300,0.5852228597
309.39350,0.280028452
309.39400,-1.245943586
309.39450,-5.823859702
309.39500,-8.265414964
309.39550,-6.434248517
309.39600,-4.603082071
309.39650,-7.34983174
309.39700,-13.14852549
309.39750,-15.59008075
309.39800,-13.7589143
309.39850,-11.01216463
309.39900,-9.180998187
309.39950,-6.739442925
309.40000,-3.687498848
309.40050,-2.16152681
309.40100,-2.16152681
309.40150,-1.856332402
309.40200,-0.02516595566
309.40250,2.416389306
309.40300,3.942361344
309.40350,4.857944568
309.40400,5.773527791
309.40450,5.773527791
309.40500,4.247555752
309.40550,3.331972529
309.40600,4.55275016
309.40650,5.468333383
309.40700,4.857944568
309.40750,3.637166937
309.40800,3.637166937
309.40850,4.55275016
309.40900,4.55275016
309.40950,3.331972529
309.41000,2.111194898
309.41050,1.500806083
309.41100,0.280028452
309.41150,-1.856332402
309.41200,-4.297887663
309.41250,-6.12905411
309.41300,-7.655026148
309.41350,-8.875803779
309.41400,-9.791387002
309.41450,-10.40177582
309.41500,-11.31735904
309.41550,-12.23294226
309.41600,-12.84333108
309.41650,-12.23294226
309.41700,-11.31735904
309.41750,-9.791387002
309.41800,-7.044637333
309.41850,-3.992693256
309.41900,-2.16152681
309.41950,-2.466721217
309.42000,-1.551137994
309.42050,1.500806083
309.42100,4.55275016
309.42150,5.163138975
309.42200,4.55275016
309.42250,5.163138975
309.42300,6.994305421
309.42350,7.909888645
309.42400,7.299499829
309.42450,6.383916606
309.42500,4.857944568
309.42550,2.721583714
309.42600,-0.02516595566
309.42650,-0.9407491788
309.42700,-0.9407491788
309.42750,-0.6355547711
309.42800,-0.02516595566
309.42850,0.8904172674
309.42900,3.637166937
309.42950,7.604694237
309.43000,13.09819358
309.43050,18.28649851
309.43100,19.81247054
309.43150,15.23455443
309.43200,8.215083052
309.43250,3.637166937
309.43300,2.721583714
309.43350,1.806000491
309.43400,-1.856332402
309.43450,-8.875803779
309.43500,-16.50566397
309.43550,-21.6939689
309.43600,-23.52513535
309.43650,-22.91474653
309.43700,-21.38877449
309.43750,-17.7264416
309.43800,-11.01216463
309.43850,-2.466721217
309.43900,3.942361344
309.43950,5.773527791
309.44000,5.163138975
309.44050,5.163138975
309.44100,6.383916606
309.44150,6.994305421
309.44200,6.383916606
309.44250,6.689111014
309.44300,10.96183272
309.44350,20.11766495
309.44400,32.32544126
309.44450,41.17607908
309.44500,41.7864679
309.44550,35.07219093
309.44600,25.00077548
309.44650,15.84494324
309.44700,7.299499829
309.44750,-0.6355547711
309.44800,-7.960220556
309.44850,-12.23294226
309.44900,-12.23294226
309.44950,-8.570609371
309.45000,-2.771915625
309.45050,0.5852228597
309.45100,-0.02516595566
309.45150,-4.908276479
309.45200,-9.180998187
309.45250,-10.09658141
309.45300,-7.655026148
309.45350,-4.297887663
309.45400,-1.856332402
309.45450,-1.856332402
309.45500,-3.992693256
309.45550,-7.960220556
309.45600,-11.62255345
309.45650,-13.7589143
309.45700,-14.06410871
309.45750,-11.92774786
309.45800,-8.570609371
309.45850,-6.434248517
309.45900,-7.960220556
309.45950,-13.45371989
309.46000,-19.86280246
309.46050,-22.91474653
309.46100,-22.30435772
309.46150,-18.33683042
309.46200,-13.7589143
309.46250,-9.791387002
309.46300,-6.12905411
309.46350,-0.9407491788
309.46400,6.994305421
309.46450,15.23455443
309.46500,18.28649851
309.46550,14.92936002
309.46600,10.65663831
309.46650,10.96183272
309.46700,14.92936002
309.46750,17.67610969
309.46800,16.76052647
309.46850,13.09819358
309.46900,10.35144391
309.46950,11.26702713
309.47000,15.84494324
309.47050,21.03324818
309.47100,22.86441462
309.47150,20.72805377
309.47200,17.67610969
309.47250,17.37091528
309.47300,17.37091528
309.47350,14.31897121
309.47400,7.604694237
309.47450,0.5852228597
309.47500,-4.908276479
309.47550,-11.01216463
309.47600,-17.42124719
309.47650,-21.08358009
309.47700,-19.25241364
309.47750,-14.67449753
309.47800,-11.62255345
309.47850,-11.01216463
309.47900,-11.01216463
309.47950,-9.180998187
309.48000,-6.12905411
309.48050,-2.771915625
309.48100,-0.02516595566
309.48150,1.195611675
309.48200,1.806000491
309.48250,2.416389306
309.48300,3.942361344
309.48350,5.773527791
309.48400,4.857944568
309.48450,1.195611675
309.48500,-2.466721217
309.48550,-3.38230444
309.48600,-2.466721217
309.48650,-1.551137994
309.48700,-0.6355547711
309.48750,1.500806083
309.48800,4.857944568
309.48850,6.383916606
309.48900,4.55275016
309.48950,1.195611675
309.49000,-1.245943586
309.49050,-3.38230444
309.49100,-5.823859702
309.49150,-9.486192594
309.49200,-12.84333108
309.49250,-14.97969193
309.49300,-16.50566397
309.49350,-16.81085838
309.49400,-16.20046956
309.49450,-14.97969193
309.49500,-14.36930312
309.49550,-14.36930312
309.49600,-13.7589143
309.49650,-11.62255345
309.49700,-9.791387002
309.49750,-10.09658141
309.49800,-11.92774786
309.49850,-13.45371989
309.49900,-12.23294226
309.49950,-9.791387002
309.50000,-8.265414964
309.50050,-6.739442925
309.50100,-4.297887663
309.50150,-0.3303603634
309.50200,3.026778121
309.50250,5.163138975
309.50300,6.689111014
309.50350,7.604694237
309.50400,8.52027746
309.50450,8.825471868
309.50500,9.130666275
309.50550,9.130666275
309.50600,7.604694237
309.50650,5.163138975
309.50700,4.857944568
309.50750,6.994305421
309.50800,8.215083052
309.50850,6.383916606
309.50900,3.026778121
309.50950,1.195611675
309.51000,1.806000491
309.51050,1.806000491
309.51100,0.8904172674
309.51150,-0.02516595566
309.51200,-0.02516595566
309.51250,-0.02516595566
309.51300,-0.9407491788
309.51350,-3.077110033
309.51400,-3.992693256
309.51450,-4.603082071
309.51500,-5.823859702
309.51550,-7.34983174
309.51600,-7.34983174
309.51650,-6.12905411
309.51700,-5.518665294
309.51750,-7.655026148
309.51800,-9.791387002
309.51850,-10.09658141
309.51900,-8.265414964
309.51950,-6.739442925
309.52000,-5.823859702
309.52050,-3.687498848
309.52100,0.5852228597
309.52150,5.468333383
309.52200,8.825471868
309.52250,9.435860683
309.52300,7.909888645
309.52350,4.247555752
309.52400,1.195611675
309.52450,1.195611675
309.52500,5.468333383
309.52550,12.48780476
309.52600,19.50727614
309.52650,23.16960903
309.52700,22.55922021
309.52750,18.59169291
309.52800,14.92936002
309.52850,12.79299917
309.52900,11.57222154
309.52950,8.52027746
309.53000,4.55275016
309.53050,1.806000491
309.53100,-0.9407491788
309.53150,-5.213470887
309.53200,-9.486192594
309.53250,-10.40177582
309.53300,-8.570609371
309.53350,-7.960220556
309.53400,-11.01216463
309.53450,-14.97969193
309.53500,-16.81085838
309.53550,-15.89527516
309.53600,-13.45371989
309.53650,-9.486192594
309.53700,-4.297887663
309.53750,-0.02516595566
309.53800,1.500806083
309.53850,0.280028452
309.53900,-1.245943586
309.53950,-0.3303603634
309.54000,2.721583714
309.54050,5.468333383
309.54100,3.637166937
309.54150,-0.6355547711
309.54200,-2.16152681
309.54250,2.416389306
309.54300,8.825471868
309.54350,12.79299917
309.54400,15.23455443
309.54450,19.50727614
309.54500,26.22155311
309.54550,32.02024685
309.54600,34.46180211
309.54650,34.76699652
309.54700,33.24102448
309.54750,30.18908041
309.54800,26.83194192
309.54850,24.08519225
309.54900,19.81247054
309.54950,12.48780476
309.55000,5.773527791
309.55050,2.721583714
309.55100,2.111194898
309.55150,-0.9407491788
309.55200,-8.265414964
309.55250,-14.36930312
309.55300,-14.97969193
309.55350,-11.31735904
309.55400,-6.739442925
309.55450,-3.992693256
309.55500,-3.687498848
309.55550,-4.908276479
309.55600,-5.518665294
309.55650,-4.297887663
309.55700,-3.38230444
309.55750,-5.213470887
309.55800,-8.875803779
309.55850,-10.70697023
309.55900,-9.486192594
309.55950,-8.875803779
309.56000,-12.53813667
309.56050,-16.20046956
309.56100,-13.7589143
309.56150,-5.518665294
309.56200,0.280028452
309.56250,-0.6355547711
309.56300,-3.687498848
309.56350,-1.856332402
309.56400,3.942361344
309.56450,7.299499829
309.56500,4.247555752
309.56550,-0.02516595566
309.56600,0.280028452
309.56650,6.383916606
309.56700,13.70858239
309.56750,19.20208173
309.56800,21.64363699
309.56850,21.03324818
309.56900,18.28649851
309.56950,14.62416561
309.57000,11.57222154
309.57050,9.435860683
309.57100,7.604694237
309.57150,6.383916606
309.57200,5.773527791
309.57250,5.468333383
309.57300,4.857944568
309.57350,3.026778121
309.57400,-0.6355547711
309.57450,-5.518665294
309.57500,-8.570609371
309.57550,-10.40177582
309.57600,-13.14852549
309.57650,-18.33683042
309.57700,-22.30435772
309.57750,-21.38877449
309.57800,-17.11605279
309.57850,-13.14852549
309.57900,-11.92774786
309.57950,-12.84333108
309.58000,-13.45371989
309.58050,-11.92774786
309.58100,-8.570609371
309.58150,-5.518665294
309.58200,-4.603082071
309.58250,-4.297887663
309.58300,-2.771915625
309.58350,-0.02516595566
309.58400,0.8904172674
309.58450,-0.02516595566
309.58500,-0.6355547711
309.58550,-0.6355547711
309.58600,-0.02516595566
309.58650,0.8904172674
309.58700,1.500806083
309.58750,1.806000491
309.58800,0.280028452
309.58850,-2.771915625
309.58900,-5.518665294
309.58950,-7.34983174
309.59000,-7.960220556
309.59050,-7.960220556
309.59100,-7.960220556
309.59150,-9.486192594
309.59200,-12.84333108
309.59250,-15.89527516
309.59300,-16.20046956
309.59350,-14.97969193
309.59400,-15.59008075
309.59450,-18.03163601
309.59500,-18.94721923
309.59550,-18.64202483
309.59600,-18.94721923
309.59650,-19.55760805
309.59700,-18.03163601
309.59750,-13.14852549
309.59800,-7.960220556
309.59850,-3.077110033
309.59900,2.111194898
309.59950,6.383916606
309.60000,6.078722198
309.60050,2.721583714
309.60100,2.721583714
309.60150,6.994305421
309.60200,10.0462495
309.60250,8.215083052
309.60300,5.773527791
309.60350,6.383916606
309.60400,8.52027746
309.60450,8.52027746
309.60500,8.825471868
309.60550,12.18261035
309.60600,14.92936002
309.60650,13.09819358
309.60700,8.825471868
309.60750,6.078722198
309.60800,4.857944568
309.60850,2.111194898
309.60900,-1.856332402
309.60950,-3.992693256
309.61000,-3.687498848
309.61050,-3.077110033
309.61100,-3.38230444
309.61150,-3.38230444
309.61200,-3.38230444
309.61250,-5.213470887
309.61300,-6.12905411
309.61350,-2.16152681
309.61400,5.163138975
309.61450,7.604694237
309.61500,1.500806083
309.61550,-7.34983174
309.61600,-10.40177582
309.61650,-7.044637333
309.61700,-4.297887663
309.61750,-6.12905411
309.61800,-8.265414964
309.61850,-4.908276479
309.61900,2.721583714
309.61950,8.825471868
309.62000,10.0462495
309.62050,8.52027746
309.62100,9.130666275
309.62150,11.57222154
309.62200,11.57222154
309.62250,7.909888645
309.62300,2.721583714
309.62350,-1.551137994
309.62400,-5.518665294
309.62450,-9.486192594
309.62500,-10.09658141
309.62550,-4.603082071
309.62600,5.163138975
309.62650,13.70858239
309.62700,17.37091528
309.62750,17.67610969
309.62800,16.76052647
309.62850,14.0137768
309.62900,8.825471868
309.62950,3.026778121
309.63000,-0.3303603634
309.63050,-1.551137994
309.63100,-0.6355547711
309.63150,-0.02516595566
309.63200,-0.6355547711
309.63250,-2.771915625
309.63300,-5.518665294
309.63350,-7.044637333
309.63400,-7.044637333
309.63450,-7.34983174
309.63500,-8.265414964
309.63550,-8.265414964
309.63600,-7.044637333
309.63650,-4.908276479
309.63700,-3.687498848
309.63750,-1.245943586
309.63800,2.721583714
309.63850,8.52027746
309.63900,14.31897121
309.63950,18.89688732
309.64000,22.55922021
309.64050,24.39038666
309.64100,23.16960903
309.64150,19.50727614
309.64200,15.23455443
309.64250,10.96183272
309.64300,5.468333383
309.64350,-0.3303603634
309.64400,-5.213470887
309.64450,-7.044637333
309.64500,-6.12905411
309.64550,-3.992693256
309.64600,-1.856332402
309.64650,-0.9407491788
309.64700,-1.856332402
309.64750,-3.077110033
309.64800,-2.466721217
309.64850,-0.02516595566
309.64900,1.500806083
309.64950,-0.02516595566
309.65000,-3.687498848
309.65050,-6.434248517
309.65100,-7.655026148
309.65150,-8.570609371
309.65200,-10.09658141
309.65250,-11.01216463
309.65300,-9.791387002
309.65350,-7.960220556
309.65400,-7.34983174
309.65450,-7.044637333
309.65500,-3.992693256
309.65550,1.806000491
309.65600,6.689111014
309.65650,7.604694237
309.65700,4.857944568
309.65750,1.500806083
309.65800,-0.02516595566
309.65850,-0.3303603634
309.65900,-0.02516595566
309.65950,-0.3303603634
309.66000,-2.466721217
309.66050,-5.823859702
309.66100,-8.265414964
309.66150,-7.655026148
309.66200,-4.297887663
309.66250,-0.3303603634
309.66300,1.500806083
309.66350,1.806000491
309.66400,1.500806083
309.66450,2.721583714
309.66500,4.55275016
309.66550,4.247555752
309.66600,0.8904172674
309.66650,-1.856332402
309.66700,-1.245943586
309.66750,2.416389306
309.66800,5.163138975
309.66850,4.857944568
309.66900,2.111194898
309.66950,-0.02516595566
309.67000,-2.16152681
309.67050,-3.992693256
309.67100,-5.823859702
309.67150,-7.044637333
309.67200,-7.655026148
309.67250,-7.044637333
309.67300,-5.823859702
309.67350,-3.687498848
309.67400,-0.9407491788
309.67450,0.5852228597
309.67500,2.111194898
309.67550,3.026778121
309.67600,3.637166937
309.67650,3.637166937
309.67700,1.806000491
309.67750,-0.9407491788
309.67800,-3.687498848
309.67850,-3.992693256
309.67900,-3.38230444
309.67950,-2.771915625
309.68000,-2.466721217
309.68050,-0.9407491788
309.68100,0.5852228597
309.68150,0.5852228597
309.68200,-2.16152681
309.68250,-5.213470887
309.68300,-6.12905411
309.68350,-5.213470887
309.68400,-4.603082071
309.68450,-4.908276479
309.68500,-3.687498848
309.68550,-0.3303603634
309.68600,4.247555752
309.68650,9.741055091
309.68700,14.62416561
309.68750,15.53974884
309.68800,10.65663831
309.68850,2.721583714
309.68900,-2.466721217
309.68950,-3.077110033
309.69000,-0.9407491788
309.69050,-0.02516595566
309.69100,-1.856332402
309.69150,-3.992693256
309.69200,-4.603082071
309.69250,-4.297887663
309.69300,-4.908276479
309.69350,-7.655026148
309.69400,-9.486192594
309.69450,-7.044637333
309.69500,-1.245943586
309.69550,2.721583714
309.69600,2.111194898
309.69650,-1.856332402
309.69700,-5.213470887
309.69750,-6.434248517
309.69800,-7.044637333
309.69850,-7.960220556
309.69900,-7.34983174
309.69950,-4.603082071
309.70000,-1.856332402
309.70050,-1.551137994
309.70100,-2.16152681
309.70150,-1.551137994
309.70200,-0.02516595566
309.70250,1.806000491
309.70300,3.026778121
309.70350,3.331972529
309.70400,3.637166937
309.70450,3.026778121
309.70500,2.111194898
309.70550,-0.02516595566
309.70600,-4.908276479
309.70650,-10.70697023
309.70700,-13.7589143
309.70750,-8.570609371
309.70800,5.163138975
309.70850,23.47480344
309.70900,37.20855178
309.70950,39.65010705
309.71000,32.02024685
309.71050,20.72805377
309.71100,13.40338798
309.71150,10.0462495
309.71200,7.604694237
309.71250,3.637166937
309.71300,-1.551137994
309.71350,-6.12905411
309.71400,-9.486192594
309.71450,-9.791387002
309.71500,-6.434248517
309.71550,-1.856332402
309.71600,-0.6355547711
309.71650,-2.771915625
309.71700,-5.213470887
309.71750,-4.603082071
309.71800,-3.077110033
309.71850,-2.771915625
309.71900,-3.687498848
309.71950,-2.771915625
309.72000,-0.3303603634
309.72050,0.8904172674
309.72100,1.500806083
309.72150,4.247555752
309.72200,10.35144391
309.72250,17.37091528
309.72300,21.33844258
309.72350,22.25402581
309.72400,21.03324818
309.72450,17.67610969
309.72500,11.87741594
309.72550,5.773527791
309.72600,5.163138975
309.72650,11.26702713
309.72700,20.42285936
309.72750,25.30596988
309.72800,23.77999785
309.72850,18.59169291
309.72900,12.79299917
309.72950,7.909888645
309.73000,5.468333383
309.73050,4.55275016
309.73100,0.8904172674
309.73150,-7.960220556
309.73200,-19.55760805
309.73250,-25.05110739
309.73300,-21.6939689
309.73350,-15.28488634
309.73400,-13.45371989
309.73450,-16.81085838
309.73500,-20.77838568
309.73550,-22.60955213
309.73600,-21.99916331
309.73650,-18.94721923
309.73700,-14.67449753
309.73750,-11.01216463
309.73800,-9.486192594
309.73850,-8.875803779
309.73900,-6.434248517
309.73950,-3.38230444
309.74000,-2.771915625
309.74050,-3.687498848
309.74100,-3.38230444
309.74150,-0.9407491788
309.74200,-0.02516595566
309.74250,-0.9407491788
309.74300,-2.16152681
309.74350,-0.6355547711
309.74400,2.111194898
309.74450,5.773527791
309.74500,10.0462495
309.74550,14.31897121
309.74600,17.06572088
309.74650,17.9813041
309.74700,19.20208173
309.74750,20.72805377
309.74800,18.28649851
309.74850,9.741055091
309.74900,-2.16152681
309.74950,-14.06410871
309.75000,-24.13552416
309.75050,-31.46018995
309.75100,-32.68096758
309.75150,-26.57707943
309.75200,-18.33683042
309.75250,-14.06410871
309.75300,-14.36930312
309.75350,-14.67449753
309.75400,-12.84333108
309.75450,-11.62255345
309.75500,-12.23294226
309.75550,-12.23294226
309.75600,-11.31735904
309.75650,-11.01216463
309.75700,-10.70697023
309.75750,-8.265414964
309.75800,-3.38230444
309.75850,0.5852228597
309.75900,2.416389306
309.75950,4.247555752
309.76000,8.215083052
309.76050,12.18261035
309.76100,14.0137768
309.76150,15.23455443
309.76200,16.45533206
309.76250,16.76052647
309.76300,14.92936002
309.76350,12.48780476
309.76400,9.741055091
309.76450,6.078722198
309.76500,0.5852228597
309.76550,-3.38230444
309.76600,-4.297887663
309.76650,-2.16152681
309.76700,0.8904172674
309.76750,4.247555752
309.76800,6.383916606
309.76850,5.468333383
309.76900,2.416389306
309.76950,-0.3303603634
309.77000,-0.6355547711
309.77050,-0.02516595566
309.77100,-0.02516595566
309.77150,-1.856332402
309.77200,-3.687498848
309.77250,-4.908276479
309.77300,-5.823859702
309.77350,-6.434248517
309.77400,-6.434248517
309.77450,-6.12905411
309.77500,-6.739442925
309.77550,-8.265414964
309.77600,-9.791387002
309.77650,-9.791387002
309.77700,-8.875803779
309.77750,-7.960220556
309.77800,-7.044637333
309.77850,-4.603082071
309.77900,-1.245943586
309.77950,0.5852228597
309.78000,1.195611675
309.78050,1.195611675
309.78100,1.500806083
309.78150,1.500806083
309.78200,1.195611675
309.78250,2.111194898
309.78300,5.163138975
309.78350,8.825471868
309.78400,10.96183272
309.78450,12.18261035
309.78500,11.87741594
309.78550,10.0462495
309.78600,6.689111014
309.78650,5.163138975
309.78700,7.604694237
309.78750,11.26702713
309.78800,11.57222154
309.78850,9.130666275
309.78900,6.383916606
309.78950,5.468333383
309.79000,4.857944568
309.79050,3.637166937
309.79100,1.806000491
309.79150,0.280028452
309.79200,-0.3303603634
309.79250,-0.9407491788
309.79300,-1.245943586
309.79350,-2.466721217
309.79400,-5.823859702
309.79450,-9.180998187
309.79500,-10.09658141
309.79550,-9.180998187
309.79600,-8.875803779
309.79650,-9.791387002
309.79700,-11.01216463
309.79750,-11.62255345
309.79800,-12.23294226
309.79850,-12.23294226
309.79900,-10.40177582
309.79950,-7.655026148
309.80000,-7.044637333
309.80050,-7.960220556
309.80100,-6.739442925
309.80150,-1.551137994
309.80200,3.637166937
309.80250,6.994305421
309.80300,10.35144391
309.80350,15.23455443
309.80400,19.50727614
309.80450,19.50727614
309.80500,15.84494324
309.80550,10.96183272
309.80600,6.383916606
309.80650,0.8904172674
309.80700,-3.077110033
309.80750,-3.077110033
309.80800,1.195611675
309.80850,5.468333383
309.80900,6.078722198
309.80950,4.247555752
309.81000,3.026778121
309.81050,2.416389306
309.81100,0.280028452
309.81150,-4.908276479
309.81200,-12.84333108
309.81250,-18.03163601
309.81300,-15.59008075
309.81350,-6.739442925
309.81400,2.111194898
309.81450,6.383916606
309.81500,6.689111014
309.81550,7.299499829
309.81600,8.215083052
309.81650,6.994305421
309.81700,2.111194898
309.81750,-3.992693256
309.81800,-8.570609371
309.81850,-10.70697023
309.81900,-10.09658141
309.81950,-5.823859702
309.82000,0.5852228597
309.82050,6.689111014
309.82100,9.435860683
309.82150,7.909888645
309.82200,3.942361344
309.82250,0.280028452
309.82300,-0.02516595566
309.82350,4.55275016
309.82400,12.79299917
309.82450,19.20208173
309.82500,20.42285936
309.82550,17.37091528
309.82600,14.31897121
309.82650,13.70858239
309.82700,13.70858239
309.82750,12.18261035
309.82800,9.741055091
309.82850,7.909888645
309.82900,6.994305421
309.82950,5.163138975
309.83000,2.416389306
309.83050,0.5852228597
309.83100,-0.3303603634
309.83150,-2.466721217
309.83200,-5.823859702
309.83250,-8.875803779
309.83300,-11.01216463
309.83350,-13.14852549
309.83400,-14.67449753
309.83450,-14.67449753
309.83500,-13.7589143
309.83550,-14.06410871
309.83600,-15.59008075
309.83650,-15.28488634
309.83700,-12.23294226
309.83750,-9.791387002
309.83800,-11.31735904
309.83850,-13.14852549
309.83900,-11.92774786
309.83950,-9.180998187
309.84000,-8.875803779
309.84050,-8.570609371
309.84100,-5.213470887
309.84150,0.280028452
309.84200,3.637166937
309.84250,3.942361344
309.84300,4.857944568
309.84350,7.299499829
309.84400,7.604694237
309.84450,4.857944568
309.84500,2.721583714
309.84550,3.331972529
309.84600,4.247555752
309.84650,4.247555752
309.84700,4.857944568
309.84750,6.689111014
309.84800,6.994305421
309.84850,4.55275016
309.84900,1.195611675
309.84950,-0.3303603634
309.85000,-1.245943586
309.85050,-3.38230444
309.85100,-5.823859702
309.85150,-7.044637333
309.85200,-7.34983174
309.85250,-7.960220556
309.85300,-8.265414964
309.85350,-8.570609371
309.85400,-7.655026148
309.85450,-6.434248517
309.85500,-6.12905411
309.85550,-7.960220556
309.85600,-11.01216463
309.85650,-12.84333108
309.85700,-12.23294226
309.85750,-11.62255345
309.85800,-11.92774786
309.85850,-11.31735904
309.85900,-7.655026148
309.85950,-2.466721217
309.86000,-0.3303603634
309.86050,-1.551137994
309.86100,-2.771915625
309.86150,-2.16152681
309.86200,-1.856332402
309.86250,-1.856332402
309.86300,-0.9407491788
309.86350,1.500806083
309.86400,5.773527791
309.86450,11.26702713
309.86500,18.89688732
309.86550,25.00077548
309.86600,27.44233074
309.86650,26.22155311
309.86700,25.9163587
309.86750,26.22155311
309.86800,24.39038666
309.86850,19.50727614
309.86900,15.23455443
309.86950,10.96183272
309.87000,5.163138975
309.87050,-0.3303603634
309.87100,-1.551137994
309.87150,2.721583714
309.87200,7.299499829
309.87250,9.130666275
309.87300,9.741055091
309.87350,10.96183272
309.87400,9.435860683
309.87450,3.331972529
309.87500,-2.771915625
309.87550,-7.044637333
309.87600,-10.70697023
309.87650,-16.50566397
309.87700,-21.38877449
309.87750,-21.6939689
309.87800,-17.7264416
309.87850,-13.14852549
309.87900,-8.875803779
309.87950,-6.434248517
309.88000,-7.655026148
309.88050,-11.01216463
309.88100,-12.84333108
309.88150,-10.70697023
309.88200,-8.265414964
309.88250,-8.265414964
309.88300,-6.739442925
309.88350,0.8904172674
309.88400,12.79299917
309.88450,20.11766495
309.88500,18.89688732
309.88550,13.40338798
309.88600,10.35144391
309.88650,11.57222154
309.88700,14.0137768
309.88750,14.0137768
309.88800,10.35144391
309.88850,4.857944568
309.88900,-0.02516595566
309.88950,-3.38230444
309.89000,-4.908276479
309.89050,-3.687498848
309.89100,-0.3303603634
309.89150,2.111194898
309.89200,1.500806083
309.89250,-2.16152681
309.89300,-7.655026148
309.89350,-12.53813667
309.89400,-16.81085838
309.89450,-20.16799686
309.89500,-21.08358009
309.89550,-20.77838568
309.89600,-21.08358009
309.89650,-21.6939689
309.89700,-19.86280246
309.89750,-13.7589143
309.89800,-6.739442925
309.89850,-1.245943586
309.89900,2.721583714
309.89950,7.604694237
309.90000,12.48780476
309.90050,15.53974884
309.90100,16.45533206
309.90150,16.15013765
309.90200,14.92936002
309.90250,13.70858239
309.90300,13.09819358
309.90350,14.0137768
309.90400,15.53974884
309.90450,15.84494324
309.90500,14.0137768
309.90550,11.26702713
309.90600,9.435860683
309.90650,9.435860683
309.90700,9.435860683
309.90750,7.299499829
309.90800,3.942361344
309.90850,2.416389306
309.90900,4.247555752
309.90950,6.994305421
309.91000,6.689111014
309.91050,3.331972529
309.91100,-0.3303603634
309.91150,-3.687498848
309.91200,-7.044637333
309.91250,-11.01216463
309.91300,-13.7589143
309.91350,-13.7589143
309.91400,-11.62255345
309.91450,-9.791387002
309.91500,-10.09658141
309.91550,-14.06410871
309.91600,-20.47319127
309.91650,-24.74591298
309.91700,-23.83032976
309.91750,-19.55760805
309.91800,-16.50566397
309.91850,-13.45371989
309.91900,-6.434248517
309.91950,3.942361344
309.92000,12.18261035
309.92050,12.48780476
309.92100,6.689111014
309.92150,2.111194898
309.92200,2.111194898
309.92250,4.247555752
309.92300,5.773527791
309.92350,7.604694237
309.92400,10.0462495
309.92450,11.26702713
309.92500,9.130666275
309.92550,5.773527791
309.92600,3.331972529
309.92650,3.331972529
309.92700,4.55275016
309.92750,6.689111014
309.92800,10.96183272
309.92850,17.37091528
309.92900,22.55922021
309.92950,21.33844258
309.93000,12.48780476
309.93050,2.416389306
309.93100,-2.771915625
309.93150,-3.38230444
309.93200,-3.077110033
309.93250,-4.603082071
309.93300,-5.823859702
309.93350,-5.213470887
309.93400,-3.992693256
309.93450,-4.603082071
309.93500,-6.12905411
309.93550,-6.12905411
309.93600,-4.603082071
309.93650,-3.38230444
309.93700,-3.687498848
309.93750,-4.908276479
309.93800,-6.739442925
309.93850,-9.486192594
309.93900,-11.62255345
309.93950,-11.01216463
309.94000,-7.044637333
309.94050,-3.077110033
309.94100,-0.9407491788
309.94150,0.8904172674
309.94200,4.857944568
309.94250,9.130666275
309.94300,10.0462495
309.94350,8.215083052
309.94400,6.078722198
309.94450,5.773527791
309.94500,6.078722198
309.94550,6.383916606
309.94600,6.689111014
309.94650,6.689111014
309.94700,4.55275016
309.94750,0.280028452
309.94800,-3.077110033
309.94850,-4.297887663
309.94900,-3.992693256
309.94950,-5.213470887
309.95000,-7.655026148
309.95050,-8.570609371
309.95100,-7.044637333
309.95150,-5.518665294
309.95200,-4.908276479
309.95250,-5.213470887
309.95300,-6.434248517
309.95350,-9.791387002
309.95400,-13.45371989
309.95450,-14.36930312
309.95500,-12.23294226
309.95550,-9.791387002
309.95600,-9.486192594
309.95650,-10.09658141
309.95700,-8.570609371
309.95750,-4.297887663
309.95800,-0.3303603634
309.95850,0.8904172674
309.95900,-0.02516595566
309.95950,-0.9407491788
309.96000,-1.551137994
309.96050,-1.551137994
309.96100,-0.9407491788
309.96150,0.280028452
309.96200,2.721583714
309.96250,4.247555752
309.96300,4.857944568
309.96350,4.55275016
309.96400,4.247555752
309.96450,4.857944568
309.96500,6.078722198
309.96550,5.773527791
309.96600,4.247555752
309.96650,2.111194898
309.96700,1.500806083
309.96750,2.416389306
309.96800,3.331972529
309.96850,2.721583714
309.96900,0.8904172674
309.96950,-0.6355547711
309.97000,-1.551137994
309.97050,-1.551137994
309.97100,-0.6355547711
309.97150,-0.6355547711
309.97200,-2.466721217
309.97250,-4.603082071
309.97300,-5.213470887
309.97350,-3.38230444
309.97400,-1.245943586
309.97450,0.5852228597
309.97500,4.247555752
309.97550,8.825471868
309.97600,9.741055091
309.97650,4.55275016
309.97700,-3.077110033
309.97750,-7.655026148
309.97800,-7.655026148
309.97850,-7.655026148
309.97900,-8.570609371
309.97950,-8.265414964
309.98000,-5.518665294
309.98050,-3.38230444
309.98100,-5.213470887
309.98150,-7.655026148
309.98200,-7.34983174
309.98250,-3.38230444
309.98300,0.5852228597
309.98350,2.416389306
309.98400,3.026778121
309.98450,3.331972529
309.98500,4.247555752
309.98550,4.247555752
309.98600,3.026778121
309.98650,0.5852228597
309.98700,0.280028452
309.98750,4.247555752
309.98800,9.741055091
309.98850,11.87741594
309.98900,8.52027746
309.98950,3.942361344
309.99000,2.111194898
309.99050,1.195611675
309.99100,-1.856332402
309.99150,-7.044637333
309.99200,-10.70697023
309.99250,-10.40177582
309.99300,-7.655026148
309.99350,-3.687498848
309.99400,0.280028452
309.99450,4.55275016
309.99500,7.909888645
309.99550,10.65663831
309.99600,12.79299917
309.99650,11.87741594
309.99700,7.604694237
309.99750,1.806000491
309.99800,-1.551137994
309.99850,-3.077110033
309.99900,-5.823859702
309.99950,-10.40177582
310.00000,-13.7589143
310.00050,-12.53813667
310.00100,-8.265414964
310.00150,-4.908276479
310.00200,-2.771915625
310.00250,-2.16152681
310.00300,-3.077110033
310.00350,-6.12905411
310.00400,-7.655026148
310.00450,-3.38230444
310.00500,5.163138975
310.00550,13.09819358
310.00600,16.45533206
310.00650,18.28649851
310.00700,21.64363699
310.00750,25.00077548
310.00800,25.30596988
310.00850,21.9488314
310.00900,17.9813041
310.00950,14.62416561
310.01000,10.96183272
310.01050,7.604694237
310.01100,5.163138975
310.01150,4.247555752
310.01200,3.026778121
310.01250,1.195611675
310.01300,-0.6355547711
310.01350,-3.38230444
310.01400,-6.434248517
310.01450,-7.655026148
310.01500,-6.739442925
310.01550,-5.518665294
310.01600,-6.739442925
310.01650,-8.875803779
310.01700,-7.34983174
310.01750,-2.16152681
310.01800,1.500806083
310.01850,-0.02516595566
310.01900,-5.518665294
310.01950,-9.486192594
310.02000,-8.570609371
310.02050,-3.38230444
310.02100,3.331972529
310.02150,7.299499829
310.02200,6.383916606
310.02250,2.721583714
310.02300,2.416389306
310.02350,7.299499829
310.02400,11.57222154
310.02450,9.130666275
310.02500,2.721583714
310.02550,0.8904172674
310.02600,6.994305421
310.02650,13.70858239
310.02700,14.92936002
310.02750,10.65663831
310.02800,6.078722198
310.02850,3.637166937
310.02900,2.111194898
310.02950,0.8904172674
310.03000,-0.02516595566
310.03050,-1.551137994
310.03100,-3.992693256
310.03150,-6.12905411
310.03200,-5.213470887
310.03250,-2.466721217
310.03300,-1.856332402
310.03350,-4.297887663
310.03400,-7.34983174
310.03450,-8.265414964
310.03500,-8.875803779
310.03550,-11.31735904
310.03600,-14.67449753
310.03650,-16.20046956
310.03700,-15.59008075
310.03750,-14.06410871
310.03800,-12.84333108
310.03850,-11.92774786
310.03900,-11.31735904
310.03950,-10.70697023
310.04000,-11.01216463
310.04050,-11.62255345
310.04100,-12.84333108
310.04150,-13.7589143
310.04200,-12.23294226
310.04250,-7.655026148
310.04300,-0.9407491788
310.04350,4.55275016
310.04400,7.909888645
310.04450,8.215083052
310.04500,6.994305421
310.04550,5.163138975
310.04600,3.331972529
310.04650,2.111194898
310.04700,2.416389306
310.04750,3.637166937
310.04800,4.857944568
310.04850,4.55275016
310.04900,3.026778121
310.04950,2.416389306
310.05000,4.247555752
310.05050,6.689111014
310.05100,6.078722198
310.05150,3.331972529
310.05200,2.416389306
310.05250,5.773527791
310.05300,10.0462495
310.05350,11.57222154
310.05400,10.0462495
310.05450,9.741055091
310.05500,10.96183272
310.05550,11.57222154
310.05600,8.215083052
310.05650,-0.02516595566
310.05700,-12.53813667
310.05750,-25.05110739
310.05800,-32.98616199
310.05850,-33.2913564
310.05900,-27.79785706
310.05950,-20.47319127
310.06000,-14.67449753
310.06050,-10.09658141
310.06100,-7.044637333
310.06150,-5.518665294
310.06200,-5.213470887
310.06250,-3.992693256
310.06300,-0.3303603634
310.06350,3.331972529
310.06400,5.468333383
310.06450,6.383916606
310.06500,6.994305421
310.06550,9.741055091
310.06600,13.70858239
310.06650,17.9813041
310.06700,20.72805377
310.06750,22.55922021
310.06800,22.55922021
310.06850,18.89688732
310.06900,11.26702713
310.06950,1.806000491
310.07000,-3.992693256
310.07050,-4.603082071
310.07100,-2.466721217
310.07150,-1.245943586
310.07200,-0.6355547711
310.07250,-0.02516595566
310.07300,-0.02516595566
310.07350,-1.856332402
310.07400,-5.213470887
310.07450,-7.34983174
310.07500,-8.570609371
310.07550,-9.180998187
310.07600,-7.960220556
310.07650,-3.992693256
310.07700,0.8904172674
310.07750,3.637166937
310.07800,2.111194898
310.07850,-0.3303603634
310.07900,-2.16152681
310.07950,-3.687498848
310.08000,-6.12905411
310.08050,-8.265414964
310.08100,-9.486192594
310.08150,-8.570609371
310.08200,-3.992693256
310.08250,3.637166937
310.08300,13.70858239
310.08350,21.64363699
310.08400,22.86441462
310.08450,16.45533206
310.08500,7.909888645
310.08550,4.247555752
310.08600,6.994305421
310.08650,10.65663831
310.08700,9.435860683
310.08750,6.383916606
310.08800,6.689111014
310.08850,10.35144391
310.08900,10.65663831
310.08950,6.383916606
310.09000,2.721583714
310.09050,3.331972529
310.09100,4.247555752
310.09150,0.5852228597
310.09200,-3.992693256
310.09250,-5.518665294
310.09300,-4.603082071
310.09350,-5.518665294
310.09400,-8.875803779
310.09450,-11.01216463
310.09500,-10.70697023
310.09550,-9.791387002
310.09600,-8.875803779
310.09650,-6.739442925
310.09700,-3.077110033
310.09750,-0.3303603634
310.09800,0.5852228597
310.09850,2.111194898
310.09900,3.637166937
310.09950,4.247555752
310.10000,3.026778121
310.10050,1.195611675
310.10100,-0.02516595566
310.10150,-1.245943586
310.10200,-1.551137994
310.10250,0.5852228597
310.10300,5.468333383
310.10350,10.35144391
310.10400,12.79299917
310.10450,12.79299917
310.10500,10.0462495
310.10550,6.383916606
310.10600,3.942361344
310.10650,3.942361344
310.10700,3.942361344
310.10750,1.806000491
310.10800,-0.9407491788
310.10850,-2.16152681
310.10900,-1.856332402
310.10950,-1.245943586
310.11000,-1.551137994
310.11050,-0.6355547711
310.11100,-0.3303603634
310.11150,-2.771915625
310.11200,-8.265414964
310.11250,-12.23294226
310.11300,-13.14852549
310.11350,-12.84333108
310.11400,-13.14852549
310.11450,-13.45371989
310.11500,-11.92774786
310.11550,-9.486192594
310.11600,-8.265414964
310.11650,-7.655026148
310.11700,-7.044637333
310.11750,-5.213470887
310.11800,-2.466721217
310.11850,-0.3303603634
310.11900,-0.02516595566
310.11950,-0.02516595566
310.12000,0.280028452
310.12050,2.111194898
310.12100,2.416389306
310.12150,1.195611675
310.12200,0.8904172674
310.12250,4.857944568
310.12300,10.35144391
310.12350,12.79299917
310.12400,10.65663831
310.12450,7.604694237
310.12500,6.383916606
310.12550,6.689111014
310.12600,6.994305421
310.12650,7.604694237
310.12700,8.215083052
310.12750,7.604694237
310.12800,6.078722198
310.12850,4.857944568
310.12900,3.942361344
310.12950,1.500806083
310.13000,-1.856332402
310.13050,-3.687498848
310.13100,-3.077110033
310.13150,-2.771915625
310.13200,-4.603082071
310.13250,-6.12905411
310.13300,-5.213470887
310.13350,-3.077110033
310.13400,-3.687498848
310.13450,-6.12905411
310.13500,-7.960220556
310.13550,-8.875803779
310.13600,-11.62255345
310.13650,-14.97969193
310.13700,-16.50566397
310.13750,-14.36930312
310.13800,-11.31735904
310.13850,-9.791387002
310.13900,-9.180998187
310.13950,-7.960220556
310.14000,-6.434248517
310.14050,-5.518665294
310.14100,-6.434248517
310.14150,-7.044637333
310.14200,-6.12905411
310.14250,-2.466721217
310.14300,3.026778121
310.14350,8.825471868
310.14400,12.18261035
310.14450,13.09819358
310.14500,12.79299917
310.14550,12.79299917
310.14600,12.18261035
310.14650,10.0462495
310.14700,6.383916606
310.14750,3.026778121
310.14800,0.5852228597
310.14850,-0.02516595566
310.14900,-0.3303603634
310.14950,-0.6355547711
310.15000,-1.856332402
310.15050,-5.518665294
310.15100,-13.14852549
310.15150,-23.21994094
310.15200,-29.3238291
310.15250,-25.35630179
310.15300,-13.45371989
310.15350,-1.551137994
310.15400,2.111194898
310.15450,-0.3303603634
310.15500,-4.297887663
310.15550,-6.12905411
310.15600,-6.12905411
310.15650,-4.297887663
310.15700,0.8904172674
310.15750,8.825471868
310.15800,15.23455443
310.15850,17.9813041
310.15900,18.59169291
310.15950,16.15013765
310.16000,9.130666275
310.16050,-0.02516595566
310.16100,-4.297887663
310.16150,-0.02516595566
310.16200,9.741055091
310.16250,17.9813041
310.16300,21.9488314
310.16350,22.86441462
310.16400,21.33844258
310.16450,15.84494324
310.16500,7.299499829
310.16550,0.8904172674
310.16600,0.5852228597
310.16650,4.857944568
310.16700,9.130666275
310.16750,8.825471868
310.16800,4.55275016
310.16850,-1.245943586
310.16900,-6.739442925
310.16950,-10.09658141
310.17000,-10.40177582
310.17050,-9.486192594
310.17100,-10.09658141
310.17150,-13.45371989
310.17200,-16.81085838
310.17250,-15.59008075
310.17300,-8.265414964
310.17350,0.8904172674
310.17400,7.299499829
310.17450,10.0462495
310.17500,11.87741594
310.17550,14.62416561
310.17600,16.15013765
310.17650,13.70858239
310.17700,7.604694237
310.17750,0.8904172674
310.17800,-4.297887663
310.17850,-10.09658141
310.17900,-16.81085838
310.17950,-23.52513535
310.18000,-27.49266265
310.18050,-26.88227383
310.18100,-21.38877449
310.18150,-13.14852549
310.18200,-5.518665294
310.18250,-1.245943586
310.18300,-0.02516595566
310.18350,0.5852228597
310.18400,2.111194898
310.18450,3.942361344
310.18500,5.773527791
310.18550,8.825471868
310.18600,12.79299917
310.18650,15.23455443
310.18700,14.0137768
310.18750,10.35144391
310.18800,6.383916606
310.18850,3.637166937
310.18900,1.500806083
310.18950,-0.9407491788
310.19000,-3.992693256
310.19050,-7.655026148
310.19100,-12.23294226
310.19150,-16.81085838
310.19200,-19.55760805
310.19250,-19.25241364
310.19300,-16.81085838
310.19350,-14.36930312
310.19400,-13.7589143
310.19450,-14.06410871
310.19500,-14.36930312
310.19550,-13.45371989
310.19600,-12.53813667
310.19650,-11.62255345
310.19700,-9.486192594
310.19750,-5.518665294
310.19800,-0.3303603634
310.19850,3.942361344
310.19900,7.299499829
310.19950,8.52027746
310.20000,7.909888645
310.20050,6.383916606
310.20100,5.468333383
310.20150,6.383916606
310.20200,7.299499829
310.20250,7.909888645
310.20300,8.215083052
310.20350,8.215083052
310.20400,8.52027746
310.20450,9.130666275
310.20500,9.435860683
310.20550,9.435860683
310.20600,8.825471868
310.20650,8.215083052
310.20700,9.130666275
310.20750,9.435860683
310.20800,7.909888645
310.20850,5.163138975
310.20900,3.942361344
310.20950,4.55275016
310.21000,4.55275016
310.21050,2.416389306
310.21100,-0.3303603634
310.21150,-1.245943586
310.21200,-0.9407491788
310.21250,-0.9407491788
310.21300,-2.16152681
310.21350,-3.38230444
310.21400,-4.297887663
310.21450,-5.213470887
310.21500,-5.823859702
310.21550,-5.518665294
310.21600,-5.823859702
310.21650,-6.434248517
310.21700,-7.044637333
310.21750,-5.823859702
310.21800,-3.687498848
310.21850,-2.16152681
310.21900,-0.9407491788
310.21950,-0.02516595566
310.22000,1.806000491
310.22050,3.942361344
310.22100,5.773527791
310.22150,6.689111014
310.22200,6.383916606
310.22250,6.078722198
310.22300,7.604694237
310.22350,10.96183272
310.22400,13.40338798
310.22450,12.48780476
310.22500,9.741055091
310.22550,6.383916606
310.22600,4.247555752
310.22650,2.721583714
310.22700,2.721583714
310.22750,3.942361344
310.22800,4.55275016
310.22850,3.942361344
310.22900,2.721583714
310.22950,2.111194898
310.23000,2.111194898
310.23050,2.111194898
310.23100,1.806000491
310.23150,0.8904172674
310.23200,-0.9407491788
310.23250,-3.38230444
310.23300,-4.603082071
310.23350,-3.077110033
310.23400,-1.551137994
310.23450,-2.466721217
310.23500,-5.518665294
310.23550,-6.739442925
310.23600,-5.518665294
310.23650,-4.603082071
310.23700,-5.823859702
310.23750,-7.34983174
310.23800,-5.823859702
310.23850,-1.856332402
310.23900,1.500806083
310.23950,2.416389306
310.24000,1.806000491
310.24050,2.416389306
310.24100,3.637166937
310.24150,3.942361344
310.24200,3.026778121
310.24250,2.111194898
310.24300,2.111194898
310.24350,3.026778121
310.24400,4.247555752
310.24450,5.468333383
310.24500,6.383916606
310.24550,6.689111014
310.24600,5.773527791
310.24650,5.468333383
310.24700,6.689111014
310.24750,8.52027746
310.24800,9.130666275
310.24850,8.825471868
310.24900,9.130666275
310.24950,9.130666275
310.25000,5.468333383
310.25050,-0.02516595566
310.25100,-2.466721217
310.25150,2.416389306
310.25200,10.96183272
310.25250,14.92936002
310.25300,10.65663831
310.25350,2.416389306
310.25400,-3.077110033
310.25450,-4.297887663
310.25500,-3.687498848
310.25550,-4.297887663
310.25600,-6.434248517
310.25650,-8.570609371
310.25700,-8.570609371
310.25750,-6.434248517
310.25800,-4.908276479
310.25850,-5.823859702
310.25900,-8.265414964
310.25950,-9.486192594
310.26000,-7.34983174
310.26050,-3.687498848
310.26100,-0.6355547711
310.26150,0.8904172674
310.26200,3.026778121
310.26250,6.078722198
310.26300,8.215083052
310.26350,8.215083052
310.26400,6.383916606
310.26450,3.637166937
310.26500,0.280028452
310.26550,-3.38230444
310.26600,-7.044637333
310.26650,-7.044637333
310.26700,-2.771915625
310.26750,2.721583714
310.26800,6.078722198
310.26850,5.163138975
310.26900,2.111194898
310.26950,-0.02516595566
310.27000,-1.856332402
310.27050,-2.771915625
310.27100,-2.16152681
310.27150,-0.02516595566
310.27200,0.8904172674
310.27250,-1.245943586
310.27300,-5.823859702
310.27350,-9.486192594
310.27400,-10.09658141
310.27450,-8.570609371
310.27500,-5.213470887
310.27550,-0.6355547711
310.27600,3.331972529
310.27650,5.468333383
310.27700,5.468333383
310.27750,4.857944568
310.27800,5.773527791
310.27850,9.741055091
310.27900,16.15013765
310.27950,21.64363699
310.28000,21.33844258
310.28050,14.31897121
310.28100,5.468333383
310.28150,0.280028452
310.28200,-1.551137994
310.28250,-7.34983174
310.28300,-16.81085838
310.28350,-23.21994094
310.28400,-20.47319127
310.28450,-11.31735904
310.28500,-1.856332402
310.28550,3.637166937
310.28600,6.078722198
310.28650,6.994305421
310.28700,5.773527791
310.28750,3.331972529
310.28800,0.280028452
310.28850,-2.466721217
310.28900,-5.518665294
310.28950,-7.044637333
310.29000,-5.518665294
310.29050,-2.466721217
310.29100,-0.3303603634
310.29150,-0.9407491788
310.29200,-3.992693256
310.29250,-9.180998187
310.29300,-15.28488634
310.29350,-20.47319127
310.29400,-22.60955213
310.29450,-21.38877449
310.29500,-19.86280246
310.29550,-20.77838568
310.29600,-22.30435772
310.29650,-21.6939689
310.29700,-17.42124719
310.29750,-10.40177582
310.29800,-1.856332402
310.29850,5.468333383
310.29900,9.130666275
310.29950,9.435860683
310.30000,9.130666275
310.30050,10.0462495
310.30100,11.26702713
310.30150,13.09819358
310.30200,16.15013765
310.30250,19.81247054
310.30300,21.64363699
310.30350,20.72805377
310.30400,20.11766495
310.30450,20.11766495
310.30500,17.67610969
310.30550,11.26702713
310.30600,4.857944568
310.30650,1.806000491
310.30700,-0.6355547711
310.30750,-5.823859702
310.30800,-11.31735904
310.30850,-13.14852549
310.30900,-11.62255345
310.30950,-11.62255345
310.31000,-12.53813667
310.31050,-11.31735904
310.31100,-7.960220556
310.31150,-5.518665294
310.31200,-4.297887663
310.31250,-2.16152681
310.31300,-0.6355547711
310.31350,-2.16152681
310.31400,-6.434248517
310.31450,-9.486192594
310.31500,-11.31735904
310.31550,-14.36930312
310.31600,-17.42124719
310.31650,-16.50566397
310.31700,-12.53813667
310.31750,-10.09658141
310.31800,-9.791387002
310.31850,-8.265414964
310.31900,-4.908276479
310.31950,-2.466721217
310.32000,-2.16152681
310.32050,-1.856332402
310.32100,-0.02516595566
310.32150,1.195611675
310.32200,2.721583714
310.32250,4.857944568
310.32300,7.604694237
310.32350,7.909888645
310.32400,6.078722198
310.32450,4.857944568
310.32500,5.163138975
310.32550,3.637166937
310.32600,0.280028452
310.32650,-0.02516595566
310.32700,5.773527791
310.32750,13.40338798
310.32800,17.37091528
310.32850,16.45533206
310.32900,13.40338798
310.32950,9.741055091
310.33000,5.468333383
310.33050,1.195611675
310.33100,-2.16152681
310.33150,-4.908276479
310.33200,-7.34983174
310.33250,-8.570609371
310.33300,-8.265414964
310.33350,-7.960220556
310.33400,-9.791387002
310.33450,-12.84333108
310.33500,-14.67449753
310.33550,-14.06410871
310.33600,-12.53813667
310.33650,-11.31735904
310.33700,-10.09658141
310.33750,-8.265414964
310.33800,-7.34983174
310.33850,-7.655026148
310.33900,-5.823859702
310.33950,-0.02516595566
310.34000,7.604694237
310.34050,10.65663831
310.34100,8.52027746
310.34150,6.078722198
310.34200,6.994305421
310.34250,8.825471868
310.34300,8.52027746
310.34350,6.689111014
310.34400,6.994305421
310.34450,9.130666275
310.34500,9.435860683
310.34550,7.604694237
310.34600,7.299499829
310.34650,10.96183272
310.34700,14.62416561
310.34750,14.92936002
310.34800,12.18261035
310.34850,8.52027746
310.34900,4.857944568
310.34950,1.195611675
310.35000,-0.6355547711
310.35050,0.280028452
310.35100,4.55275016
310.35150,8.52027746
310.35200,9.741055091
310.35250,7.909888645
310.35300,2.111194898
310.35350,-6.434248517
310.35400,-14.36930312
310.35450,-15.89527516
310.35500,-13.14852549
310.35550,-12.84333108
310.35600,-17.42124719
310.35650,-20.47319127
310.35700,-14.97969193
310.35750,-4.297887663
310.35800,2.416389306
310.35850,3.026778121
310.35900,-0.02516595566
310.35950,-3.992693256
310.36000,-9.180998187
310.36050,-11.01216463
310.36100,-4.603082071
310.36150,7.604694237
310.36200,17.06572088
310.36250,17.67610969
310.36300,14.0137768
310.36350,12.79299917
310.36400,15.53974884
310.36450,17.9813041
310.36500,19.20208173
310.36550,20.42285936
310.36600,22.25402581
310.36650,23.16960903
310.36700,22.25402581
310.36750,22.25402581
310.36800,23.47480344
310.36850,22.55922021
310.36900,17.9813041
310.36950,12.48780476
310.37000,8.52027746
310.37050,3.026778121
310.37100,-6.739442925
310.37150,-16.50566397
310.37200,-19.55760805
310.37250,-15.28488634
310.37300,-12.53813667
310.37350,-14.36930312
310.37400,-16.20046956
310.37450,-11.92774786
310.37500,-5.518665294
310.37550,-3.38230444
310.37600,-5.823859702
310.37650,-8.875803779
310.37700,-10.70697023
310.37750,-11.62255345
310.37800,-11.62255345
310.37850,-9.180998187
310.37900,-5.823859702
310.37950,-4.908276479
310.38000,-5.823859702
310.38050,-6.12905411
310.38100,-4.297887663
310.38150,-1.551137994
310.38200,0.8904172674
310.38250,3.331972529
310.38300,4.857944568
310.38350,4.857944568
310.38400,3.942361344
310.38450,3.942361344
310.38500,4.247555752
310.38550,4.55275016
310.38600,4.247555752
310.38650,4.247555752
310.38700,3.331972529
310.38750,2.111194898
310.38800,0.8904172674
310.38850,0.5852228597
310.38900,-0.02516595566
310.38950,-1.856332402
310.39000,-3.077110033
310.39050,-2.771915625
310.39100,-3.38230444
310.39150,-6.434248517
310.39200,-10.09658141
310.39250,-12.53813667
310.39300,-14.36930312
310.39350,-17.42124719
310.39400,-20.47319127
310.39450,-20.77838568
310.39500,-18.03163601
310.39550,-14.97969193
310.39600,-12.53813667
310.39650,-10.40177582
310.39700,-6.434248517
310.39750,-1.856332402
310.39800,2.721583714
310.39850,6.994305421
310.39900,10.0462495
310.39950,11.57222154
310.40000,12.18261035
310.40050,11.57222154
310.40100,9.130666275
310.40150,6.078722198
310.40200,4.55275016
310.40250,5.773527791
310.40300,6.689111014
310.40350,4.857944568
310.40400,3.026778121
310.40450,3.637166937
310.40500,5.163138975
310.40550,3.942361344
310.40600,2.111194898
310.40650,3.942361344
310.40700,8.52027746
310.40750,10.0462495
310.40800,6.383916606
310.40850,0.8904172674
310.40900,-3.38230444
310.40950,-7.34983174
310.41000,-12.23294226
310.41050,-16.20046956
310.41100,-17.7264416
310.41150,-18.94721923
310.41200,-20.47319127
310.41250,-20.77838568
310.41300,-17.7264416
310.41350,-12.23294226
310.41400,-7.655026148
310.41450,-4.908276479
310.41500,-2.16152681
310.41550,-0.02516595566
310.41600,-0.6355547711
310.41650,-3.077110033
310.41700,-4.297887663
310.41750,-2.771915625
310.41800,-0.3303603634
310.41850,0.5852228597
310.41900,0.8904172674
310.41950,2.111194898
310.42000,3.942361344
310.42050,5.773527791
310.42100,7.604694237
310.42150,10.96183272
310.42200,13.40338798
310.42250,13.09819358
310.42300,10.35144391
310.42350,8.52027746
310.42400,7.299499829
310.42450,3.637166937
310.42500,-0.9407491788
310.42550,-1.245943586
310.42600,3.942361344
310.42650,8.825471868
310.42700,6.689111014
310.42750,1.195611675
310.42800,-0.6355547711
310.42850,0.280028452
310.42900,0.5852228597
310.42950,-0.02516595566
310.43000,1.195611675
310.43050,4.247555752
310.43100,4.247555752
310.43150,0.8904172674
310.43200,-1.856332402
310.43250,-1.245943586
310.43300,0.280028452
310.43350,3.026778121
310.43400,7.604694237
310.43450,12.48780476
310.43500,13.40338798
310.43550,8.825471868
310.43600,3.026778121
310.43650,-0.6355547711
310.43700,-3.38230444
310.43750,-5.823859702
310.43800,-7.044637333
310.43850,-7.960220556
310.43900,-10.40177582
310.43950,-13.45371989
310.44000,-12.53813667
310.44050,-6.434248517
310.44100,-0.3303603634
310.44150,-0.02516595566
310.44200,-3.687498848
310.44250,-6.434248517
310.44300,-4.603082071
310.44350,1.195611675
310.44400,9.435860683
310.44450,16.15013765
310.44500,16.15013765
310.44550,10.35144391
310.44600,5.163138975
310.44650,4.55275016
310.44700,6.383916606
310.44750,4.857944568
310.44800,1.195611675
310.44850,0.280028452
310.44900,3.026778121
310.44950,6.078722198
310.45000,6.994305421
310.45050,8.52027746
310.45100,11.87741594
310.45150,14.31897121
310.45200,12.79299917
310.45250,7.299499829
310.45300,0.5852228597
310.45350,-4.297887663
310.45400,-8.265414964
310.45450,-10.70697023
310.45500,-10.09658141
310.45550,-6.434248517
310.45600,-1.245943586
310.45650,2.111194898
310.45700,2.721583714
310.45750,0.8904172674
310.45800,-0.3303603634
310.45850,-0.3303603634
310.45900,-0.02516595566
310.45950,-0.02516595566
310.46000,0.280028452
310.46050,0.280028452
310.46100,-0.02516595566
310.46150,-1.551137994
310.46200,-1.856332402
310.46250,0.5852228597
310.46300,4.55275016
310.46350,5.773527791
310.46400,4.55275016
310.46450,4.247555752
310.46500,6.078722198
310.46550,8.215083052
310.46600,7.909888645
310.46650,6.689111014
310.46700,6.689111014
310.46750,7.299499829
310.46800,6.689111014
310.46850,4.247555752
310.46900,1.806000491
310.46950,0.5852228597
310.47000,0.280028452
310.47050,-0.02516595566
310.47100,-1.245943586
310.47150,-3.077110033
310.47200,-5.518665294
310.47250,-7.34983174
310.47300,-8.265414964
310.47350,-8.265414964
310.47400,-8.265414964
310.47450,-8.875803779
310.47500,-10.09658141
310.47550,-12.23294226
310.47600,-14.06410871
310.47650,-14.36930312
310.47700,-13.7589143
310.47750,-12.53813667
310.47800,-12.23294226
310.47850,-11.92774786
310.47900,-10.70697023
310.47950,-8.265414964
310.48000,-4.908276479
310.48050,-2.771915625
310.48100,-2.771915625
310.48150,-3.077110033
310.48200,-1.245943586
310.48250,3.026778121
310.48300,7.299499829
310.48350,8.52027746
310.48400,6.689111014
310.48450,5.773527791
310.48500,7.909888645
310.48550,11.87741594
310.48600,15.53974884
310.48650,18.59169291
310.48700,20.42285936
310.48750,21.9488314
310.48800,23.47480344
310.48850,25.00077548
310.48900,25.61116429
310.48950,23.16960903
310.49000,15.84494324
310.49050,6.078722198
310.49100,-3.38230444
310.49150,-11.31735904
310.49200,-16.50566397
310.49250,-18.64202483
310.49300,-17.11605279
310.49350,-14.36930312
310.49400,-12.23294226
310.49450,-11.31735904
310.49500,-11.01216463
310.49550,-11.92774786
310.49600,-13.45371989
310.49650,-12.53813667
310.49700,-8.570609371
310.49750,-4.603082071
310.49800,-4.603082071
310.49850,-8.570609371
310.49900,-10.70697023
310.49950,-8.570609371
310.50000,-5.518665294
310.50050,-5.213470887
310.50100,-5.518665294
310.50150,-3.38230444
310.50200,2.111194898
310.50250,8.52027746
310.50300,11.87741594
310.50350,12.18261035
310.50400,9.741055091
310.50450,6.383916606
310.50500,3.331972529
310.50550,2.416389306
310.50600,3.331972529
310.50650,3.942361344
310.50700,3.942361344
310.50750,2.721583714
310.50800,1.195611675
310.50850,0.5852228597
310.50900,0.8904172674
310.50950,1.500806083
310.51000,0.280028452
310.51050,-1.551137994
310.51100,-3.38230444
310.51150,-3.992693256
310.51200,-4.603082071
310.51250,-5.823859702
310.51300,-6.739442925
310.51350,-6.739442925
310.51400,-7.34983174
310.51450,-8.875803779
310.51500,-9.486192594
310.51550,-7.34983174
310.51600,-4.603082071
310.51650,-3.38230444
310.51700,-4.297887663
310.51750,-5.213470887
310.51800,-5.518665294
310.51850,-6.434248517
310.51900,-7.044637333
310.51950,-5.823859702
310.52000,-3.992693256
310.52050,-3.38230444
310.52100,-3.38230444
310.52150,-2.466721217
310.52200,-0.3303603634
310.52250,0.280028452
310.52300,-0.6355547711
310.52350,-1.245943586
310.52400,1.806000491
310.52450,8.215083052
310.52500,12.48780476
310.52550,12.79299917
310.52600,10.65663831
310.52650,8.825471868
310.52700,7.909888645
310.52750,6.078722198
310.52800,2.416389306
310.52850,-0.9407491788
310.52900,-2.16152681
310.52950,-1.245943586
310.53000,-0.02516595566
310.53050,-0.3303603634
310.53100,-2.16152681
310.53150,-2.771915625
310.53200,-0.9407491788
310.53250,0.280028452
310.53300,-2.16152681
310.53350,-8.875803779
310.53400,-16.20046956
310.53450,-20.16799686
310.53500,-21.38877449
310.53550,-21.08358009
310.53600,-18.94721923
310.53650,-12.84333108
310.53700,-3.687498848
310.53750,3.331972529
310.53800,6.078722198
310.53850,4.857944568
310.53900,2.721583714
310.53950,1.806000491
310.54000,2.111194898
310.54050,4.55275016
310.54100,7.909888645
310.54150,10.0462495
310.54200,9.130666275
310.54250,7.604694237
310.54300,7.909888645
310.54350,10.0462495
310.54400,10.65663831
310.54450,11.57222154
310.54500,16.76052647
310.54550,25.61116429
310.54600,31.10466363
310.54650,26.52674751
310.54700,13.40338798
310.54750,-0.02516595566
310.54800,-8.265414964
310.54850,-9.486192594
310.54900,-5.823859702
310.54950,0.8904172674
310.55000,7.299499829
310.55050,8.825471868
310.55100,4.247555752
310.55150,-3.077110033
310.55200,-8.875803779
310.55250,-10.70697023
310.55300,-10.40177582
310.55350,-11.01216463
310.55400,-13.7589143
310.55450,-14.97969193
310.55500,-11.92774786
310.55550,-5.823859702
310.55600,-1.551137994
310.55650,-1.551137994
310.55700,-3.687498848
310.55750,-4.603082071
310.55800,-2.771915625
310.55850,-0.02516595566
310.55900,2.416389306
310.55950,3.637166937
310.56000,3.331972529
310.56050,1.806000491
310.56100,-0.3303603634
310.56150,-2.466721217
310.56200,-2.16152681
310.56250,0.280028452
310.56300,4.55275016
310.56350,9.435860683
310.56400,11.87741594
310.56450,10.96183272
310.56500,8.215083052
310.56550,4.857944568
310.56600,2.111194898
310.56650,-0.3303603634
310.56700,-1.551137994
310.56750,-0.02516595566
310.56800,1.806000491
310.56850,1.195611675
310.56900,-2.16152681
310.56950,-3.992693256
310.57000,-0.02516595566
310.57050,6.689111014
310.57100,10.96183272
310.57150,10.35144391
310.57200,7.604694237
310.57250,4.247555752
310.57300,-0.02516595566
310.57350,-4.603082071
310.57400,-7.044637333
310.57450,-6.739442925
310.57500,-6.739442925
310.57550,-7.960220556
310.57600,-8.875803779
310.57650,-8.265414964
310.57700,-7.960220556
310.57750,-9.486192594
310.57800,-11.01216463
310.57850,-10.09658141
310.57900,-7.34983174
310.57950,-4.908276479
310.58000,-2.466721217
310.58050,1.195611675
310.58100,4.857944568
310.58150,4.857944568
310.58200,0.8904172674
310.58250,-2.466721217
310.58300,-3.077110033
310.58350,-0.6355547711
310.58400,2.416389306
310.58450,5.773527791
310.58500,6.994305421
310.58550,6.383916606
310.58600,5.773527791
310.58650,6.383916606
310.58700,8.215083052
310.58750,9.741055091
310.58800,11.57222154
310.58850,15.23455443
310.58900,19.20208173
310.58950,20.42285936
310.59000,18.59169291
310.59050,16.15013765
310.59100,12.48780476
310.59150,5.773527791
310.59200,-3.687498848
310.59250,-14.36930312
310.59300,-21.99916331
310.59350,-24.74591298
310.59400,-22.91474653
310.59450,-18.33683042
310.59500,-15.59008075
310.59550,-16.50566397
310.59600,-18.94721923
310.59650,-17.42124719
310.59700,-12.53813667
310.59750,-7.34983174
310.59800,-5.213470887
310.59850,-4.297887663
310.59900,-4.297887663
310.59950,-5.518665294
310.60000,-7.655026148
310.60050,-8.570609371
310.60100,-6.12905411
310.60150,-1.856332402
310.60200,2.111194898
310.60250,6.078722198
310.60300,9.130666275
310.60350,9.741055091
310.60400,7.909888645
310.60450,5.773527791
310.60500,4.857944568
310.60550,5.773527791
310.60600,8.52027746
310.60650,11.87741594
310.60700,14.0137768
310.60750,13.09819358
310.60800,10.35144391
310.60850,9.130666275
310.60900,8.52027746
310.60950,6.383916606
310.61000,1.195611675
310.61050,-3.687498848
310.61100,-7.044637333
310.61150,-8.875803779
310.61200,-10.70697023
310.61250,-11.92774786
310.61300,-11.62255345
310.61350,-10.09658141
310.61400,-8.570609371
310.61450,-7.044637333
310.61500,-4.603082071
310.61550,-3.687498848
310.61600,-6.12905411
310.61650,-9.791387002
310.61700,-11.01216463
