"type","name","time_units","begin_time","frequency","count","units"
"signal","Ultium EMG-EXT.DIG. RT","s",384.96000,2000,22000,"uV"

"time","value"
384.96000,-0.247694012
384.96050,-0.247694012
384.96100,-0.5528884197
384.96150,-0.5528884197
384.96200,0.05750039565
384.96250,0.05750039565
384.96300,-0.8580828275
384.96350,-3.604832497
384.96400,-5.435998943
384.96450,-4.52041572
384.96500,-1.468471643
384.96550,1.583472434
384.96600,3.109444473
384.96650,1.888666842
384.96700,-0.247694012
384.96750,-2.078860458
384.96800,-2.384054866
384.96850,-2.384054866
384.96900,-3.604832497
384.96950,-6.351582166
384.97000,-8.48794302
384.97050,-7.877554205
384.97100,-3.910026904
384.97150,1.278278026
384.97200,4.025027696
384.97250,1.888666842
384.97300,-3.604832497
384.97350,-7.877554205
384.97400,-7.877554205
384.97450,-3.604832497
384.97500,0.6678892111
384.97550,3.109444473
384.97600,2.499055657
384.97650,0.3626948034
384.97700,-0.8580828275
384.97750,-1.468471643
384.97800,-1.468471643
384.97850,-1.468471643
384.97900,-0.8580828275
384.97950,0.3626948034
384.98000,2.499055657
384.98050,3.719833288
384.98100,3.109444473
384.98150,0.6678892111
384.98200,-1.773666051
384.98250,-3.299638089
384.98300,-2.689249274
384.98350,-1.163277235
384.98400,-0.247694012
384.98450,-0.247694012
384.98500,0.05750039565
384.98550,0.9730836188
384.98600,1.888666842
384.98650,1.888666842
384.98700,1.888666842
384.98750,2.804250065
384.98800,4.330222103
384.98850,5.856194142
384.98900,5.550999734
384.98950,4.635416511
384.99000,4.635416511
384.99050,4.940610919
384.99100,4.330222103
384.99150,2.19386125
384.99200,0.05750039565
384.99250,0.05750039565
384.99300,1.583472434
384.99350,2.804250065
384.99400,2.499055657
384.99450,2.499055657
384.99500,3.109444473
384.99550,4.025027696
384.99600,4.025027696
384.99650,3.719833288
384.99700,3.109444473
384.99750,1.888666842
384.99800,0.3626948034
384.99850,-0.8580828275
384.99900,-1.468471643
384.99950,-1.468471643
385.00000,-0.247694012
385.00050,3.719833288
385.00100,9.823721442
385.00150,12.57047111
385.00200,8.297749404
385.00250,-0.8580828275
385.00300,-9.708720651
385.00350,-12.76066473
385.00400,-11.23469269
385.00450,-7.877554205
385.00500,-5.435998943
385.00550,-3.299638089
385.00600,-2.384054866
385.00650,-2.994443681
385.00700,-3.910026904
385.00750,-2.384054866
385.00800,2.19386125
385.00850,6.466582957
385.00900,6.466582957
385.00950,1.888666842
385.01000,-1.773666051
385.01050,-2.994443681
385.01100,-1.773666051
385.01150,0.05750039565
385.01200,1.583472434
385.01250,1.888666842
385.01300,0.3626948034
385.01350,-0.8580828275
385.01400,-1.163277235
385.01450,-0.8580828275
385.01500,-1.163277235
385.01550,-1.163277235
385.01600,0.6678892111
385.01650,2.804250065
385.01700,1.583472434
385.01750,0.05750039565
385.01800,0.3626948034
385.01850,1.888666842
385.01900,0.05750039565
385.01950,-5.130804535
385.02000,-8.182748612
385.02050,-6.046387758
385.02100,-2.384054866
385.02150,-1.468471643
385.02200,-2.384054866
385.02250,-2.078860458
385.02300,-0.8580828275
385.02350,-0.247694012
385.02400,-0.5528884197
385.02450,-1.468471643
385.02500,-2.994443681
385.02550,-4.215221312
385.02600,-3.910026904
385.02650,-2.078860458
385.02700,-0.8580828275
385.02750,-1.468471643
385.02800,-1.468471643
385.02850,-0.247694012
385.02900,0.3626948034
385.02950,0.05750039565
385.03000,0.05750039565
385.03050,1.278278026
385.03100,2.19386125
385.03150,1.583472434
385.03200,0.3626948034
385.03250,0.3626948034
385.03300,0.3626948034
385.03350,-0.247694012
385.03400,-0.5528884197
385.03450,0.05750039565
385.03500,0.6678892111
385.03550,0.3626948034
385.03600,-0.8580828275
385.03650,-0.8580828275
385.03700,0.05750039565
385.03750,0.05750039565
385.03800,-0.247694012
385.03850,-0.8580828275
385.03900,-0.8580828275
385.03950,-0.247694012
385.04000,-0.247694012
385.04050,-0.8580828275
385.04100,-1.163277235
385.04150,0.05750039565
385.04200,2.499055657
385.04250,3.41463888
385.04300,1.278278026
385.04350,-1.468471643
385.04400,-2.384054866
385.04450,-0.8580828275
385.04500,1.278278026
385.04550,3.719833288
385.04600,5.245805327
385.04650,5.245805327
385.04700,4.025027696
385.04750,2.804250065
385.04800,1.888666842
385.04850,0.9730836188
385.04900,-0.5528884197
385.04950,-1.773666051
385.05000,-0.5528884197
385.05050,1.888666842
385.05100,3.109444473
385.05150,3.41463888
385.05200,4.940610919
385.05250,6.16138855
385.05300,4.025027696
385.05350,-2.078860458
385.05400,-8.182748612
385.05450,-10.92949828
385.05500,-10.92949828
385.05550,-11.23469269
385.05600,-10.62430387
385.05650,-6.961970981
385.05700,-0.247694012
385.05750,5.856194142
385.05800,8.908138219
385.05850,8.297749404
385.05900,5.856194142
385.05950,3.41463888
385.06000,2.499055657
385.06050,1.888666842
385.06100,0.6678892111
385.06150,-1.468471643
385.06200,-3.910026904
385.06250,-4.52041572
385.06300,-3.910026904
385.06350,-3.299638089
385.06400,-3.299638089
385.06450,-2.384054866
385.06500,-0.247694012
385.06550,1.278278026
385.06600,2.19386125
385.06650,1.888666842
385.06700,1.278278026
385.06750,0.3626948034
385.06800,-0.5528884197
385.06850,-1.468471643
385.06900,-0.5528884197
385.06950,1.278278026
385.07000,1.888666842
385.07050,0.3626948034
385.07100,-1.163277235
385.07150,-0.247694012
385.07200,1.888666842
385.07250,4.025027696
385.07300,4.330222103
385.07350,3.41463888
385.07400,1.278278026
385.07450,-1.163277235
385.07500,-3.299638089
385.07550,-3.299638089
385.07600,-1.468471643
385.07650,0.05750039565
385.07700,0.3626948034
385.07750,0.05750039565
385.07800,0.3626948034
385.07850,0.3626948034
385.07900,-0.247694012
385.07950,-0.5528884197
385.08000,0.05750039565
385.08050,1.583472434
385.08100,0.9730836188
385.08150,-1.468471643
385.08200,-2.689249274
385.08250,-1.468471643
385.08300,0.05750039565
385.08350,0.3626948034
385.08400,-0.5528884197
385.08450,-0.8580828275
385.08500,0.05750039565
385.08550,2.19386125
385.08600,3.719833288
385.08650,4.330222103
385.08700,4.635416511
385.08750,4.330222103
385.08800,3.41463888
385.08850,2.499055657
385.08900,2.804250065
385.08950,4.330222103
385.09000,6.16138855
385.09050,7.38216618
385.09100,6.16138855
385.09150,3.719833288
385.09200,1.278278026
385.09250,0.3626948034
385.09300,0.05750039565
385.09350,0.05750039565
385.09400,-0.247694012
385.09450,-0.247694012
385.09500,0.3626948034
385.09550,1.888666842
385.09600,2.19386125
385.09650,1.583472434
385.09700,1.278278026
385.09750,2.499055657
385.09800,3.719833288
385.09850,3.719833288
385.09900,2.19386125
385.09950,0.6678892111
385.10000,0.3626948034
385.10050,0.9730836188
385.10100,0.9730836188
385.10150,0.05750039565
385.10200,-0.5528884197
385.10250,-1.163277235
385.10300,-1.163277235
385.10350,-0.5528884197
385.10400,0.6678892111
385.10450,2.499055657
385.10500,3.109444473
385.10550,1.888666842
385.10600,0.6678892111
385.10650,0.9730836188
385.10700,2.804250065
385.10750,4.330222103
385.10800,3.109444473
385.10850,-0.5528884197
385.10900,-5.435998943
385.10950,-8.48794302
385.11000,-8.793137428
385.11050,-8.182748612
385.11100,-8.182748612
385.11150,-8.182748612
385.11200,-6.351582166
385.11250,-2.689249274
385.11300,0.05750039565
385.11350,0.9730836188
385.11400,0.05750039565
385.11450,-0.8580828275
385.11500,-2.689249274
385.11550,-3.604832497
385.11600,-3.299638089
385.11650,-2.994443681
385.11700,-3.604832497
385.11750,-4.52041572
385.11800,-3.299638089
385.11850,-1.163277235
385.11900,-0.247694012
385.11950,-0.247694012
385.12000,1.583472434
385.12050,6.466582957
385.12100,7.992554996
385.12150,2.804250065
385.12200,-4.215221312
385.12250,-6.656776574
385.12300,-4.215221312
385.12350,-1.773666051
385.12400,-2.078860458
385.12450,-2.689249274
385.12500,-1.773666051
385.12550,0.05750039565
385.12600,0.9730836188
385.12650,2.499055657
385.12700,3.41463888
385.12750,3.109444473
385.12800,1.888666842
385.12850,1.583472434
385.12900,2.19386125
385.12950,2.499055657
385.13000,1.583472434
385.13050,0.3626948034
385.13100,0.05750039565
385.13150,-0.5528884197
385.13200,-1.773666051
385.13250,-2.384054866
385.13300,-1.163277235
385.13350,0.05750039565
385.13400,0.6678892111
385.13450,0.6678892111
385.13500,0.9730836188
385.13550,2.499055657
385.13600,3.719833288
385.13650,4.025027696
385.13700,2.804250065
385.13750,1.278278026
385.13800,0.6678892111
385.13850,0.05750039565
385.13900,-0.8580828275
385.13950,-2.384054866
385.14000,-2.994443681
385.14050,-2.078860458
385.14100,-1.468471643
385.14150,-2.689249274
385.14200,-2.994443681
385.14250,-0.8580828275
385.14300,1.583472434
385.14350,1.583472434
385.14400,0.05750039565
385.14450,-0.8580828275
385.14500,0.6678892111
385.14550,2.804250065
385.14600,2.19386125
385.14650,0.05750039565
385.14700,-0.5528884197
385.14750,0.05750039565
385.14800,0.05750039565
385.14850,-0.8580828275
385.14900,-2.078860458
385.14950,-2.078860458
385.15000,-2.384054866
385.15050,-2.689249274
385.15100,-2.384054866
385.15150,-1.163277235
385.15200,-0.8580828275
385.15250,-1.163277235
385.15300,-0.5528884197
385.15350,0.9730836188
385.15400,2.499055657
385.15450,1.888666842
385.15500,1.583472434
385.15550,2.499055657
385.15600,3.719833288
385.15650,2.19386125
385.15700,-0.247694012
385.15750,-1.468471643
385.15800,-0.8580828275
385.15850,0.05750039565
385.15900,1.278278026
385.15950,3.719833288
385.16000,5.245805327
385.16050,3.719833288
385.16100,0.05750039565
385.16150,-2.994443681
385.16200,-3.604832497
385.16250,-3.299638089
385.16300,-3.910026904
385.16350,-3.910026904
385.16400,-3.604832497
385.16450,-3.910026904
385.16500,-4.52041572
385.16550,-3.910026904
385.16600,-0.5528884197
385.16650,3.109444473
385.16700,4.025027696
385.16750,1.583472434
385.16800,-0.247694012
385.16850,0.05750039565
385.16900,1.583472434
385.16950,2.804250065
385.17000,2.19386125
385.17050,0.05750039565
385.17100,-2.689249274
385.17150,-5.435998943
385.17200,-6.046387758
385.17250,-4.52041572
385.17300,-2.078860458
385.17350,-0.247694012
385.17400,1.278278026
385.17450,2.804250065
385.17500,3.41463888
385.17550,1.888666842
385.17600,-0.247694012
385.17650,-1.163277235
385.17700,-1.163277235
385.17750,-1.163277235
385.17800,-0.5528884197
385.17850,1.583472434
385.17900,4.330222103
385.17950,6.16138855
385.18000,6.771777365
385.18050,7.38216618
385.18100,6.16138855
385.18150,2.499055657
385.18200,-2.384054866
385.18250,-5.130804535
385.18300,-4.215221312
385.18350,-1.773666051
385.18400,-0.8580828275
385.18450,-1.163277235
385.18500,-1.468471643
385.18550,-1.163277235
385.18600,-0.247694012
385.18650,1.583472434
385.18700,3.41463888
385.18750,3.41463888
385.18800,0.9730836188
385.18850,-1.773666051
385.18900,-3.910026904
385.18950,-4.825610128
385.19000,-4.52041572
385.19050,-4.215221312
385.19100,-3.910026904
385.19150,-3.910026904
385.19200,-3.604832497
385.19250,-2.689249274
385.19300,-1.163277235
385.19350,0.05750039565
385.19400,1.888666842
385.19450,3.41463888
385.19500,3.41463888
385.19550,0.6678892111
385.19600,-1.468471643
385.19650,-0.8580828275
385.19700,2.19386125
385.19750,5.245805327
385.19800,5.856194142
385.19850,4.940610919
385.19900,3.41463888
385.19950,1.278278026
385.20000,-0.5528884197
385.20050,-0.8580828275
385.20100,0.3626948034
385.20150,1.583472434
385.20200,0.9730836188
385.20250,0.05750039565
385.20300,-0.247694012
385.20350,0.05750039565
385.20400,0.05750039565
385.20450,0.9730836188
385.20500,1.888666842
385.20550,2.499055657
385.20600,2.19386125
385.20650,2.804250065
385.20700,4.330222103
385.20750,4.940610919
385.20800,3.719833288
385.20850,2.499055657
385.20900,2.804250065
385.20950,3.719833288
385.21000,4.025027696
385.21050,4.025027696
385.21100,4.025027696
385.21150,2.804250065
385.21200,0.6678892111
385.21250,-0.5528884197
385.21300,0.05750039565
385.21350,1.278278026
385.21400,0.6678892111
385.21450,-0.247694012
385.21500,-0.5528884197
385.21550,0.3626948034
385.21600,0.9730836188
385.21650,0.05750039565
385.21700,-0.8580828275
385.21750,-0.8580828275
385.21800,-0.5528884197
385.21850,0.05750039565
385.21900,0.05750039565
385.21950,0.05750039565
385.22000,0.05750039565
385.22050,0.3626948034
385.22100,1.278278026
385.22150,1.278278026
385.22200,0.3626948034
385.22250,0.3626948034
385.22300,1.278278026
385.22350,1.583472434
385.22400,0.6678892111
385.22450,-0.247694012
385.22500,-0.5528884197
385.22550,-1.773666051
385.22600,-4.215221312
385.22650,-5.741193351
385.22700,-4.52041572
385.22750,-2.994443681
385.22800,-2.994443681
385.22850,-2.994443681
385.22900,-1.773666051
385.22950,-0.247694012
385.23000,0.6678892111
385.23050,2.499055657
385.23100,5.245805327
385.23150,5.550999734
385.23200,1.888666842
385.23250,-2.994443681
385.23300,-5.741193351
385.23350,-4.825610128
385.23400,-3.299638089
385.23450,-2.689249274
385.23500,-2.689249274
385.23550,-2.994443681
385.23600,-2.689249274
385.23650,-1.468471643
385.23700,0.05750039565
385.23750,0.05750039565
385.23800,-0.8580828275
385.23850,-1.468471643
385.23900,0.05750039565
385.23950,1.583472434
385.24000,2.19386125
385.24050,1.278278026
385.24100,0.3626948034
385.24150,0.05750039565
385.24200,-1.773666051
385.24250,-3.604832497
385.24300,-4.215221312
385.24350,-3.910026904
385.24400,-4.52041572
385.24450,-6.351582166
385.24500,-6.351582166
385.24550,-2.384054866
385.24600,3.719833288
385.24650,7.992554996
385.24700,6.466582957
385.24750,1.278278026
385.24800,-2.689249274
385.24850,-2.078860458
385.24900,1.888666842
385.24950,4.635416511
385.25000,2.499055657
385.25050,-2.689249274
385.25100,-7.572359797
385.25150,-9.098331835
385.25200,-7.267165389
385.25250,-3.910026904
385.25300,-1.468471643
385.25350,-0.247694012
385.25400,0.05750039565
385.25450,0.9730836188
385.25500,2.499055657
385.25550,2.804250065
385.25600,1.583472434
385.25650,0.05750039565
385.25700,0.05750039565
385.25750,0.9730836188
385.25800,0.6678892111
385.25850,-0.5528884197
385.25900,-1.163277235
385.25950,0.05750039565
385.26000,1.278278026
385.26050,0.6678892111
385.26100,0.05750039565
385.26150,1.888666842
385.26200,4.635416511
385.26250,3.719833288
385.26300,0.05750039565
385.26350,-2.689249274
385.26400,-1.468471643
385.26450,0.9730836188
385.26500,0.9730836188
385.26550,-0.5528884197
385.26600,-1.163277235
385.26650,-0.247694012
385.26700,-0.247694012
385.26750,-2.384054866
385.26800,-5.130804535
385.26850,-6.351582166
385.26900,-5.435998943
385.26950,-3.299638089
385.27000,-1.468471643
385.27050,-0.8580828275
385.27100,-0.8580828275
385.27150,-0.5528884197
385.27200,0.3626948034
385.27250,0.3626948034
385.27300,-0.8580828275
385.27350,-1.773666051
385.27400,-0.247694012
385.27450,1.583472434
385.27500,2.19386125
385.27550,0.9730836188
385.27600,-0.5528884197
385.27650,-0.8580828275
385.27700,0.3626948034
385.27750,3.109444473
385.27800,5.245805327
385.27850,5.245805327
385.27900,3.109444473
385.27950,1.583472434
385.28000,0.9730836188
385.28050,0.9730836188
385.28100,0.6678892111
385.28150,0.05750039565
385.28200,-1.163277235
385.28250,-2.078860458
385.28300,-1.468471643
385.28350,0.05750039565
385.28400,2.19386125
385.28450,3.109444473
385.28500,3.41463888
385.28550,4.635416511
385.28600,4.635416511
385.28650,1.888666842
385.28700,-1.773666051
385.28750,-2.994443681
385.28800,-1.468471643
385.28850,0.05750039565
385.28900,0.05750039565
385.28950,0.05750039565
385.29000,1.583472434
385.29050,2.19386125
385.29100,0.6678892111
385.29150,-0.8580828275
385.29200,0.05750039565
385.29250,3.41463888
385.29300,5.550999734
385.29350,3.719833288
385.29400,0.3626948034
385.29450,-0.5528884197
385.29500,0.6678892111
385.29550,3.109444473
385.29600,4.940610919
385.29650,5.245805327
385.29700,4.635416511
385.29750,3.41463888
385.29800,2.19386125
385.29850,0.9730836188
385.29900,0.05750039565
385.29950,-0.5528884197
385.30000,-0.5528884197
385.30050,-0.247694012
385.30100,-0.8580828275
385.30150,-1.468471643
385.30200,-1.468471643
385.30250,-0.5528884197
385.30300,0.05750039565
385.30350,0.05750039565
385.30400,-0.5528884197
385.30450,-0.247694012
385.30500,0.3626948034
385.30550,0.05750039565
385.30600,-0.8580828275
385.30650,-1.468471643
385.30700,-0.5528884197
385.30750,0.6678892111
385.30800,1.583472434
385.30850,2.19386125
385.30900,3.719833288
385.30950,5.550999734
385.31000,4.940610919
385.31050,2.499055657
385.31100,0.3626948034
385.31150,0.6678892111
385.31200,2.499055657
385.31250,3.41463888
385.31300,2.804250065
385.31350,1.888666842
385.31400,1.888666842
385.31450,1.888666842
385.31500,1.888666842
385.31550,1.888666842
385.31600,2.499055657
385.31650,2.804250065
385.31700,0.3626948034
385.31750,-3.910026904
385.31800,-7.572359797
385.31850,-8.48794302
385.31900,-6.351582166
385.31950,-3.910026904
385.32000,-1.773666051
385.32050,-0.5528884197
385.32100,0.05750039565
385.32150,0.3626948034
385.32200,0.6678892111
385.32250,1.278278026
385.32300,1.278278026
385.32350,0.3626948034
385.32400,-0.8580828275
385.32450,-1.468471643
385.32500,-1.468471643
385.32550,-1.163277235
385.32600,-1.163277235
385.32650,-1.163277235
385.32700,-0.8580828275
385.32750,-0.5528884197
385.32800,-0.247694012
385.32850,-0.247694012
385.32900,-0.5528884197
385.32950,-1.468471643
385.33000,-1.468471643
385.33050,1.278278026
385.33100,5.856194142
385.33150,8.908138219
385.33200,7.992554996
385.33250,4.330222103
385.33300,0.05750039565
385.33350,-2.689249274
385.33400,-4.52041572
385.33450,-5.741193351
385.33500,-5.435998943
385.33550,-3.604832497
385.33600,-0.5528884197
385.33650,1.888666842
385.33700,3.109444473
385.33750,1.278278026
385.33800,-1.163277235
385.33850,-3.299638089
385.33900,-2.994443681
385.33950,-1.773666051
385.34000,-2.384054866
385.34050,-4.52041572
385.34100,-4.825610128
385.34150,-1.163277235
385.34200,4.025027696
385.34250,7.076971773
385.34300,5.550999734
385.34350,1.583472434
385.34400,-0.8580828275
385.34450,-1.773666051
385.34500,-2.078860458
385.34550,-2.994443681
385.34600,-3.910026904
385.34650,-4.215221312
385.34700,-2.384054866
385.34750,0.9730836188
385.34800,3.719833288
385.34850,4.330222103
385.34900,2.19386125
385.34950,0.05750039565
385.35000,-0.8580828275
385.35050,-1.163277235
385.35100,-1.468471643
385.35150,-2.078860458
385.35200,-2.689249274
385.35250,-3.604832497
385.35300,-4.52041572
385.35350,-4.825610128
385.35400,-5.130804535
385.35450,-6.046387758
385.35500,-5.741193351
385.35550,-2.384054866
385.35600,3.41463888
385.35650,6.771777365
385.35700,4.330222103
385.35750,-0.247694012
385.35800,-2.078860458
385.35850,0.05750039565
385.35900,2.19386125
385.35950,1.583472434
385.36000,-0.5528884197
385.36050,-2.689249274
385.36100,-3.910026904
385.36150,-4.52041572
385.36200,-2.689249274
385.36250,0.9730836188
385.36300,4.635416511
385.36350,4.940610919
385.36400,2.19386125
385.36450,-0.5528884197
385.36500,-0.8580828275
385.36550,0.3626948034
385.36600,1.583472434
385.36650,1.888666842
385.36700,1.888666842
385.36750,1.278278026
385.36800,0.05750039565
385.36850,-0.8580828275
385.36900,-0.5528884197
385.36950,0.6678892111
385.37000,2.19386125
385.37050,2.19386125
385.37100,0.9730836188
385.37150,0.3626948034
385.37200,0.3626948034
385.37250,0.05750039565
385.37300,-1.163277235
385.37350,-1.163277235
385.37400,0.05750039565
385.37450,0.9730836188
385.37500,0.3626948034
385.37550,-0.247694012
385.37600,-0.247694012
385.37650,0.3626948034
385.37700,1.278278026
385.37750,2.19386125
385.37800,3.109444473
385.37850,4.025027696
385.37900,3.719833288
385.37950,3.719833288
385.38000,4.940610919
385.38050,5.550999734
385.38100,3.109444473
385.38150,-1.163277235
385.38200,-4.825610128
385.38250,-5.130804535
385.38300,-3.604832497
385.38350,-2.384054866
385.38400,-1.773666051
385.38450,-1.468471643
385.38500,-1.163277235
385.38550,-0.247694012
385.38600,0.3626948034
385.38650,1.278278026
385.38700,0.9730836188
385.38750,0.05750039565
385.38800,-1.468471643
385.38850,-1.773666051
385.38900,-1.163277235
385.38950,-1.163277235
385.39000,-1.468471643
385.39050,-1.163277235
385.39100,-0.8580828275
385.39150,-0.8580828275
385.39200,-0.8580828275
385.39250,0.05750039565
385.39300,0.9730836188
385.39350,1.278278026
385.39400,0.05750039565
385.39450,-0.247694012
385.39500,0.3626948034
385.39550,1.583472434
385.39600,2.19386125
385.39650,2.499055657
385.39700,2.804250065
385.39750,3.109444473
385.39800,2.804250065
385.39850,2.19386125
385.39900,1.888666842
385.39950,0.9730836188
385.40000,-0.247694012
385.40050,-2.689249274
385.40100,-3.604832497
385.40150,-3.299638089
385.40200,-2.384054866
385.40250,-1.163277235
385.40300,0.3626948034
385.40350,1.888666842
385.40400,0.9730836188
385.40450,-1.468471643
385.40500,-3.299638089
385.40550,-2.384054866
385.40600,-0.8580828275
385.40650,-0.8580828275
385.40700,-2.078860458
385.40750,-1.773666051
385.40800,-0.247694012
385.40850,0.6678892111
385.40900,1.278278026
385.40950,2.19386125
385.41000,3.719833288
385.41050,3.41463888
385.41100,1.278278026
385.41150,0.05750039565
385.41200,0.9730836188
385.41250,2.19386125
385.41300,0.9730836188
385.41350,-1.468471643
385.41400,-2.078860458
385.41450,-0.5528884197
385.41500,0.6678892111
385.41550,0.6678892111
385.41600,0.05750039565
385.41650,0.3626948034
385.41700,0.9730836188
385.41750,1.278278026
385.41800,2.19386125
385.41850,4.025027696
385.41900,5.550999734
385.41950,4.940610919
385.42000,3.41463888
385.42050,3.109444473
385.42100,4.025027696
385.42150,2.804250065
385.42200,-1.163277235
385.42250,-5.130804535
385.42300,-6.351582166
385.42350,-5.130804535
385.42400,-4.215221312
385.42450,-4.215221312
385.42500,-3.604832497
385.42550,-1.773666051
385.42600,0.05750039565
385.42650,1.888666842
385.42700,2.804250065
385.42750,3.719833288
385.42800,4.330222103
385.42850,4.330222103
385.42900,2.804250065
385.42950,-0.5528884197
385.43000,-5.130804535
385.43050,-7.877554205
385.43100,-6.656776574
385.43150,-1.468471643
385.43200,3.109444473
385.43250,4.025027696
385.43300,0.05750039565
385.43350,-6.046387758
385.43400,-9.708720651
385.43450,-7.572359797
385.43500,-2.078860458
385.43550,2.804250065
385.43600,4.330222103
385.43650,3.41463888
385.43700,2.19386125
385.43750,0.9730836188
385.43800,-0.5528884197
385.43850,-2.384054866
385.43900,-1.773666051
385.43950,0.3626948034
385.44000,2.804250065
385.44050,3.109444473
385.44100,1.888666842
385.44150,0.6678892111
385.44200,0.05750039565
385.44250,-0.247694012
385.44300,-0.247694012
385.44350,0.05750039565
385.44400,0.05750039565
385.44450,-1.468471643
385.44500,-2.689249274
385.44550,-1.773666051
385.44600,-0.247694012
385.44650,-0.247694012
385.44700,-2.384054866
385.44750,-4.52041572
385.44800,-4.825610128
385.44850,-4.215221312
385.44900,-4.215221312
385.44950,-4.825610128
385.45000,-4.215221312
385.45050,-2.689249274
385.45100,-0.8580828275
385.45150,0.05750039565
385.45200,0.9730836188
385.45250,1.278278026
385.45300,0.6678892111
385.45350,-0.247694012
385.45400,-1.468471643
385.45450,-2.384054866
385.45500,-3.299638089
385.45550,-3.299638089
385.45600,-2.384054866
385.45650,-1.163277235
385.45700,-0.247694012
385.45750,-0.5528884197
385.45800,-0.5528884197
385.45850,0.3626948034
385.45900,2.19386125
385.45950,3.41463888
385.46000,4.025027696
385.46050,4.635416511
385.46100,5.550999734
385.46150,5.550999734
385.46200,4.940610919
385.46250,3.109444473
385.46300,1.583472434
385.46350,0.6678892111
385.46400,0.6678892111
385.46450,1.583472434
385.46500,2.804250065
385.46550,3.109444473
385.46600,2.19386125
385.46650,1.278278026
385.46700,1.888666842
385.46750,3.109444473
385.46800,4.025027696
385.46850,3.41463888
385.46900,1.583472434
385.46950,0.05750039565
385.47000,-0.247694012
385.47050,-0.247694012
385.47100,0.05750039565
385.47150,0.3626948034
385.47200,1.278278026
385.47250,2.19386125
385.47300,2.804250065
385.47350,2.804250065
385.47400,3.109444473
385.47450,4.025027696
385.47500,4.330222103
385.47550,3.41463888
385.47600,2.19386125
385.47650,1.583472434
385.47700,1.583472434
385.47750,1.888666842
385.47800,1.888666842
385.47850,2.19386125
385.47900,2.804250065
385.47950,2.499055657
385.48000,1.278278026
385.48050,0.05750039565
385.48100,-0.247694012
385.48150,0.05750039565
385.48200,0.3626948034
385.48250,0.9730836188
385.48300,0.9730836188
385.48350,0.3626948034
385.48400,-0.247694012
385.48450,-0.8580828275
385.48500,-0.8580828275
385.48550,-0.5528884197
385.48600,-0.8580828275
385.48650,-0.8580828275
385.48700,-0.247694012
385.48750,0.05750039565
385.48800,-0.5528884197
385.48850,-1.773666051
385.48900,-1.163277235
385.48950,0.9730836188
385.49000,2.499055657
385.49050,2.19386125
385.49100,0.9730836188
385.49150,0.9730836188
385.49200,1.278278026
385.49250,1.278278026
385.49300,1.583472434
385.49350,2.804250065
385.49400,3.41463888
385.49450,2.804250065
385.49500,1.278278026
385.49550,0.6678892111
385.49600,0.6678892111
385.49650,0.05750039565
385.49700,-0.5528884197
385.49750,0.05750039565
385.49800,1.583472434
385.49850,2.499055657
385.49900,0.9730836188
385.49950,-0.247694012
385.50000,-0.8580828275
385.50050,-1.773666051
385.50100,-3.604832497
385.50150,-3.910026904
385.50200,-0.8580828275
385.50250,1.583472434
385.50300,0.05750039565
385.50350,-5.435998943
385.50400,-8.793137428
385.50450,-7.877554205
385.50500,-5.435998943
385.50550,-4.52041572
385.50600,-4.825610128
385.50650,-5.130804535
385.50700,-4.52041572
385.50750,-3.910026904
385.50800,-3.299638089
385.50850,-3.299638089
385.50900,-3.299638089
385.50950,-2.384054866
385.51000,0.3626948034
385.51050,3.109444473
385.51100,2.19386125
385.51150,-2.078860458
385.51200,-6.046387758
385.51250,-6.656776574
385.51300,-4.52041572
385.51350,-2.384054866
385.51400,-1.163277235
385.51450,0.6678892111
385.51500,3.109444473
385.51550,4.330222103
385.51600,2.804250065
385.51650,0.05750039565
385.51700,-2.689249274
385.51750,-4.825610128
385.51800,-4.825610128
385.51850,-3.299638089
385.51900,-2.078860458
385.51950,-1.773666051
385.52000,-2.078860458
385.52050,-1.163277235
385.52100,1.278278026
385.52150,3.41463888
385.52200,3.41463888
385.52250,1.583472434
385.52300,0.3626948034
385.52350,0.6678892111
385.52400,1.888666842
385.52450,2.804250065
385.52500,1.888666842
385.52550,0.9730836188
385.52600,0.9730836188
385.52650,2.499055657
385.52700,4.025027696
385.52750,4.025027696
385.52800,2.804250065
385.52850,1.583472434
385.52900,1.278278026
385.52950,1.278278026
385.53000,0.9730836188
385.53050,0.6678892111
385.53100,0.3626948034
385.53150,0.6678892111
385.53200,0.3626948034
385.53250,0.05750039565
385.53300,-0.247694012
385.53350,-0.247694012
385.53400,-0.247694012
385.53450,-0.5528884197
385.53500,-1.163277235
385.53550,-1.773666051
385.53600,-2.384054866
385.53650,-2.078860458
385.53700,-1.163277235
385.53750,0.05750039565
385.53800,0.3626948034
385.53850,0.6678892111
385.53900,0.9730836188
385.53950,1.278278026
385.54000,1.278278026
385.54050,0.9730836188
385.54100,0.9730836188
385.54150,1.278278026
385.54200,1.583472434
385.54250,1.278278026
385.54300,0.9730836188
385.54350,0.9730836188
385.54400,1.278278026
385.54450,2.19386125
385.54500,3.719833288
385.54550,4.330222103
385.54600,2.804250065
385.54650,-0.247694012
385.54700,-2.689249274
385.54750,-3.299638089
385.54800,-2.689249274
385.54850,-2.689249274
385.54900,-2.384054866
385.54950,-1.163277235
385.55000,0.3626948034
385.55050,0.6678892111
385.55100,-0.247694012
385.55150,-2.384054866
385.55200,-3.299638089
385.55250,-2.689249274
385.55300,-2.078860458
385.55350,-2.384054866
385.55400,-3.299638089
385.55450,-2.384054866
385.55500,0.05750039565
385.55550,2.19386125
385.55600,2.499055657
385.55650,0.6678892111
385.55700,-0.8580828275
385.55750,-1.773666051
385.55800,-0.8580828275
385.55850,1.583472434
385.55900,4.635416511
385.55950,5.245805327
385.56000,2.804250065
385.56050,-0.5528884197
385.56100,-2.994443681
385.56150,-4.52041572
385.56200,-5.130804535
385.56250,-4.825610128
385.56300,-2.994443681
385.56350,-1.163277235
385.56400,0.05750039565
385.56450,0.9730836188
385.56500,1.583472434
385.56550,0.3626948034
385.56600,-1.163277235
385.56650,0.05750039565
385.56700,3.719833288
385.56750,5.856194142
385.56800,3.719833288
385.56850,0.05750039565
385.56900,-1.468471643
385.56950,-2.384054866
385.57000,-4.215221312
385.57050,-5.435998943
385.57100,-2.994443681
385.57150,0.3626948034
385.57200,1.278278026
385.57250,-0.8580828275
385.57300,-2.689249274
385.57350,-2.078860458
385.57400,-0.5528884197
385.57450,-0.247694012
385.57500,-0.5528884197
385.57550,-0.247694012
385.57600,0.05750039565
385.57650,0.05750039565
385.57700,0.6678892111
385.57750,1.583472434
385.57800,2.499055657
385.57850,1.888666842
385.57900,0.3626948034
385.57950,-0.5528884197
385.58000,-1.468471643
385.58050,-1.773666051
385.58100,-2.078860458
385.58150,-2.078860458
385.58200,-0.8580828275
385.58250,0.9730836188
385.58300,1.888666842
385.58350,0.05750039565
385.58400,-2.384054866
385.58450,-2.384054866
385.58500,-0.247694012
385.58550,0.9730836188
385.58600,0.3626948034
385.58650,-0.247694012
385.58700,0.05750039565
385.58750,0.3626948034
385.58800,-0.5528884197
385.58850,-1.163277235
385.58900,-0.247694012
385.58950,0.9730836188
385.59000,0.9730836188
385.59050,0.05750039565
385.59100,0.05750039565
385.59150,1.278278026
385.59200,0.9730836188
385.59250,-0.5528884197
385.59300,-1.468471643
385.59350,0.05750039565
385.59400,2.19386125
385.59450,2.19386125
385.59500,1.278278026
385.59550,0.6678892111
385.59600,1.278278026
385.59650,2.804250065
385.59700,4.330222103
385.59750,4.940610919
385.59800,3.719833288
385.59850,1.888666842
385.59900,0.3626948034
385.59950,-0.247694012
385.60000,-1.468471643
385.60050,-2.689249274
385.60100,-2.689249274
385.60150,-0.5528884197
385.60200,1.278278026
385.60250,1.583472434
385.60300,0.6678892111
385.60350,-0.247694012
385.60400,-0.5528884197
385.60450,-1.163277235
385.60500,-1.468471643
385.60550,0.05750039565
385.60600,2.804250065
385.60650,4.940610919
385.60700,4.940610919
385.60750,3.41463888
385.60800,2.19386125
385.60850,1.583472434
385.60900,1.278278026
385.60950,0.9730836188
385.61000,0.6678892111
385.61050,0.6678892111
385.61100,0.9730836188
385.61150,0.6678892111
385.61200,-0.5528884197
385.61250,-1.773666051
385.61300,-2.078860458
385.61350,-1.468471643
385.61400,-0.247694012
385.61450,0.05750039565
385.61500,-0.247694012
385.61550,-1.468471643
385.61600,-3.604832497
385.61650,-4.52041572
385.61700,-2.994443681
385.61750,-0.247694012
385.61800,0.9730836188
385.61850,0.6678892111
385.61900,0.6678892111
385.61950,1.278278026
385.62000,1.583472434
385.62050,0.3626948034
385.62100,0.05750039565
385.62150,1.583472434
385.62200,2.804250065
385.62250,1.583472434
385.62300,-1.773666051
385.62350,-4.215221312
385.62400,-3.299638089
385.62450,-0.247694012
385.62500,1.583472434
385.62550,1.888666842
385.62600,1.278278026
385.62650,0.9730836188
385.62700,1.583472434
385.62750,2.804250065
385.62800,4.635416511
385.62850,6.16138855
385.62900,6.771777365
385.62950,6.771777365
385.63000,6.16138855
385.63050,5.245805327
385.63100,2.804250065
385.63150,-0.5528884197
385.63200,-2.384054866
385.63250,0.05750039565
385.63300,4.940610919
385.63350,7.687360588
385.63400,5.245805327
385.63450,0.9730836188
385.63500,-0.247694012
385.63550,0.05750039565
385.63600,-1.773666051
385.63650,-4.825610128
385.63700,-4.52041572
385.63750,0.05750039565
385.63800,4.940610919
385.63850,3.719833288
385.63900,-1.773666051
385.63950,-6.351582166
385.64000,-5.741193351
385.64050,-1.163277235
385.64100,1.888666842
385.64150,1.583472434
385.64200,-1.163277235
385.64250,-3.910026904
385.64300,-4.52041572
385.64350,-3.299638089
385.64400,-0.5528884197
385.64450,1.583472434
385.64500,3.109444473
385.64550,3.41463888
385.64600,2.19386125
385.64650,1.278278026
385.64700,2.19386125
385.64750,4.025027696
385.64800,4.940610919
385.64850,2.804250065
385.64900,-0.5528884197
385.64950,-3.299638089
385.65000,-3.910026904
385.65050,-4.215221312
385.65100,-4.825610128
385.65150,-4.52041572
385.65200,-1.773666051
385.65250,0.6678892111
385.65300,0.9730836188
385.65350,-1.163277235
385.65400,-3.604832497
385.65450,-3.604832497
385.65500,-0.8580828275
385.65550,1.583472434
385.65600,2.804250065
385.65650,1.583472434
385.65700,-0.247694012
385.65750,-1.773666051
385.65800,-1.773666051
385.65850,-0.247694012
385.65900,0.3626948034
385.65950,0.6678892111
385.66000,0.3626948034
385.66050,0.05750039565
385.66100,-0.247694012
385.66150,-0.5528884197
385.66200,0.05750039565
385.66250,1.888666842
385.66300,4.330222103
385.66350,5.245805327
385.66400,4.330222103
385.66450,2.499055657
385.66500,0.9730836188
385.66550,0.05750039565
385.66600,0.05750039565
385.66650,0.3626948034
385.66700,0.6678892111
385.66750,0.05750039565
385.66800,-0.5528884197
385.66850,-0.247694012
385.66900,0.6678892111
385.66950,1.278278026
385.67000,0.6678892111
385.67050,0.05750039565
385.67100,-0.247694012
385.67150,-0.8580828275
385.67200,-2.078860458
385.67250,-3.910026904
385.67300,-5.130804535
385.67350,-5.435998943
385.67400,-4.825610128
385.67450,-3.604832497
385.67500,-2.384054866
385.67550,-1.773666051
385.67600,-1.773666051
385.67650,-1.468471643
385.67700,-1.163277235
385.67750,-0.8580828275
385.67800,-0.8580828275
385.67850,-0.8580828275
385.67900,-0.8580828275
385.67950,-0.8580828275
385.68000,-1.773666051
385.68050,-2.384054866
385.68100,-2.384054866
385.68150,-2.078860458
385.68200,-2.994443681
385.68250,-3.604832497
385.68300,-3.299638089
385.68350,-1.773666051
385.68400,-0.5528884197
385.68450,-0.5528884197
385.68500,-1.468471643
385.68550,-2.384054866
385.68600,-2.689249274
385.68650,-2.689249274
385.68700,-1.773666051
385.68750,-0.5528884197
385.68800,0.9730836188
385.68850,2.804250065
385.68900,4.025027696
385.68950,4.025027696
385.69000,2.499055657
385.69050,0.6678892111
385.69100,-0.247694012
385.69150,-0.247694012
385.69200,0.05750039565
385.69250,0.05750039565
385.69300,0.05750039565
385.69350,-0.247694012
385.69400,-0.8580828275
385.69450,-2.078860458
385.69500,-3.910026904
385.69550,-4.215221312
385.69600,-2.384054866
385.69650,0.05750039565
385.69700,0.9730836188
385.69750,0.05750039565
385.69800,-0.8580828275
385.69850,0.05750039565
385.69900,1.583472434
385.69950,2.19386125
385.70000,0.9730836188
385.70050,0.05750039565
385.70100,0.05750039565
385.70150,0.6678892111
385.70200,2.19386125
385.70250,4.025027696
385.70300,4.940610919
385.70350,3.109444473
385.70400,-0.8580828275
385.70450,-5.435998943
385.70500,-7.877554205
385.70550,-7.877554205
385.70600,-6.046387758
385.70650,-4.215221312
385.70700,-2.994443681
385.70750,-2.078860458
385.70800,-0.5528884197
385.70850,0.05750039565
385.70900,-1.163277235
385.70950,-2.689249274
385.71000,-1.468471643
385.71050,1.888666842
385.71100,4.025027696
385.71150,3.41463888
385.71200,2.19386125
385.71250,3.41463888
385.71300,4.025027696
385.71350,1.278278026
385.71400,-2.384054866
385.71450,-2.384054866
385.71500,1.278278026
385.71550,4.635416511
385.71600,3.719833288
385.71650,1.888666842
385.71700,1.888666842
385.71750,2.499055657
385.71800,2.19386125
385.71850,0.6678892111
385.71900,0.3626948034
385.71950,1.278278026
385.72000,1.583472434
385.72050,0.6678892111
385.72100,-0.247694012
385.72150,-0.8580828275
385.72200,-0.5528884197
385.72250,0.6678892111
385.72300,3.109444473
385.72350,4.330222103
385.72400,3.109444473
385.72450,0.6678892111
385.72500,0.05750039565
385.72550,1.888666842
385.72600,4.025027696
385.72650,4.330222103
385.72700,3.109444473
385.72750,2.499055657
385.72800,2.19386125
385.72850,0.9730836188
385.72900,-0.8580828275
385.72950,-2.994443681
385.73000,-3.604832497
385.73050,-2.994443681
385.73100,-1.468471643
385.73150,0.6678892111
385.73200,2.499055657
385.73250,2.19386125
385.73300,0.9730836188
385.73350,0.05750039565
385.73400,0.05750039565
385.73450,-1.163277235
385.73500,-2.689249274
385.73550,-1.468471643
385.73600,2.19386125
385.73650,5.245805327
385.73700,4.330222103
385.73750,0.9730836188
385.73800,-0.5528884197
385.73850,0.6678892111
385.73900,3.109444473
385.73950,4.025027696
385.74000,3.719833288
385.74050,4.025027696
385.74100,7.38216618
385.74150,11.04449907
385.74200,11.9600823
385.74250,8.908138219
385.74300,4.635416511
385.74350,1.583472434
385.74400,-1.468471643
385.74450,-6.351582166
385.74500,-10.31910947
385.74550,-9.403526243
385.74600,-4.825610128
385.74650,-2.384054866
385.74700,-4.215221312
385.74750,-6.656776574
385.74800,-5.435998943
385.74850,-2.078860458
385.74900,0.05750039565
385.74950,0.05750039565
385.75000,-0.5528884197
385.75050,-0.5528884197
385.75100,-0.247694012
385.75150,-0.247694012
385.75200,-0.247694012
385.75250,-1.468471643
385.75300,-3.299638089
385.75350,-3.910026904
385.75400,-2.384054866
385.75450,0.05750039565
385.75500,0.9730836188
385.75550,0.3626948034
385.75600,-1.163277235
385.75650,-3.299638089
385.75700,-4.52041572
385.75750,-4.215221312
385.75800,-3.604832497
385.75850,-2.994443681
385.75900,-2.078860458
385.75950,0.05750039565
385.76000,1.888666842
385.76050,3.109444473
385.76100,4.025027696
385.76150,5.856194142
385.76200,7.076971773
385.76250,5.856194142
385.76300,2.499055657
385.76350,0.05750039565
385.76400,-0.5528884197
385.76450,-0.8580828275
385.76500,-2.078860458
385.76550,-2.384054866
385.76600,-0.247694012
385.76650,2.19386125
385.76700,4.635416511
385.76750,7.076971773
385.76800,9.823721442
385.76850,9.518527034
385.76900,3.719833288
385.76950,-2.384054866
385.77000,-3.910026904
385.77050,-0.247694012
385.77100,1.583472434
385.77150,-1.468471643
385.77200,-5.741193351
385.77250,-5.741193351
385.77300,-2.078860458
385.77350,0.9730836188
385.77400,0.9730836188
385.77450,0.3626948034
385.77500,0.3626948034
385.77550,0.3626948034
385.77600,-0.247694012
385.77650,-0.8580828275
385.77700,-0.5528884197
385.77750,0.6678892111
385.77800,2.804250065
385.77850,4.330222103
385.77900,4.635416511
385.77950,4.025027696
385.78000,2.19386125
385.78050,0.6678892111
385.78100,0.6678892111
385.78150,2.19386125
385.78200,3.719833288
385.78250,3.719833288
385.78300,2.499055657
385.78350,1.278278026
385.78400,0.3626948034
385.78450,0.05750039565
385.78500,-1.163277235
385.78550,-2.078860458
385.78600,-2.078860458
385.78650,-1.468471643
385.78700,-0.8580828275
385.78750,-0.5528884197
385.78800,-0.8580828275
385.78850,-1.163277235
385.78900,-1.468471643
385.78950,-0.8580828275
385.79000,0.05750039565
385.79050,0.05750039565
385.79100,-0.8580828275
385.79150,-0.8580828275
385.79200,0.05750039565
385.79250,1.278278026
385.79300,0.3626948034
385.79350,-2.078860458
385.79400,-3.910026904
385.79450,-3.910026904
385.79500,-2.384054866
385.79550,-0.8580828275
385.79600,0.05750039565
385.79650,0.05750039565
385.79700,0.05750039565
385.79750,0.6678892111
385.79800,0.9730836188
385.79850,-0.247694012
385.79900,-2.384054866
385.79950,-2.384054866
385.80000,0.6678892111
385.80050,3.41463888
385.80100,1.888666842
385.80150,-3.299638089
385.80200,-8.48794302
385.80250,-9.403526243
385.80300,-6.961970981
385.80350,-4.825610128
385.80400,-4.215221312
385.80450,-4.825610128
385.80500,-4.52041572
385.80550,-3.299638089
385.80600,-2.384054866
385.80650,-2.078860458
385.80700,-1.163277235
385.80750,0.05750039565
385.80800,1.278278026
385.80850,0.6678892111
385.80900,0.3626948034
385.80950,1.278278026
385.81000,2.499055657
385.81050,1.888666842
385.81100,0.3626948034
385.81150,0.05750039565
385.81200,0.6678892111
385.81250,0.3626948034
385.81300,-1.163277235
385.81350,-1.773666051
385.81400,-0.8580828275
385.81450,0.05750039565
385.81500,0.05750039565
385.81550,-0.5528884197
385.81600,-0.247694012
385.81650,0.05750039565
385.81700,-0.247694012
385.81750,-1.163277235
385.81800,-0.247694012
385.81850,1.888666842
385.81900,4.330222103
385.81950,5.550999734
385.82000,5.245805327
385.82050,2.499055657
385.82100,-1.773666051
385.82150,-5.130804535
385.82200,-4.825610128
385.82250,-2.384054866
385.82300,-0.247694012
385.82350,0.05750039565
385.82400,-0.247694012
385.82450,-0.5528884197
385.82500,-0.8580828275
385.82550,-1.468471643
385.82600,-1.163277235
385.82650,0.3626948034
385.82700,2.19386125
385.82750,1.278278026
385.82800,-1.468471643
385.82850,-3.910026904
385.82900,-4.215221312
385.82950,-2.994443681
385.83000,-2.384054866
385.83050,-2.689249274
385.83100,-3.604832497
385.83150,-2.994443681
385.83200,-1.468471643
385.83250,0.6678892111
385.83300,2.19386125
385.83350,3.109444473
385.83400,3.41463888
385.83450,2.804250065
385.83500,1.583472434
385.83550,0.3626948034
385.83600,0.3626948034
385.83650,1.278278026
385.83700,1.278278026
385.83750,0.05750039565
385.83800,-1.773666051
385.83850,-3.604832497
385.83900,-3.910026904
385.83950,-1.773666051
385.84000,0.9730836188
385.84050,4.025027696
385.84100,5.245805327
385.84150,5.245805327
385.84200,4.330222103
385.84250,3.109444473
385.84300,1.583472434
385.84350,0.3626948034
385.84400,0.6678892111
385.84450,1.888666842
385.84500,0.9730836188
385.84550,-1.468471643
385.84600,-4.215221312
385.84650,-4.52041572
385.84700,-2.689249274
385.84750,-0.5528884197
385.84800,0.3626948034
385.84850,0.9730836188
385.84900,1.278278026
385.84950,2.19386125
385.85000,3.109444473
385.85050,4.330222103
385.85100,4.940610919
385.85150,4.940610919
385.85200,4.025027696
385.85250,2.804250065
385.85300,0.9730836188
385.85350,-0.247694012
385.85400,0.05750039565
385.85450,2.19386125
385.85500,4.025027696
385.85550,4.330222103
385.85600,2.804250065
385.85650,1.583472434
385.85700,1.583472434
385.85750,2.804250065
385.85800,4.025027696
385.85850,3.41463888
385.85900,0.9730836188
385.85950,-1.163277235
385.86000,-2.078860458
385.86050,-0.8580828275
385.86100,0.3626948034
385.86150,0.05750039565
385.86200,-1.163277235
385.86250,-2.078860458
385.86300,-1.773666051
385.86350,-0.247694012
385.86400,1.583472434
385.86450,2.499055657
385.86500,0.05750039565
385.86550,-5.130804535
385.86600,-8.48794302
385.86650,-7.572359797
385.86700,-5.741193351
385.86750,-5.435998943
385.86800,-6.351582166
385.86850,-5.130804535
385.86900,-2.078860458
385.86950,0.3626948034
385.87000,1.278278026
385.87050,2.19386125
385.87100,4.330222103
385.87150,5.245805327
385.87200,2.804250065
385.87250,-0.5528884197
385.87300,-2.689249274
385.87350,-2.994443681
385.87400,-3.604832497
385.87450,-4.215221312
385.87500,-3.910026904
385.87550,-2.078860458
385.87600,0.05750039565
385.87650,0.6678892111
385.87700,1.888666842
385.87750,3.719833288
385.87800,5.550999734
385.87850,6.16138855
385.87900,5.550999734
385.87950,4.940610919
385.88000,3.719833288
385.88050,1.888666842
385.88100,0.3626948034
385.88150,0.3626948034
385.88200,1.583472434
385.88250,0.9730836188
385.88300,-1.163277235
385.88350,-2.384054866
385.88400,-0.5528884197
385.88450,2.499055657
385.88500,2.804250065
385.88550,0.05750039565
385.88600,-2.689249274
385.88650,-2.384054866
385.88700,-0.5528884197
385.88750,0.3626948034
385.88800,0.05750039565
385.88850,0.6678892111
385.88900,2.499055657
385.88950,4.330222103
385.89000,3.719833288
385.89050,1.888666842
385.89100,0.6678892111
385.89150,0.05750039565
385.89200,-0.5528884197
385.89250,-0.5528884197
385.89300,0.05750039565
385.89350,0.6678892111
385.89400,0.3626948034
385.89450,0.6678892111
385.89500,1.888666842
385.89550,3.41463888
385.89600,3.109444473
385.89650,0.3626948034
385.89700,-1.468471643
385.89750,-1.773666051
385.89800,-0.8580828275
385.89850,-0.247694012
385.89900,-0.247694012
385.89950,0.05750039565
385.90000,0.9730836188
385.90050,1.278278026
385.90100,0.6678892111
385.90150,-0.247694012
385.90200,-1.163277235
385.90250,-1.468471643
385.90300,-0.5528884197
385.90350,0.6678892111
385.90400,1.583472434
385.90450,1.583472434
385.90500,0.9730836188
385.90550,0.05750039565
385.90600,-1.163277235
385.90650,-2.078860458
385.90700,-0.8580828275
385.90750,1.888666842
385.90800,2.499055657
385.90850,-0.247694012
385.90900,-3.299638089
385.90950,-2.078860458
385.91000,1.583472434
385.91050,2.804250065
385.91100,0.05750039565
385.91150,-2.078860458
385.91200,-1.163277235
385.91250,0.9730836188
385.91300,1.583472434
385.91350,0.05750039565
385.91400,-0.247694012
385.91450,1.583472434
385.91500,4.940610919
385.91550,5.856194142
385.91600,3.41463888
385.91650,0.05750039565
385.91700,-0.247694012
385.91750,3.109444473
385.91800,6.771777365
385.91850,6.466582957
385.91900,3.41463888
385.91950,1.888666842
385.92000,2.804250065
385.92050,2.804250065
385.92100,0.3626948034
385.92150,-2.689249274
385.92200,-4.52041572
385.92250,-4.215221312
385.92300,-1.773666051
385.92350,1.278278026
385.92400,3.109444473
385.92450,2.19386125
385.92500,0.05750039565
385.92550,-0.8580828275
385.92600,-1.468471643
385.92650,-1.773666051
385.92700,-0.8580828275
385.92750,0.9730836188
385.92800,2.804250065
385.92850,2.19386125
385.92900,0.6678892111
385.92950,0.3626948034
385.93000,0.3626948034
385.93050,-1.468471643
385.93100,-5.130804535
385.93150,-6.046387758
385.93200,-2.078860458
385.93250,1.583472434
385.93300,1.888666842
385.93350,-0.247694012
385.93400,-1.468471643
385.93450,-1.468471643
385.93500,-2.078860458
385.93550,-3.299638089
385.93600,-3.299638089
385.93650,-1.468471643
385.93700,-1.773666051
385.93750,-5.130804535
385.93800,-8.793137428
385.93850,-9.708720651
385.93900,-7.572359797
385.93950,-6.046387758
385.94000,-6.351582166
385.94050,-7.267165389
385.94100,-6.961970981
385.94150,-5.435998943
385.94200,-3.299638089
385.94250,-1.468471643
385.94300,-0.247694012
385.94350,-0.5528884197
385.94400,-0.5528884197
385.94450,0.3626948034
385.94500,2.499055657
385.94550,3.41463888
385.94600,2.499055657
385.94650,0.6678892111
385.94700,0.05750039565
385.94750,0.6678892111
385.94800,1.278278026
385.94850,0.9730836188
385.94900,-0.247694012
385.94950,-1.773666051
385.95000,-2.078860458
385.95050,-0.247694012
385.95100,1.583472434
385.95150,2.499055657
385.95200,2.499055657
385.95250,1.888666842
385.95300,1.583472434
385.95350,0.3626948034
385.95400,-0.8580828275
385.95450,-1.468471643
385.95500,-0.5528884197
385.95550,0.05750039565
385.95600,0.05750039565
385.95650,0.05750039565
385.95700,0.05750039565
385.95750,0.05750039565
385.95800,-0.8580828275
385.95850,-2.384054866
385.95900,-2.994443681
385.95950,-2.689249274
385.96000,-1.163277235
385.96050,0.05750039565
385.96100,1.278278026
385.96150,1.583472434
385.96200,0.6678892111
385.96250,0.05750039565
385.96300,0.05750039565
385.96350,0.05750039565
385.96400,-0.8580828275
385.96450,-1.773666051
385.96500,-1.163277235
385.96550,0.05750039565
385.96600,0.3626948034
385.96650,0.05750039565
385.96700,-0.5528884197
385.96750,-0.247694012
385.96800,0.3626948034
385.96850,0.9730836188
385.96900,1.278278026
385.96950,1.583472434
385.97000,0.6678892111
385.97050,-1.773666051
385.97100,-3.604832497
385.97150,-2.384054866
385.97200,0.05750039565
385.97250,1.888666842
385.97300,0.9730836188
385.97350,-1.163277235
385.97400,-2.994443681
385.97450,-3.910026904
385.97500,-2.994443681
385.97550,-0.5528884197
385.97600,0.9730836188
385.97650,0.3626948034
385.97700,-1.163277235
385.97750,-2.078860458
385.97800,-0.8580828275
385.97850,0.9730836188
385.97900,2.804250065
385.97950,4.940610919
385.98000,6.466582957
385.98050,6.466582957
385.98100,3.719833288
385.98150,0.6678892111
385.98200,-0.5528884197
385.98250,0.05750039565
385.98300,1.583472434
385.98350,3.109444473
385.98400,4.635416511
385.98450,4.025027696
385.98500,0.3626948034
385.98550,-4.215221312
385.98600,-6.656776574
385.98650,-5.130804535
385.98700,-1.773666051
385.98750,-0.5528884197
385.98800,-1.773666051
385.98850,-2.689249274
385.98900,-1.468471643
385.98950,-0.247694012
385.99000,-1.163277235
385.99050,-2.689249274
385.99100,-1.163277235
385.99150,4.330222103
385.99200,9.823721442
385.99250,9.518527034
385.99300,3.41463888
385.99350,-3.299638089
385.99400,-6.351582166
385.99450,-5.130804535
385.99500,-2.384054866
385.99550,-0.5528884197
385.99600,0.05750039565
385.99650,1.888666842
385.99700,4.635416511
385.99750,7.076971773
385.99800,8.297749404
385.99850,7.992554996
385.99900,6.466582957
385.99950,3.719833288
386.00000,0.05750039565
386.00050,-3.299638089
386.00100,-5.130804535
386.00150,-5.130804535
386.00200,-4.215221312
386.00250,-3.299638089
386.00300,-2.689249274
386.00350,-2.384054866
386.00400,-2.994443681
386.00450,-2.384054866
386.00500,0.05750039565
386.00550,3.41463888
386.00600,4.330222103
386.00650,2.19386125
386.00700,0.3626948034
386.00750,0.3626948034
386.00800,1.583472434
386.00850,0.9730836188
386.00900,-0.247694012
386.00950,-0.247694012
386.01000,0.9730836188
386.01050,2.19386125
386.01100,0.6678892111
386.01150,-2.078860458
386.01200,-4.215221312
386.01250,-4.52041572
386.01300,-3.299638089
386.01350,-0.8580828275
386.01400,1.583472434
386.01450,3.719833288
386.01500,3.41463888
386.01550,1.583472434
386.01600,0.05750039565
386.01650,0.05750039565
386.01700,1.278278026
386.01750,1.583472434
386.01800,0.6678892111
386.01850,0.05750039565
386.01900,0.3626948034
386.01950,1.583472434
386.02000,2.499055657
386.02050,2.804250065
386.02100,2.499055657
386.02150,1.888666842
386.02200,0.6678892111
386.02250,0.3626948034
386.02300,1.583472434
386.02350,2.499055657
386.02400,3.109444473
386.02450,3.109444473
386.02500,3.109444473
386.02550,2.499055657
386.02600,1.278278026
386.02650,0.6678892111
386.02700,1.278278026
386.02750,1.888666842
386.02800,1.583472434
386.02850,0.9730836188
386.02900,1.888666842
386.02950,2.804250065
386.03000,2.499055657
386.03050,0.9730836188
386.03100,0.3626948034
386.03150,1.583472434
386.03200,2.19386125
386.03250,1.583472434
386.03300,1.278278026
386.03350,2.19386125
386.03400,3.109444473
386.03450,3.109444473
386.03500,3.41463888
386.03550,3.719833288
386.03600,3.109444473
386.03650,0.05750039565
386.03700,-2.384054866
386.03750,-2.078860458
386.03800,0.6678892111
386.03850,4.025027696
386.03900,5.245805327
386.03950,4.330222103
386.04000,3.719833288
386.04050,4.025027696
386.04100,3.719833288
386.04150,2.19386125
386.04200,0.05750039565
386.04250,-1.468471643
386.04300,-0.8580828275
386.04350,0.05750039565
386.04400,0.05750039565
386.04450,-0.247694012
386.04500,-0.8580828275
386.04550,-0.5528884197
386.04600,-0.247694012
386.04650,-0.247694012
386.04700,-0.8580828275
386.04750,-1.163277235
386.04800,-0.247694012
386.04850,0.6678892111
386.04900,0.6678892111
386.04950,-1.468471643
386.05000,-3.299638089
386.05050,-2.689249274
386.05100,-0.5528884197
386.05150,0.3626948034
386.05200,0.05750039565
386.05250,-0.5528884197
386.05300,0.05750039565
386.05350,0.05750039565
386.05400,-1.163277235
386.05450,-3.299638089
386.05500,-4.215221312
386.05550,-2.994443681
386.05600,-1.163277235
386.05650,-0.247694012
386.05700,-0.8580828275
386.05750,-2.078860458
386.05800,-2.994443681
386.05850,-2.384054866
386.05900,-1.468471643
386.05950,-1.163277235
386.06000,-1.468471643
386.06050,-2.078860458
386.06100,-2.078860458
386.06150,-2.384054866
386.06200,-2.994443681
386.06250,-2.689249274
386.06300,-1.468471643
386.06350,-1.163277235
386.06400,-2.689249274
386.06450,-5.130804535
386.06500,-5.130804535
386.06550,-3.299638089
386.06600,-1.468471643
386.06650,-0.8580828275
386.06700,0.05750039565
386.06750,1.278278026
386.06800,2.804250065
386.06850,2.19386125
386.06900,0.05750039565
386.06950,-1.468471643
386.07000,-2.078860458
386.07050,-2.384054866
386.07100,-3.604832497
386.07150,-4.215221312
386.07200,-2.994443681
386.07250,-0.247694012
386.07300,1.583472434
386.07350,1.278278026
386.07400,0.05750039565
386.07450,-1.468471643
386.07500,-2.384054866
386.07550,-2.994443681
386.07600,-3.604832497
386.07650,-3.604832497
386.07700,-3.299638089
386.07750,-2.689249274
386.07800,-2.078860458
386.07850,-1.468471643
386.07900,-0.8580828275
386.07950,0.05750039565
386.08000,0.9730836188
386.08050,1.888666842
386.08100,2.804250065
386.08150,2.804250065
386.08200,2.499055657
386.08250,1.888666842
386.08300,0.6678892111
386.08350,0.05750039565
386.08400,0.05750039565
386.08450,-0.5528884197
386.08500,-1.468471643
386.08550,-2.689249274
386.08600,-2.078860458
386.08650,0.05750039565
386.08700,2.19386125
386.08750,2.804250065
386.08800,1.583472434
386.08850,1.278278026
386.08900,2.804250065
386.08950,4.330222103
386.09000,4.635416511
386.09050,4.025027696
386.09100,3.41463888
386.09150,2.499055657
386.09200,-0.247694012
386.09250,-3.910026904
386.09300,-5.435998943
386.09350,-4.52041572
386.09400,-3.299638089
386.09450,-3.604832497
386.09500,-4.52041572
386.09550,-5.130804535
386.09600,-5.130804535
386.09650,-4.215221312
386.09700,-0.5528884197
386.09750,5.245805327
386.09800,8.602943811
386.09850,5.856194142
386.09900,0.6678892111
386.09950,-0.247694012
386.10000,1.278278026
386.10050,0.05750039565
386.10100,-5.741193351
386.10150,-8.793137428
386.10200,-5.130804535
386.10250,0.3626948034
386.10300,2.804250065
386.10350,1.278278026
386.10400,0.6678892111
386.10450,0.9730836188
386.10500,0.6678892111
386.10550,-0.8580828275
386.10600,-1.468471643
386.10650,0.3626948034
386.10700,3.41463888
386.10750,4.635416511
386.10800,3.41463888
386.10850,1.278278026
386.10900,0.05750039565
386.10950,-1.163277235
386.11000,-2.384054866
386.11050,-3.299638089
386.11100,-3.299638089
386.11150,-2.078860458
386.11200,-0.5528884197
386.11250,0.05750039565
386.11300,0.05750039565
386.11350,-0.8580828275
386.11400,-1.468471643
386.11450,-1.773666051
386.11500,-1.773666051
386.11550,-1.163277235
386.11600,0.05750039565
386.11650,0.6678892111
386.11700,0.9730836188
386.11750,0.05750039565
386.11800,-1.773666051
386.11850,-2.689249274
386.11900,-1.773666051
386.11950,-0.5528884197
386.12000,-0.247694012
386.12050,-0.8580828275
386.12100,-0.8580828275
386.12150,-0.247694012
386.12200,0.05750039565
386.12250,0.05750039565
386.12300,0.05750039565
386.12350,0.9730836188
386.12400,1.888666842
386.12450,1.888666842
386.12500,1.278278026
386.12550,0.9730836188
386.12600,1.278278026
386.12650,2.19386125
386.12700,3.41463888
386.12750,4.940610919
386.12800,5.856194142
386.12850,5.856194142
386.12900,4.635416511
386.12950,2.804250065
386.13000,1.278278026
386.13050,0.9730836188
386.13100,1.583472434
386.13150,2.804250065
386.13200,2.804250065
386.13250,1.583472434
386.13300,0.6678892111
386.13350,0.6678892111
386.13400,1.278278026
386.13450,0.9730836188
386.13500,0.05750039565
386.13550,0.05750039565
386.13600,0.9730836188
386.13650,2.499055657
386.13700,2.499055657
386.13750,1.278278026
386.13800,0.05750039565
386.13850,-0.5528884197
386.13900,-0.8580828275
386.13950,-0.247694012
386.14000,1.278278026
386.14050,2.804250065
386.14100,2.804250065
386.14150,0.6678892111
386.14200,-0.5528884197
386.14250,0.05750039565
386.14300,2.19386125
386.14350,3.109444473
386.14400,1.278278026
386.14450,-1.163277235
386.14500,-1.163277235
386.14550,1.583472434
386.14600,3.719833288
386.14650,1.888666842
386.14700,-1.163277235
386.14750,-2.689249274
386.14800,-1.773666051
386.14850,-1.468471643
386.14900,-2.689249274
386.14950,-3.604832497
386.15000,-2.078860458
386.15050,0.05750039565
386.15100,-0.247694012
386.15150,-1.773666051
386.15200,-2.078860458
386.15250,-0.5528884197
386.15300,0.3626948034
386.15350,0.3626948034
386.15400,0.05750039565
386.15450,-0.247694012
386.15500,-0.5528884197
386.15550,0.3626948034
386.15600,2.499055657
386.15650,3.719833288
386.15700,2.499055657
386.15750,1.278278026
386.15800,1.583472434
386.15850,2.19386125
386.15900,0.3626948034
386.15950,-2.689249274
386.16000,-4.52041572
386.16050,-2.994443681
386.16100,-1.163277235
386.16150,0.05750039565
386.16200,1.583472434
386.16250,4.330222103
386.16300,6.16138855
386.16350,4.635416511
386.16400,0.3626948034
386.16450,-4.215221312
386.16500,-6.351582166
386.16550,-4.52041572
386.16600,0.05750039565
386.16650,4.635416511
386.16700,7.076971773
386.16750,5.856194142
386.16800,2.804250065
386.16850,0.05750039565
386.16900,-1.468471643
386.16950,-3.604832497
386.17000,-6.046387758
386.17050,-7.572359797
386.17100,-6.656776574
386.17150,-4.52041572
386.17200,-2.994443681
386.17250,-3.299638089
386.17300,-2.994443681
386.17350,-0.8580828275
386.17400,0.9730836188
386.17450,0.05750039565
386.17500,-4.52041572
386.17550,-8.48794302
386.17600,-8.48794302
386.17650,-4.52041572
386.17700,-0.247694012
386.17750,1.888666842
386.17800,2.19386125
386.17850,0.6678892111
386.17900,-0.247694012
386.17950,0.05750039565
386.18000,0.3626948034
386.18050,-0.8580828275
386.18100,-4.215221312
386.18150,-6.046387758
386.18200,-3.910026904
386.18250,-0.5528884197
386.18300,0.05750039565
386.18350,-0.5528884197
386.18400,-1.468471643
386.18450,-1.468471643
386.18500,-2.078860458
386.18550,-3.604832497
386.18600,-4.215221312
386.18650,-2.689249274
386.18700,-0.8580828275
386.18750,0.3626948034
386.18800,0.9730836188
386.18850,1.278278026
386.18900,0.9730836188
386.18950,0.3626948034
386.19000,0.6678892111
386.19050,1.583472434
386.19100,1.888666842
386.19150,1.278278026
386.19200,0.6678892111
386.19250,0.05750039565
386.19300,0.05750039565
386.19350,0.05750039565
386.19400,0.05750039565
386.19450,0.05750039565
386.19500,0.05750039565
386.19550,0.3626948034
386.19600,1.278278026
386.19650,1.583472434
386.19700,1.278278026
386.19750,1.583472434
386.19800,3.719833288
386.19850,6.466582957
386.19900,7.076971773
386.19950,5.550999734
386.20000,2.19386125
386.20050,-0.8580828275
386.20100,-3.299638089
386.20150,-3.299638089
386.20200,-1.163277235
386.20250,0.6678892111
386.20300,1.888666842
386.20350,2.19386125
386.20400,2.19386125
386.20450,1.278278026
386.20500,-0.5528884197
386.20550,-2.078860458
386.20600,-1.773666051
386.20650,0.05750039565
386.20700,2.19386125
386.20750,3.41463888
386.20800,3.109444473
386.20850,2.19386125
386.20900,0.3626948034
386.20950,-0.8580828275
386.21000,-0.8580828275
386.21050,0.05750039565
386.21100,0.6678892111
386.21150,1.583472434
386.21200,1.888666842
386.21250,1.888666842
386.21300,1.583472434
386.21350,2.19386125
386.21400,3.109444473
386.21450,3.719833288
386.21500,3.41463888
386.21550,3.109444473
386.21600,3.41463888
386.21650,3.719833288
386.21700,4.330222103
386.21750,5.550999734
386.21800,6.16138855
386.21850,5.245805327
386.21900,3.41463888
386.21950,2.804250065
386.22000,3.109444473
386.22050,2.499055657
386.22100,0.6678892111
386.22150,0.05750039565
386.22200,0.6678892111
386.22250,2.499055657
386.22300,3.109444473
386.22350,3.719833288
386.22400,4.635416511
386.22450,4.635416511
386.22500,3.109444473
386.22550,2.19386125
386.22600,2.804250065
386.22650,4.330222103
386.22700,4.330222103
386.22750,3.41463888
386.22800,2.804250065
386.22850,2.19386125
386.22900,1.278278026
386.22950,0.9730836188
386.23000,1.888666842
386.23050,2.19386125
386.23100,1.278278026
386.23150,0.05750039565
386.23200,0.6678892111
386.23250,1.583472434
386.23300,1.278278026
386.23350,-0.5528884197
386.23400,-1.773666051
386.23450,-1.773666051
386.23500,-1.163277235
386.23550,-1.163277235
386.23600,-1.468471643
386.23650,-1.468471643
386.23700,-2.384054866
386.23750,-2.994443681
386.23800,-2.994443681
386.23850,-2.078860458
386.23900,-2.384054866
386.23950,-2.994443681
386.24000,-2.689249274
386.24050,-1.773666051
386.24100,-0.8580828275
386.24150,-1.468471643
386.24200,-2.689249274
386.24250,-2.384054866
386.24300,-0.8580828275
386.24350,0.05750039565
386.24400,-0.247694012
386.24450,-0.5528884197
386.24500,0.05750039565
386.24550,0.9730836188
386.24600,1.278278026
386.24650,0.05750039565
386.24700,-1.468471643
386.24750,-2.384054866
386.24800,-2.078860458
386.24850,-1.163277235
386.24900,-0.8580828275
386.24950,-0.247694012
386.25000,0.9730836188
386.25050,1.583472434
386.25100,0.3626948034
386.25150,-1.468471643
386.25200,-2.689249274
386.25250,-2.384054866
386.25300,-2.078860458
386.25350,-2.078860458
386.25400,-2.994443681
386.25450,-4.52041572
386.25500,-5.435998943
386.25550,-3.910026904
386.25600,0.3626948034
386.25650,4.635416511
386.25700,4.940610919
386.25750,0.9730836188
386.25800,-2.078860458
386.25850,-2.994443681
386.25900,-2.994443681
386.25950,-4.52041572
386.26000,-6.656776574
386.26050,-8.182748612
386.26100,-7.877554205
386.26150,-6.351582166
386.26200,-4.52041572
386.26250,-3.299638089
386.26300,-3.604832497
386.26350,-4.215221312
386.26400,-2.994443681
386.26450,0.9730836188
386.26500,5.245805327
386.26550,7.076971773
386.26600,5.550999734
386.26650,1.583472434
386.26700,-3.604832497
386.26750,-8.48794302
386.26800,-9.708720651
386.26850,-6.656776574
386.26900,-0.5528884197
386.26950,4.635416511
386.27000,6.16138855
386.27050,3.719833288
386.27100,-0.5528884197
386.27150,-3.910026904
386.27200,-3.299638089
386.27250,-0.247694012
386.27300,0.9730836188
386.27350,0.05750039565
386.27400,-0.8580828275
386.27450,0.05750039565
386.27500,2.19386125
386.27550,2.804250065
386.27600,2.499055657
386.27650,4.025027696
386.27700,6.466582957
386.27750,4.330222103
386.27800,-2.078860458
386.27850,-8.48794302
386.27900,-9.098331835
386.27950,-4.825610128
386.28000,-0.8580828275
386.28050,-0.5528884197
386.28100,-2.078860458
386.28150,-2.689249274
386.28200,-2.384054866
386.28250,-1.773666051
386.28300,-1.468471643
386.28350,-0.8580828275
386.28400,0.05750039565
386.28450,0.6678892111
386.28500,0.9730836188
386.28550,1.278278026
386.28600,2.19386125
386.28650,3.109444473
386.28700,3.109444473
386.28750,2.19386125
386.28800,0.6678892111
386.28850,-1.163277235
386.28900,-4.215221312
386.28950,-5.741193351
386.29000,-4.52041572
386.29050,-2.078860458
386.29100,-1.163277235
386.29150,-1.468471643
386.29200,0.3626948034
386.29250,4.635416511
386.29300,7.992554996
386.29350,6.771777365
386.29400,2.19386125
386.29450,-0.5528884197
386.29500,-0.8580828275
386.29550,0.05750039565
386.29600,2.19386125
386.29650,3.719833288
386.29700,4.025027696
386.29750,2.804250065
386.29800,2.19386125
386.29850,2.804250065
386.29900,2.19386125
386.29950,-0.5528884197
386.30000,-2.689249274
386.30050,-0.247694012
386.30100,4.940610919
386.30150,7.38216618
386.30200,4.330222103
386.30250,-0.5528884197
386.30300,-3.299638089
386.30350,-2.994443681
386.30400,-1.773666051
386.30450,-1.163277235
386.30500,-1.468471643
386.30550,-2.384054866
386.30600,-3.910026904
386.30650,-4.825610128
386.30700,-4.52041572
386.30750,-3.299638089
386.30800,-2.994443681
386.30850,-3.910026904
386.30900,-5.435998943
386.30950,-6.046387758
386.31000,-4.825610128
386.31050,-2.994443681
386.31100,-1.468471643
386.31150,-1.163277235
386.31200,-1.163277235
386.31250,-0.247694012
386.31300,0.3626948034
386.31350,0.3626948034
386.31400,0.6678892111
386.31450,0.9730836188
386.31500,2.19386125
386.31550,2.804250065
386.31600,3.41463888
386.31650,3.719833288
386.31700,3.109444473
386.31750,1.888666842
386.31800,0.9730836188
386.31850,0.6678892111
386.31900,1.278278026
386.31950,1.278278026
386.32000,0.9730836188
386.32050,0.6678892111
386.32100,0.6678892111
386.32150,1.278278026
386.32200,1.888666842
386.32250,3.719833288
386.32300,5.245805327
386.32350,5.856194142
386.32400,4.940610919
386.32450,3.109444473
386.32500,0.9730836188
386.32550,-0.5528884197
386.32600,-1.468471643
386.32650,-1.163277235
386.32700,-0.8580828275
386.32750,0.05750039565
386.32800,0.9730836188
386.32850,1.583472434
386.32900,0.9730836188
386.32950,-0.247694012
386.33000,-0.8580828275
386.33050,0.05750039565
386.33100,0.9730836188
386.33150,0.9730836188
386.33200,0.3626948034
386.33250,0.3626948034
386.33300,0.3626948034
386.33350,0.05750039565
386.33400,-0.5528884197
386.33450,0.3626948034
386.33500,2.804250065
386.33550,5.245805327
386.33600,5.550999734
386.33650,3.41463888
386.33700,0.05750039565
386.33750,-2.078860458
386.33800,-2.078860458
386.33850,0.05750039565
386.33900,1.583472434
386.33950,0.9730836188
386.34000,0.05750039565
386.34050,0.3626948034
386.34100,2.19386125
386.34150,3.41463888
386.34200,2.499055657
386.34250,0.6678892111
386.34300,0.05750039565
386.34350,0.3626948034
386.34400,0.6678892111
386.34450,-0.247694012
386.34500,-1.773666051
386.34550,-1.163277235
386.34600,1.888666842
386.34650,4.635416511
386.34700,5.245805327
386.34750,4.635416511
386.34800,5.245805327
386.34850,5.550999734
386.34900,2.19386125
386.34950,-3.604832497
386.35000,-6.046387758
386.35050,-2.994443681
386.35100,0.6678892111
386.35150,0.05750039565
386.35200,-3.604832497
386.35250,-5.130804535
386.35300,-3.604832497
386.35350,-2.384054866
386.35400,-2.384054866
386.35450,-2.994443681
386.35500,-2.994443681
386.35550,-3.604832497
386.35600,-3.910026904
386.35650,-2.078860458
386.35700,0.6678892111
386.35750,1.583472434
386.35800,-0.8580828275
386.35850,-3.910026904
386.35900,-4.825610128
386.35950,-3.910026904
386.36000,-3.604832497
386.36050,-3.299638089
386.36100,-2.078860458
386.36150,0.3626948034
386.36200,2.499055657
386.36250,2.19386125
386.36300,0.05750039565
386.36350,-2.078860458
386.36400,-2.689249274
386.36450,-2.384054866
386.36500,-2.078860458
386.36550,-2.384054866
386.36600,-2.078860458
386.36650,-0.247694012
386.36700,2.19386125
386.36750,3.719833288
386.36800,4.330222103
386.36850,4.940610919
386.36900,7.38216618
386.36950,9.823721442
386.37000,10.73930467
386.37050,8.908138219
386.37100,5.856194142
386.37150,3.719833288
386.37200,2.804250065
386.37250,3.719833288
386.37300,4.330222103
386.37350,4.025027696
386.37400,2.19386125
386.37450,0.3626948034
386.37500,0.6678892111
386.37550,1.888666842
386.37600,2.804250065
386.37650,2.19386125
386.37700,1.583472434
386.37750,1.888666842
386.37800,2.499055657
386.37850,1.278278026
386.37900,-0.5528884197
386.37950,-2.078860458
386.38000,-2.689249274
386.38050,-3.299638089
386.38100,-4.52041572
386.38150,-5.435998943
386.38200,-4.825610128
386.38250,-3.299638089
386.38300,-2.994443681
386.38350,-4.215221312
386.38400,-4.52041572
386.38450,-2.994443681
386.38500,-0.8580828275
386.38550,-0.5528884197
386.38600,-1.163277235
386.38650,-1.773666051
386.38700,-1.468471643
386.38750,-1.468471643
386.38800,-2.078860458
386.38850,-1.468471643
386.38900,0.3626948034
386.38950,1.888666842
386.39000,1.583472434
386.39050,0.05750039565
386.39100,0.05750039565
386.39150,0.9730836188
386.39200,1.278278026
386.39250,-0.8580828275
386.39300,-3.604832497
386.39350,-4.215221312
386.39400,-2.078860458
386.39450,0.05750039565
386.39500,0.05750039565
386.39550,-1.468471643
386.39600,-2.384054866
386.39650,-2.078860458
386.39700,-1.773666051
386.39750,-2.384054866
386.39800,-3.604832497
386.39850,-2.689249274
386.39900,-0.5528884197
386.39950,0.6678892111
386.40000,0.3626948034
386.40050,-0.247694012
386.40100,-0.5528884197
386.40150,-0.247694012
386.40200,-0.247694012
386.40250,-0.5528884197
386.40300,0.3626948034
386.40350,1.888666842
386.40400,1.583472434
386.40450,0.05750039565
386.40500,-0.5528884197
386.40550,0.3626948034
386.40600,1.583472434
386.40650,0.9730836188
386.40700,0.05750039565
386.40750,0.05750039565
386.40800,0.6678892111
386.40850,0.3626948034
386.40900,-0.5528884197
386.40950,-1.773666051
386.41000,-1.773666051
386.41050,-1.163277235
386.41100,-0.5528884197
386.41150,0.05750039565
386.41200,0.6678892111
386.41250,1.583472434
386.41300,1.888666842
386.41350,1.278278026
386.41400,0.05750039565
386.41450,-0.8580828275
386.41500,-1.163277235
386.41550,-0.5528884197
386.41600,0.05750039565
386.41650,0.05750039565
386.41700,-0.5528884197
386.41750,-1.163277235
386.41800,-1.468471643
386.41850,-1.468471643
386.41900,-0.8580828275
386.41950,0.05750039565
386.42000,0.05750039565
386.42050,0.05750039565
386.42100,0.3626948034
386.42150,1.278278026
386.42200,1.278278026
386.42250,0.3626948034
386.42300,-0.247694012
386.42350,0.05750039565
386.42400,1.278278026
386.42450,1.888666842
386.42500,1.583472434
386.42550,2.499055657
386.42600,4.330222103
386.42650,5.550999734
386.42700,5.550999734
386.42750,4.940610919
386.42800,4.025027696
386.42850,2.19386125
386.42900,0.05750039565
386.42950,-0.8580828275
386.43000,0.3626948034
386.43050,1.888666842
386.43100,1.888666842
386.43150,1.583472434
386.43200,3.41463888
386.43250,5.550999734
386.43300,3.719833288
386.43350,-0.247694012
386.43400,-2.994443681
386.43450,-1.773666051
386.43500,0.05750039565
386.43550,-0.247694012
386.43600,-2.689249274
386.43650,-4.52041572
386.43700,-4.825610128
386.43750,-4.215221312
386.43800,-3.910026904
386.43850,-3.604832497
386.43900,-3.910026904
386.43950,-3.299638089
386.44000,-1.773666051
386.44050,-1.163277235
386.44100,-2.689249274
386.44150,-4.215221312
386.44200,-1.163277235
386.44250,4.635416511
386.44300,7.992554996
386.44350,4.635416511
386.44400,-0.8580828275
386.44450,-3.299638089
386.44500,-1.468471643
386.44550,0.9730836188
386.44600,2.804250065
386.44650,3.41463888
386.44700,2.19386125
386.44750,-0.5528884197
386.44800,-4.825610128
386.44850,-6.656776574
386.44900,-4.825610128
386.44950,-0.247694012
386.45000,3.719833288
386.45050,4.940610919
386.45100,2.804250065
386.45150,-1.468471643
386.45200,-5.435998943
386.45250,-6.046387758
386.45300,-3.910026904
386.45350,-2.384054866
386.45400,-2.994443681
386.45450,-4.215221312
386.45500,-4.215221312
386.45550,-2.384054866
386.45600,-0.8580828275
386.45650,-1.468471643
386.45700,-2.689249274
386.45750,-2.994443681
386.45800,-2.384054866
386.45850,-0.8580828275
386.45900,0.6678892111
386.45950,2.19386125
386.46000,2.19386125
386.46050,1.278278026
386.46100,2.19386125
386.46150,5.245805327
386.46200,7.076971773
386.46250,4.940610919
386.46300,0.05750039565
386.46350,-2.994443681
386.46400,-2.078860458
386.46450,-0.247694012
386.46500,0.05750039565
386.46550,-0.5528884197
386.46600,-0.8580828275
386.46650,-1.468471643
386.46700,-2.078860458
386.46750,-2.078860458
386.46800,-0.5528884197
386.46850,0.6678892111
386.46900,0.3626948034
386.46950,-0.247694012
386.47000,-1.163277235
386.47050,-0.8580828275
386.47100,0.05750039565
386.47150,1.278278026
386.47200,2.19386125
386.47250,2.499055657
386.47300,2.19386125
386.47350,1.888666842
386.47400,1.583472434
386.47450,0.05750039565
386.47500,-1.773666051
386.47550,-1.163277235
386.47600,2.499055657
386.47650,7.076971773
386.47700,7.992554996
386.47750,4.940610919
386.47800,2.499055657
386.47850,2.19386125
386.47900,2.499055657
386.47950,1.583472434
386.48000,0.3626948034
386.48050,0.05750039565
386.48100,0.3626948034
386.48150,-0.247694012
386.48200,-1.163277235
386.48250,-0.8580828275
386.48300,0.9730836188
386.48350,2.499055657
386.48400,2.499055657
386.48450,1.888666842
386.48500,1.888666842
386.48550,2.19386125
386.48600,1.888666842
386.48650,0.6678892111
386.48700,0.05750039565
386.48750,-0.247694012
386.48800,-0.8580828275
386.48850,-0.8580828275
386.48900,0.05750039565
386.48950,1.583472434
386.49000,2.499055657
386.49050,2.499055657
386.49100,1.888666842
386.49150,0.6678892111
386.49200,-1.163277235
386.49250,-2.689249274
386.49300,-2.384054866
386.49350,-0.8580828275
386.49400,-0.247694012
386.49450,-2.078860458
386.49500,-4.215221312
386.49550,-4.825610128
386.49600,-2.994443681
386.49650,-0.5528884197
386.49700,0.6678892111
386.49750,1.888666842
386.49800,2.804250065
386.49850,3.41463888
386.49900,3.719833288
386.49950,3.719833288
386.50000,3.109444473
386.50050,1.583472434
386.50100,-0.247694012
386.50150,-1.163277235
386.50200,-0.8580828275
386.50250,-0.247694012
386.50300,0.05750039565
386.50350,0.9730836188
386.50400,2.804250065
386.50450,4.025027696
386.50500,2.499055657
386.50550,0.05750039565
386.50600,-0.5528884197
386.50650,0.05750039565
386.50700,0.9730836188
386.50750,1.583472434
386.50800,1.888666842
386.50850,2.19386125
386.50900,1.583472434
386.50950,0.05750039565
386.51000,-0.247694012
386.51050,0.05750039565
386.51100,1.278278026
386.51150,2.19386125
386.51200,3.109444473
386.51250,4.025027696
386.51300,3.719833288
386.51350,0.9730836188
386.51400,-2.078860458
386.51450,-3.299638089
386.51500,-2.384054866
386.51550,-1.163277235
386.51600,-0.5528884197
386.51650,-0.247694012
386.51700,0.05750039565
386.51750,0.6678892111
386.51800,1.278278026
386.51850,0.9730836188
386.51900,0.6678892111
386.51950,0.05750039565
386.52000,0.05750039565
386.52050,0.05750039565
386.52100,0.6678892111
386.52150,2.19386125
386.52200,3.719833288
386.52250,3.719833288
386.52300,1.583472434
386.52350,-2.078860458
386.52400,-4.825610128
386.52450,-4.825610128
386.52500,-3.604832497
386.52550,-2.689249274
386.52600,-2.078860458
386.52650,-0.247694012
386.52700,1.888666842
386.52750,2.19386125
386.52800,-0.5528884197
386.52850,-4.52041572
386.52900,-5.435998943
386.52950,-3.299638089
386.53000,-0.5528884197
386.53050,-0.5528884197
386.53100,-2.994443681
386.53150,-6.046387758
386.53200,-6.351582166
386.53250,-2.689249274
386.53300,2.499055657
386.53350,5.245805327
386.53400,3.109444473
386.53450,0.05750039565
386.53500,-0.5528884197
386.53550,0.05750039565
386.53600,-1.468471643
386.53650,-3.910026904
386.53700,-5.130804535
386.53750,-4.52041572
386.53800,-4.825610128
386.53850,-5.741193351
386.53900,-4.52041572
386.53950,-1.773666051
386.54000,-0.5528884197
386.54050,-1.163277235
386.54100,-1.468471643
386.54150,0.05750039565
386.54200,1.278278026
386.54250,0.05750039565
386.54300,-1.163277235
386.54350,-0.5528884197
386.54400,0.6678892111
386.54450,0.05750039565
386.54500,-0.8580828275
386.54550,0.05750039565
386.54600,2.19386125
386.54650,2.19386125
386.54700,-0.247694012
386.54750,-1.773666051
386.54800,-0.5528884197
386.54850,1.278278026
386.54900,1.583472434
386.54950,1.583472434
386.55000,2.804250065
386.55050,4.330222103
386.55100,4.330222103
386.55150,3.109444473
386.55200,3.109444473
386.55250,4.025027696
386.55300,4.940610919
386.55350,4.330222103
386.55400,1.888666842
386.55450,-0.8580828275
386.55500,-3.299638089
386.55550,-4.825610128
386.55600,-4.825610128
386.55650,-2.994443681
386.55700,-0.8580828275
386.55750,0.05750039565
386.55800,-0.5528884197
386.55850,-2.078860458
386.55900,-2.384054866
386.55950,-0.5528884197
386.56000,1.583472434
386.56050,2.19386125
386.56100,1.278278026
386.56150,0.05750039565
386.56200,-1.163277235
386.56250,-1.163277235
386.56300,-0.5528884197
386.56350,0.05750039565
386.56400,1.583472434
386.56450,3.109444473
386.56500,4.940610919
386.56550,5.856194142
386.56600,4.940610919
386.56650,2.804250065
386.56700,1.278278026
386.56750,1.888666842
386.56800,2.499055657
386.56850,1.583472434
386.56900,-0.8580828275
386.56950,-3.604832497
386.57000,-5.741193351
386.57050,-6.961970981
386.57100,-6.351582166
386.57150,-4.215221312
386.57200,-1.163277235
386.57250,1.583472434
386.57300,3.719833288
386.57350,5.245805327
386.57400,6.466582957
386.57450,6.16138855
386.57500,4.330222103
386.57550,3.109444473
386.57600,3.109444473
386.57650,3.41463888
386.57700,2.804250065
386.57750,1.278278026
386.57800,-0.247694012
386.57850,-1.468471643
386.57900,-2.994443681
386.57950,-2.994443681
386.58000,-1.773666051
386.58050,-0.8580828275
386.58100,-0.5528884197
386.58150,0.05750039565
386.58200,1.278278026
386.58250,2.804250065
386.58300,2.19386125
386.58350,0.6678892111
386.58400,0.9730836188
386.58450,1.888666842
386.58500,1.583472434
386.58550,-0.8580828275
386.58600,-3.910026904
386.58650,-5.741193351
386.58700,-6.046387758
386.58750,-4.52041572
386.58800,-2.994443681
386.58850,-2.994443681
386.58900,-4.215221312
386.58950,-4.825610128
386.59000,-2.689249274
386.59050,0.05750039565
386.59100,1.278278026
386.59150,1.278278026
386.59200,2.19386125
386.59250,3.109444473
386.59300,2.499055657
386.59350,0.05750039565
386.59400,-0.8580828275
386.59450,0.05750039565
386.59500,1.278278026
386.59550,0.9730836188
386.59600,0.05750039565
386.59650,0.05750039565
386.59700,-0.247694012
386.59750,-0.8580828275
386.59800,-1.468471643
386.59850,-1.468471643
386.59900,0.3626948034
386.59950,4.330222103
386.60000,8.602943811
386.60050,8.602943811
386.60100,2.499055657
386.60150,-5.130804535
386.60200,-7.572359797
386.60250,-3.604832497
386.60300,0.9730836188
386.60350,0.6678892111
386.60400,-3.299638089
386.60450,-5.435998943
386.60500,-2.994443681
386.60550,0.9730836188
386.60600,2.19386125
386.60650,-0.8580828275
386.60700,-5.435998943
386.60750,-7.267165389
386.60800,-4.52041572
386.60850,-0.5528884197
386.60900,0.6678892111
386.60950,-2.078860458
386.61000,-7.572359797
386.61050,-11.5398871
386.61100,-11.23469269
386.61150,-7.267165389
386.61200,-3.604832497
386.61250,-2.689249274
386.61300,-4.215221312
386.61350,-4.215221312
386.61400,-3.604832497
386.61450,-3.910026904
386.61500,-4.825610128
386.61550,-3.604832497
386.61600,0.05750039565
386.61650,1.888666842
386.61700,0.05750039565
386.61750,-2.994443681
386.61800,-2.689249274
386.61850,-0.247694012
386.61900,0.05750039565
386.61950,0.3626948034
386.62000,3.41463888
386.62050,8.602943811
386.62100,11.04449907
386.62150,8.908138219
386.62200,6.466582957
386.62250,7.076971773
386.62300,8.908138219
386.62350,7.687360588
386.62400,3.719833288
386.62450,0.05750039565
386.62500,-2.078860458
386.62550,-2.078860458
386.62600,-0.5528884197
386.62650,1.278278026
386.62700,2.804250065
386.62750,2.499055657
386.62800,1.888666842
386.62850,2.499055657
386.62900,4.025027696
386.62950,4.330222103
386.63000,2.804250065
386.63050,0.6678892111
386.63100,0.05750039565
386.63150,0.6678892111
386.63200,0.9730836188
386.63250,0.05750039565
386.63300,0.3626948034
386.63350,1.278278026
386.63400,1.888666842
386.63450,0.9730836188
386.63500,-0.247694012
386.63550,-0.247694012
386.63600,0.05750039565
386.63650,0.3626948034
386.63700,0.05750039565
386.63750,-0.247694012
386.63800,-1.163277235
386.63850,-2.078860458
386.63900,-1.468471643
386.63950,0.9730836188
386.64000,2.804250065
386.64050,1.888666842
386.64100,0.05750039565
386.64150,0.05750039565
386.64200,2.19386125
386.64250,2.804250065
386.64300,0.6678892111
386.64350,-1.468471643
386.64400,-2.078860458
386.64450,-1.163277235
386.64500,-0.247694012
386.64550,0.3626948034
386.64600,0.9730836188
386.64650,0.9730836188
386.64700,0.6678892111
386.64750,0.9730836188
386.64800,2.19386125
386.64850,2.19386125
386.64900,0.9730836188
386.64950,-0.247694012
386.65000,-0.247694012
386.65050,0.05750039565
386.65100,0.05750039565
386.65150,0.05750039565
386.65200,-0.247694012
386.65250,0.05750039565
386.65300,0.6678892111
386.65350,0.9730836188
386.65400,0.3626948034
386.65450,-1.773666051
386.65500,-3.604832497
386.65550,-2.384054866
386.65600,0.9730836188
386.65650,4.025027696
386.65700,3.41463888
386.65750,0.6678892111
386.65800,-0.5528884197
386.65850,-0.247694012
386.65900,1.278278026
386.65950,2.499055657
386.66000,2.499055657
386.66050,1.888666842
386.66100,1.583472434
386.66150,1.278278026
386.66200,0.6678892111
386.66250,0.05750039565
386.66300,0.3626948034
386.66350,2.19386125
386.66400,3.719833288
386.66450,3.719833288
386.66500,1.888666842
386.66550,0.6678892111
386.66600,0.3626948034
386.66650,0.9730836188
386.66700,1.888666842
386.66750,2.19386125
386.66800,1.888666842
386.66850,0.9730836188
386.66900,0.05750039565
386.66950,0.05750039565
386.67000,0.3626948034
386.67050,0.05750039565
386.67100,-0.247694012
386.67150,-0.5528884197
386.67200,0.05750039565
386.67250,0.05750039565
386.67300,0.05750039565
386.67350,-0.247694012
386.67400,-0.5528884197
386.67450,-0.5528884197
386.67500,0.05750039565
386.67550,0.05750039565
386.67600,0.05750039565
386.67650,-0.8580828275
386.67700,-2.078860458
386.67750,-4.215221312
386.67800,-5.435998943
386.67850,-5.130804535
386.67900,-3.299638089
386.67950,-2.078860458
386.68000,-1.773666051
386.68050,-0.5528884197
386.68100,0.9730836188
386.68150,1.278278026
386.68200,-1.163277235
386.68250,-5.130804535
386.68300,-6.656776574
386.68350,-5.130804535
386.68400,-3.910026904
386.68450,-3.604832497
386.68500,-2.994443681
386.68550,-2.078860458
386.68600,-2.384054866
386.68650,-3.910026904
386.68700,-4.215221312
386.68750,-2.994443681
386.68800,-2.384054866
386.68850,-2.994443681
386.68900,-2.994443681
386.68950,-0.5528884197
386.69000,1.278278026
386.69050,1.583472434
386.69100,0.9730836188
386.69150,0.3626948034
386.69200,0.05750039565
386.69250,-0.5528884197
386.69300,-1.163277235
386.69350,-1.468471643
386.69400,-0.8580828275
386.69450,1.583472434
386.69500,6.16138855
386.69550,9.213332627
386.69600,6.466582957
386.69650,-0.8580828275
386.69700,-7.572359797
386.69750,-10.01391506
386.69800,-8.793137428
386.69850,-6.351582166
386.69900,-3.910026904
386.69950,-2.078860458
386.70000,-1.163277235
386.70050,0.3626948034
386.70100,3.719833288
386.70150,7.076971773
386.70200,7.076971773
386.70250,4.940610919
386.70300,3.719833288
386.70350,4.330222103
386.70400,4.025027696
386.70450,2.804250065
386.70500,2.804250065
386.70550,3.41463888
386.70600,3.109444473
386.70650,2.19386125
386.70700,3.719833288
386.70750,8.297749404
386.70800,10.73930467
386.70850,8.297749404
386.70900,3.719833288
386.70950,0.05750039565
386.71000,-1.773666051
386.71050,-3.299638089
386.71100,-3.910026904
386.71150,-3.910026904
386.71200,-4.215221312
386.71250,-5.435998943
386.71300,-4.825610128
386.71350,-1.163277235
386.71400,2.499055657
386.71450,4.025027696
386.71500,3.41463888
386.71550,2.804250065
386.71600,3.109444473
386.71650,2.804250065
386.71700,1.888666842
386.71750,1.888666842
386.71800,2.499055657
386.71850,3.41463888
386.71900,3.109444473
386.71950,2.19386125
386.72000,1.278278026
386.72050,1.583472434
386.72100,2.499055657
386.72150,4.025027696
386.72200,5.550999734
386.72250,6.16138855
386.72300,5.245805327
386.72350,3.41463888
386.72400,1.583472434
386.72450,0.3626948034
386.72500,-1.163277235
386.72550,-3.604832497
386.72600,-6.046387758
386.72650,-6.961970981
386.72700,-6.656776574
386.72750,-6.046387758
386.72800,-5.130804535
386.72850,-3.910026904
386.72900,-2.384054866
386.72950,-1.468471643
386.73000,-0.8580828275
386.73050,-0.247694012
386.73100,0.05750039565
386.73150,0.05750039565
386.73200,0.3626948034
386.73250,1.888666842
386.73300,3.109444473
386.73350,3.109444473
386.73400,1.888666842
386.73450,1.278278026
386.73500,1.583472434
386.73550,1.583472434
386.73600,0.6678892111
386.73650,0.05750039565
386.73700,-0.247694012
386.73750,-0.8580828275
386.73800,-2.078860458
386.73850,-2.689249274
386.73900,-2.078860458
386.73950,-1.163277235
386.74000,-0.5528884197
386.74050,-0.8580828275
386.74100,-0.5528884197
386.74150,-0.8580828275
386.74200,-2.078860458
386.74250,-2.689249274
386.74300,-1.773666051
386.74350,-0.5528884197
386.74400,-0.5528884197
386.74450,-0.5528884197
386.74500,0.6678892111
386.74550,1.583472434
386.74600,0.3626948034
386.74650,-1.468471643
386.74700,-1.773666051
386.74750,0.05750039565
386.74800,0.05750039565
386.74850,-1.163277235
386.74900,-0.8580828275
386.74950,1.278278026
386.75000,2.19386125
386.75050,0.3626948034
386.75100,0.05750039565
386.75150,2.499055657
386.75200,4.635416511
386.75250,0.3626948034
386.75300,-6.656776574
386.75350,-10.01391506
386.75400,-7.267165389
386.75450,-3.299638089
386.75500,-1.468471643
386.75550,-0.8580828275
386.75600,-1.468471643
386.75650,-2.994443681
386.75700,-3.910026904
386.75750,-2.994443681
386.75800,-0.8580828275
386.75850,-0.8580828275
386.75900,-2.384054866
386.75950,-1.468471643
386.76000,0.9730836188
386.76050,2.499055657
386.76100,0.3626948034
386.76150,-1.468471643
386.76200,-1.773666051
386.76250,-1.468471643
386.76300,-1.773666051
386.76350,-2.078860458
386.76400,-1.163277235
386.76450,-0.5528884197
386.76500,-0.8580828275
386.76550,-0.8580828275
386.76600,0.6678892111
386.76650,2.19386125
386.76700,1.888666842
386.76750,1.888666842
386.76800,2.804250065
386.76850,3.109444473
386.76900,0.9730836188
386.76950,-1.163277235
386.77000,-0.8580828275
386.77050,1.278278026
386.77100,1.278278026
386.77150,-0.5528884197
386.77200,-1.773666051
386.77250,-0.247694012
386.77300,1.888666842
386.77350,3.109444473
386.77400,3.109444473
386.77450,2.499055657
386.77500,1.583472434
386.77550,0.05750039565
386.77600,-1.163277235
386.77650,-2.994443681
386.77700,-4.825610128
386.77750,-6.046387758
386.77800,-3.910026904
386.77850,0.05750039565
386.77900,1.888666842
386.77950,0.3626948034
386.78000,-1.468471643
386.78050,-0.247694012
386.78100,1.278278026
386.78150,1.278278026
386.78200,0.6678892111
386.78250,1.888666842
386.78300,4.025027696
386.78350,3.719833288
386.78400,1.583472434
386.78450,1.278278026
386.78500,2.804250065
386.78550,2.499055657
386.78600,0.05750039565
386.78650,0.05750039565
386.78700,3.719833288
386.78750,6.771777365
386.78800,5.550999734
386.78850,1.583472434
386.78900,-0.5528884197
386.78950,-0.247694012
386.79000,0.6678892111
386.79050,2.499055657
386.79100,4.635416511
386.79150,5.856194142
386.79200,4.330222103
386.79250,0.9730836188
386.79300,-1.163277235
386.79350,-0.8580828275
386.79400,1.278278026
386.79450,4.330222103
386.79500,4.940610919
386.79550,0.9730836188
386.79600,-5.130804535
386.79650,-9.403526243
386.79700,-8.182748612
386.79750,-4.825610128
386.79800,-2.689249274
386.79850,-2.384054866
386.79900,-1.163277235
386.79950,0.05750039565
386.80000,0.3626948034
386.80050,0.05750039565
386.80100,0.9730836188
386.80150,2.804250065
386.80200,2.804250065
386.80250,1.583472434
386.80300,2.19386125
386.80350,6.16138855
386.80400,9.518527034
386.80450,7.992554996
386.80500,2.19386125
386.80550,-2.384054866
386.80600,-3.604832497
386.80650,-2.384054866
386.80700,-1.163277235
386.80750,-0.5528884197
386.80800,-1.163277235
386.80850,-2.384054866
386.80900,-2.384054866
386.80950,0.05750039565
386.81000,3.719833288
386.81050,4.940610919
386.81100,1.888666842
386.81150,-1.773666051
386.81200,-3.604832497
386.81250,-2.078860458
386.81300,0.05750039565
386.81350,0.05750039565
386.81400,-1.773666051
386.81450,-3.299638089
386.81500,-1.773666051
386.81550,1.888666842
386.81600,4.635416511
386.81650,4.330222103
386.81700,1.583472434
386.81750,0.05750039565
386.81800,-0.247694012
386.81850,0.05750039565
386.81900,0.05750039565
386.81950,0.05750039565
386.82000,0.6678892111
386.82050,2.499055657
386.82100,4.330222103
386.82150,4.330222103
386.82200,2.19386125
386.82250,-0.247694012
386.82300,-2.384054866
386.82350,-2.994443681
386.82400,-3.299638089
386.82450,-3.604832497
386.82500,-3.604832497
386.82550,-3.604832497
386.82600,-3.910026904
386.82650,-4.52041572
386.82700,-4.215221312
386.82750,-3.299638089
386.82800,-2.689249274
386.82850,-2.384054866
386.82900,-1.468471643
386.82950,0.3626948034
386.83000,0.9730836188
386.83050,-1.468471643
386.83100,-4.825610128
386.83150,-5.741193351
386.83200,-4.215221312
386.83250,-2.689249274
386.83300,-2.689249274
386.83350,-2.689249274
386.83400,-1.468471643
386.83450,-0.247694012
386.83500,0.05750039565
386.83550,-0.5528884197
386.83600,-0.8580828275
386.83650,-1.163277235
386.83700,-0.8580828275
386.83750,-0.247694012
386.83800,0.3626948034
386.83850,1.278278026
386.83900,1.888666842
386.83950,2.499055657
386.84000,2.804250065
386.84050,2.499055657
386.84100,2.19386125
386.84150,2.499055657
386.84200,3.719833288
386.84250,4.330222103
386.84300,4.025027696
386.84350,3.41463888
386.84400,2.804250065
386.84450,1.583472434
386.84500,0.3626948034
386.84550,-0.5528884197
386.84600,-0.5528884197
386.84650,0.3626948034
386.84700,2.499055657
386.84750,4.635416511
386.84800,4.330222103
386.84850,1.888666842
386.84900,-0.247694012
386.84950,0.05750039565
386.85000,1.278278026
386.85050,1.278278026
386.85100,0.05750039565
386.85150,0.6678892111
386.85200,3.41463888
386.85250,4.330222103
386.85300,1.888666842
386.85350,-0.247694012
386.85400,0.05750039565
386.85450,1.888666842
386.85500,2.19386125
386.85550,0.6678892111
386.85600,-0.247694012
386.85650,-1.468471643
386.85700,-2.994443681
386.85750,-3.604832497
386.85800,-1.468471643
386.85850,1.583472434
386.85900,3.109444473
386.85950,0.9730836188
386.86000,-1.163277235
386.86050,-1.773666051
386.86100,-0.8580828275
386.86150,0.05750039565
386.86200,0.05750039565
386.86250,0.9730836188
386.86300,3.719833288
386.86350,8.297749404
386.86400,10.12891585
386.86450,7.076971773
386.86500,2.19386125
386.86550,1.888666842
386.86600,6.771777365
386.86650,10.12891585
386.86700,6.466582957
386.86750,-2.384054866
386.86800,-8.48794302
386.86850,-8.48794302
386.86900,-5.435998943
386.86950,-2.994443681
386.87000,-2.384054866
386.87050,-1.773666051
386.87100,-0.8580828275
386.87150,0.05750039565
386.87200,0.6678892111
386.87250,1.278278026
386.87300,1.278278026
386.87350,0.3626948034
386.87400,-1.163277235
386.87450,-3.299638089
386.87500,-3.604832497
386.87550,-1.773666051
386.87600,-0.247694012
386.87650,-0.8580828275
386.87700,-3.299638089
386.87750,-4.825610128
386.87800,-4.825610128
386.87850,-3.910026904
386.87900,-2.689249274
386.87950,-0.8580828275
386.88000,0.05750039565
386.88050,-1.163277235
386.88100,-3.299638089
386.88150,-3.299638089
386.88200,0.6678892111
386.88250,5.245805327
386.88300,5.550999734
386.88350,1.278278026
386.88400,-1.468471643
386.88450,0.6678892111
386.88500,6.466582957
386.88550,9.213332627
386.88600,6.16138855
386.88650,0.05750039565
386.88700,-2.689249274
386.88750,-2.078860458
386.88800,-1.163277235
386.88850,-1.773666051
386.88900,-2.994443681
386.88950,-2.384054866
386.89000,-0.8580828275
386.89050,0.05750039565
386.89100,0.6678892111
386.89150,1.278278026
386.89200,1.583472434
386.89250,0.6678892111
386.89300,-1.163277235
386.89350,-2.384054866
386.89400,-2.384054866
386.89450,-1.773666051
386.89500,-1.773666051
386.89550,-2.078860458
386.89600,-2.078860458
386.89650,-2.078860458
386.89700,-2.384054866
386.89750,-2.384054866
386.89800,-1.468471643
386.89850,0.05750039565
386.89900,1.278278026
386.89950,0.9730836188
386.90000,0.05750039565
386.90050,-0.5528884197
386.90100,-0.247694012
386.90150,0.05750039565
386.90200,0.3626948034
386.90250,1.278278026
386.90300,2.19386125
386.90350,2.19386125
386.90400,1.278278026
386.90450,0.6678892111
386.90500,0.6678892111
386.90550,0.05750039565
386.90600,-1.773666051
386.90650,-3.604832497
386.90700,-3.299638089
386.90750,-0.5528884197
386.90800,1.278278026
386.90850,0.9730836188
386.90900,-1.468471643
386.90950,-4.215221312
386.91000,-3.910026904
386.91050,-2.078860458
386.91100,-0.247694012
386.91150,0.05750039565
386.91200,0.6678892111
386.91250,1.278278026
386.91300,0.9730836188
386.91350,-0.247694012
386.91400,-1.468471643
386.91450,-1.163277235
386.91500,-0.5528884197
386.91550,-1.163277235
386.91600,-2.078860458
386.91650,-1.773666051
386.91700,-0.8580828275
386.91750,-0.5528884197
386.91800,-0.8580828275
386.91850,-0.8580828275
386.91900,-0.8580828275
386.91950,-1.468471643
386.92000,-2.078860458
386.92050,-1.163277235
386.92100,-0.247694012
386.92150,-0.8580828275
386.92200,-2.689249274
386.92250,-2.994443681
386.92300,-1.773666051
386.92350,-0.5528884197
386.92400,-0.5528884197
386.92450,-1.468471643
386.92500,-2.689249274
386.92550,-3.604832497
386.92600,-3.604832497
386.92650,-2.689249274
386.92700,-0.8580828275
386.92750,-0.5528884197
386.92800,-1.163277235
386.92850,-1.163277235
386.92900,0.6678892111
386.92950,2.19386125
386.93000,1.583472434
386.93050,-0.5528884197
386.93100,-2.384054866
386.93150,-2.384054866
386.93200,-0.8580828275
386.93250,0.6678892111
386.93300,1.278278026
386.93350,0.6678892111
386.93400,-1.163277235
386.93450,-3.604832497
386.93500,-4.215221312
386.93550,-3.299638089
386.93600,-0.5528884197
386.93650,1.888666842
386.93700,4.330222103
386.93750,4.635416511
386.93800,2.19386125
386.93850,-1.773666051
386.93900,-5.435998943
386.93950,-6.351582166
386.94000,-4.215221312
386.94050,-1.163277235
386.94100,0.05750039565
386.94150,0.05750039565
386.94200,1.583472434
386.94250,4.330222103
386.94300,4.940610919
386.94350,2.19386125
386.94400,-0.5528884197
386.94450,0.05750039565
386.94500,1.888666842
386.94550,2.19386125
386.94600,0.6678892111
386.94650,0.6678892111
386.94700,2.804250065
386.94750,3.109444473
386.94800,0.9730836188
386.94850,0.05750039565
386.94900,1.888666842
386.94950,4.025027696
386.95000,3.109444473
386.95050,1.583472434
386.95100,1.583472434
386.95150,2.499055657
386.95200,2.499055657
386.95250,2.499055657
386.95300,4.330222103
386.95350,6.16138855
386.95400,5.245805327
386.95450,3.109444473
386.95500,2.19386125
386.95550,1.278278026
386.95600,-1.773666051
386.95650,-6.351582166
386.95700,-7.877554205
386.95750,-5.741193351
386.95800,-3.604832497
386.95850,-2.994443681
386.95900,-2.384054866
386.95950,-1.163277235
386.96000,0.05750039565
386.96050,0.3626948034
386.96100,1.583472434
386.96150,3.109444473
386.96200,2.804250065
386.96250,0.05750039565
386.96300,-2.994443681
386.96350,-3.299638089
386.96400,-0.5528884197
386.96450,1.583472434
386.96500,2.804250065
386.96550,2.19386125
386.96600,1.278278026
386.96650,1.583472434
386.96700,2.804250065
386.96750,3.41463888
386.96800,1.888666842
386.96850,-0.247694012
386.96900,-0.8580828275
386.96950,0.05750039565
386.97000,0.05750039565
386.97050,-1.163277235
386.97100,-2.384054866
386.97150,-2.689249274
386.97200,-1.773666051
386.97250,-0.5528884197
386.97300,0.6678892111
386.97350,1.583472434
386.97400,1.888666842
386.97450,0.9730836188
386.97500,0.05750039565
386.97550,-2.078860458
386.97600,-3.299638089
386.97650,-1.773666051
386.97700,1.583472434
386.97750,4.025027696
386.97800,3.41463888
386.97850,1.888666842
386.97900,2.499055657
386.97950,3.719833288
386.98000,3.719833288
386.98050,3.109444473
386.98100,4.635416511
386.98150,5.550999734
386.98200,3.41463888
386.98250,0.05750039565
386.98300,0.05750039565
386.98350,3.109444473
386.98400,4.330222103
386.98450,2.804250065
386.98500,1.278278026
386.98550,0.3626948034
386.98600,-0.8580828275
386.98650,-1.468471643
386.98700,1.583472434
386.98750,5.856194142
386.98800,6.16138855
386.98850,3.109444473
386.98900,0.9730836188
386.98950,1.278278026
386.99000,0.3626948034
386.99050,-2.689249274
386.99100,-4.825610128
386.99150,-3.299638089
386.99200,-1.468471643
386.99250,-1.163277235
386.99300,-0.247694012
386.99350,2.499055657
386.99400,4.330222103
386.99450,3.109444473
386.99500,1.278278026
386.99550,1.888666842
386.99600,3.109444473
386.99650,1.888666842
386.99700,0.05750039565
386.99750,0.05750039565
386.99800,1.278278026
386.99850,2.499055657
386.99900,3.41463888
386.99950,4.330222103
387.00000,4.940610919
387.00050,4.330222103
387.00100,3.41463888
387.00150,3.109444473
387.00200,3.41463888
387.00250,3.719833288
387.00300,4.330222103
387.00350,4.940610919
387.00400,4.940610919
387.00450,3.41463888
387.00500,1.278278026
387.00550,-0.247694012
387.00600,-2.078860458
387.00650,-3.604832497
387.00700,-3.604832497
387.00750,-2.994443681
387.00800,-2.994443681
387.00850,-3.604832497
387.00900,-3.604832497
387.00950,-2.384054866
387.01000,-0.8580828275
387.01050,0.05750039565
387.01100,0.3626948034
387.01150,0.05750039565
387.01200,-1.773666051
387.01250,-5.741193351
387.01300,-8.182748612
387.01350,-7.572359797
387.01400,-5.435998943
387.01450,-4.52041572
387.01500,-5.130804535
387.01550,-5.435998943
387.01600,-3.910026904
387.01650,-0.8580828275
387.01700,0.6678892111
387.01750,0.05750039565
387.01800,-2.689249274
387.01850,-5.435998943
387.01900,-5.130804535
387.01950,-3.299638089
387.02000,-1.773666051
387.02050,-1.468471643
387.02100,-0.5528884197
387.02150,0.9730836188
387.02200,1.278278026
387.02250,-0.247694012
387.02300,-1.773666051
387.02350,-0.5528884197
387.02400,1.888666842
387.02450,3.109444473
387.02500,2.499055657
387.02550,2.19386125
387.02600,4.025027696
387.02650,6.466582957
387.02700,7.076971773
387.02750,4.635416511
387.02800,0.6678892111
387.02850,-1.468471643
387.02900,-1.773666051
387.02950,0.05750039565
387.03000,1.278278026
387.03050,1.583472434
387.03100,0.6678892111
387.03150,-0.247694012
387.03200,-1.773666051
387.03250,-2.994443681
387.03300,-3.299638089
387.03350,-2.384054866
387.03400,-0.5528884197
387.03450,0.3626948034
387.03500,0.05750039565
387.03550,-1.163277235
387.03600,-1.773666051
387.03650,-1.468471643
387.03700,-1.163277235
387.03750,-0.8580828275
387.03800,-0.247694012
387.03850,0.05750039565
387.03900,-0.247694012
387.03950,-2.384054866
387.04000,-4.215221312
387.04050,-4.215221312
387.04100,-3.604832497
387.04150,-2.994443681
387.04200,-2.384054866
387.04250,-0.247694012
387.04300,1.583472434
387.04350,2.499055657
387.04400,2.499055657
387.04450,3.109444473
387.04500,3.719833288
387.04550,2.19386125
387.04600,0.05750039565
387.04650,0.9730836188
387.04700,4.940610919
387.04750,8.297749404
387.04800,7.38216618
387.04850,4.330222103
387.04900,0.9730836188
387.04950,-0.8580828275
387.05000,-0.8580828275
387.05050,2.19386125
387.05100,6.771777365
387.05150,8.297749404
387.05200,5.245805327
387.05250,0.6678892111
387.05300,-0.8580828275
387.05350,-0.5528884197
387.05400,-0.8580828275
387.05450,-2.078860458
387.05500,-3.604832497
387.05550,-5.130804535
387.05600,-6.351582166
387.05650,-6.351582166
387.05700,-4.52041572
387.05750,-3.299638089
387.05800,-4.215221312
387.05850,-4.825610128
387.05900,-2.384054866
387.05950,1.278278026
387.06000,2.804250065
387.06050,1.888666842
387.06100,2.19386125
387.06150,4.330222103
387.06200,4.330222103
387.06250,0.05750039565
387.06300,-6.046387758
387.06350,-9.403526243
387.06400,-8.793137428
387.06450,-6.046387758
387.06500,-3.299638089
387.06550,-1.163277235
387.06600,0.6678892111
387.06650,3.109444473
387.06700,5.550999734
387.06750,6.16138855
387.06800,3.41463888
387.06850,-1.163277235
387.06900,-4.52041572
387.06950,-4.825610128
387.07000,-3.910026904
387.07050,-3.910026904
387.07100,-4.52041572
387.07150,-3.299638089
387.07200,-0.5528884197
387.07250,0.9730836188
387.07300,0.9730836188
387.07350,0.6678892111
387.07400,0.3626948034
387.07450,0.05750039565
387.07500,-0.247694012
387.07550,-0.5528884197
387.07600,-0.247694012
387.07650,1.278278026
387.07700,5.245805327
387.07750,9.518527034
387.07800,10.43411026
387.07850,6.16138855
387.07900,-0.247694012
387.07950,-5.435998943
387.08000,-7.572359797
387.08050,-7.572359797
387.08100,-6.046387758
387.08150,-2.689249274
387.08200,1.278278026
387.08250,3.719833288
387.08300,3.719833288
387.08350,2.19386125
387.08400,0.3626948034
387.08450,-0.5528884197
387.08500,-0.8580828275
387.08550,-0.247694012
387.08600,-0.247694012
387.08650,-1.163277235
387.08700,-1.773666051
387.08750,-0.5528884197
387.08800,1.278278026
387.08850,1.888666842
387.08900,1.278278026
387.08950,0.6678892111
387.09000,0.6678892111
387.09050,0.05750039565
387.09100,-2.078860458
387.09150,-2.689249274
387.09200,-1.773666051
387.09250,-1.163277235
387.09300,-2.078860458
387.09350,-3.299638089
387.09400,-2.994443681
387.09450,-0.8580828275
387.09500,1.583472434
387.09550,3.109444473
387.09600,2.804250065
387.09650,0.9730836188
387.09700,-0.5528884197
387.09750,-1.468471643
387.09800,-2.078860458
387.09850,-2.384054866
387.09900,-2.689249274
387.09950,-2.078860458
387.10000,-1.163277235
387.10050,-0.8580828275
387.10100,-0.247694012
387.10150,0.6678892111
387.10200,1.583472434
387.10250,1.278278026
387.10300,0.05750039565
387.10350,-1.163277235
387.10400,-1.773666051
387.10450,-1.773666051
387.10500,-1.163277235
387.10550,0.05750039565
387.10600,0.9730836188
387.10650,0.9730836188
387.10700,0.05750039565
387.10750,-2.078860458
387.10800,-2.994443681
387.10850,-2.689249274
387.10900,-2.078860458
387.10950,-1.163277235
387.11000,0.05750039565
387.11050,1.278278026
387.11100,2.19386125
387.11150,1.888666842
387.11200,0.6678892111
387.11250,0.05750039565
387.11300,0.9730836188
387.11350,1.583472434
387.11400,1.278278026
387.11450,0.6678892111
387.11500,0.3626948034
387.11550,0.6678892111
387.11600,0.05750039565
387.11650,-0.247694012
387.11700,-0.5528884197
387.11750,-0.247694012
387.11800,-0.247694012
387.11850,0.05750039565
387.11900,0.05750039565
387.11950,0.05750039565
387.12000,-0.247694012
387.12050,0.6678892111
387.12100,2.19386125
387.12150,2.19386125
387.12200,-0.8580828275
387.12250,-5.130804535
387.12300,-6.351582166
387.12350,-4.215221312
387.12400,-2.078860458
387.12450,-2.078860458
387.12500,-2.689249274
387.12550,-1.773666051
387.12600,0.05750039565
387.12650,3.109444473
387.12700,6.466582957
387.12750,10.12891585
387.12800,11.9600823
387.12850,10.43411026
387.12900,6.771777365
387.12950,4.330222103
387.13000,4.330222103
387.13050,5.550999734
387.13100,6.466582957
387.13150,6.16138855
387.13200,4.330222103
387.13250,1.583472434
387.13300,0.05750039565
387.13350,0.6678892111
387.13400,2.499055657
387.13450,3.41463888
387.13500,4.025027696
387.13550,4.025027696
387.13600,2.499055657
387.13650,-0.8580828275
387.13700,-4.52041572
387.13750,-4.52041572
387.13800,-1.468471643
387.13850,0.3626948034
387.13900,0.05750039565
387.13950,-0.5528884197
387.14000,0.6678892111
387.14050,1.583472434
387.14100,-0.8580828275
387.14150,-4.825610128
387.14200,-4.215221312
387.14250,1.583472434
387.14300,6.466582957
387.14350,5.245805327
387.14400,0.9730836188
387.14450,-0.5528884197
387.14500,0.9730836188
387.14550,2.19386125
387.14600,0.3626948034
387.14650,-2.689249274
387.14700,-5.130804535
387.14750,-6.351582166
387.14800,-5.741193351
387.14850,-3.299638089
387.14900,-0.8580828275
387.14950,-0.247694012
387.15000,-1.468471643
387.15050,-3.299638089
387.15100,-3.604832497
387.15150,-2.689249274
387.15200,-1.773666051
387.15250,-1.163277235
387.15300,-0.8580828275
387.15350,-0.247694012
387.15400,1.278278026
387.15450,3.109444473
387.15500,3.109444473
387.15550,0.6678892111
387.15600,-1.773666051
387.15650,-2.384054866
387.15700,-1.773666051
387.15750,-2.078860458
387.15800,-2.994443681
387.15850,-2.384054866
387.15900,-0.247694012
387.15950,1.278278026
387.16000,1.278278026
387.16050,0.9730836188
387.16100,2.19386125
387.16150,4.025027696
387.16200,4.330222103
387.16250,2.499055657
387.16300,0.05750039565
387.16350,-1.163277235
387.16400,-1.773666051
387.16450,-1.773666051
387.16500,-2.384054866
387.16550,-3.604832497
387.16600,-3.604832497
387.16650,-2.689249274
387.16700,-1.468471643
387.16750,-1.468471643
387.16800,-1.773666051
387.16850,-0.5528884197
387.16900,1.583472434
387.16950,2.804250065
387.17000,0.9730836188
387.17050,-1.468471643
387.17100,-2.384054866
387.17150,-1.468471643
387.17200,-0.247694012
387.17250,0.05750039565
387.17300,0.05750039565
387.17350,0.9730836188
387.17400,1.583472434
387.17450,1.278278026
387.17500,0.9730836188
387.17550,0.6678892111
387.17600,0.6678892111
387.17650,-0.247694012
387.17700,-1.773666051
387.17750,-1.773666051
387.17800,-0.8580828275
387.17850,-0.247694012
387.17900,-1.468471643
387.17950,-2.994443681
387.18000,-2.689249274
387.18050,-1.468471643
387.18100,-0.5528884197
387.18150,-0.8580828275
387.18200,-1.163277235
387.18250,-0.247694012
387.18300,0.9730836188
387.18350,2.499055657
387.18400,3.109444473
387.18450,2.499055657
387.18500,1.278278026
387.18550,0.05750039565
387.18600,-0.247694012
387.18650,-0.247694012
387.18700,0.05750039565
387.18750,0.6678892111
387.18800,2.19386125
387.18850,2.804250065
387.18900,1.278278026
387.18950,-0.247694012
387.19000,0.05750039565
387.19050,2.804250065
387.19100,4.330222103
387.19150,3.41463888
387.19200,3.109444473
387.19250,4.330222103
387.19300,6.16138855
387.19350,5.856194142
387.19400,4.635416511
387.19450,4.635416511
387.19500,5.550999734
387.19550,4.940610919
387.19600,3.109444473
387.19650,1.888666842
387.19700,1.583472434
387.19750,1.583472434
387.19800,0.6678892111
387.19850,0.3626948034
387.19900,1.583472434
387.19950,2.804250065
387.20000,2.19386125
387.20050,0.3626948034
387.20100,0.3626948034
387.20150,2.19386125
387.20200,3.109444473
387.20250,1.583472434
387.20300,-1.163277235
387.20350,-2.384054866
387.20400,-0.8580828275
387.20450,0.3626948034
387.20500,0.05750039565
387.20550,-0.8580828275
387.20600,-0.8580828275
387.20650,0.05750039565
387.20700,0.6678892111
387.20750,0.9730836188
387.20800,1.888666842
387.20850,3.41463888
387.20900,4.025027696
387.20950,3.719833288
387.21000,3.41463888
387.21050,4.025027696
387.21100,3.109444473
387.21150,0.3626948034
387.21200,-1.773666051
387.21250,-2.384054866
387.21300,-2.689249274
387.21350,-3.910026904
387.21400,-4.52041572
387.21450,-3.604832497
387.21500,-2.689249274
387.21550,-2.689249274
387.21600,-2.689249274
387.21650,-0.8580828275
387.21700,1.583472434
387.21750,1.888666842
387.21800,-1.163277235
387.21850,-5.130804535
387.21900,-6.961970981
387.21950,-6.046387758
387.22000,-3.910026904
387.22050,-2.994443681
387.22100,-4.215221312
387.22150,-6.046387758
387.22200,-6.656776574
387.22250,-5.130804535
387.22300,-3.910026904
387.22350,-3.299638089
387.22400,-2.994443681
387.22450,-2.078860458
387.22500,-0.8580828275
387.22550,-0.5528884197
387.22600,-0.8580828275
387.22650,-1.773666051
387.22700,-2.384054866
387.22750,-2.078860458
387.22800,-0.8580828275
387.22850,0.05750039565
387.22900,0.05750039565
387.22950,-0.8580828275
387.23000,-0.247694012
387.23050,1.278278026
387.23100,2.499055657
387.23150,1.888666842
387.23200,0.05750039565
387.23250,-1.468471643
387.23300,-3.299638089
387.23350,-2.994443681
387.23400,0.05750039565
387.23450,3.719833288
387.23500,4.330222103
387.23550,2.19386125
387.23600,0.3626948034
387.23650,0.3626948034
387.23700,0.6678892111
387.23750,0.3626948034
387.23800,1.278278026
387.23850,2.804250065
387.23900,2.804250065
387.23950,0.05750039565
387.24000,-1.468471643
387.24050,-1.468471643
387.24100,-0.8580828275
387.24150,-0.247694012
387.24200,1.583472434
387.24250,4.940610919
387.24300,6.16138855
387.24350,2.804250065
387.24400,-2.078860458
387.24450,-4.825610128
387.24500,-3.910026904
387.24550,-1.773666051
387.24600,0.05750039565
387.24650,0.9730836188
387.24700,0.3626948034
387.24750,-1.163277235
387.24800,-1.163277235
387.24850,1.583472434
387.24900,3.719833288
387.24950,2.804250065
387.25000,0.3626948034
387.25050,1.278278026
387.25100,5.245805327
387.25150,7.38216618
387.25200,5.550999734
387.25250,2.19386125
387.25300,0.3626948034
387.25350,0.05750039565
387.25400,0.05750039565
387.25450,-0.247694012
387.25500,-0.8580828275
387.25550,-2.994443681
387.25600,-6.656776574
387.25650,-9.708720651
387.25700,-9.708720651
387.25750,-8.48794302
387.25800,-8.182748612
387.25850,-8.793137428
387.25900,-7.877554205
387.25950,-5.741193351
387.26000,-3.299638089
387.26050,-1.773666051
387.26100,0.05750039565
387.26150,3.41463888
387.26200,6.16138855
387.26250,6.771777365
387.26300,5.856194142
387.26350,5.856194142
387.26400,5.550999734
387.26450,3.109444473
387.26500,-0.247694012
387.26550,-2.689249274
387.26600,-2.689249274
387.26650,-2.078860458
387.26700,-2.384054866
387.26750,-2.689249274
387.26800,-2.078860458
387.26850,-0.5528884197
387.26900,0.6678892111
387.26950,1.583472434
387.27000,2.499055657
387.27050,3.41463888
387.27100,4.025027696
387.27150,4.025027696
387.27200,4.025027696
387.27250,4.025027696
387.27300,4.330222103
387.27350,4.330222103
387.27400,3.41463888
387.27450,1.278278026
387.27500,-1.773666051
387.27550,-4.52041572
387.27600,-4.825610128
387.27650,-3.910026904
387.27700,-3.299638089
387.27750,-3.604832497
387.27800,-3.604832497
387.27850,-2.994443681
387.27900,-1.468471643
387.27950,0.3626948034
387.28000,1.278278026
387.28050,0.9730836188
387.28100,0.3626948034
387.28150,0.6678892111
387.28200,1.888666842
387.28250,1.888666842
387.28300,0.6678892111
387.28350,0.05750039565
387.28400,0.6678892111
387.28450,1.583472434
387.28500,2.804250065
387.28550,4.025027696
387.28600,4.635416511
387.28650,3.41463888
387.28700,0.9730836188
387.28750,0.3626948034
387.28800,1.583472434
387.28850,2.499055657
387.28900,2.19386125
387.28950,2.19386125
387.29000,2.804250065
387.29050,2.804250065
387.29100,1.583472434
387.29150,2.19386125
387.29200,4.330222103
387.29250,5.245805327
387.29300,3.109444473
387.29350,0.05750039565
387.29400,-1.468471643
387.29450,-1.468471643
387.29500,-1.163277235
387.29550,0.05750039565
387.29600,1.888666842
387.29650,3.109444473
387.29700,1.888666842
387.29750,0.6678892111
387.29800,1.583472434
387.29850,3.109444473
387.29900,1.583472434
387.29950,-2.078860458
387.30000,-3.299638089
387.30050,-0.247694012
387.30100,2.19386125
387.30150,1.583472434
387.30200,-1.163277235
387.30250,-2.384054866
387.30300,-1.468471643
387.30350,-0.247694012
387.30400,-0.5528884197
387.30450,-2.078860458
387.30500,-3.910026904
387.30550,-4.215221312
387.30600,-2.384054866
387.30650,0.05750039565
387.30700,0.9730836188
387.30750,0.3626948034
387.30800,-0.247694012
387.30850,0.05750039565
387.30900,0.3626948034
387.30950,0.05750039565
387.31000,-0.8580828275
387.31050,-1.773666051
387.31100,-2.078860458
387.31150,-2.689249274
387.31200,-3.299638089
387.31250,-1.773666051
387.31300,0.9730836188
387.31350,2.804250065
387.31400,0.9730836188
387.31450,-1.468471643
387.31500,-2.078860458
387.31550,-0.5528884197
387.31600,-1.163277235
387.31650,-4.215221312
387.31700,-5.741193351
387.31750,-4.215221312
387.31800,-1.773666051
387.31850,-0.8580828275
387.31900,-0.8580828275
387.31950,0.05750039565
387.32000,0.6678892111
387.32050,-0.247694012
387.32100,-2.689249274
387.32150,-3.299638089
387.32200,-1.468471643
387.32250,0.6678892111
387.32300,1.888666842
387.32350,2.19386125
387.32400,1.278278026
387.32450,-0.247694012
387.32500,-1.163277235
387.32550,0.05750039565
387.32600,0.9730836188
387.32650,0.9730836188
387.32700,0.05750039565
387.32750,0.6678892111
387.32800,2.499055657
387.32850,2.804250065
387.32900,0.9730836188
387.32950,-0.247694012
387.33000,0.05750039565
387.33050,1.278278026
387.33100,0.9730836188
387.33150,0.6678892111
387.33200,1.583472434
387.33250,2.804250065
387.33300,2.499055657
387.33350,0.6678892111
387.33400,0.05750039565
387.33450,0.6678892111
387.33500,1.888666842
387.33550,2.19386125
387.33600,2.499055657
387.33650,2.19386125
387.33700,1.888666842
387.33750,0.9730836188
387.33800,0.3626948034
387.33850,0.05750039565
387.33900,-0.247694012
387.33950,-1.468471643
387.34000,-2.994443681
387.34050,-2.078860458
387.34100,1.278278026
387.34150,4.635416511
387.34200,4.940610919
387.34250,1.583472434
387.34300,-2.078860458
387.34350,-4.215221312
387.34400,-4.215221312
387.34450,-4.52041572
387.34500,-4.825610128
387.34550,-4.52041572
387.34600,-2.384054866
387.34650,0.3626948034
387.34700,2.804250065
387.34750,3.41463888
387.34800,1.888666842
387.34850,-0.247694012
387.34900,-1.468471643
387.34950,-0.8580828275
387.35000,1.278278026
387.35050,2.804250065
387.35100,1.583472434
387.35150,-2.689249274
387.35200,-7.572359797
387.35250,-8.48794302
387.35300,-3.910026904
387.35350,1.888666842
387.35400,5.245805327
387.35450,4.025027696
387.35500,1.888666842
387.35550,0.6678892111
387.35600,-0.5528884197
387.35650,-2.078860458
387.35700,-2.384054866
387.35750,-0.247694012
387.35800,0.05750039565
387.35850,-2.689249274
387.35900,-6.046387758
387.35950,-5.435998943
387.36000,-2.384054866
387.36050,-0.8580828275
387.36100,-2.384054866
387.36150,-3.604832497
387.36200,-2.689249274
387.36250,-0.8580828275
387.36300,0.3626948034
387.36350,1.278278026
387.36400,1.583472434
387.36450,0.6678892111
387.36500,-0.5528884197
387.36550,-0.5528884197
387.36600,0.3626948034
387.36650,1.278278026
387.36700,0.6678892111
387.36750,0.05750039565
387.36800,0.3626948034
387.36850,1.888666842
387.36900,2.804250065
387.36950,3.41463888
387.37000,4.025027696
387.37050,4.635416511
387.37100,4.940610919
387.37150,5.856194142
387.37200,6.771777365
387.37250,7.687360588
387.37300,7.687360588
387.37350,7.38216618
387.37400,5.245805327
387.37450,0.6678892111
387.37500,-3.910026904
387.37550,-5.130804535
387.37600,-3.299638089
387.37650,-1.773666051
387.37700,-2.384054866
387.37750,-3.299638089
387.37800,-2.384054866
387.37850,-1.163277235
387.37900,-1.468471643
387.37950,-1.773666051
387.38000,-0.5528884197
387.38050,1.583472434
387.38100,2.804250065
387.38150,2.19386125
387.38200,0.3626948034
387.38250,0.05750039565
387.38300,0.3626948034
387.38350,0.9730836188
387.38400,0.3626948034
387.38450,-2.689249274
387.38500,-7.572359797
387.38550,-10.01391506
387.38600,-8.793137428
387.38650,-5.435998943
387.38700,-2.384054866
387.38750,-0.247694012
387.38800,0.9730836188
387.38850,0.9730836188
387.38900,-0.247694012
387.38950,-1.163277235
387.39000,0.3626948034
387.39050,4.635416511
387.39100,8.297749404
387.39150,9.518527034
387.39200,8.297749404
387.39250,4.940610919
387.39300,0.05750039565
387.39350,-2.994443681
387.39400,-2.078860458
387.39450,1.278278026
387.39500,3.41463888
387.39550,2.19386125
387.39600,-0.247694012
387.39650,-0.8580828275
387.39700,0.05750039565
387.39750,0.05750039565
387.39800,-1.468471643
387.39850,-3.604832497
387.39900,-3.604832497
387.39950,-1.773666051
387.40000,-0.8580828275
387.40050,-2.384054866
387.40100,-5.130804535
387.40150,-5.741193351
387.40200,-3.910026904
387.40250,-2.689249274
387.40300,-2.689249274
387.40350,-1.163277235
387.40400,2.804250065
387.40450,5.550999734
387.40500,3.109444473
387.40550,-1.773666051
387.40600,-4.215221312
387.40650,-2.384054866
387.40700,-0.247694012
387.40750,0.05750039565
387.40800,0.3626948034
387.40850,1.278278026
387.40900,1.278278026
387.40950,0.05750039565
387.41000,-0.8580828275
387.41050,0.05750039565
387.41100,0.3626948034
387.41150,0.05750039565
387.41200,0.05750039565
387.41250,1.583472434
387.41300,2.19386125
387.41350,0.9730836188
387.41400,0.05750039565
387.41450,0.3626948034
387.41500,1.583472434
387.41550,1.278278026
387.41600,0.3626948034
387.41650,0.3626948034
387.41700,0.05750039565
387.41750,-0.5528884197
387.41800,-1.163277235
387.41850,-0.247694012
387.41900,0.3626948034
387.41950,0.05750039565
387.42000,-1.163277235
387.42050,-0.5528884197
387.42100,0.9730836188
387.42150,2.19386125
387.42200,1.583472434
387.42250,1.278278026
387.42300,1.888666842
387.42350,2.19386125
387.42400,1.583472434
387.42450,0.6678892111
387.42500,0.6678892111
387.42550,1.583472434
387.42600,1.888666842
387.42650,2.19386125
387.42700,2.19386125
387.42750,1.583472434
387.42800,1.583472434
387.42850,2.804250065
387.42900,4.025027696
387.42950,4.025027696
387.43000,2.19386125
387.43050,0.3626948034
387.43100,0.05750039565
387.43150,0.3626948034
387.43200,0.6678892111
387.43250,0.6678892111
387.43300,1.583472434
387.43350,2.804250065
387.43400,3.41463888
387.43450,2.499055657
387.43500,2.19386125
387.43550,2.804250065
387.43600,3.109444473
387.43650,1.888666842
387.43700,-0.5528884197
387.43750,-2.994443681
387.43800,-2.994443681
387.43850,-1.163277235
387.43900,-0.247694012
387.43950,-1.468471643
387.44000,-2.689249274
387.44050,-1.468471643
387.44100,0.6678892111
387.44150,2.19386125
387.44200,2.19386125
387.44250,2.499055657
387.44300,3.109444473
387.44350,1.888666842
387.44400,-0.8580828275
387.44450,-2.994443681
387.44500,-2.078860458
387.44550,0.6678892111
387.44600,3.41463888
387.44650,5.550999734
387.44700,6.16138855
387.44750,4.330222103
387.44800,0.05750039565
387.44850,-4.825610128
387.44900,-7.572359797
387.44950,-8.182748612
387.45000,-7.877554205
387.45050,-6.656776574
387.45100,-4.52041572
387.45150,-2.078860458
387.45200,-0.5528884197
387.45250,0.3626948034
387.45300,1.583472434
387.45350,0.9730836188
387.45400,-1.163277235
387.45450,-3.604832497
387.45500,-2.994443681
387.45550,0.6678892111
387.45600,4.025027696
387.45650,4.330222103
387.45700,2.19386125
387.45750,-0.5528884197
387.45800,-2.078860458
387.45850,-1.468471643
387.45900,0.6678892111
387.45950,2.499055657
387.46000,2.19386125
387.46050,0.05750039565
387.46100,-0.8580828275
387.46150,-1.468471643
387.46200,-1.468471643
387.46250,-1.773666051
387.46300,-2.078860458
387.46350,-2.384054866
387.46400,-2.994443681
387.46450,-3.910026904
387.46500,-4.52041572
387.46550,-4.215221312
387.46600,-2.994443681
387.46650,-1.773666051
387.46700,-0.5528884197
387.46750,0.3626948034
387.46800,0.9730836188
387.46850,0.9730836188
387.46900,1.278278026
387.46950,1.278278026
387.47000,0.6678892111
387.47050,0.05750039565
387.47100,-0.247694012
387.47150,0.3626948034
387.47200,0.3626948034
387.47250,-0.247694012
387.47300,-0.8580828275
387.47350,0.05750039565
387.47400,0.9730836188
387.47450,1.278278026
387.47500,0.9730836188
387.47550,1.583472434
387.47600,1.583472434
387.47650,0.05750039565
387.47700,-2.689249274
387.47750,-3.910026904
387.47800,-3.299638089
387.47850,-1.773666051
387.47900,-0.5528884197
387.47950,0.3626948034
387.48000,1.278278026
387.48050,1.888666842
387.48100,1.888666842
387.48150,1.888666842
387.48200,0.6678892111
387.48250,-0.8580828275
387.48300,-1.468471643
387.48350,-0.247694012
387.48400,1.583472434
387.48450,2.499055657
387.48500,2.499055657
387.48550,3.109444473
387.48600,4.025027696
387.48650,3.109444473
387.48700,0.6678892111
387.48750,-1.468471643
387.48800,-1.773666051
387.48850,-0.5528884197
387.48900,0.05750039565
387.48950,-0.5528884197
387.49000,-2.384054866
387.49050,-4.215221312
387.49100,-4.825610128
387.49150,-3.910026904
387.49200,-2.078860458
387.49250,-2.078860458
387.49300,-3.910026904
387.49350,-4.52041572
387.49400,-2.078860458
387.49450,1.278278026
387.49500,1.583472434
387.49550,-0.8580828275
387.49600,-2.689249274
387.49650,-1.163277235
387.49700,0.6678892111
387.49750,0.05750039565
387.49800,-2.994443681
387.49850,-4.52041572
387.49900,-2.384054866
387.49950,0.05750039565
387.50000,0.3626948034
387.50050,-0.8580828275
387.50100,-0.5528884197
387.50150,1.583472434
387.50200,3.719833288
387.50250,3.41463888
387.50300,2.19386125
387.50350,2.19386125
387.50400,4.025027696
387.50450,5.245805327
387.50500,4.330222103
387.50550,2.19386125
387.50600,0.6678892111
387.50650,0.05750039565
387.50700,-0.247694012
387.50750,-1.468471643
387.50800,-2.689249274
387.50850,-3.910026904
387.50900,-3.910026904
387.50950,-2.994443681
387.51000,-0.247694012
387.51050,2.804250065
387.51100,5.245805327
387.51150,4.940610919
387.51200,2.499055657
387.51250,0.05750039565
387.51300,-0.8580828275
387.51350,-1.163277235
387.51400,-2.384054866
387.51450,-3.910026904
387.51500,-3.910026904
387.51550,-2.384054866
387.51600,-1.773666051
387.51650,-2.994443681
387.51700,-4.215221312
387.51750,-2.994443681
387.51800,0.3626948034
387.51850,3.109444473
387.51900,3.719833288
387.51950,1.888666842
387.52000,0.3626948034
387.52050,0.05750039565
387.52100,0.3626948034
387.52150,1.888666842
387.52200,3.109444473
387.52250,3.41463888
387.52300,1.888666842
387.52350,-0.5528884197
387.52400,-3.604832497
387.52450,-4.52041572
387.52500,-2.994443681
387.52550,0.05750039565
387.52600,2.499055657
387.52650,3.109444473
387.52700,2.499055657
387.52750,3.109444473
387.52800,4.330222103
387.52850,4.330222103
387.52900,2.19386125
387.52950,-1.163277235
387.53000,-4.215221312
387.53050,-6.046387758
387.53100,-5.741193351
387.53150,-3.299638089
387.53200,0.05750039565
387.53250,1.888666842
387.53300,1.278278026
387.53350,0.05750039565
387.53400,-0.247694012
387.53450,0.3626948034
387.53500,0.6678892111
387.53550,0.05750039565
387.53600,0.3626948034
387.53650,2.19386125
387.53700,3.719833288
387.53750,3.109444473
387.53800,0.9730836188
387.53850,-0.247694012
387.53900,-0.5528884197
387.53950,-0.5528884197
387.54000,-1.163277235
387.54050,-0.8580828275
387.54100,0.3626948034
387.54150,0.9730836188
387.54200,0.05750039565
387.54250,-0.5528884197
387.54300,1.278278026
387.54350,4.635416511
387.54400,5.550999734
387.54450,3.719833288
387.54500,1.888666842
387.54550,1.583472434
387.54600,1.583472434
387.54650,0.3626948034
387.54700,-1.163277235
387.54750,-2.078860458
387.54800,-1.468471643
387.54850,-0.8580828275
387.54900,-0.5528884197
387.54950,-0.5528884197
387.55000,0.05750039565
387.55050,0.9730836188
387.55100,2.804250065
387.55150,4.330222103
387.55200,4.330222103
387.55250,3.109444473
387.55300,2.804250065
387.55350,4.635416511
387.55400,6.466582957
387.55450,5.550999734
387.55500,1.583472434
387.55550,-2.994443681
387.55600,-5.741193351
387.55650,-5.435998943
387.55700,-3.910026904
387.55750,-1.773666051
387.55800,0.05750039565
387.55850,0.3626948034
387.55900,0.05750039565
387.55950,-1.163277235
387.56000,-2.078860458
387.56050,-1.773666051
387.56100,0.05750039565
387.56150,0.6678892111
387.56200,0.05750039565
387.56250,-1.163277235
387.56300,-2.384054866
387.56350,-3.299638089
387.56400,-4.52041572
387.56450,-4.825610128
387.56500,-2.994443681
387.56550,-0.5528884197
387.56600,0.9730836188
387.56650,0.3626948034
387.56700,-0.247694012
387.56750,-0.247694012
387.56800,0.6678892111
387.56850,0.9730836188
387.56900,0.3626948034
387.56950,0.05750039565
387.57000,0.6678892111
387.57050,0.9730836188
387.57100,0.6678892111
387.57150,0.6678892111
387.57200,1.583472434
387.57250,2.19386125
387.57300,1.583472434
387.57350,0.05750039565
387.57400,0.05750039565
387.57450,1.278278026
387.57500,1.583472434
387.57550,0.05750039565
387.57600,-0.5528884197
387.57650,0.6678892111
387.57700,2.19386125
387.57750,1.888666842
387.57800,0.6678892111
387.57850,1.278278026
387.57900,2.804250065
387.57950,2.804250065
387.58000,1.278278026
387.58050,0.3626948034
387.58100,1.583472434
387.58150,1.888666842
387.58200,0.9730836188
387.58250,0.05750039565
387.58300,0.6678892111
387.58350,1.583472434
387.58400,1.278278026
387.58450,0.6678892111
387.58500,0.9730836188
387.58550,1.278278026
387.58600,0.3626948034
387.58650,0.05750039565
387.58700,0.9730836188
387.58750,2.499055657
387.58800,2.19386125
387.58850,0.9730836188
387.58900,0.6678892111
387.58950,1.583472434
387.59000,1.583472434
387.59050,0.05750039565
387.59100,-1.163277235
387.59150,-0.8580828275
387.59200,1.278278026
387.59250,5.550999734
