"type","name","time_units","begin_time","frequency","count","units"
"signal","Ultium EMG-FLEX.CAPR.U RT","s",230.98000,2000,22000,"uV"

"time","value"
230.98000,-1.200492345
230.98050,-0.5901035299
230.98100,0.3254796932
230.98150,2.156646139
230.98200,2.156646139
230.98250,2.156646139
230.98300,4.293006993
230.98350,7.039756663
230.98400,5.513784624
230.98450,-0.5901035299
230.98500,-7.304380499
230.98550,-11.57710221
230.98600,-14.62904628
230.98650,-16.15501832
230.98700,-13.71346306
230.98750,-9.440741353
230.98800,-8.219963722
230.98850,-9.135546946
230.98900,-6.999186092
230.98950,-1.505686753
230.99000,0.9358685086
230.99050,-0.5901035299
230.99100,0.02028528547
230.99150,7.650145478
230.99200,14.97481126
230.99250,15.58520008
230.99300,12.83845041
230.99350,12.533256
230.99400,13.75403363
230.99450,11.61767278
230.99500,6.734562255
230.99550,3.987812586
230.99600,3.682618178
230.99650,1.851451732
230.99700,-0.8952979376
230.99750,-1.505686753
230.99800,0.3254796932
230.99850,2.461840547
230.99900,2.767034955
230.99950,3.37742377
231.00000,4.903395809
231.00050,5.818979032
231.00100,5.513784624
231.00150,5.513784624
231.00200,5.513784624
231.00250,3.987812586
231.00300,0.3254796932
231.00350,-3.031658792
231.00400,-4.55763083
231.00450,-3.336853199
231.00500,-1.200492345
231.00550,-0.2849091222
231.00600,-0.8952979376
231.00650,-2.726464384
231.00700,-3.336853199
231.00750,-1.810881161
231.00800,0.6306741009
231.00850,2.461840547
231.00900,2.767034955
231.00950,0.9358685086
231.01000,-1.200492345
231.01050,-3.031658792
231.01100,-3.031658792
231.01150,-1.505686753
231.01200,0.02028528547
231.01250,1.546257324
231.01300,2.461840547
231.01350,2.461840547
231.01400,1.546257324
231.01450,0.3254796932
231.01500,0.02028528547
231.01550,-0.5901035299
231.01600,-2.116075568
231.01650,-4.252436422
231.01700,-4.862825238
231.01750,-3.336853199
231.01800,-1.505686753
231.01850,-1.505686753
231.01900,-2.726464384
231.01950,-4.252436422
231.02000,-5.168019645
231.02050,-6.388797276
231.02100,-8.219963722
231.02150,-9.440741353
231.02200,-9.440741353
231.02250,-8.52515813
231.02300,-6.999186092
231.02350,-5.778408461
231.02400,-4.862825238
231.02450,-4.252436422
231.02500,-2.726464384
231.02550,0.6306741009
231.02600,3.987812586
231.02650,4.293006993
231.02700,0.9358685086
231.02750,-3.031658792
231.02800,-4.55763083
231.02850,-3.642047607
231.02900,-3.031658792
231.02950,-3.947242015
231.03000,-5.168019645
231.03050,-6.083602869
231.03100,-7.914769315
231.03150,-9.135546946
231.03200,-7.609574907
231.03250,-3.336853199
231.03300,-0.8952979376
231.03350,-1.200492345
231.03400,-0.5901035299
231.03450,3.072229362
231.03500,7.34495107
231.03550,7.955339886
231.03600,5.208590216
231.03650,3.072229362
231.03700,4.293006993
231.03750,6.124173439
231.03800,6.429367847
231.03850,4.903395809
231.03900,3.072229362
231.03950,3.072229362
231.04000,5.513784624
231.04050,9.176117517
231.04100,11.00728396
231.04150,9.481311924
231.04200,5.513784624
231.04250,1.851451732
231.04300,0.9358685086
231.04350,3.682618178
231.04400,8.260534293
231.04450,10.39689515
231.04500,8.260534293
231.04550,4.293006993
231.04600,1.241062916
231.04650,0.02028528547
231.04700,-1.810881161
231.04750,-3.947242015
231.04800,-5.168019645
231.04850,-4.55763083
231.04900,-3.947242015
231.04950,-3.642047607
231.05000,-3.642047607
231.05050,-3.947242015
231.05100,-4.862825238
231.05150,-5.778408461
231.05200,-5.473214053
231.05250,-5.168019645
231.05300,-6.388797276
231.05350,-7.304380499
231.05400,-6.388797276
231.05450,-3.642047607
231.05500,-2.116075568
231.05550,-2.726464384
231.05600,-3.642047607
231.05650,-3.336853199
231.05700,-2.421269976
231.05750,-1.505686753
231.05800,-0.2849091222
231.05850,0.6306741009
231.05900,0.9358685086
231.05950,0.9358685086
231.06000,0.9358685086
231.06050,0.02028528547
231.06100,-3.947242015
231.06150,-7.609574907
231.06200,-7.609574907
231.06250,-4.862825238
231.06300,-3.336853199
231.06350,-4.252436422
231.06400,-5.778408461
231.06450,-5.778408461
231.06500,-5.168019645
231.06550,-5.168019645
231.06600,-4.55763083
231.06650,-1.505686753
231.06700,2.461840547
231.06750,6.124173439
231.06800,6.429367847
231.06850,3.682618178
231.06900,-0.5901035299
231.06950,-5.168019645
231.07000,-8.52515813
231.07050,-9.745935761
231.07100,-8.52515813
231.07150,-5.168019645
231.07200,-1.810881161
231.07250,0.3254796932
231.07300,3.072229362
231.07350,5.513784624
231.07400,5.818979032
231.07450,3.072229362
231.07500,1.851451732
231.07550,6.734562255
231.07600,14.05922804
231.07650,17.41636652
231.07700,14.97481126
231.07750,11.00728396
231.07800,9.481311924
231.07850,8.565728701
231.07900,5.818979032
231.07950,2.767034955
231.08000,1.851451732
231.08050,2.156646139
231.08100,0.9358685086
231.08150,0.02028528547
231.08200,0.3254796932
231.08250,1.851451732
231.08300,2.461840547
231.08350,0.6306741009
231.08400,-0.5901035299
231.08450,-0.8952979376
231.08500,0.3254796932
231.08550,1.241062916
231.08600,1.241062916
231.08650,0.02028528547
231.08700,-0.8952979376
231.08750,-0.5901035299
231.08800,0.02028528547
231.08850,0.9358685086
231.08900,0.6306741009
231.08950,0.6306741009
231.09000,0.3254796932
231.09050,0.02028528547
231.09100,0.02028528547
231.09150,-0.8952979376
231.09200,-1.810881161
231.09250,-2.421269976
231.09300,-2.726464384
231.09350,-2.421269976
231.09400,-1.810881161
231.09450,-0.8952979376
231.09500,0.3254796932
231.09550,1.241062916
231.09600,0.6306741009
231.09650,0.3254796932
231.09700,2.767034955
231.09750,6.429367847
231.09800,7.039756663
231.09850,2.461840547
231.09900,-2.116075568
231.09950,-3.031658792
231.10000,-1.810881161
231.10050,-1.810881161
231.10100,-2.421269976
231.10150,-1.810881161
231.10200,-1.505686753
231.10250,-4.55763083
231.10300,-9.135546946
231.10350,-9.745935761
231.10400,-5.168019645
231.10450,-0.5901035299
231.10500,0.3254796932
231.10550,0.3254796932
231.10600,1.851451732
231.10650,3.37742377
231.10700,2.156646139
231.10750,-0.2849091222
231.10800,-1.505686753
231.10850,-1.505686753
231.10900,-1.505686753
231.10950,-2.116075568
231.11000,-1.810881161
231.11050,-1.810881161
231.11100,-3.031658792
231.11150,-4.862825238
231.11200,-5.778408461
231.11250,-4.862825238
231.11300,-3.947242015
231.11350,-3.642047607
231.11400,-3.642047607
231.11450,-3.031658792
231.11500,-2.421269976
231.11550,-1.200492345
231.11600,0.3254796932
231.11650,2.156646139
231.11700,1.546257324
231.11750,-0.2849091222
231.11800,-1.810881161
231.11850,0.3254796932
231.11900,5.513784624
231.11950,10.39689515
231.12000,11.31247837
231.12050,8.870923109
231.12100,6.734562255
231.12150,6.124173439
231.12200,7.34495107
231.12250,8.260534293
231.12300,7.955339886
231.12350,7.039756663
231.12400,5.513784624
231.12450,4.598201401
231.12500,3.682618178
231.12550,2.156646139
231.12600,0.3254796932
231.12650,-0.8952979376
231.12700,-1.200492345
231.12750,0.02028528547
231.12800,0.6306741009
231.12850,1.241062916
231.12900,2.156646139
231.12950,3.682618178
231.13000,4.598201401
231.13050,3.987812586
231.13100,1.851451732
231.13150,0.6306741009
231.13200,1.546257324
231.13250,3.37742377
231.13300,3.987812586
231.13350,3.072229362
231.13400,1.546257324
231.13450,0.3254796932
231.13500,0.02028528547
231.13550,0.02028528547
231.13600,-0.5901035299
231.13650,-1.505686753
231.13700,-2.421269976
231.13750,-3.031658792
231.13800,-2.726464384
231.13850,-1.810881161
231.13900,-0.2849091222
231.13950,0.3254796932
231.14000,0.6306741009
231.14050,-0.5901035299
231.14100,-3.031658792
231.14150,-5.168019645
231.14200,-4.862825238
231.14250,-2.421269976
231.14300,0.02028528547
231.14350,1.851451732
231.14400,3.072229362
231.14450,3.37742377
231.14500,1.546257324
231.14550,-1.505686753
231.14600,-3.336853199
231.14650,-2.421269976
231.14700,-0.8952979376
231.14750,-0.2849091222
231.14800,-0.2849091222
231.14850,0.6306741009
231.14900,2.767034955
231.14950,3.682618178
231.15000,3.072229362
231.15050,1.851451732
231.15100,1.241062916
231.15150,0.6306741009
231.15200,0.02028528547
231.15250,0.3254796932
231.15300,0.6306741009
231.15350,0.9358685086
231.15400,1.241062916
231.15450,0.6306741009
231.15500,-1.505686753
231.15550,-4.252436422
231.15600,-4.55763083
231.15650,-2.726464384
231.15700,-2.116075568
231.15750,-4.55763083
231.15800,-6.083602869
231.15850,-3.947242015
231.15900,-0.2849091222
231.15950,-0.8952979376
231.16000,-4.862825238
231.16050,-7.914769315
231.16100,-6.999186092
231.16150,-3.031658792
231.16200,0.9358685086
231.16250,4.903395809
231.16300,9.481311924
231.16350,14.66961686
231.16400,18.94233856
231.16450,21.07869942
231.16500,20.77350501
231.16550,17.41636652
231.16600,12.22806159
231.16650,5.818979032
231.16700,-0.8952979376
231.16750,-6.693991684
231.16800,-7.609574907
231.16850,-4.862825238
231.16900,-3.336853199
231.16950,-5.168019645
231.17000,-7.914769315
231.17050,-6.999186092
231.17100,-5.168019645
231.17150,-5.473214053
231.17200,-6.999186092
231.17250,-6.388797276
231.17300,-3.947242015
231.17350,-3.031658792
231.17400,-4.862825238
231.17450,-5.778408461
231.17500,-4.252436422
231.17550,-1.810881161
231.17600,-0.8952979376
231.17650,-1.505686753
231.17700,-3.031658792
231.17750,-4.55763083
231.17800,-5.168019645
231.17850,-4.862825238
231.17900,-3.642047607
231.17950,-3.031658792
231.18000,-2.421269976
231.18050,-1.200492345
231.18100,0.02028528547
231.18150,0.3254796932
231.18200,-0.2849091222
231.18250,-0.8952979376
231.18300,-1.505686753
231.18350,-1.505686753
231.18400,-0.2849091222
231.18450,0.9358685086
231.18500,0.3254796932
231.18550,-3.947242015
231.18600,-8.52515813
231.18650,-7.914769315
231.18700,-3.336853199
231.18750,-0.2849091222
231.18800,-1.810881161
231.18850,-4.862825238
231.18900,-5.778408461
231.18950,-5.168019645
231.19000,-4.862825238
231.19050,-4.55763083
231.19100,-3.031658792
231.19150,-2.116075568
231.19200,-2.421269976
231.19250,-3.947242015
231.19300,-4.862825238
231.19350,-5.168019645
231.19400,-5.778408461
231.19450,-5.473214053
231.19500,-4.55763083
231.19550,-4.252436422
231.19600,-5.168019645
231.19650,-6.083602869
231.19700,-4.862825238
231.19750,-2.726464384
231.19800,-1.810881161
231.19850,-2.116075568
231.19900,-1.200492345
231.19950,0.6306741009
231.20000,2.767034955
231.20050,3.987812586
231.20100,4.903395809
231.20150,5.513784624
231.20200,5.208590216
231.20250,4.598201401
231.20300,4.903395809
231.20350,6.429367847
231.20400,7.34495107
231.20450,7.34495107
231.20500,7.955339886
231.20550,8.870923109
231.20600,8.870923109
231.20650,7.039756663
231.20700,4.903395809
231.20750,4.293006993
231.20800,3.37742377
231.20850,0.6306741009
231.20900,-1.810881161
231.20950,-2.116075568
231.21000,0.9358685086
231.21050,4.293006993
231.21100,4.903395809
231.21150,3.072229362
231.21200,1.241062916
231.21250,0.02028528547
231.21300,-2.726464384
231.21350,-5.778408461
231.21400,-6.999186092
231.21450,-4.862825238
231.21500,-0.8952979376
231.21550,1.546257324
231.21600,3.37742377
231.21650,5.513784624
231.21700,7.039756663
231.21750,4.903395809
231.21800,-0.5901035299
231.21850,-5.168019645
231.21900,-4.862825238
231.21950,-1.505686753
231.22000,-0.2849091222
231.22050,-0.2849091222
231.22100,0.6306741009
231.22150,3.37742377
231.22200,5.208590216
231.22250,5.513784624
231.22300,5.208590216
231.22350,5.513784624
231.22400,4.598201401
231.22450,2.461840547
231.22500,1.851451732
231.22550,2.461840547
231.22600,3.072229362
231.22650,3.682618178
231.22700,6.124173439
231.22750,8.260534293
231.22800,6.734562255
231.22850,2.461840547
231.22900,0.3254796932
231.22950,2.156646139
231.23000,3.072229362
231.23050,-0.2849091222
231.23100,-5.778408461
231.23150,-8.52515813
231.23200,-10.35632458
231.23250,-13.71346306
231.23300,-16.46021273
231.23350,-14.32385188
231.23400,-9.440741353
231.23450,-7.609574907
231.23500,-9.745935761
231.23550,-9.440741353
231.23600,-4.55763083
231.23650,-0.8952979376
231.23700,-1.200492345
231.23750,-1.505686753
231.23800,2.767034955
231.23850,10.70208956
231.23900,15.58520008
231.23950,15.28000567
231.24000,11.61767278
231.24050,8.260534293
231.24100,6.429367847
231.24150,6.734562255
231.24200,7.650145478
231.24250,7.955339886
231.24300,7.955339886
231.24350,9.176117517
231.24400,11.31247837
231.24450,12.22806159
231.24500,11.92286719
231.24550,11.00728396
231.24600,9.176117517
231.24650,3.072229362
231.24700,-5.473214053
231.24750,-11.88229661
231.24800,-12.49268543
231.24850,-10.05113017
231.24900,-8.830352538
231.24950,-8.219963722
231.25000,-6.388797276
231.25050,-3.947242015
231.25100,-3.336853199
231.25150,-4.55763083
231.25200,-4.55763083
231.25250,-2.421269976
231.25300,0.02028528547
231.25350,0.3254796932
231.25400,-0.5901035299
231.25450,-2.116075568
231.25500,-2.421269976
231.25550,-1.200492345
231.25600,0.3254796932
231.25650,2.156646139
231.25700,2.461840547
231.25750,0.3254796932
231.25800,-2.726464384
231.25850,-5.168019645
231.25900,-5.473214053
231.25950,-5.473214053
231.26000,-7.609574907
231.26050,-10.35632458
231.26100,-10.96671339
231.26150,-8.219963722
231.26200,-3.947242015
231.26250,0.02028528547
231.26300,3.37742377
231.26350,7.650145478
231.26400,9.786506332
231.26450,8.260534293
231.26500,4.903395809
231.26550,3.072229362
231.26600,2.461840547
231.26650,1.851451732
231.26700,0.02028528547
231.26750,-1.200492345
231.26800,-1.505686753
231.26850,-1.505686753
231.26900,-2.116075568
231.26950,-2.421269976
231.27000,-1.200492345
231.27050,0.6306741009
231.27100,2.767034955
231.27150,3.682618178
231.27200,3.37742377
231.27250,2.461840547
231.27300,1.546257324
231.27350,0.9358685086
231.27400,0.02028528547
231.27450,-0.2849091222
231.27500,0.02028528547
231.27550,0.9358685086
231.27600,0.6306741009
231.27650,-0.5901035299
231.27700,-1.505686753
231.27750,-0.5901035299
231.27800,1.546257324
231.27850,2.767034955
231.27900,2.156646139
231.27950,1.241062916
231.28000,1.546257324
231.28050,2.156646139
231.28100,2.156646139
231.28150,-0.5901035299
231.28200,-5.473214053
231.28250,-10.05113017
231.28300,-11.2719078
231.28350,-8.830352538
231.28400,-5.778408461
231.28450,-4.862825238
231.28500,-6.083602869
231.28550,-6.999186092
231.28600,-5.778408461
231.28650,-3.031658792
231.28700,0.02028528547
231.28750,3.072229362
231.28800,4.598201401
231.28850,3.682618178
231.28900,2.461840547
231.28950,1.851451732
231.29000,2.156646139
231.29050,1.546257324
231.29100,0.3254796932
231.29150,-0.5901035299
231.29200,-1.505686753
231.29250,-3.031658792
231.29300,-4.55763083
231.29350,-4.55763083
231.29400,-3.031658792
231.29450,-1.200492345
231.29500,-0.5901035299
231.29550,0.3254796932
231.29600,2.156646139
231.29650,3.987812586
231.29700,6.124173439
231.29750,7.650145478
231.29800,8.260534293
231.29850,7.039756663
231.29900,5.818979032
231.29950,6.124173439
231.30000,7.650145478
231.30050,7.650145478
231.30100,6.124173439
231.30150,5.513784624
231.30200,6.124173439
231.30250,6.734562255
231.30300,5.818979032
231.30350,5.208590216
231.30400,5.513784624
231.30450,5.208590216
231.30500,4.293006993
231.30550,3.682618178
231.30600,4.903395809
231.30650,6.429367847
231.30700,7.039756663
231.30750,6.429367847
231.30800,4.903395809
231.30850,2.156646139
231.30900,-0.2849091222
231.30950,-1.505686753
231.31000,-1.505686753
231.31050,-1.200492345
231.31100,-1.810881161
231.31150,-3.642047607
231.31200,-5.473214053
231.31250,-6.388797276
231.31300,-6.083602869
231.31350,-4.55763083
231.31400,-2.421269976
231.31450,-1.200492345
231.31500,-0.2849091222
231.31550,-0.2849091222
231.31600,-0.5901035299
231.31650,0.3254796932
231.31700,2.461840547
231.31750,3.987812586
231.31800,2.156646139
231.31850,-2.116075568
231.31900,-5.473214053
231.31950,-6.083602869
231.32000,-5.778408461
231.32050,-4.862825238
231.32100,-2.116075568
231.32150,2.156646139
231.32200,6.124173439
231.32250,7.650145478
231.32300,8.565728701
231.32350,9.481311924
231.32400,9.481311924
231.32450,7.039756663
231.32500,3.37742377
231.32550,0.02028528547
231.32600,-4.252436422
231.32650,-10.96671339
231.32700,-18.29137918
231.32750,-22.56410088
231.32800,-21.95371207
231.32850,-18.29137918
231.32900,-14.32385188
231.32950,-11.57710221
231.33000,-10.35632458
231.33050,-8.830352538
231.33100,-5.778408461
231.33150,-3.031658792
231.33200,-2.116075568
231.33250,-1.810881161
231.33300,1.546257324
231.33350,8.260534293
231.33400,13.75403363
231.33450,14.36442245
231.33500,11.92286719
231.33550,10.39689515
231.33600,9.176117517
231.33650,6.429367847
231.33700,1.851451732
231.33750,-0.2849091222
231.33800,2.156646139
231.33850,6.124173439
231.33900,7.34495107
231.33950,4.293006993
231.34000,0.6306741009
231.34050,-0.2849091222
231.34100,-0.2849091222
231.34150,-2.726464384
231.34200,-7.304380499
231.34250,-10.66151898
231.34300,-11.88229661
231.34350,-11.57710221
231.34400,-10.05113017
231.34450,-4.862825238
231.34500,1.546257324
231.34550,5.818979032
231.34600,5.513784624
231.34650,3.682618178
231.34700,3.072229362
231.34750,2.767034955
231.34800,1.546257324
231.34850,0.6306741009
231.34900,1.241062916
231.34950,2.156646139
231.35000,2.156646139
231.35050,1.546257324
231.35100,1.546257324
231.35150,1.546257324
231.35200,-0.2849091222
231.35250,-2.726464384
231.35300,-4.55763083
231.35350,-6.083602869
231.35400,-7.304380499
231.35450,-5.473214053
231.35500,-0.8952979376
231.35550,1.546257324
231.35600,-0.8952979376
231.35650,-5.473214053
231.35700,-5.168019645
231.35750,0.02028528547
231.35800,5.513784624
231.35850,7.650145478
231.35900,7.955339886
231.35950,6.429367847
231.36000,1.851451732
231.36050,-2.421269976
231.36100,-3.031658792
231.36150,0.02028528547
231.36200,1.851451732
231.36250,-0.2849091222
231.36300,-3.031658792
231.36350,-3.031658792
231.36400,-1.200492345
231.36450,0.02028528547
231.36500,1.546257324
231.36550,3.072229362
231.36600,3.072229362
231.36650,0.6306741009
231.36700,-2.116075568
231.36750,-3.336853199
231.36800,-3.947242015
231.36850,-6.388797276
231.36900,-9.135546946
231.36950,-8.830352538
231.37000,-5.473214053
231.37050,-2.726464384
231.37100,-2.421269976
231.37150,-3.031658792
231.37200,-2.726464384
231.37250,-2.116075568
231.37300,-1.810881161
231.37350,-2.421269976
231.37400,-3.336853199
231.37450,-4.252436422
231.37500,-3.642047607
231.37550,-1.200492345
231.37600,1.241062916
231.37650,2.156646139
231.37700,1.241062916
231.37750,0.9358685086
231.37800,2.461840547
231.37850,3.987812586
231.37900,3.682618178
231.37950,2.461840547
231.38000,1.851451732
231.38050,1.851451732
231.38100,1.241062916
231.38150,-0.2849091222
231.38200,-3.031658792
231.38250,-6.083602869
231.38300,-7.914769315
231.38350,-6.388797276
231.38400,-2.116075568
231.38450,0.3254796932
231.38500,-0.2849091222
231.38550,-2.116075568
231.38600,-0.5901035299
231.38650,3.682618178
231.38700,6.734562255
231.38750,5.513784624
231.38800,3.682618178
231.38850,4.598201401
231.38900,7.34495107
231.38950,9.176117517
231.39000,9.481311924
231.39050,9.481311924
231.39100,9.786506332
231.39150,9.786506332
231.39200,9.786506332
231.39250,10.09170074
231.39300,9.176117517
231.39350,6.734562255
231.39400,3.987812586
231.39450,3.072229362
231.39500,3.37742377
231.39550,2.767034955
231.39600,0.3254796932
231.39650,-1.810881161
231.39700,-3.336853199
231.39750,-4.862825238
231.39800,-6.083602869
231.39850,-6.999186092
231.39900,-6.999186092
231.39950,-7.304380499
231.40000,-6.693991684
231.40050,-3.947242015
231.40100,0.02028528547
231.40150,3.987812586
231.40200,6.124173439
231.40250,6.124173439
231.40300,4.598201401
231.40350,2.156646139
231.40400,0.6306741009
231.40450,0.6306741009
231.40500,1.546257324
231.40550,1.241062916
231.40600,0.3254796932
231.40650,0.3254796932
231.40700,0.9358685086
231.40750,-1.200492345
231.40800,-6.693991684
231.40850,-10.35632458
231.40900,-10.35632458
231.40950,-9.135546946
231.41000,-10.35632458
231.41050,-12.49268543
231.41100,-12.18749102
231.41150,-8.830352538
231.41200,-3.947242015
231.41250,0.02028528547
231.41300,0.3254796932
231.41350,-2.116075568
231.41400,-5.473214053
231.41450,-4.55763083
231.41500,1.851451732
231.41550,8.565728701
231.41600,11.31247837
231.41650,10.70208956
231.41700,10.70208956
231.41750,11.61767278
231.41800,11.31247837
231.41850,9.786506332
231.41900,8.565728701
231.41950,7.34495107
231.42000,3.682618178
231.42050,-0.5901035299
231.42100,-3.336853199
231.42150,-2.726464384
231.42200,-1.200492345
231.42250,-1.505686753
231.42300,-3.336853199
231.42350,-4.862825238
231.42400,-5.473214053
231.42450,-6.083602869
231.42500,-6.388797276
231.42550,-6.083602869
231.42600,-4.252436422
231.42650,-2.116075568
231.42700,-1.810881161
231.42750,-2.421269976
231.42800,-1.200492345
231.42850,1.241062916
231.42900,2.461840547
231.42950,0.02028528547
231.43000,-2.726464384
231.43050,-3.031658792
231.43100,-1.200492345
231.43150,0.02028528547
231.43200,0.9358685086
231.43250,4.293006993
231.43300,8.260534293
231.43350,9.786506332
231.43400,7.955339886
231.43450,5.208590216
231.43500,3.072229362
231.43550,0.6306741009
231.43600,-0.8952979376
231.43650,-2.116075568
231.43700,-4.55763083
231.43750,-10.05113017
231.43800,-15.2394351
231.43850,-16.15501832
231.43900,-12.79787984
231.43950,-10.05113017
231.44000,-8.52515813
231.44050,-5.778408461
231.44100,-2.116075568
231.44150,-1.810881161
231.44200,-5.168019645
231.44250,-6.388797276
231.44300,-0.8952979376
231.44350,5.818979032
231.44400,8.260534293
231.44450,6.124173439
231.44500,4.293006993
231.44550,3.987812586
231.44600,2.156646139
231.44650,-0.5901035299
231.44700,-0.2849091222
231.44750,2.461840547
231.44800,3.987812586
231.44850,1.546257324
231.44900,-0.5901035299
231.44950,0.02028528547
231.45000,2.461840547
231.45050,4.293006993
231.45100,5.208590216
231.45150,5.513784624
231.45200,3.682618178
231.45250,-0.8952979376
231.45300,-5.473214053
231.45350,-5.473214053
231.45400,-1.810881161
231.45450,0.9358685086
231.45500,1.851451732
231.45550,0.9358685086
231.45600,0.02028528547
231.45650,-1.505686753
231.45700,-2.726464384
231.45750,-2.116075568
231.45800,-1.505686753
231.45850,-1.810881161
231.45900,-1.810881161
231.45950,-0.2849091222
231.46000,0.02028528547
231.46050,-1.505686753
231.46100,-3.031658792
231.46150,-0.8952979376
231.46200,2.767034955
231.46250,5.208590216
231.46300,6.734562255
231.46350,10.39689515
231.46400,12.83845041
231.46450,10.09170074
231.46500,3.682618178
231.46550,0.6306741009
231.46600,3.682618178
231.46650,5.513784624
231.46700,2.767034955
231.46750,-0.2849091222
231.46800,-0.2849091222
231.46850,1.241062916
231.46900,0.6306741009
231.46950,-0.8952979376
231.47000,-1.200492345
231.47050,-0.2849091222
231.47100,-0.5901035299
231.47150,-0.2849091222
231.47200,1.241062916
231.47250,2.767034955
231.47300,1.851451732
231.47350,0.02028528547
231.47400,1.546257324
231.47450,4.903395809
231.47500,6.734562255
231.47550,6.429367847
231.47600,7.039756663
231.47650,9.786506332
231.47700,11.31247837
231.47750,9.481311924
231.47800,5.818979032
231.47850,2.767034955
231.47900,0.6306741009
231.47950,-0.5901035299
231.48000,-1.505686753
231.48050,-0.5901035299
231.48100,1.241062916
231.48150,1.241062916
231.48200,-3.031658792
231.48250,-9.745935761
231.48300,-13.40826865
231.48350,-10.66151898
231.48400,-4.55763083
231.48450,-0.8952979376
231.48500,-1.505686753
231.48550,-2.421269976
231.48600,0.02028528547
231.48650,4.598201401
231.48700,7.039756663
231.48750,5.818979032
231.48800,3.072229362
231.48850,1.546257324
231.48900,2.156646139
231.48950,3.37742377
231.49000,3.682618178
231.49050,1.851451732
231.49100,-0.5901035299
231.49150,-2.421269976
231.49200,-3.031658792
231.49250,-4.252436422
231.49300,-6.083602869
231.49350,-6.693991684
231.49400,-3.947242015
231.49450,0.02028528547
231.49500,3.682618178
231.49550,4.293006993
231.49600,3.072229362
231.49650,2.156646139
231.49700,5.208590216
231.49750,11.92286719
231.49800,19.24753297
231.49850,21.99428264
231.49900,19.85792179
231.49950,14.97481126
231.50000,10.09170074
231.50050,5.208590216
231.50100,0.9358685086
231.50150,-2.116075568
231.50200,-3.642047607
231.50250,-4.862825238
231.50300,-5.778408461
231.50350,-5.473214053
231.50400,-3.642047607
231.50450,-1.505686753
231.50500,-1.505686753
231.50550,-2.726464384
231.50600,-2.726464384
231.50650,-1.810881161
231.50700,-1.505686753
231.50750,-3.031658792
231.50800,-4.862825238
231.50850,-5.168019645
231.50900,-3.947242015
231.50950,-3.336853199
231.51000,-4.55763083
231.51050,-6.999186092
231.51100,-9.135546946
231.51150,-9.745935761
231.51200,-9.440741353
231.51250,-9.745935761
231.51300,-10.35632458
231.51350,-9.440741353
231.51400,-6.083602869
231.51450,-3.031658792
231.51500,-1.200492345
231.51550,0.3254796932
231.51600,2.767034955
231.51650,3.682618178
231.51700,1.546257324
231.51750,-2.116075568
231.51800,-4.252436422
231.51850,-4.252436422
231.51900,-3.336853199
231.51950,-2.421269976
231.52000,-0.5901035299
231.52050,0.3254796932
231.52100,-1.505686753
231.52150,-4.252436422
231.52200,-3.642047607
231.52250,-0.2849091222
231.52300,0.6306741009
231.52350,-2.116075568
231.52400,-5.168019645
231.52450,-4.862825238
231.52500,-3.336853199
231.52550,-3.336853199
231.52600,-4.252436422
231.52650,-2.726464384
231.52700,-0.5901035299
231.52750,0.3254796932
231.52800,0.3254796932
231.52850,1.241062916
231.52900,3.37742377
231.52950,3.682618178
231.53000,2.156646139
231.53050,0.3254796932
231.53100,0.9358685086
231.53150,2.767034955
231.53200,2.156646139
231.53250,-1.200492345
231.53300,-5.778408461
231.53350,-7.304380499
231.53400,-5.168019645
231.53450,-1.505686753
231.53500,0.02028528547
231.53550,0.02028528547
231.53600,-0.2849091222
231.53650,0.02028528547
231.53700,-0.2849091222
231.53750,-0.5901035299
231.53800,-0.8952979376
231.53850,-0.2849091222
231.53900,0.6306741009
231.53950,1.546257324
231.54000,1.546257324
231.54050,0.3254796932
231.54100,-1.200492345
231.54150,-2.726464384
231.54200,-3.947242015
231.54250,-4.55763083
231.54300,-4.862825238
231.54350,-3.947242015
231.54400,-3.642047607
231.54450,-4.252436422
231.54500,-4.55763083
231.54550,-3.031658792
231.54600,-0.8952979376
231.54650,-0.5901035299
231.54700,-1.200492345
231.54750,-0.5901035299
231.54800,1.851451732
231.54850,4.293006993
231.54900,4.903395809
231.54950,4.903395809
231.55000,5.208590216
231.55050,5.818979032
231.55100,6.124173439
231.55150,5.818979032
231.55200,2.461840547
231.55250,-4.862825238
231.55300,-11.88229661
231.55350,-13.10307425
231.55400,-8.830352538
231.55450,-5.778408461
231.55500,-6.083602869
231.55550,-6.388797276
231.55600,-3.336853199
231.55650,0.6306741009
231.55700,2.156646139
231.55750,0.9358685086
231.55800,-0.5901035299
231.55850,-1.810881161
231.55900,-2.421269976
231.55950,-2.421269976
231.56000,-1.200492345
231.56050,-0.2849091222
231.56100,0.6306741009
231.56150,1.546257324
231.56200,2.156646139
231.56250,1.546257324
231.56300,0.6306741009
231.56350,2.156646139
231.56400,5.208590216
231.56450,5.818979032
231.56500,2.767034955
231.56550,-0.8952979376
231.56600,-3.031658792
231.56650,-3.031658792
231.56700,-3.642047607
231.56750,-4.862825238
231.56800,-6.388797276
231.56850,-6.693991684
231.56900,-6.083602869
231.56950,-4.252436422
231.57000,-1.200492345
231.57050,1.546257324
231.57100,3.37742377
231.57150,2.767034955
231.57200,1.851451732
231.57250,5.208590216
231.57300,13.44883922
231.57350,21.99428264
231.57400,25.04622672
231.57450,20.77350501
231.57500,13.44883922
231.57550,7.650145478
231.57600,3.37742377
231.57650,-0.2849091222
231.57700,-3.336853199
231.57750,-4.252436422
231.57800,-3.336853199
231.57850,-2.726464384
231.57900,-3.031658792
231.57950,-3.642047607
231.58000,-3.947242015
231.58050,-3.031658792
231.58100,-2.116075568
231.58150,-1.200492345
231.58200,-0.5901035299
231.58250,0.02028528547
231.58300,1.241062916
231.58350,1.851451732
231.58400,0.02028528547
231.58450,-3.947242015
231.58500,-5.473214053
231.58550,-2.726464384
231.58600,1.241062916
231.58650,2.767034955
231.58700,2.156646139
231.58750,1.546257324
231.58800,3.072229362
231.58850,5.513784624
231.58900,7.039756663
231.58950,6.734562255
231.59000,5.513784624
231.59050,4.293006993
231.59100,4.598201401
231.59150,6.734562255
231.59200,8.870923109
231.59250,9.786506332
231.59300,8.870923109
231.59350,7.34495107
231.59400,5.818979032
231.59450,4.598201401
231.59500,3.37742377
231.59550,2.767034955
231.59600,2.767034955
231.59650,2.767034955
231.59700,1.851451732
231.59750,0.3254796932
231.59800,-0.8952979376
231.59850,-1.810881161
231.59900,-1.200492345
231.59950,-0.2849091222
231.60000,-0.2849091222
231.60050,-1.505686753
231.60100,-3.336853199
231.60150,-3.947242015
231.60200,-3.336853199
231.60250,-2.421269976
231.60300,-2.421269976
231.60350,-3.336853199
231.60400,-4.862825238
231.60450,-5.168019645
231.60500,-4.862825238
231.60550,-4.252436422
231.60600,-4.252436422
231.60650,-3.947242015
231.60700,-3.947242015
231.60750,-4.55763083
231.60800,-6.388797276
231.60850,-7.304380499
231.60900,-6.083602869
231.60950,-2.726464384
231.61000,0.3254796932
231.61050,2.461840547
231.61100,4.293006993
231.61150,5.818979032
231.61200,6.124173439
231.61250,6.734562255
231.61300,8.870923109
231.61350,11.92286719
231.61400,11.92286719
231.61450,8.260534293
231.61500,4.293006993
231.61550,4.293006993
231.61600,6.429367847
231.61650,5.818979032
231.61700,1.851451732
231.61750,-1.200492345
231.61800,-1.810881161
231.61850,-2.726464384
231.61900,-5.778408461
231.61950,-9.745935761
231.62000,-12.18749102
231.62050,-12.49268543
231.62100,-12.79787984
231.62150,-12.49268543
231.62200,-11.2719078
231.62250,-9.135546946
231.62300,-6.083602869
231.62350,-0.8952979376
231.62400,4.293006993
231.62450,7.34495107
231.62500,6.734562255
231.62550,6.124173439
231.62600,7.955339886
231.62650,9.786506332
231.62700,7.955339886
231.62750,3.682618178
231.62800,0.9358685086
231.62850,0.3254796932
231.62900,-1.200492345
231.62950,-5.168019645
231.63000,-8.219963722
231.63050,-8.219963722
231.63100,-6.083602869
231.63150,-3.947242015
231.63200,-2.116075568
231.63250,-1.200492345
231.63300,-0.8952979376
231.63350,0.3254796932
231.63400,3.072229362
231.63450,6.734562255
231.63500,8.565728701
231.63550,8.565728701
231.63600,7.039756663
231.63650,3.682618178
231.63700,0.02028528547
231.63750,-2.421269976
231.63800,-2.116075568
231.63850,-1.810881161
231.63900,-3.336853199
231.63950,-5.473214053
231.64000,-5.778408461
231.64050,-4.862825238
231.64100,-6.083602869
231.64150,-7.914769315
231.64200,-6.999186092
231.64250,-3.336853199
231.64300,0.6306741009
231.64350,3.37742377
231.64400,5.208590216
231.64450,7.039756663
231.64500,7.039756663
231.64550,4.598201401
231.64600,3.37742377
231.64650,5.818979032
231.64700,9.481311924
231.64750,11.61767278
231.64800,10.39689515
231.64850,8.260534293
231.64900,6.734562255
231.64950,6.124173439
231.65000,4.903395809
231.65050,3.072229362
231.65100,0.9358685086
231.65150,-1.200492345
231.65200,-3.031658792
231.65250,-3.031658792
231.65300,0.02028528547
231.65350,3.682618178
231.65400,5.208590216
231.65450,3.072229362
231.65500,0.6306741009
231.65550,0.02028528547
231.65600,-0.8952979376
231.65650,-4.252436422
231.65700,-9.440741353
231.65750,-14.62904628
231.65800,-18.59657358
231.65850,-20.73293444
231.65900,-21.34332325
231.65950,-21.03812885
231.66000,-20.42774003
231.66050,-19.51215681
231.66100,-15.54462951
231.66150,-10.05113017
231.66200,-6.388797276
231.66250,-5.778408461
231.66300,-3.336853199
231.66350,3.987812586
231.66400,11.31247837
231.66450,12.22806159
231.66500,8.870923109
231.66550,7.650145478
231.66600,8.870923109
231.66650,7.039756663
231.66700,2.156646139
231.66750,0.02028528547
231.66800,1.851451732
231.66850,4.598201401
231.66900,4.598201401
231.66950,3.987812586
231.67000,4.598201401
231.67050,6.429367847
231.67100,7.34495107
231.67150,8.260534293
231.67200,8.565728701
231.67250,7.039756663
231.67300,4.598201401
231.67350,2.767034955
231.67400,1.546257324
231.67450,0.02028528547
231.67500,-1.505686753
231.67550,-0.8952979376
231.67600,1.241062916
231.67650,3.37742377
231.67700,4.903395809
231.67750,6.429367847
231.67800,6.429367847
231.67850,3.072229362
231.67900,0.02028528547
231.67950,-0.2849091222
231.68000,0.02028528547
231.68050,-3.642047607
231.68100,-9.745935761
231.68150,-11.57710221
231.68200,-8.52515813
231.68250,-5.778408461
231.68300,-6.388797276
231.68350,-6.999186092
231.68400,-6.083602869
231.68450,-5.168019645
231.68500,-5.778408461
231.68550,-6.388797276
231.68600,-7.304380499
231.68650,-10.96671339
231.68700,-17.07060155
231.68750,-19.51215681
231.68800,-16.76540714
231.68850,-11.88229661
231.68900,-7.914769315
231.68950,-2.726464384
231.69000,3.072229362
231.69050,7.039756663
231.69100,7.955339886
231.69150,9.481311924
231.69200,13.75403363
231.69250,16.19558889
231.69300,14.36442245
231.69350,11.61767278
231.69400,11.00728396
231.69450,11.61767278
231.69500,9.786506332
231.69550,7.039756663
231.69600,5.513784624
231.69650,4.293006993
231.69700,1.546257324
231.69750,-0.8952979376
231.69800,-1.810881161
231.69850,-2.116075568
231.69900,-3.336853199
231.69950,-5.778408461
231.70000,-6.388797276
231.70050,-5.778408461
231.70100,-4.862825238
231.70150,-3.336853199
231.70200,-0.8952979376
231.70250,1.241062916
231.70300,1.546257324
231.70350,0.02028528547
231.70400,-0.2849091222
231.70450,1.241062916
231.70500,2.767034955
231.70550,2.767034955
231.70600,2.461840547
231.70650,2.767034955
231.70700,2.767034955
231.70750,1.241062916
231.70800,-0.2849091222
231.70850,-1.810881161
231.70900,-2.421269976
231.70950,-2.116075568
231.71000,-0.5901035299
231.71050,2.156646139
231.71100,5.208590216
231.71150,5.513784624
231.71200,2.767034955
231.71250,-0.2849091222
231.71300,-1.810881161
231.71350,-0.8952979376
231.71400,0.3254796932
231.71450,0.3254796932
231.71500,-1.200492345
231.71550,-3.031658792
231.71600,-2.726464384
231.71650,-1.505686753
231.71700,-2.116075568
231.71750,-5.778408461
231.71800,-8.52515813
231.71850,-8.219963722
231.71900,-6.083602869
231.71950,-5.473214053
231.72000,-5.473214053
231.72050,-3.336853199
231.72100,0.6306741009
231.72150,3.987812586
231.72200,4.598201401
231.72250,3.37742377
231.72300,2.156646139
231.72350,0.3254796932
231.72400,-1.505686753
231.72450,-2.116075568
231.72500,-1.505686753
231.72550,-0.5901035299
231.72600,-0.2849091222
231.72650,0.02028528547
231.72700,-0.2849091222
231.72750,-2.421269976
231.72800,-6.083602869
231.72850,-8.52515813
231.72900,-6.083602869
231.72950,0.3254796932
231.73000,7.34495107
231.73050,10.09170074
231.73100,8.260534293
231.73150,5.513784624
231.73200,4.598201401
231.73250,5.208590216
231.73300,5.513784624
231.73350,5.513784624
231.73400,6.429367847
231.73450,8.565728701
231.73500,11.31247837
231.73550,12.83845041
231.73600,13.44883922
231.73650,11.31247837
231.73700,7.039756663
231.73750,2.156646139
231.73800,-0.2849091222
231.73850,-1.810881161
231.73900,-5.473214053
231.73950,-11.2719078
231.74000,-15.84982392
231.74050,-17.07060155
231.74100,-15.54462951
231.74150,-11.88229661
231.74200,-5.778408461
231.74250,0.6306741009
231.74300,3.072229362
231.74350,0.9358685086
231.74400,0.6306741009
231.74450,5.513784624
231.74500,12.83845041
231.74550,16.19558889
231.74600,15.28000567
231.74650,13.44883922
231.74700,12.533256
231.74750,10.39689515
231.74800,7.34495107
231.74850,5.208590216
231.74900,4.293006993
231.74950,3.37742377
231.75000,1.851451732
231.75050,0.3254796932
231.75100,0.3254796932
231.75150,0.6306741009
231.75200,0.3254796932
231.75250,-1.200492345
231.75300,-3.642047607
231.75350,-6.083602869
231.75400,-7.304380499
231.75450,-7.609574907
231.75500,-8.219963722
231.75550,-8.52515813
231.75600,-7.304380499
231.75650,-5.473214053
231.75700,-4.862825238
231.75750,-6.083602869
231.75800,-6.083602869
231.75850,-3.642047607
231.75900,0.02028528547
231.75950,3.072229362
231.76000,4.293006993
231.76050,4.903395809
231.76100,5.818979032
231.76150,7.039756663
231.76200,7.039756663
231.76250,4.293006993
231.76300,0.02028528547
231.76350,-3.947242015
231.76400,-6.388797276
231.76450,-6.999186092
231.76500,-7.304380499
231.76550,-6.999186092
231.76600,-4.252436422
231.76650,-0.8952979376
231.76700,1.546257324
231.76750,3.37742377
231.76800,6.124173439
231.76850,9.481311924
231.76900,10.70208956
231.76950,8.870923109
231.77000,4.903395809
231.77050,0.9358685086
231.77100,-1.200492345
231.77150,-1.200492345
231.77200,-0.2849091222
231.77250,-1.200492345
231.77300,-6.083602869
231.77350,-10.96671339
231.77400,-10.66151898
231.77450,-5.168019645
231.77500,0.02028528547
231.77550,1.241062916
231.77600,-0.2849091222
231.77650,-1.810881161
231.77700,-2.726464384
231.77750,-3.336853199
231.77800,-4.862825238
231.77850,-5.778408461
231.77900,-6.083602869
231.77950,-5.778408461
231.78000,-4.862825238
231.78050,-4.252436422
231.78100,-4.252436422
231.78150,-4.252436422
231.78200,-3.642047607
231.78250,-2.421269976
231.78300,-0.5901035299
231.78350,1.851451732
231.78400,5.818979032
231.78450,9.481311924
231.78500,10.09170074
231.78550,8.565728701
231.78600,7.34495107
231.78650,5.818979032
231.78700,2.767034955
231.78750,-0.2849091222
231.78800,-0.8952979376
231.78850,0.9358685086
231.78900,1.546257324
231.78950,-0.8952979376
231.79000,-3.947242015
231.79050,-4.55763083
231.79100,-4.252436422
231.79150,-4.55763083
231.79200,-3.947242015
231.79250,-0.8952979376
231.79300,1.241062916
231.79350,1.546257324
231.79400,2.156646139
231.79450,4.903395809
231.79500,8.260534293
231.79550,9.176117517
231.79600,8.260534293
231.79650,7.650145478
231.79700,6.734562255
231.79750,3.987812586
231.79800,0.6306741009
231.79850,0.02028528547
231.79900,1.241062916
231.79950,1.851451732
231.80000,0.3254796932
231.80050,-1.810881161
231.80100,-4.252436422
231.80150,-6.083602869
231.80200,-7.304380499
231.80250,-6.999186092
231.80300,-5.778408461
231.80350,-3.642047607
231.80400,-0.8952979376
231.80450,1.546257324
231.80500,2.461840547
231.80550,2.156646139
231.80600,1.851451732
231.80650,2.767034955
231.80700,3.682618178
231.80750,3.682618178
231.80800,3.682618178
231.80850,3.37742377
231.80900,0.9358685086
231.80950,-4.252436422
231.81000,-9.135546946
231.81050,-10.96671339
231.81100,-12.18749102
231.81150,-14.93424069
231.81200,-18.29137918
231.81250,-18.59657358
231.81300,-16.46021273
231.81350,-14.93424069
231.81400,-13.71346306
231.81450,-10.35632458
231.81500,-6.388797276
231.81550,-4.55763083
231.81600,-3.642047607
231.81650,0.6306741009
231.81700,9.481311924
231.81750,17.41636652
231.81800,20.77350501
231.81850,20.4683106
231.81900,18.33194975
231.81950,14.05922804
231.82000,7.34495107
231.82050,1.851451732
231.82100,0.9358685086
231.82150,3.682618178
231.82200,7.039756663
231.82250,9.176117517
231.82300,9.176117517
231.82350,7.039756663
231.82400,3.682618178
231.82450,1.546257324
231.82500,0.6306741009
231.82550,0.6306741009
231.82600,0.3254796932
231.82650,-1.200492345
231.82700,-4.55763083
231.82750,-9.440741353
231.82800,-12.49268543
231.82850,-11.2719078
231.82900,-8.830352538
231.82950,-9.135546946
231.83000,-9.745935761
231.83050,-6.388797276
231.83100,0.6306741009
231.83150,5.818979032
231.83200,6.734562255
231.83250,7.955339886
231.83300,11.92286719
231.83350,14.66961686
231.83400,12.22806159
231.83450,7.955339886
231.83500,6.734562255
231.83550,6.429367847
231.83600,3.682618178
231.83650,0.3254796932
231.83700,0.9358685086
231.83750,4.598201401
231.83800,3.682618178
231.83850,-3.031658792
231.83900,-11.57710221
231.83950,-15.54462951
231.84000,-16.15501832
231.84050,-17.07060155
231.84100,-18.29137918
231.84150,-17.37579595
231.84200,-14.93424069
231.84250,-13.71346306
231.84300,-13.10307425
231.84350,-11.2719078
231.84400,-7.609574907
231.84450,-3.642047607
231.84500,-1.810881161
231.84550,-0.8952979376
231.84600,0.6306741009
231.84650,3.072229362
231.84700,5.513784624
231.84750,7.955339886
231.84800,11.31247837
231.84850,13.44883922
231.84900,11.92286719
231.84950,7.955339886
231.85000,4.598201401
231.85050,3.682618178
231.85100,3.37742377
231.85150,1.851451732
231.85200,0.9358685086
231.85250,1.241062916
231.85300,2.156646139
231.85350,2.156646139
231.85400,1.241062916
231.85450,0.02028528547
231.85500,-0.5901035299
231.85550,-2.421269976
231.85600,-4.252436422
231.85650,-4.862825238
231.85700,-4.55763083
231.85750,-4.252436422
231.85800,-4.252436422
231.85850,-3.336853199
231.85900,-0.8952979376
231.85950,0.9358685086
231.86000,2.461840547
231.86050,3.37742377
231.86100,3.072229362
231.86150,1.241062916
231.86200,-1.505686753
231.86250,-3.642047607
231.86300,-3.642047607
231.86350,-1.810881161
231.86400,0.6306741009
231.86450,3.682618178
231.86500,5.513784624
231.86550,5.208590216
231.86600,3.987812586
231.86650,3.37742377
231.86700,3.072229362
231.86750,0.02028528547
231.86800,-5.473214053
231.86850,-10.35632458
231.86900,-10.05113017
231.86950,-5.778408461
231.87000,-1.505686753
231.87050,0.02028528547
231.87100,-1.200492345
231.87150,-3.031658792
231.87200,-4.252436422
231.87250,-2.726464384
231.87300,1.546257324
231.87350,6.429367847
231.87400,7.650145478
231.87450,5.818979032
231.87500,3.072229362
231.87550,1.546257324
231.87600,1.241062916
231.87650,1.851451732
231.87700,2.461840547
231.87750,1.851451732
231.87800,0.02028528547
231.87850,-2.116075568
231.87900,-2.726464384
231.87950,-1.505686753
231.88000,0.3254796932
231.88050,1.851451732
231.88100,2.461840547
231.88150,1.546257324
231.88200,0.9358685086
231.88250,2.156646139
231.88300,5.818979032
231.88350,10.39689515
231.88400,12.533256
231.88450,11.00728396
231.88500,7.955339886
231.88550,5.818979032
231.88600,4.903395809
231.88650,3.37742377
231.88700,1.546257324
231.88750,0.02028528547
231.88800,-2.421269976
231.88850,-6.999186092
231.88900,-12.18749102
231.88950,-14.32385188
231.89000,-13.10307425
231.89050,-9.745935761
231.89100,-6.083602869
231.89150,-1.505686753
231.89200,2.461840547
231.89250,2.461840547
231.89300,-0.2849091222
231.89350,-0.2849091222
231.89400,5.818979032
231.89450,13.75403363
231.89500,16.5007833
231.89550,14.66961686
231.89600,12.533256
231.89650,11.00728396
231.89700,7.955339886
231.89750,5.208590216
231.89800,5.208590216
231.89850,6.429367847
231.89900,5.208590216
231.89950,2.156646139
231.90000,1.546257324
231.90050,2.461840547
231.90100,0.9358685086
231.90150,-2.116075568
231.90200,-3.947242015
231.90250,-3.336853199
231.90300,-3.336853199
231.90350,-4.55763083
231.90400,-4.55763083
231.90450,-2.116075568
231.90500,-1.200492345
231.90550,-3.031658792
231.90600,-4.862825238
231.90650,-2.421269976
231.90700,3.072229362
231.90750,8.565728701
231.90800,11.00728396
231.90850,10.39689515
231.90900,8.870923109
231.90950,8.565728701
231.91000,8.870923109
231.91050,8.565728701
231.91100,6.734562255
231.91150,5.208590216
231.91200,5.513784624
231.91250,5.818979032
231.91300,3.987812586
231.91350,0.02028528547
231.91400,-2.421269976
231.91450,-2.116075568
231.91500,0.02028528547
231.91550,1.546257324
231.91600,0.6306741009
231.91650,-1.810881161
231.91700,-3.642047607
231.91750,-2.116075568
231.91800,0.6306741009
231.91850,2.156646139
231.91900,0.6306741009
231.91950,-1.200492345
231.92000,-1.810881161
231.92050,-2.116075568
231.92100,-3.031658792
231.92150,-3.642047607
231.92200,-3.336853199
231.92250,-3.336853199
231.92300,-4.252436422
231.92350,-6.693991684
231.92400,-9.745935761
231.92450,-13.71346306
231.92500,-17.07060155
231.92550,-17.07060155
231.92600,-14.32385188
231.92650,-11.57710221
231.92700,-10.66151898
231.92750,-9.440741353
231.92800,-4.862825238
231.92850,0.9358685086
231.92900,4.598201401
231.92950,3.987812586
231.93000,1.546257324
231.93050,0.9358685086
231.93100,2.461840547
231.93150,4.903395809
231.93200,7.34495107
231.93250,9.176117517
231.93300,10.70208956
231.93350,11.00728396
231.93400,10.09170074
231.93450,7.650145478
231.93500,4.903395809
231.93550,3.072229362
231.93600,1.241062916
231.93650,-1.200492345
231.93700,-3.031658792
231.93750,-2.421269976
231.93800,-0.5901035299
231.93850,-1.505686753
231.93900,-4.862825238
231.93950,-7.609574907
231.94000,-6.693991684
231.94050,-5.473214053
231.94100,-5.778408461
231.94150,-6.693991684
231.94200,-5.168019645
231.94250,-3.031658792
231.94300,-3.031658792
231.94350,-4.862825238
231.94400,-5.168019645
231.94450,-3.642047607
231.94500,-3.947242015
231.94550,-6.083602869
231.94600,-6.388797276
231.94650,-2.421269976
231.94700,1.546257324
231.94750,2.461840547
231.94800,0.9358685086
231.94850,0.02028528547
231.94900,0.6306741009
231.94950,1.546257324
231.95000,1.241062916
231.95050,0.3254796932
231.95100,0.02028528547
231.95150,0.6306741009
231.95200,1.546257324
231.95250,1.851451732
231.95300,1.546257324
231.95350,0.02028528547
231.95400,-1.810881161
231.95450,-3.642047607
231.95500,-4.862825238
231.95550,-5.473214053
231.95600,-5.778408461
231.95650,-5.778408461
231.95700,-5.473214053
231.95750,-3.642047607
231.95800,-0.8952979376
231.95850,2.156646139
231.95900,4.293006993
231.95950,4.598201401
231.96000,3.987812586
231.96050,3.37742377
231.96100,3.37742377
231.96150,3.987812586
231.96200,3.072229362
231.96250,-0.5901035299
231.96300,-6.388797276
231.96350,-10.96671339
231.96400,-13.71346306
231.96450,-15.84982392
231.96500,-18.59657358
231.96550,-20.73293444
231.96600,-21.64851766
231.96650,-21.64851766
231.96700,-19.51215681
231.96750,-13.71346306
231.96800,-5.168019645
231.96850,2.461840547
231.96900,7.650145478
231.96950,12.22806159
231.97000,17.72156093
231.97050,22.29947705
231.97100,24.74103231
231.97150,25.65661553
231.97200,24.74103231
231.97250,20.16311619
231.97300,13.14364482
231.97350,8.565728701
231.97400,8.870923109
231.97450,9.786506332
231.97500,6.429367847
231.97550,1.241062916
231.97600,-0.2849091222
231.97650,0.02028528547
231.97700,-2.116075568
231.97750,-7.304380499
231.97800,-10.35632458
231.97850,-8.830352538
231.97900,-5.473214053
231.97950,-3.336853199
231.98000,-3.947242015
231.98050,-5.473214053
231.98100,-6.083602869
231.98150,-5.473214053
231.98200,-3.336853199
231.98250,-1.810881161
231.98300,-1.505686753
231.98350,-1.505686753
231.98400,-0.8952979376
231.98450,-0.2849091222
231.98500,-0.8952979376
231.98550,-1.200492345
231.98600,0.6306741009
231.98650,3.682618178
231.98700,3.987812586
231.98750,1.241062916
231.98800,0.02028528547
231.98850,1.851451732
231.98900,3.682618178
231.98950,2.461840547
231.99000,0.02028528547
231.99050,-0.2849091222
231.99100,0.02028528547
231.99150,-1.200492345
231.99200,-3.642047607
231.99250,-4.252436422
231.99300,-3.336853199
231.99350,-3.947242015
231.99400,-6.388797276
231.99450,-7.914769315
231.99500,-7.304380499
231.99550,-6.693991684
231.99600,-7.914769315
231.99650,-9.745935761
231.99700,-9.135546946
231.99750,-7.914769315
231.99800,-6.999186092
231.99850,-5.778408461
231.99900,-3.336853199
231.99950,-0.2849091222
232.00000,2.461840547
232.00050,4.903395809
232.00100,7.039756663
232.00150,9.176117517
232.00200,11.00728396
232.00250,13.14364482
232.00300,14.97481126
232.00350,14.66961686
232.00400,11.31247837
232.00450,6.734562255
232.00500,3.072229362
232.00550,1.851451732
232.00600,1.241062916
232.00650,0.3254796932
232.00700,-0.8952979376
232.00750,-2.726464384
232.00800,-3.642047607
232.00850,-3.336853199
232.00900,-0.8952979376
232.00950,3.682618178
232.01000,9.481311924
232.01050,13.75403363
232.01100,14.36442245
232.01150,12.22806159
232.01200,10.39689515
232.01250,9.786506332
232.01300,8.260534293
232.01350,4.903395809
232.01400,1.851451732
232.01450,0.3254796932
232.01500,0.02028528547
232.01550,-1.505686753
232.01600,-3.031658792
232.01650,-2.726464384
232.01700,-0.5901035299
232.01750,0.6306741009
232.01800,1.851451732
232.01850,2.156646139
232.01900,1.851451732
232.01950,0.02028528547
232.02000,-0.8952979376
232.02050,0.02028528547
232.02100,0.9358685086
232.02150,0.02028528547
232.02200,-1.200492345
232.02250,-1.200492345
232.02300,0.9358685086
232.02350,3.987812586
232.02400,5.818979032
232.02450,7.039756663
232.02500,7.34495107
232.02550,5.818979032
232.02600,3.37742377
232.02650,2.461840547
232.02700,2.461840547
232.02750,2.461840547
232.02800,2.156646139
232.02850,2.156646139
232.02900,1.546257324
232.02950,0.02028528547
232.03000,-1.505686753
232.03050,-0.5901035299
232.03100,0.02028528547
232.03150,-2.116075568
232.03200,-7.304380499
232.03250,-11.57710221
232.03300,-12.18749102
232.03350,-11.57710221
232.03400,-12.18749102
232.03450,-13.71346306
232.03500,-14.32385188
232.03550,-13.40826865
232.03600,-10.66151898
232.03650,-6.083602869
232.03700,-1.810881161
232.03750,0.02028528547
232.03800,0.6306741009
232.03850,4.293006993
232.03900,9.786506332
232.03950,11.00728396
232.04000,4.903395809
232.04050,-3.031658792
232.04100,-7.914769315
232.04150,-9.745935761
232.04200,-11.57710221
232.04250,-13.71346306
232.04300,-14.01865747
232.04350,-12.79787984
232.04400,-11.2719078
232.04450,-8.52515813
232.04500,-5.168019645
232.04550,-2.421269976
232.04600,-0.5901035299
232.04650,2.461840547
232.04700,10.09170074
232.04750,18.02675534
232.04800,21.68908823
232.04850,20.4683106
232.04900,18.33194975
232.04950,16.5007833
232.05000,12.83845041
232.05050,7.955339886
232.05100,4.903395809
232.05150,4.293006993
232.05200,2.767034955
232.05250,0.02028528547
232.05300,-2.116075568
232.05350,-0.5901035299
232.05400,1.241062916
232.05450,1.851451732
232.05500,1.546257324
232.05550,2.156646139
232.05600,1.851451732
232.05650,0.02028528547
232.05700,-2.726464384
232.05750,-3.642047607
232.05800,-4.252436422
232.05850,-6.083602869
232.05900,-8.830352538
232.05950,-10.35632458
232.06000,-10.66151898
232.06050,-10.05113017
232.06100,-8.52515813
232.06150,-5.778408461
232.06200,-4.252436422
232.06250,-4.862825238
232.06300,-5.168019645
232.06350,-3.336853199
232.06400,-0.2849091222
232.06450,0.3254796932
232.06500,-0.5901035299
232.06550,-0.5901035299
232.06600,1.241062916
232.06650,3.37742377
232.06700,4.293006993
232.06750,4.293006993
232.06800,3.682618178
232.06850,1.546257324
232.06900,-0.5901035299
232.06950,-0.8952979376
232.07000,1.546257324
232.07050,3.37742377
232.07100,2.767034955
232.07150,1.241062916
232.07200,0.9358685086
232.07250,0.02028528547
232.07300,-3.336853199
232.07350,-7.304380499
232.07400,-7.914769315
232.07450,-5.168019645
232.07500,-2.421269976
232.07550,-1.810881161
232.07600,-2.421269976
232.07650,-3.336853199
232.07700,-3.336853199
232.07750,-2.116075568
232.07800,0.02028528547
232.07850,1.851451732
232.07900,2.156646139
232.07950,1.241062916
232.08000,1.851451732
232.08050,3.682618178
232.08100,4.598201401
232.08150,3.37742377
232.08200,1.851451732
232.08250,2.461840547
232.08300,3.072229362
232.08350,2.461840547
232.08400,0.3254796932
232.08450,-0.2849091222
232.08500,1.241062916
232.08550,2.461840547
232.08600,0.6306741009
232.08650,-2.421269976
232.08700,-3.031658792
232.08750,0.02028528547
232.08800,2.767034955
232.08850,2.461840547
232.08900,0.3254796932
232.08950,0.9358685086
232.09000,5.818979032
232.09050,10.70208956
232.09100,12.533256
232.09150,11.31247837
232.09200,10.09170074
232.09250,9.481311924
232.09300,8.565728701
232.09350,5.818979032
232.09400,3.072229362
232.09450,1.851451732
232.09500,1.851451732
232.09550,0.9358685086
232.09600,-2.116075568
232.09650,-5.778408461
232.09700,-7.304380499
232.09750,-6.083602869
232.09800,-3.642047607
232.09850,-2.116075568
232.09900,-1.200492345
232.09950,-1.200492345
232.10000,-1.505686753
232.10050,-1.505686753
232.10100,-1.505686753
232.10150,-0.5901035299
232.10200,0.02028528547
232.10250,-0.2849091222
232.10300,-1.810881161
232.10350,-3.947242015
232.10400,-5.168019645
232.10450,-3.336853199
232.10500,0.02028528547
232.10550,1.241062916
232.10600,-1.200492345
232.10650,-4.862825238
232.10700,-4.862825238
232.10750,-2.116075568
232.10800,-0.2849091222
232.10850,-1.505686753
232.10900,-3.031658792
232.10950,-3.642047607
232.11000,-3.947242015
232.11050,-4.252436422
232.11100,-2.726464384
232.11150,0.02028528547
232.11200,2.156646139
232.11250,1.546257324
232.11300,1.546257324
232.11350,5.513784624
232.11400,11.92286719
232.11450,14.05922804
232.11500,10.09170074
232.11550,3.987812586
232.11600,0.02028528547
232.11650,-3.642047607
232.11700,-9.440741353
232.11750,-15.84982392
232.11800,-19.2069624
232.11850,-19.51215681
232.11900,-18.29137918
232.11950,-15.84982392
232.12000,-10.66151898
232.12050,-3.947242015
232.12100,0.6306741009
232.12150,3.072229362
232.12200,7.34495107
232.12250,13.75403363
232.12300,18.33194975
232.12350,16.80597771
232.12400,11.92286719
232.12450,7.650145478
232.12500,4.293006993
232.12550,-1.505686753
232.12600,-8.830352538
232.12650,-12.49268543
232.12700,-10.35632458
232.12750,-4.55763083
232.12800,0.02028528547
232.12850,1.851451732
232.12900,2.461840547
232.12950,2.767034955
232.13000,3.37742377
232.13050,3.682618178
232.13100,4.598201401
232.13150,6.124173439
232.13200,7.650145478
232.13250,8.260534293
232.13300,7.955339886
232.13350,6.429367847
232.13400,3.37742377
232.13450,-0.2849091222
232.13500,-3.642047607
232.13550,-5.168019645
232.13600,-4.862825238
232.13650,-4.862825238
232.13700,-5.778408461
232.13750,-6.693991684
232.13800,-5.168019645
232.13850,-1.810881161
232.13900,0.6306741009
232.13950,0.6306741009
232.14000,-0.2849091222
232.14050,0.02028528547
232.14100,1.851451732
232.14150,3.072229362
232.14200,2.461840547
232.14250,1.241062916
232.14300,1.546257324
232.14350,3.682618178
232.14400,4.598201401
232.14450,3.987812586
232.14500,4.293006993
232.14550,7.039756663
232.14600,11.00728396
232.14650,13.14364482
232.14700,12.533256
232.14750,9.786506332
232.14800,7.039756663
232.14850,4.903395809
232.14900,4.293006993
232.14950,3.987812586
232.15000,3.072229362
232.15050,1.241062916
232.15100,-0.8952979376
232.15150,-4.252436422
232.15200,-7.914769315
232.15250,-10.96671339
232.15300,-13.10307425
232.15350,-14.93424069
232.15400,-16.46021273
232.15450,-15.2394351
232.15500,-10.96671339
232.15550,-6.999186092
232.15600,-6.999186092
232.15650,-10.05113017
232.15700,-10.05113017
232.15750,-5.473214053
232.15800,0.02028528547
232.15850,3.072229362
232.15900,3.37742377
232.15950,3.072229362
232.16000,3.072229362
232.16050,3.987812586
232.16100,6.124173439
232.16150,8.260534293
232.16200,7.650145478
232.16250,5.513784624
232.16300,3.987812586
232.16350,3.987812586
232.16400,3.37742377
232.16450,1.546257324
232.16500,0.02028528547
232.16550,0.6306741009
232.16600,1.546257324
232.16650,0.9358685086
232.16700,0.02028528547
232.16750,-0.8952979376
232.16800,-1.505686753
232.16850,-2.116075568
232.16900,-1.810881161
232.16950,0.02028528547
232.17000,2.461840547
232.17050,3.987812586
232.17100,5.208590216
232.17150,5.513784624
232.17200,4.293006993
232.17250,1.851451732
232.17300,0.02028528547
232.17350,-0.5901035299
232.17400,-0.5901035299
232.17450,-0.2849091222
232.17500,0.02028528547
232.17550,0.3254796932
232.17600,0.02028528547
232.17650,0.02028528547
232.17700,1.241062916
232.17750,2.461840547
232.17800,0.9358685086
232.17850,-2.421269976
232.17900,-5.168019645
232.17950,-6.388797276
232.18000,-6.999186092
232.18050,-6.388797276
232.18100,-3.336853199
232.18150,0.02028528547
232.18200,0.6306741009
232.18250,-0.2849091222
232.18300,0.3254796932
232.18350,3.682618178
232.18400,5.513784624
232.18450,3.987812586
232.18500,3.072229362
232.18550,3.987812586
232.18600,3.072229362
232.18650,-1.810881161
232.18700,-7.914769315
232.18750,-10.66151898
232.18800,-11.57710221
232.18850,-13.10307425
232.18900,-14.93424069
232.18950,-14.01865747
232.19000,-11.88229661
232.19050,-9.440741353
232.19100,-6.693991684
232.19150,-3.642047607
232.19200,-2.421269976
232.19250,-0.8952979376
232.19300,4.598201401
232.19350,15.58520008
232.19400,24.13064349
232.19450,23.52025468
232.19500,17.72156093
232.19550,14.66961686
232.19600,15.28000567
232.19650,12.533256
232.19700,3.987812586
232.19750,-4.252436422
232.19800,-9.135546946
232.19850,-10.96671339
232.19900,-11.2719078
232.19950,-9.440741353
232.20000,-4.862825238
232.20050,-1.200492345
232.20100,0.02028528547
232.20150,-0.8952979376
232.20200,-1.505686753
232.20250,-1.810881161
232.20300,-2.726464384
232.20350,-3.336853199
232.20400,-2.421269976
232.20450,-0.8952979376
232.20500,-0.8952979376
232.20550,-2.116075568
232.20600,-3.642047607
232.20650,-4.862825238
232.20700,-4.862825238
232.20750,-3.031658792
232.20800,-0.2849091222
232.20850,0.9358685086
232.20900,0.6306741009
232.20950,0.02028528547
232.21000,0.02028528547
232.21050,1.851451732
232.21100,3.072229362
232.21150,3.37742377
232.21200,3.37742377
232.21250,3.987812586
232.21300,3.987812586
232.21350,3.072229362
232.21400,1.241062916
232.21450,0.02028528547
232.21500,0.02028528547
232.21550,0.02028528547
232.21600,0.02028528547
232.21650,-0.5901035299
232.21700,-1.810881161
232.21750,-3.947242015
232.21800,-6.693991684
232.21850,-9.440741353
232.21900,-10.96671339
232.21950,-10.05113017
232.22000,-6.388797276
232.22050,-1.200492345
232.22100,2.767034955
232.22150,6.124173439
232.22200,7.955339886
232.22250,9.176117517
232.22300,8.870923109
232.22350,6.734562255
232.22400,3.37742377
232.22450,0.02028528547
232.22500,-2.421269976
232.22550,-3.947242015
232.22600,-5.168019645
232.22650,-6.693991684
232.22700,-7.304380499
232.22750,-6.083602869
232.22800,-2.726464384
232.22850,0.02028528547
232.22900,0.6306741009
232.22950,0.9358685086
232.23000,3.37742377
232.23050,7.955339886
232.23100,10.70208956
232.23150,10.39689515
232.23200,8.260534293
232.23250,5.818979032
232.23300,3.072229362
232.23350,0.6306741009
232.23400,-0.2849091222
232.23450,0.02028528547
232.23500,0.02028528547
232.23550,-3.031658792
232.23600,-6.083602869
232.23650,-6.388797276
232.23700,-5.168019645
232.23750,-5.168019645
232.23800,-6.693991684
232.23850,-7.304380499
232.23900,-5.168019645
232.23950,-2.116075568
232.24000,-0.8952979376
232.24050,-2.116075568
232.24100,-3.642047607
232.24150,-3.642047607
232.24200,-2.421269976
232.24250,-1.810881161
232.24300,-2.421269976
232.24350,-2.726464384
232.24400,-0.2849091222
232.24450,2.767034955
232.24500,4.598201401
232.24550,3.682618178
232.24600,1.851451732
232.24650,0.02028528547
232.24700,-0.2849091222
232.24750,0.9358685086
232.24800,5.513784624
232.24850,11.61767278
232.24900,15.28000567
232.24950,14.05922804
232.25000,10.70208956
232.25050,8.260534293
232.25100,8.565728701
232.25150,10.09170074
232.25200,10.39689515
232.25250,8.870923109
232.25300,6.429367847
232.25350,4.598201401
232.25400,3.072229362
232.25450,1.546257324
232.25500,-0.2849091222
232.25550,-1.810881161
232.25600,-2.726464384
232.25650,-2.421269976
232.25700,-1.505686753
232.25750,-0.5901035299
232.25800,0.02028528547
232.25850,-0.5901035299
232.25900,-0.2849091222
232.25950,1.241062916
232.26000,2.156646139
232.26050,-1.505686753
232.26100,-8.52515813
232.26150,-13.10307425
232.26200,-12.79787984
232.26250,-11.57710221
232.26300,-13.10307425
232.26350,-14.93424069
232.26400,-13.40826865
232.26450,-10.05113017
232.26500,-7.914769315
232.26550,-5.778408461
232.26600,-1.505686753
232.26650,2.461840547
232.26700,3.072229362
232.26750,2.767034955
232.26800,7.039756663
232.26850,14.97481126
232.26900,19.85792179
232.26950,17.72156093
232.27000,13.44883922
232.27050,11.61767278
232.27100,11.31247837
232.27150,8.260534293
232.27200,4.293006993
232.27250,2.767034955
232.27300,3.37742377
232.27350,3.682618178
232.27400,2.767034955
232.27450,1.241062916
232.27500,-0.8952979376
232.27550,-2.726464384
232.27600,-3.031658792
232.27650,-1.200492345
232.27700,-0.5901035299
232.27750,-2.421269976
232.27800,-3.947242015
232.27850,-3.947242015
232.27900,-3.947242015
232.27950,-5.473214053
232.28000,-6.999186092
232.28050,-5.778408461
232.28100,-3.947242015
232.28150,-5.473214053
232.28200,-8.830352538
232.28250,-8.830352538
232.28300,-4.252436422
232.28350,0.02028528547
232.28400,0.6306741009
232.28450,-0.5901035299
232.28500,0.02028528547
232.28550,2.767034955
232.28600,5.208590216
232.28650,5.208590216
232.28700,3.987812586
232.28750,3.682618178
232.28800,2.767034955
232.28850,0.6306741009
232.28900,-3.031658792
232.28950,-5.473214053
232.29000,-4.55763083
232.29050,-1.505686753
232.29100,0.02028528547
232.29150,-0.8952979376
232.29200,-2.421269976
232.29250,-1.505686753
232.29300,0.6306741009
232.29350,1.851451732
232.29400,0.9358685086
232.29450,0.02028528547
232.29500,0.02028528547
232.29550,0.02028528547
232.29600,-1.505686753
232.29650,-3.336853199
232.29700,-3.031658792
232.29750,-0.8952979376
232.29800,-0.5901035299
232.29850,-3.642047607
232.29900,-7.304380499
232.29950,-8.830352538
232.30000,-8.219963722
232.30050,-8.52515813
232.30100,-8.830352538
232.30150,-7.304380499
232.30200,-3.336853199
232.30250,0.02028528547
232.30300,0.6306741009
232.30350,0.3254796932
232.30400,1.546257324
232.30450,4.293006993
232.30500,7.34495107
232.30550,10.09170074
232.30600,12.22806159
232.30650,12.83845041
232.30700,11.61767278
232.30750,9.176117517
232.30800,6.429367847
232.30850,5.513784624
232.30900,6.124173439
232.30950,7.34495107
232.31000,8.260534293
232.31050,7.955339886
232.31100,6.124173439
232.31150,2.767034955
232.31200,0.02028528547
232.31250,-2.421269976
232.31300,-3.947242015
232.31350,-6.388797276
232.31400,-9.745935761
232.31450,-12.49268543
232.31500,-12.79787984
232.31550,-10.05113017
232.31600,-4.862825238
232.31650,0.02028528547
232.31700,3.987812586
232.31750,6.429367847
232.31800,7.34495107
232.31850,6.429367847
232.31900,3.072229362
232.31950,-1.200492345
232.32000,-3.947242015
232.32050,-3.642047607
232.32100,-2.726464384
232.32150,-2.726464384
232.32200,-2.726464384
232.32250,-0.8952979376
232.32300,0.9358685086
232.32350,0.02028528547
232.32400,-4.252436422
232.32450,-6.693991684
232.32500,-4.55763083
232.32550,-1.810881161
232.32600,-3.642047607
232.32650,-9.440741353
232.32700,-13.10307425
232.32750,-10.35632458
232.32800,-3.642047607
232.32850,0.02028528547
232.32900,-0.8952979376
232.32950,-3.031658792
232.33000,0.02028528547
232.33050,6.429367847
232.33100,9.786506332
232.33150,6.429367847
232.33200,0.9358685086
232.33250,0.02028528547
232.33300,3.682618178
232.33350,8.565728701
232.33400,11.61767278
232.33450,12.22806159
232.33500,10.09170074
232.33550,6.429367847
232.33600,3.072229362
232.33650,1.851451732
232.33700,0.9358685086
232.33750,-1.505686753
232.33800,-6.693991684
232.33850,-11.88229661
232.33900,-15.2394351
232.33950,-17.07060155
232.34000,-17.37579595
232.34050,-16.76540714
232.34100,-15.84982392
232.34150,-13.40826865
232.34200,-8.830352538
232.34250,-4.862825238
232.34300,-3.336853199
232.34350,-2.116075568
232.34400,4.293006993
232.34450,15.89039449
232.34500,25.35142112
232.34550,26.26700435
232.34600,21.68908823
232.34650,18.33194975
232.34700,15.89039449
232.34750,11.31247837
232.34800,5.513784624
232.34850,1.851451732
232.34900,-0.2849091222
232.34950,-3.031658792
232.35000,-5.168019645
232.35050,-3.947242015
232.35100,-1.810881161
232.35150,-1.505686753
232.35200,-2.421269976
232.35250,-0.8952979376
232.35300,1.851451732
232.35350,2.767034955
232.35400,1.546257324
232.35450,0.9358685086
232.35500,1.241062916
232.35550,-0.2849091222
232.35600,-4.55763083
232.35650,-7.609574907
232.35700,-7.304380499
232.35750,-5.473214053
232.35800,-3.947242015
232.35850,-2.116075568
232.35900,0.02028528547
232.35950,0.3254796932
232.36000,-0.8952979376
232.36050,-2.726464384
232.36100,-2.726464384
232.36150,-1.505686753
232.36200,-0.5901035299
232.36250,-0.5901035299
232.36300,0.02028528547
232.36350,0.9358685086
232.36400,2.461840547
232.36450,3.37742377
232.36500,4.293006993
232.36550,5.513784624
232.36600,6.429367847
232.36650,4.598201401
232.36700,-0.2849091222
232.36750,-5.473214053
232.36800,-6.388797276
232.36850,-3.642047607
232.36900,-1.505686753
232.36950,-1.200492345
232.37000,-0.8952979376
232.37050,0.02028528547
232.37100,0.02028528547
232.37150,-0.8952979376
232.37200,-2.421269976
232.37250,-2.421269976
232.37300,-1.505686753
232.37350,-0.5901035299
232.37400,0.3254796932
232.37450,1.851451732
232.37500,2.461840547
232.37550,2.156646139
232.37600,2.156646139
232.37650,2.767034955
232.37700,3.37742377
232.37750,2.461840547
232.37800,0.02028528547
232.37850,-2.116075568
232.37900,-3.336853199
232.37950,-3.336853199
232.38000,-3.642047607
232.38050,-3.947242015
232.38100,-3.947242015
232.38150,-3.642047607
232.38200,-2.726464384
232.38250,-1.810881161
232.38300,-0.8952979376
232.38350,0.6306741009
232.38400,3.072229362
232.38450,4.293006993
232.38500,3.072229362
232.38550,0.9358685086
232.38600,0.02028528547
232.38650,0.02028528547
232.38700,0.3254796932
232.38750,0.02028528547
232.38800,-0.5901035299
232.38850,-1.200492345
232.38900,-2.116075568
232.38950,-3.031658792
232.39000,-3.336853199
232.39050,-2.726464384
232.39100,-1.810881161
232.39150,-1.200492345
232.39200,-1.200492345
232.39250,-0.2849091222
232.39300,1.546257324
232.39350,3.682618178
232.39400,4.903395809
232.39450,4.903395809
232.39500,5.513784624
232.39550,6.429367847
232.39600,6.429367847
232.39650,5.208590216
232.39700,3.682618178
232.39750,1.241062916
232.39800,-2.116075568
232.39850,-4.55763083
232.39900,-2.726464384
232.39950,2.461840547
232.40000,5.818979032
232.40050,3.37742377
232.40100,-2.726464384
232.40150,-7.304380499
232.40200,-7.609574907
232.40250,-5.778408461
232.40300,-4.55763083
232.40350,-3.642047607
232.40400,-2.116075568
232.40450,0.9358685086
232.40500,4.293006993
232.40550,5.818979032
232.40600,4.293006993
232.40650,3.072229362
232.40700,4.293006993
232.40750,5.513784624
232.40800,2.461840547
232.40850,-3.031658792
232.40900,-6.083602869
232.40950,-4.55763083
232.41000,-2.116075568
232.41050,-1.200492345
232.41100,-0.2849091222
232.41150,1.241062916
232.41200,0.9358685086
232.41250,-2.421269976
232.41300,-4.862825238
232.41350,-2.726464384
232.41400,0.9358685086
232.41450,0.9358685086
232.41500,-1.505686753
232.41550,-2.116075568
232.41600,0.3254796932
232.41650,3.987812586
232.41700,7.34495107
232.41750,11.61767278
232.41800,16.80597771
232.41850,18.33194975
232.41900,14.36442245
232.41950,7.039756663
232.42000,0.6306741009
232.42050,-3.642047607
232.42100,-6.693991684
232.42150,-10.05113017
232.42200,-13.10307425
232.42250,-14.01865747
232.42300,-12.49268543
232.42350,-9.440741353
232.42400,-6.693991684
232.42450,-5.778408461
232.42500,-5.778408461
232.42550,-5.168019645
232.42600,-2.116075568
232.42650,3.682618178
232.42700,11.31247837
232.42750,15.89039449
232.42800,15.28000567
232.42850,11.31247837
232.42900,8.565728701
232.42950,8.565728701
232.43000,9.481311924
232.43050,9.481311924
232.43100,9.176117517
232.43150,8.565728701
232.43200,6.734562255
232.43250,4.598201401
232.43300,3.682618178
232.43350,5.513784624
232.43400,7.34495107
232.43450,5.513784624
232.43500,0.02028528547
232.43550,-5.168019645
232.43600,-7.914769315
232.43650,-8.830352538
232.43700,-10.35632458
232.43750,-12.18749102
232.43800,-11.88229661
232.43850,-9.135546946
232.43900,-5.778408461
232.43950,-3.947242015
232.44000,-3.642047607
232.44050,-3.642047607
232.44100,-3.642047607
232.44150,-4.252436422
232.44200,-4.55763083
232.44250,-3.642047607
232.44300,-2.421269976
232.44350,-3.642047607
232.44400,-6.693991684
232.44450,-9.440741353
232.44500,-10.05113017
232.44550,-9.745935761
232.44600,-9.440741353
232.44650,-6.999186092
232.44700,-0.8952979376
232.44750,6.124173439
232.44800,11.31247837
232.44850,14.05922804
232.44900,15.58520008
232.44950,15.58520008
232.45000,13.75403363
232.45050,11.61767278
232.45100,10.09170074
232.45150,7.650145478
232.45200,3.072229362
232.45250,-1.200492345
232.45300,-3.642047607
232.45350,-3.642047607
232.45400,-4.252436422
232.45450,-6.083602869
232.45500,-8.219963722
232.45550,-10.35632458
232.45600,-11.57710221
232.45650,-10.96671339
232.45700,-8.52515813
232.45750,-6.693991684
232.45800,-6.693991684
232.45850,-6.693991684
232.45900,-3.336853199
232.45950,0.6306741009
232.46000,2.461840547
232.46050,1.546257324
232.46100,0.9358685086
232.46150,2.156646139
232.46200,2.461840547
232.46250,0.02028528547
232.46300,-3.336853199
232.46350,-5.168019645
232.46400,-3.947242015
232.46450,-2.421269976
232.46500,-0.8952979376
232.46550,0.3254796932
232.46600,2.156646139
232.46650,3.072229362
232.46700,1.241062916
232.46750,-1.200492345
232.46800,-2.726464384
232.46850,-2.116075568
232.46900,-1.810881161
232.46950,-2.726464384
232.47000,-2.421269976
232.47050,0.02028528547
232.47100,2.767034955
232.47150,3.987812586
232.47200,3.987812586
232.47250,3.987812586
232.47300,2.767034955
232.47350,-0.5901035299
232.47400,-3.947242015
232.47450,-2.726464384
232.47500,1.546257324
232.47550,4.293006993
232.47600,3.37742377
232.47650,0.9358685086
232.47700,-0.5901035299
232.47750,-1.810881161
232.47800,-2.726464384
232.47850,-1.505686753
232.47900,1.241062916
232.47950,2.767034955
232.48000,1.851451732
232.48050,0.6306741009
232.48100,1.851451732
232.48150,3.682618178
232.48200,3.987812586
232.48250,2.461840547
232.48300,0.02028528547
232.48350,-3.031658792
232.48400,-4.862825238
232.48450,-3.947242015
232.48500,-0.8952979376
232.48550,1.546257324
232.48600,2.461840547
232.48650,1.546257324
232.48700,0.3254796932
232.48750,-0.8952979376
232.48800,-1.505686753
232.48850,-0.8952979376
232.48900,0.6306741009
232.48950,2.461840547
232.49000,3.682618178
232.49050,4.293006993
232.49100,3.987812586
232.49150,3.682618178
232.49200,2.156646139
232.49250,-0.5901035299
232.49300,-5.778408461
232.49350,-10.96671339
232.49400,-13.40826865
232.49450,-13.40826865
232.49500,-13.10307425
232.49550,-12.49268543
232.49600,-10.05113017
232.49650,-6.999186092
232.49700,-5.168019645
232.49750,-5.473214053
232.49800,-5.778408461
232.49850,-6.083602869
232.49900,-6.083602869
232.49950,-3.642047607
232.50000,3.987812586
232.50050,13.75403363
232.50100,18.94233856
232.50150,18.33194975
232.50200,18.33194975
232.50250,21.68908823
232.50300,23.52025468
232.50350,18.94233856
232.50400,10.70208956
232.50450,5.818979032
232.50500,5.208590216
232.50550,4.598201401
232.50600,1.546257324
232.50650,-1.200492345
232.50700,-2.116075568
232.50750,-0.8952979376
232.50800,0.02028528547
232.50850,-0.5901035299
232.50900,-2.421269976
232.50950,-3.336853199
232.51000,-2.421269976
232.51050,-0.8952979376
232.51100,0.02028528547
232.51150,0.6306741009
232.51200,2.461840547
232.51250,4.293006993
232.51300,4.293006993
232.51350,2.156646139
232.51400,0.02028528547
232.51450,-1.810881161
232.51500,-3.336853199
232.51550,-4.252436422
232.51600,-4.55763083
232.51650,-4.55763083
232.51700,-4.862825238
232.51750,-5.168019645
232.51800,-4.252436422
232.51850,-3.336853199
232.51900,-3.336853199
232.51950,-3.947242015
232.52000,-2.726464384
232.52050,0.02028528547
232.52100,1.241062916
232.52150,0.9358685086
232.52200,0.3254796932
232.52250,1.241062916
232.52300,2.767034955
232.52350,3.682618178
232.52400,3.987812586
232.52450,3.072229362
232.52500,0.3254796932
232.52550,-3.336853199
232.52600,-5.168019645
232.52650,-3.947242015
232.52700,-1.200492345
232.52750,-0.2849091222
232.52800,-0.5901035299
232.52850,-0.2849091222
232.52900,0.02028528547
232.52950,0.3254796932
232.53000,0.6306741009
232.53050,2.767034955
232.53100,6.429367847
232.53150,9.481311924
232.53200,10.39689515
232.53250,8.870923109
232.53300,6.124173439
232.53350,3.37742377
232.53400,1.851451732
232.53450,1.546257324
232.53500,0.9358685086
232.53550,-1.200492345
232.53600,-6.388797276
232.53650,-10.96671339
232.53700,-12.18749102
232.53750,-10.05113017
232.53800,-7.609574907
232.53850,-6.999186092
232.53900,-6.693991684
232.53950,-5.473214053
232.54000,-3.947242015
232.54050,-4.862825238
232.54100,-6.083602869
232.54150,-5.168019645
232.54200,-1.200492345
232.54250,1.851451732
232.54300,3.072229362
232.54350,2.767034955
232.54400,2.156646139
232.54450,0.9358685086
232.54500,-0.5901035299
232.54550,-0.5901035299
232.54600,1.546257324
232.54650,3.37742377
232.54700,1.546257324
232.54750,-1.505686753
232.54800,-1.505686753
232.54850,1.546257324
232.54900,3.987812586
232.54950,3.37742377
232.55000,1.546257324
232.55050,0.3254796932
232.55100,-0.2849091222
232.55150,0.02028528547
232.55200,3.072229362
232.55250,7.039756663
232.55300,6.429367847
232.55350,1.546257324
232.55400,-0.8952979376
232.55450,1.546257324
232.55500,4.293006993
232.55550,2.156646139
232.55600,-1.200492345
232.55650,-0.8952979376
232.55700,2.156646139
232.55750,2.461840547
232.55800,-1.505686753
232.55850,-5.168019645
232.55900,-4.55763083
232.55950,-2.116075568
232.56000,-0.8952979376
232.56050,-0.2849091222
232.56100,0.3254796932
232.56150,1.851451732
232.56200,4.293006993
232.56250,6.429367847
232.56300,7.34495107
232.56350,5.513784624
232.56400,2.156646139
232.56450,-0.5901035299
232.56500,-3.336853199
232.56550,-6.083602869
232.56600,-8.219963722
232.56650,-9.135546946
232.56700,-9.135546946
232.56750,-9.745935761
232.56800,-9.745935761
232.56850,-7.609574907
232.56900,-4.862825238
232.56950,-4.862825238
232.57000,-6.693991684
232.57050,-4.862825238
232.57100,2.461840547
232.57150,11.92286719
232.57200,16.80597771
232.57250,16.5007833
232.57300,14.36442245
232.57350,12.22806159
232.57400,9.786506332
232.57450,7.34495107
232.57500,6.124173439
232.57550,5.513784624
232.57600,4.598201401
232.57650,3.682618178
232.57700,3.987812586
232.57750,5.513784624
232.57800,5.513784624
232.57850,3.987812586
232.57900,2.156646139
232.57950,1.241062916
232.58000,1.546257324
232.58050,2.461840547
232.58100,3.37742377
232.58150,3.072229362
232.58200,0.9358685086
232.58250,-0.8952979376
232.58300,-0.5901035299
232.58350,1.851451732
232.58400,4.293006993
232.58450,3.987812586
232.58500,1.241062916
232.58550,-0.5901035299
232.58600,-1.505686753
232.58650,-1.505686753
232.58700,0.02028528547
232.58750,2.461840547
232.58800,4.293006993
232.58850,3.072229362
232.58900,0.02028528547
232.58950,-0.8952979376
232.59000,1.546257324
232.59050,4.598201401
232.59100,4.903395809
232.59150,1.546257324
232.59200,-3.031658792
232.59250,-6.999186092
232.59300,-9.440741353
232.59350,-10.35632458
232.59400,-9.745935761
232.59450,-9.440741353
232.59500,-10.05113017
232.59550,-10.66151898
232.59600,-11.88229661
232.59650,-13.71346306
232.59700,-16.46021273
232.59750,-17.68099036
232.59800,-15.2394351
232.59850,-10.05113017
232.59900,-5.168019645
232.59950,-1.505686753
232.60000,0.02028528547
232.60050,1.851451732
232.60100,3.987812586
232.60150,6.124173439
232.60200,7.955339886
232.60250,8.565728701
232.60300,7.955339886
232.60350,7.34495107
232.60400,7.039756663
232.60450,6.429367847
232.60500,4.598201401
232.60550,2.156646139
232.60600,0.6306741009
232.60650,0.02028528547
232.60700,-0.2849091222
232.60750,-0.5901035299
232.60800,0.02028528547
232.60850,0.6306741009
232.60900,0.9358685086
232.60950,0.02028528547
232.61000,-2.421269976
232.61050,-4.862825238
232.61100,-6.083602869
232.61150,-5.778408461
232.61200,-4.55763083
232.61250,-2.726464384
232.61300,-0.8952979376
232.61350,-0.8952979376
232.61400,-3.031658792
232.61450,-4.55763083
232.61500,-3.947242015
232.61550,-1.200492345
232.61600,0.02028528547
232.61650,-2.726464384
232.61700,-6.693991684
232.61750,-7.914769315
232.61800,-6.083602869
232.61850,-3.336853199
232.61900,-1.200492345
232.61950,-1.200492345
232.62000,-2.421269976
232.62050,-3.336853199
232.62100,-2.726464384
232.62150,-0.5901035299
232.62200,0.02028528547
232.62250,-1.505686753
232.62300,-3.031658792
232.62350,-1.200492345
232.62400,2.156646139
232.62450,3.37742377
232.62500,0.9358685086
232.62550,-1.810881161
232.62600,-1.505686753
232.62650,1.851451732
232.62700,4.903395809
232.62750,5.818979032
232.62800,5.208590216
232.62850,4.293006993
232.62900,3.37742377
232.62950,2.461840547
232.63000,2.156646139
232.63050,3.072229362
232.63100,3.37742377
232.63150,1.851451732
232.63200,0.02028528547
232.63250,-1.200492345
232.63300,-0.8952979376
232.63350,-0.2849091222
232.63400,0.3254796932
232.63450,1.241062916
232.63500,2.156646139
232.63550,1.851451732
232.63600,0.6306741009
232.63650,0.02028528547
232.63700,-0.2849091222
232.63750,0.02028528547
232.63800,0.02028528547
232.63850,0.02028528547
232.63900,-0.5901035299
232.63950,-2.421269976
232.64000,-5.778408461
232.64050,-10.05113017
232.64100,-14.62904628
232.64150,-18.90176799
232.64200,-21.34332325
232.64250,-21.03812885
232.64300,-19.51215681
232.64350,-18.29137918
232.64400,-15.2394351
232.64450,-8.52515813
232.64500,-0.8952979376
232.64550,2.767034955
232.64600,4.598201401
232.64650,9.786506332
232.64700,18.63714416
232.64750,24.4358379
232.64800,22.90986586
232.64850,18.94233856
232.64900,17.11117212
232.64950,15.58520008
232.65000,11.00728396
232.65050,5.818979032
232.65100,4.598201401
232.65150,5.818979032
232.65200,4.903395809
232.65250,2.156646139
232.65300,1.851451732
232.65350,3.682618178
232.65400,4.293006993
232.65450,3.682618178
232.65500,3.682618178
232.65550,3.682618178
232.65600,0.9358685086
232.65650,-3.336853199
232.65700,-5.168019645
232.65750,-3.031658792
232.65800,-0.2849091222
232.65850,0.6306741009
232.65900,0.6306741009
232.65950,0.9358685086
232.66000,0.6306741009
232.66050,0.02028528547
232.66100,0.6306741009
232.66150,1.241062916
232.66200,0.3254796932
232.66250,-0.5901035299
232.66300,1.546257324
232.66350,7.650145478
232.66400,12.533256
232.66450,11.92286719
232.66500,8.260534293
232.66550,6.124173439
232.66600,6.734562255
232.66650,6.734562255
232.66700,3.682618178
232.66750,-1.200492345
232.66800,-4.862825238
232.66850,-5.473214053
232.66900,-3.336853199
232.66950,-0.5901035299
232.67000,0.3254796932
232.67050,0.02028528547
232.67100,-0.8952979376
232.67150,-2.421269976
232.67200,-3.642047607
232.67250,-2.726464384
232.67300,0.02028528547
232.67350,2.461840547
232.67400,1.241062916
232.67450,-0.8952979376
232.67500,-0.2849091222
232.67550,1.546257324
232.67600,1.851451732
232.67650,0.3254796932
232.67700,-0.8952979376
232.67750,-1.810881161
232.67800,-4.55763083
232.67850,-7.914769315
232.67900,-9.135546946
232.67950,-7.304380499
232.68000,-6.083602869
232.68050,-5.473214053
232.68100,-3.947242015
232.68150,-1.505686753
232.68200,-0.2849091222
232.68250,-0.8952979376
232.68300,0.6306741009
232.68350,5.513784624
232.68400,9.176117517
232.68450,8.260534293
232.68500,6.124173439
232.68550,6.429367847
232.68600,7.039756663
232.68650,5.513784624
232.68700,2.767034955
232.68750,0.9358685086
232.68800,0.3254796932
232.68850,-0.8952979376
232.68900,-1.810881161
232.68950,-0.5901035299
232.69000,0.3254796932
232.69050,0.02028528547
232.69100,-2.116075568
232.69150,-3.336853199
232.69200,-3.947242015
232.69250,-4.862825238
232.69300,-5.473214053
232.69350,-3.336853199
232.69400,-0.2849091222
232.69450,0.02028528547
232.69500,-2.116075568
232.69550,-3.031658792
232.69600,-0.8952979376
232.69650,0.6306741009
232.69700,0.02028528547
232.69750,-2.726464384
232.69800,-4.55763083
232.69850,-5.168019645
232.69900,-5.168019645
232.69950,-5.778408461
232.70000,-5.168019645
232.70050,-3.031658792
232.70100,0.02028528547
232.70150,3.37742377
232.70200,5.513784624
232.70250,6.429367847
232.70300,6.429367847
232.70350,5.513784624
232.70400,3.987812586
232.70450,2.156646139
232.70500,1.241062916
232.70550,0.9358685086
232.70600,0.3254796932
232.70650,-0.5901035299
232.70700,-1.200492345
232.70750,0.02028528547
232.70800,2.156646139
232.70850,5.513784624
232.70900,9.481311924
232.70950,13.14364482
232.71000,15.28000567
232.71050,14.05922804
232.71100,10.70208956
232.71150,7.650145478
232.71200,5.818979032
232.71250,4.293006993
232.71300,0.9358685086
232.71350,-3.947242015
232.71400,-10.05113017
232.71450,-14.93424069
232.71500,-17.37579595
232.71550,-16.15501832
232.71600,-13.40826865
232.71650,-11.88229661
232.71700,-12.18749102
232.71750,-12.18749102
232.71800,-10.05113017
232.71850,-6.999186092
232.71900,-5.473214053
232.71950,-3.642047607
232.72000,1.546257324
232.72050,10.09170074
232.72100,16.19558889
232.72150,16.19558889
232.72200,12.22806159
232.72250,7.955339886
232.72300,4.903395809
232.72350,1.851451732
232.72400,0.02028528547
232.72450,0.02028528547
232.72500,0.02028528547
232.72550,-0.2849091222
232.72600,-0.8952979376
232.72650,0.6306741009
232.72700,3.987812586
232.72750,5.513784624
232.72800,4.293006993
232.72850,2.156646139
232.72900,0.9358685086
232.72950,0.02028528547
232.73000,-1.200492345
232.73050,-2.726464384
232.73100,-3.947242015
232.73150,-5.168019645
232.73200,-6.388797276
232.73250,-6.388797276
232.73300,-4.862825238
232.73350,-3.336853199
232.73400,-3.031658792
232.73450,-3.642047607
232.73500,-3.947242015
232.73550,-3.642047607
232.73600,-4.252436422
232.73650,-5.473214053
232.73700,-5.473214053
232.73750,-3.031658792
232.73800,0.3254796932
232.73850,2.461840547
232.73900,1.546257324
232.73950,-0.8952979376
232.74000,-3.031658792
232.74050,-3.642047607
232.74100,-2.116075568
232.74150,0.02028528547
232.74200,1.241062916
232.74250,0.02028528547
232.74300,-1.810881161
232.74350,-2.116075568
232.74400,0.3254796932
232.74450,3.682618178
232.74500,4.293006993
232.74550,3.072229362
232.74600,3.37742377
232.74650,5.818979032
232.74700,7.34495107
232.74750,6.734562255
232.74800,5.818979032
232.74850,4.903395809
232.74900,4.293006993
232.74950,3.37742377
232.75000,2.767034955
232.75050,1.851451732
232.75100,-0.2849091222
232.75150,-4.252436422
232.75200,-7.609574907
232.75250,-9.135546946
232.75300,-10.66151898
232.75350,-12.79787984
232.75400,-14.62904628
232.75450,-14.62904628
232.75500,-12.79787984
232.75550,-9.745935761
232.75600,-4.252436422
232.75650,2.461840547
232.75700,7.650145478
232.75750,8.870923109
232.75800,6.429367847
232.75850,3.987812586
232.75900,3.37742377
232.75950,4.598201401
232.76000,7.039756663
232.76050,8.870923109
232.76100,6.429367847
232.76150,0.6306741009
232.76200,-3.947242015
232.76250,-3.947242015
232.76300,-1.810881161
232.76350,-1.200492345
232.76400,-3.336853199
232.76450,-4.55763083
232.76500,-3.947242015
232.76550,-2.421269976
232.76600,-1.505686753
232.76650,-0.5901035299
232.76700,-0.2849091222
232.76750,-0.2849091222
232.76800,0.9358685086
232.76850,3.682618178
232.76900,4.598201401
232.76950,1.546257324
232.77000,-2.116075568
232.77050,-3.031658792
232.77100,-0.5901035299
232.77150,0.3254796932
232.77200,-0.8952979376
232.77250,-3.947242015
232.77300,-7.304380499
232.77350,-9.745935761
232.77400,-9.745935761
232.77450,-7.304380499
232.77500,-4.55763083
232.77550,-4.252436422
232.77600,-5.778408461
232.77650,-5.778408461
232.77700,-3.642047607
232.77750,-1.200492345
232.77800,0.02028528547
232.77850,2.156646139
232.77900,5.513784624
232.77950,8.565728701
232.78000,10.39689515
232.78050,11.31247837
232.78100,10.70208956
232.78150,9.176117517
232.78200,8.260534293
232.78250,8.565728701
232.78300,8.870923109
232.78350,7.039756663
232.78400,4.293006993
232.78450,2.461840547
232.78500,0.6306741009
232.78550,-2.116075568
232.78600,-4.862825238
232.78650,-6.388797276
232.78700,-8.219963722
232.78750,-10.96671339
232.78800,-11.88229661
232.78850,-8.830352538
232.78900,-5.473214053
232.78950,-6.083602869
232.79000,-6.999186092
232.79050,-3.642047607
232.79100,0.02028528547
232.79150,-0.2849091222
232.79200,-3.336853199
232.79250,-1.200492345
232.79300,6.429367847
232.79350,12.533256
232.79400,12.22806159
232.79450,11.31247837
232.79500,13.75403363
232.79550,17.11117212
232.79600,17.72156093
232.79650,17.41636652
232.79700,17.72156093
232.79750,15.89039449
232.79800,10.39689515
232.79850,5.208590216
232.79900,3.37742377
232.79950,2.156646139
232.80000,-3.947242015
232.80050,-13.40826865
232.80100,-20.12254562
232.80150,-20.73293444
232.80200,-17.37579595
232.80250,-13.40826865
232.80300,-9.745935761
232.80350,-7.609574907
232.80400,-6.999186092
232.80450,-6.999186092
232.80500,-5.778408461
232.80550,-3.336853199
232.80600,-1.200492345
232.80650,-0.8952979376
232.80700,-1.505686753
232.80750,-0.5901035299
232.80800,1.546257324
232.80850,3.987812586
232.80900,3.987812586
232.80950,0.6306741009
232.81000,-4.252436422
232.81050,-7.304380499
232.81100,-5.778408461
232.81150,-2.116075568
232.81200,0.02028528547
232.81250,0.02028528547
232.81300,-0.8952979376
232.81350,-1.810881161
232.81400,-2.116075568
232.81450,-2.726464384
232.81500,-3.336853199
232.81550,-2.726464384
232.81600,-1.200492345
232.81650,0.02028528547
232.81700,0.9358685086
232.81750,3.072229362
232.81800,5.818979032
232.81850,7.039756663
232.81900,5.208590216
232.81950,2.767034955
232.82000,2.767034955
232.82050,6.124173439
232.82100,9.176117517
232.82150,9.786506332
232.82200,8.565728701
232.82250,8.260534293
232.82300,7.955339886
232.82350,6.429367847
232.82400,4.293006993
232.82450,3.072229362
232.82500,3.072229362
232.82550,1.851451732
232.82600,-0.2849091222
232.82650,-1.810881161
232.82700,-1.505686753
232.82750,-1.200492345
232.82800,-1.505686753
232.82850,-2.116075568
232.82900,-1.810881161
232.82950,-1.505686753
232.83000,-1.505686753
232.83050,-1.810881161
232.83100,-0.8952979376
232.83150,0.02028528547
232.83200,0.3254796932
232.83250,-0.2849091222
232.83300,-1.200492345
232.83350,-1.505686753
232.83400,-1.200492345
232.83450,-0.8952979376
232.83500,-0.8952979376
232.83550,-0.8952979376
232.83600,-0.8952979376
232.83650,-0.2849091222
232.83700,0.3254796932
232.83750,1.851451732
232.83800,3.072229362
232.83850,3.37742377
232.83900,2.156646139
232.83950,0.3254796932
232.84000,-0.5901035299
232.84050,0.02028528547
232.84100,1.241062916
232.84150,1.241062916
232.84200,-0.8952979376
232.84250,-4.252436422
232.84300,-5.473214053
232.84350,-4.862825238
232.84400,-4.862825238
232.84450,-6.083602869
232.84500,-7.609574907
232.84550,-6.999186092
232.84600,-4.862825238
232.84650,-3.336853199
232.84700,-1.505686753
232.84750,0.6306741009
232.84800,4.293006993
232.84850,7.039756663
232.84900,8.565728701
232.84950,8.565728701
232.85000,8.260534293
232.85050,7.039756663
232.85100,5.513784624
232.85150,3.987812586
232.85200,3.37742377
232.85250,3.987812586
232.85300,4.598201401
232.85350,3.987812586
232.85400,1.851451732
232.85450,-0.5901035299
232.85500,-2.421269976
232.85550,-1.810881161
232.85600,0.02028528547
232.85650,2.156646139
232.85700,3.682618178
232.85750,2.767034955
232.85800,-0.5901035299
232.85850,-4.862825238
232.85900,-6.693991684
232.85950,-6.388797276
232.86000,-6.388797276
232.86050,-8.219963722
232.86100,-9.440741353
232.86150,-8.830352538
232.86200,-7.609574907
232.86250,-5.778408461
232.86300,-3.642047607
232.86350,-0.5901035299
232.86400,0.9358685086
232.86450,1.851451732
232.86500,4.293006993
232.86550,9.481311924
232.86600,14.66961686
232.86650,16.5007833
232.86700,17.41636652
232.86750,20.4683106
232.86800,22.90986586
232.86850,18.94233856
232.86900,8.870923109
232.86950,1.851451732
232.87000,2.156646139
232.87050,4.903395809
232.87100,3.987812586
232.87150,0.6306741009
232.87200,0.02028528547
232.87250,1.546257324
232.87300,0.9358685086
232.87350,-1.505686753
232.87400,-3.336853199
232.87450,-1.810881161
232.87500,-0.2849091222
232.87550,0.02028528547
232.87600,0.3254796932
232.87650,0.6306741009
232.87700,-0.5901035299
232.87750,-3.336853199
232.87800,-3.336853199
232.87850,-1.200492345
232.87900,-0.5901035299
232.87950,-3.031658792
232.88000,-4.862825238
232.88050,-3.336853199
232.88100,-1.200492345
232.88150,-1.505686753
232.88200,-2.726464384
232.88250,-2.726464384
232.88300,-1.810881161
232.88350,-2.726464384
232.88400,-4.862825238
232.88450,-4.862825238
232.88500,-2.116075568
232.88550,0.02028528547
232.88600,0.02028528547
232.88650,-2.421269976
232.88700,-4.862825238
232.88750,-4.862825238
232.88800,-2.726464384
232.88850,0.02028528547
232.88900,1.241062916
232.88950,0.6306741009
232.89000,0.02028528547
232.89050,-0.8952979376
232.89100,-3.031658792
232.89150,-6.693991684
232.89200,-9.745935761
232.89250,-10.66151898
232.89300,-10.05113017
232.89350,-10.96671339
232.89400,-13.71346306
232.89450,-15.84982392
232.89500,-15.84982392
232.89550,-15.54462951
232.89600,-15.84982392
232.89650,-14.01865747
232.89700,-7.609574907
232.89750,0.02028528547
232.89800,4.293006993
232.89850,4.293006993
232.89900,3.072229362
232.89950,2.461840547
232.90000,0.9358685086
232.90050,-1.200492345
232.90100,-2.421269976
232.90150,-0.8952979376
232.90200,0.3254796932
232.90250,0.3254796932
232.90300,1.241062916
232.90350,4.293006993
232.90400,6.429367847
232.90450,6.124173439
232.90500,5.513784624
232.90550,7.650145478
232.90600,11.00728396
232.90650,12.22806159
232.90700,10.39689515
232.90750,8.260534293
232.90800,7.34495107
232.90850,6.734562255
232.90900,6.429367847
232.90950,6.124173439
232.91000,5.208590216
232.91050,3.37742377
232.91100,1.851451732
232.91150,1.546257324
232.91200,1.546257324
232.91250,0.6306741009
232.91300,0.3254796932
232.91350,1.241062916
232.91400,1.546257324
232.91450,0.02028528547
232.91500,-1.810881161
232.91550,-2.116075568
232.91600,-2.421269976
232.91650,-4.252436422
232.91700,-7.914769315
232.91750,-9.745935761
232.91800,-9.135546946
232.91850,-7.304380499
232.91900,-6.388797276
232.91950,-6.999186092
232.92000,-7.609574907
232.92050,-6.999186092
232.92100,-3.642047607
232.92150,0.02028528547
232.92200,1.546257324
232.92250,0.6306741009
232.92300,-0.8952979376
232.92350,-1.200492345
232.92400,0.02028528547
232.92450,1.546257324
232.92500,3.682618178
232.92550,6.124173439
232.92600,7.650145478
232.92650,7.650145478
232.92700,6.734562255
232.92750,5.513784624
232.92800,3.682618178
232.92850,2.461840547
232.92900,2.767034955
232.92950,3.682618178
232.93000,2.461840547
232.93050,0.3254796932
232.93100,0.9358685086
232.93150,4.903395809
232.93200,7.650145478
232.93250,6.734562255
232.93300,3.37742377
232.93350,0.6306741009
232.93400,-1.200492345
232.93450,-3.947242015
232.93500,-7.914769315
232.93550,-13.71346306
232.93600,-20.73293444
232.93650,-26.53162818
232.93700,-25.61604496
232.93750,-18.29137918
232.93800,-10.66151898
232.93850,-7.304380499
232.93900,-6.083602869
232.93950,-2.726464384
232.94000,2.767034955
232.94050,7.34495107
232.94100,9.481311924
232.94150,10.39689515
232.94200,10.70208956
232.94250,10.39689515
232.94300,9.481311924
232.94350,9.176117517
232.94400,9.176117517
232.94450,8.870923109
232.94500,7.650145478
232.94550,6.429367847
232.94600,4.293006993
232.94650,2.767034955
232.94700,2.156646139
232.94750,2.156646139
232.94800,1.241062916
232.94850,-0.5901035299
232.94900,-1.200492345
232.94950,0.02028528547
232.95000,0.9358685086
232.95050,0.6306741009
232.95100,0.6306741009
232.95150,1.851451732
232.95200,1.851451732
232.95250,0.02028528547
232.95300,-2.116075568
232.95350,-2.116075568
232.95400,-1.505686753
232.95450,-2.116075568
232.95500,-2.116075568
232.95550,0.6306741009
232.95600,3.987812586
232.95650,4.293006993
232.95700,2.156646139
232.95750,0.02028528547
232.95800,0.02028528547
232.95850,0.02028528547
232.95900,-0.2849091222
232.95950,-0.2849091222
232.96000,0.02028528547
232.96050,-0.5901035299
232.96100,-1.810881161
232.96150,-2.421269976
232.96200,-1.810881161
232.96250,-0.8952979376
232.96300,-0.2849091222
232.96350,0.02028528547
232.96400,0.02028528547
232.96450,0.3254796932
232.96500,2.461840547
232.96550,4.598201401
232.96600,4.293006993
232.96650,0.3254796932
232.96700,-3.947242015
232.96750,-4.862825238
232.96800,-2.421269976
232.96850,0.3254796932
232.96900,2.156646139
232.96950,3.072229362
232.97000,2.461840547
232.97050,1.241062916
232.97100,0.6306741009
232.97150,1.546257324
232.97200,1.241062916
232.97250,-1.810881161
232.97300,-5.473214053
232.97350,-4.55763083
232.97400,0.9358685086
232.97450,5.818979032
232.97500,6.124173439
232.97550,3.987812586
232.97600,2.767034955
232.97650,2.461840547
232.97700,1.546257324
232.97750,0.9358685086
232.97800,0.9358685086
232.97850,0.3254796932
232.97900,-0.8952979376
232.97950,-2.116075568
232.98000,-1.200492345
232.98050,0.6306741009
232.98100,1.546257324
232.98150,0.9358685086
232.98200,0.3254796932
232.98250,0.02028528547
232.98300,0.02028528547
232.98350,0.9358685086
232.98400,2.461840547
232.98450,3.072229362
232.98500,1.546257324
232.98550,-0.2849091222
232.98600,-0.5901035299
232.98650,-0.5901035299
232.98700,-1.810881161
232.98750,-3.642047607
232.98800,-3.336853199
232.98850,-1.810881161
232.98900,-1.505686753
232.98950,-3.336853199
232.99000,-5.168019645
232.99050,-5.168019645
232.99100,-4.252436422
232.99150,-4.252436422
232.99200,-4.252436422
232.99250,-3.031658792
232.99300,-0.8952979376
232.99350,-0.2849091222
232.99400,-1.200492345
232.99450,-1.200492345
232.99500,0.6306741009
232.99550,3.37742377
232.99600,4.293006993
232.99650,2.461840547
232.99700,0.02028528547
232.99750,0.02028528547
232.99800,0.6306741009
232.99850,2.156646139
232.99900,3.37742377
232.99950,4.598201401
233.00000,5.208590216
233.00050,5.208590216
233.00100,5.208590216
233.00150,5.513784624
233.00200,5.818979032
233.00250,4.903395809
233.00300,2.767034955
233.00350,0.02028528547
233.00400,-2.116075568
233.00450,-2.726464384
233.00500,-1.200492345
233.00550,0.9358685086
233.00600,1.241062916
233.00650,-0.5901035299
233.00700,-3.947242015
233.00750,-6.693991684
233.00800,-8.830352538
233.00850,-9.135546946
233.00900,-6.388797276
233.00950,-2.116075568
233.01000,2.461840547
233.01050,6.429367847
233.01100,8.870923109
233.01150,8.870923109
233.01200,4.903395809
233.01250,-0.8952979376
233.01300,-6.999186092
233.01350,-11.88229661
233.01400,-15.2394351
233.01450,-17.07060155
233.01500,-15.84982392
233.01550,-11.57710221
233.01600,-6.693991684
233.01650,-3.031658792
233.01700,-1.505686753
233.01750,-1.200492345
233.01800,-0.5901035299
233.01850,1.851451732
233.01900,7.650145478
233.01950,13.14364482
233.02000,16.19558889
233.02050,16.80597771
233.02100,15.58520008
233.02150,11.92286719
233.02200,6.124173439
233.02250,0.6306741009
233.02300,-0.8952979376
233.02350,-0.2849091222
233.02400,-2.116075568
233.02450,-6.083602869
233.02500,-7.914769315
233.02550,-5.778408461
233.02600,-2.421269976
233.02650,-1.810881161
233.02700,-2.421269976
233.02750,-3.031658792
233.02800,-3.947242015
233.02850,-5.168019645
233.02900,-6.388797276
233.02950,-5.778408461
233.03000,-4.55763083
233.03050,-4.55763083
233.03100,-5.168019645
233.03150,-4.252436422
233.03200,-1.810881161
233.03250,0.6306741009
233.03300,3.37742377
233.03350,5.513784624
233.03400,6.124173439
233.03450,4.598201401
233.03500,3.37742377
233.03550,3.987812586
233.03600,6.429367847
233.03650,7.955339886
233.03700,6.124173439
233.03750,1.546257324
233.03800,-2.421269976
233.03850,-3.947242015
233.03900,-3.642047607
233.03950,-3.336853199
233.04000,-5.473214053
233.04050,-8.830352538
233.04100,-10.66151898
233.04150,-10.05113017
233.04200,-9.135546946
233.04250,-9.745935761
233.04300,-8.830352538
233.04350,-4.55763083
233.04400,1.546257324
233.04450,4.903395809
233.04500,3.987812586
233.04550,1.546257324
233.04600,1.546257324
233.04650,3.682618178
233.04700,5.818979032
233.04750,6.429367847
233.04800,4.598201401
233.04850,1.241062916
233.04900,-0.2849091222
233.04950,0.9358685086
233.05000,3.682618178
233.05050,4.293006993
233.05100,1.851451732
233.05150,-0.2849091222
233.05200,-0.8952979376
233.05250,-0.5901035299
233.05300,-0.8952979376
233.05350,-0.8952979376
233.05400,-0.8952979376
233.05450,-1.505686753
233.05500,-3.031658792
233.05550,-2.726464384
233.05600,-0.8952979376
233.05650,0.02028528547
233.05700,-2.116075568
233.05750,-4.252436422
233.05800,-4.252436422
233.05850,-1.810881161
233.05900,0.02028528547
233.05950,0.6306741009
233.06000,0.6306741009
233.06050,0.6306741009
233.06100,1.241062916
233.06150,2.461840547
233.06200,3.987812586
233.06250,3.37742377
233.06300,0.6306741009
233.06350,-2.726464384
233.06400,-4.862825238
233.06450,-5.168019645
233.06500,-2.726464384
233.06550,2.156646139
233.06600,8.870923109
233.06650,13.14364482
233.06700,14.36442245
233.06750,13.75403363
233.06800,13.14364482
233.06850,12.22806159
233.06900,10.09170074
233.06950,7.955339886
233.07000,5.208590216
233.07050,0.3254796932
233.07100,-5.168019645
233.07150,-7.914769315
233.07200,-7.304380499
233.07250,-6.999186092
233.07300,-8.219963722
233.07350,-8.52515813
233.07400,-6.388797276
233.07450,-4.862825238
233.07500,-6.693991684
233.07550,-7.914769315
233.07600,-4.862825238
233.07650,0.3254796932
233.07700,3.37742377
233.07750,3.987812586
233.07800,5.208590216
233.07850,7.34495107
233.07900,8.565728701
233.07950,8.565728701
233.08000,9.176117517
233.08050,10.70208956
233.08100,10.39689515
233.08150,7.955339886
233.08200,5.208590216
233.08250,1.546257324
233.08300,-3.031658792
233.08350,-7.609574907
233.08400,-9.745935761
233.08450,-9.440741353
233.08500,-8.52515813
233.08550,-8.52515813
233.08600,-8.52515813
233.08650,-7.304380499
233.08700,-4.862825238
233.08750,-2.116075568
233.08800,1.241062916
233.08850,3.682618178
233.08900,3.987812586
233.08950,2.461840547
233.09000,0.9358685086
233.09050,0.02028528547
233.09100,-2.726464384
233.09150,-6.388797276
233.09200,-8.52515813
233.09250,-7.304380499
233.09300,-5.168019645
233.09350,-4.55763083
233.09400,-3.642047607
233.09450,0.02028528547
233.09500,5.208590216
233.09550,6.124173439
233.09600,3.37742377
233.09650,3.682618178
233.09700,8.870923109
233.09750,14.97481126
233.09800,17.11117212
233.09850,16.19558889
233.09900,15.58520008
233.09950,15.28000567
233.10000,14.05922804
233.10050,11.92286719
233.10100,10.09170074
233.10150,8.260534293
233.10200,5.208590216
233.10250,3.072229362
233.10300,2.767034955
233.10350,3.072229362
233.10400,1.546257324
233.10450,-0.8952979376
233.10500,-2.116075568
233.10550,-1.505686753
233.10600,-0.5901035299
233.10650,0.02028528547
233.10700,1.241062916
233.10750,2.767034955
233.10800,1.851451732
233.10850,-1.200492345
233.10900,-4.252436422
233.10950,-5.473214053
233.11000,-5.778408461
233.11050,-6.999186092
233.11100,-8.52515813
233.11150,-8.52515813
233.11200,-6.388797276
233.11250,-2.726464384
233.11300,1.241062916
233.11350,5.208590216
233.11400,7.955339886
233.11450,7.650145478
233.11500,3.987812586
233.11550,-1.505686753
233.11600,-6.388797276
233.11650,-6.999186092
233.11700,-4.252436422
233.11750,-1.810881161
233.11800,-2.421269976
233.11850,-4.55763083
233.11900,-6.083602869
233.11950,-5.778408461
233.12000,-4.862825238
233.12050,-3.642047607
233.12100,-3.336853199
233.12150,-4.862825238
233.12200,-7.304380499
233.12250,-9.135546946
233.12300,-8.52515813
233.12350,-5.778408461
233.12400,-2.726464384
233.12450,0.02028528547
233.12500,0.9358685086
233.12550,0.3254796932
233.12600,-1.200492345
233.12650,-3.031658792
233.12700,-3.642047607
233.12750,-3.336853199
233.12800,-2.421269976
233.12850,-1.200492345
233.12900,-0.5901035299
233.12950,-2.116075568
233.13000,-3.947242015
233.13050,-3.336853199
233.13100,-0.2849091222
233.13150,2.461840547
233.13200,2.461840547
233.13250,0.6306741009
233.13300,0.3254796932
233.13350,1.851451732
233.13400,3.682618178
233.13450,3.682618178
233.13500,1.546257324
233.13550,-0.8952979376
233.13600,-2.726464384
233.13650,-2.421269976
233.13700,-1.200492345
233.13750,-0.5901035299
233.13800,0.02028528547
233.13850,1.241062916
233.13900,3.072229362
233.13950,2.767034955
233.14000,0.3254796932
233.14050,-1.505686753
233.14100,-0.2849091222
233.14150,1.546257324
233.14200,1.546257324
233.14250,-0.5901035299
233.14300,-3.031658792
233.14350,-3.947242015
233.14400,-3.947242015
233.14450,-2.726464384
233.14500,-0.5901035299
233.14550,1.241062916
233.14600,1.546257324
233.14650,0.02028528547
233.14700,-2.116075568
233.14750,-3.947242015
233.14800,-5.168019645
233.14850,-5.168019645
233.14900,-3.336853199
233.14950,-1.200492345
233.15000,-1.505686753
233.15050,-3.336853199
233.15100,-3.642047607
233.15150,0.02028528547
233.15200,3.987812586
233.15250,5.208590216
233.15300,2.156646139
233.15350,-0.2849091222
233.15400,-0.5901035299
233.15450,0.02028528547
233.15500,-1.505686753
233.15550,-4.252436422
233.15600,-4.862825238
233.15650,-1.505686753
233.15700,2.461840547
233.15750,3.987812586
233.15800,3.072229362
233.15850,2.156646139
233.15900,1.546257324
233.15950,0.6306741009
233.16000,0.02028528547
233.16050,0.02028528547
233.16100,0.9358685086
233.16150,2.156646139
233.16200,2.767034955
233.16250,1.851451732
233.16300,-0.2849091222
233.16350,-3.031658792
233.16400,-3.336853199
233.16450,-0.8952979376
233.16500,1.241062916
233.16550,1.851451732
233.16600,2.156646139
233.16650,4.598201401
233.16700,7.039756663
233.16750,5.818979032
233.16800,2.461840547
233.16850,0.02028528547
233.16900,-1.810881161
233.16950,-6.083602869
233.17000,-10.96671339
233.17050,-12.79787984
233.17100,-13.10307425
233.17150,-15.54462951
233.17200,-19.51215681
233.17250,-19.51215681
233.17300,-14.01865747
233.17350,-7.609574907
233.17400,-4.55763083
233.17450,-3.031658792
233.17500,0.02028528547
233.17550,4.293006993
233.17600,7.955339886
233.17650,11.61767278
233.17700,16.80597771
233.17750,20.77350501
233.17800,20.77350501
233.17850,17.41636652
233.17900,13.75403363
233.17950,11.92286719
233.18000,10.70208956
233.18050,9.176117517
233.18100,8.260534293
233.18150,7.650145478
233.18200,5.513784624
233.18250,1.546257324
233.18300,-1.200492345
233.18350,-2.116075568
233.18400,-1.200492345
233.18450,0.02028528547
233.18500,1.546257324
233.18550,5.513784624
233.18600,10.39689515
233.18650,13.14364482
233.18700,12.83845041
233.18750,11.00728396
233.18800,9.481311924
233.18850,8.260534293
233.18900,5.513784624
233.18950,1.851451732
233.19000,-1.505686753
233.19050,-4.252436422
233.19100,-6.083602869
233.19150,-5.778408461
233.19200,-4.252436422
233.19250,-2.726464384
233.19300,-3.947242015
233.19350,-5.168019645
233.19400,-4.55763083
233.19450,-2.116075568
233.19500,-1.810881161
233.19550,-3.336853199
233.19600,-3.947242015
233.19650,-1.810881161
233.19700,-0.8952979376
233.19750,-3.336853199
233.19800,-5.473214053
233.19850,-3.642047607
233.19900,0.3254796932
233.19950,3.072229362
233.20000,3.072229362
233.20050,3.072229362
233.20100,3.37742377
233.20150,3.072229362
233.20200,1.851451732
233.20250,0.6306741009
233.20300,0.02028528547
233.20350,-1.200492345
233.20400,-2.116075568
233.20450,-2.116075568
233.20500,-1.810881161
233.20550,-1.810881161
233.20600,-1.505686753
233.20650,-1.200492345
233.20700,-2.421269976
233.20750,-6.693991684
233.20800,-10.35632458
233.20850,-10.96671339
233.20900,-9.440741353
233.20950,-8.830352538
233.21000,-8.830352538
233.21050,-7.914769315
233.21100,-6.083602869
233.21150,-3.336853199
233.21200,1.546257324
233.21250,7.955339886
233.21300,11.00728396
233.21350,7.039756663
233.21400,0.3254796932
233.21450,-0.8952979376
233.21500,2.156646139
233.21550,3.987812586
233.21600,1.546257324
233.21650,0.02028528547
233.21700,1.546257324
233.21750,3.682618178
233.21800,2.461840547
233.21850,0.02028528547
233.21900,-0.2849091222
233.21950,-0.2849091222
233.22000,-1.200492345
233.22050,-1.200492345
233.22100,0.02028528547
233.22150,0.6306741009
233.22200,-1.505686753
233.22250,-4.55763083
233.22300,-3.336853199
233.22350,0.6306741009
233.22400,3.682618178
233.22450,3.987812586
233.22500,3.682618178
233.22550,3.987812586
233.22600,2.461840547
233.22650,-0.2849091222
233.22700,-2.116075568
233.22750,-1.505686753
233.22800,0.02028528547
233.22850,0.6306741009
233.22900,0.6306741009
233.22950,1.546257324
233.23000,2.156646139
233.23050,2.156646139
233.23100,1.241062916
233.23150,1.241062916
233.23200,1.851451732
233.23250,2.156646139
233.23300,1.851451732
233.23350,1.241062916
233.23400,0.3254796932
233.23450,-0.5901035299
233.23500,-1.810881161
233.23550,-2.726464384
233.23600,-3.642047607
233.23650,-4.862825238
233.23700,-6.083602869
233.23750,-6.999186092
233.23800,-7.914769315
233.23850,-8.52515813
233.23900,-7.609574907
233.23950,-5.778408461
233.24000,-3.947242015
233.24050,-2.421269976
233.24100,-1.505686753
233.24150,-1.200492345
233.24200,-1.505686753
233.24250,-1.505686753
233.24300,-0.8952979376
233.24350,-0.2849091222
233.24400,-0.8952979376
233.24450,-1.200492345
233.24500,1.241062916
233.24550,5.818979032
233.24600,8.260534293
233.24650,6.429367847
233.24700,2.461840547
233.24750,-0.2849091222
233.24800,-1.200492345
233.24850,0.6306741009
233.24900,3.987812586
233.24950,5.818979032
233.25000,4.598201401
233.25050,1.851451732
233.25100,0.6306741009
233.25150,0.6306741009
233.25200,-1.200492345
233.25250,-4.252436422
233.25300,-5.473214053
233.25350,-5.473214053
233.25400,-6.693991684
233.25450,-9.440741353
233.25500,-10.96671339
233.25550,-10.66151898
233.25600,-8.830352538
233.25650,-5.778408461
233.25700,-1.810881161
233.25750,-0.2849091222
233.25800,-1.810881161
233.25850,-1.505686753
233.25900,4.903395809
233.25950,14.36442245
233.26000,18.02675534
233.26050,13.14364482
233.26100,6.124173439
233.26150,2.461840547
233.26200,0.6306741009
233.26250,-2.116075568
233.26300,-5.473214053
233.26350,-7.609574907
233.26400,-8.830352538
233.26450,-9.745935761
233.26500,-7.609574907
233.26550,-2.116075568
233.26600,2.461840547
233.26650,2.767034955
233.26700,0.02028528547
233.26750,-0.5901035299
233.26800,2.156646139
233.26850,7.039756663
233.26900,9.176117517
233.26950,7.039756663
233.27000,3.37742377
233.27050,2.461840547
233.27100,6.124173439
233.27150,10.39689515
233.27200,11.00728396
233.27250,8.260534293
233.27300,6.429367847
233.27350,7.039756663
233.27400,7.34495107
233.27450,5.818979032
233.27500,2.461840547
233.27550,0.02028528547
233.27600,-1.810881161
233.27650,-3.336853199
233.27700,-3.642047607
233.27750,-2.421269976
233.27800,-1.200492345
233.27850,-1.505686753
233.27900,-3.031658792
233.27950,-3.336853199
233.28000,-2.116075568
233.28050,0.02028528547
233.28100,0.02028528547
233.28150,-1.200492345
233.28200,-2.726464384
233.28250,-3.336853199
233.28300,-3.947242015
233.28350,-5.473214053
233.28400,-6.999186092
233.28450,-6.083602869
233.28500,-2.116075568
233.28550,2.461840547
233.28600,7.34495107
233.28650,11.61767278
233.28700,13.75403363
233.28750,12.22806159
233.28800,7.34495107
233.28850,3.072229362
233.28900,0.3254796932
233.28950,-2.726464384
233.29000,-8.830352538
233.29050,-14.32385188
233.29100,-14.93424069
233.29150,-10.66151898
233.29200,-5.473214053
233.29250,-1.810881161
233.29300,-0.2849091222
233.29350,-0.8952979376
233.29400,-2.726464384
233.29450,-3.947242015
233.29500,-3.642047607
233.29550,-3.642047607
233.29600,-5.778408461
233.29650,-6.999186092
233.29700,-4.862825238
233.29750,-2.116075568
233.29800,-2.726464384
233.29850,-5.473214053
233.29900,-6.693991684
233.29950,-5.778408461
233.30000,-5.473214053
233.30050,-5.473214053
233.30100,-2.421269976
233.30150,2.461840547
233.30200,4.598201401
233.30250,2.767034955
233.30300,1.546257324
233.30350,3.987812586
233.30400,6.734562255
233.30450,6.124173439
233.30500,4.903395809
233.30550,5.818979032
233.30600,7.650145478
233.30650,7.955339886
233.30700,7.955339886
233.30750,10.09170074
233.30800,11.92286719
233.30850,10.39689515
233.30900,7.039756663
233.30950,6.124173439
233.31000,7.34495107
233.31050,6.734562255
233.31100,2.461840547
233.31150,-0.5901035299
233.31200,-0.8952979376
233.31250,-0.2849091222
233.31300,-1.810881161
233.31350,-4.55763083
233.31400,-6.693991684
233.31450,-8.219963722
233.31500,-10.96671339
233.31550,-12.18749102
233.31600,-9.745935761
233.31650,-4.252436422
233.31700,-0.2849091222
233.31750,0.6306741009
233.31800,0.02028528547
233.31850,0.3254796932
233.31900,1.546257324
233.31950,3.072229362
233.32000,4.903395809
233.32050,5.818979032
233.32100,4.903395809
233.32150,2.767034955
233.32200,0.3254796932
233.32250,-0.2849091222
233.32300,0.02028528547
233.32350,2.156646139
233.32400,4.293006993
233.32450,3.987812586
233.32500,1.241062916
233.32550,-1.505686753
233.32600,-2.726464384
233.32650,-3.031658792
233.32700,-4.252436422
233.32750,-6.388797276
233.32800,-6.999186092
233.32850,-5.473214053
233.32900,-4.862825238
233.32950,-4.862825238
233.33000,-2.726464384
233.33050,1.546257324
233.33100,4.903395809
233.33150,5.208590216
233.33200,5.513784624
233.33250,9.481311924
233.33300,13.14364482
233.33350,11.92286719
233.33400,6.734562255
233.33450,4.293006993
233.33500,6.429367847
233.33550,7.955339886
233.33600,4.903395809
233.33650,-1.200492345
233.33700,-7.609574907
233.33750,-12.49268543
233.33800,-15.2394351
233.33850,-17.07060155
233.33900,-18.90176799
233.33950,-20.73293444
233.34000,-20.42774003
233.34050,-16.46021273
233.34100,-10.35632458
233.34150,-3.947242015
233.34200,2.156646139
233.34250,8.260534293
233.34300,11.00728396
233.34350,11.61767278
233.34400,14.05922804
233.34450,20.77350501
233.34500,25.96180994
233.34550,24.4358379
233.34600,18.94233856
233.34650,14.36442245
233.34700,11.31247837
233.34750,6.734562255
233.34800,2.461840547
233.34850,2.767034955
233.34900,4.903395809
233.34950,3.682618178
233.35000,-0.5901035299
233.35050,-2.116075568
233.35100,0.6306741009
233.35150,2.767034955
233.35200,1.546257324
233.35250,-0.2849091222
233.35300,0.02028528547
233.35350,0.02028528547
233.35400,-1.200492345
233.35450,-2.726464384
233.35500,-2.726464384
233.35550,-2.726464384
233.35600,-4.55763083
233.35650,-6.388797276
233.35700,-6.083602869
233.35750,-4.252436422
233.35800,-3.642047607
233.35850,-4.55763083
233.35900,-5.778408461
233.35950,-5.473214053
233.36000,-3.947242015
233.36050,-2.726464384
233.36100,-1.810881161
233.36150,-0.8952979376
233.36200,0.02028528547
233.36250,0.6306741009
233.36300,0.02028528547
233.36350,-0.5901035299
233.36400,-0.5901035299
233.36450,0.02028528547
233.36500,0.3254796932
233.36550,0.3254796932
233.36600,0.02028528547
233.36650,-0.2849091222
233.36700,-0.5901035299
233.36750,-1.200492345
233.36800,-2.726464384
233.36850,-3.947242015
233.36900,-4.862825238
233.36950,-5.473214053
233.37000,-5.473214053
233.37050,-5.168019645
233.37100,-4.55763083
233.37150,-3.642047607
233.37200,-3.031658792
233.37250,-3.031658792
233.37300,-3.031658792
233.37350,-2.726464384
233.37400,-2.421269976
233.37450,-2.421269976
233.37500,-3.336853199
233.37550,-4.55763083
233.37600,-4.862825238
233.37650,-3.947242015
233.37700,-1.810881161
233.37750,0.3254796932
233.37800,0.3254796932
233.37850,-1.810881161
233.37900,-5.168019645
233.37950,-6.083602869
233.38000,-3.947242015
233.38050,-0.8952979376
233.38100,0.3254796932
233.38150,0.02028528547
233.38200,-0.5901035299
233.38250,-0.2849091222
233.38300,2.461840547
233.38350,7.039756663
233.38400,8.565728701
233.38450,4.598201401
233.38500,-1.810881161
233.38550,-5.473214053
233.38600,-3.947242015
233.38650,-0.2849091222
233.38700,1.546257324
233.38750,2.156646139
233.38800,3.37742377
233.38850,4.903395809
233.38900,6.124173439
233.38950,7.039756663
233.39000,7.650145478
233.39050,7.039756663
233.39100,5.208590216
233.39150,3.37742377
233.39200,2.156646139
233.39250,1.241062916
233.39300,0.02028528547
233.39350,-0.8952979376
233.39400,-0.8952979376
233.39450,0.02028528547
233.39500,0.6306741009
233.39550,0.02028528547
233.39600,-1.200492345
233.39650,-1.810881161
233.39700,-1.505686753
233.39750,-0.2849091222
233.39800,0.02028528547
233.39850,0.3254796932
233.39900,0.02028528547
233.39950,-0.2849091222
233.40000,-1.505686753
233.40050,-3.336853199
233.40100,-5.168019645
233.40150,-6.083602869
233.40200,-5.778408461
233.40250,-4.55763083
233.40300,-3.031658792
233.40350,-2.421269976
233.40400,-2.726464384
233.40450,-2.116075568
233.40500,0.3254796932
233.40550,3.682618178
233.40600,5.513784624
233.40650,6.734562255
233.40700,8.565728701
233.40750,9.786506332
233.40800,8.870923109
233.40850,7.955339886
233.40900,9.481311924
233.40950,12.533256
233.41000,11.61767278
233.41050,6.429367847
233.41100,1.546257324
233.41150,0.3254796932
233.41200,0.3254796932
233.41250,-0.8952979376
233.41300,-3.031658792
233.41350,-3.642047607
233.41400,-4.55763083
233.41450,-7.609574907
233.41500,-10.96671339
233.41550,-10.66151898
233.41600,-7.914769315
233.41650,-5.473214053
233.41700,-4.55763083
233.41750,-3.947242015
233.41800,-4.55763083
233.41850,-6.388797276
233.41900,-6.999186092
233.41950,-3.336853199
233.42000,3.682618178
233.42050,9.481311924
233.42100,9.786506332
233.42150,7.34495107
233.42200,6.124173439
233.42250,6.734562255
233.42300,7.955339886
233.42350,8.565728701
233.42400,8.260534293
233.42450,7.650145478
233.42500,6.124173439
233.42550,4.598201401
233.42600,3.37742377
233.42650,2.461840547
233.42700,1.851451732
233.42750,1.546257324
233.42800,0.9358685086
233.42850,0.6306741009
233.42900,0.9358685086
233.42950,1.546257324
233.43000,2.156646139
233.43050,1.241062916
233.43100,-0.5901035299
233.43150,-2.726464384
233.43200,-4.252436422
233.43250,-5.168019645
233.43300,-6.083602869
233.43350,-6.999186092
233.43400,-7.304380499
233.43450,-7.304380499
233.43500,-7.609574907
233.43550,-9.440741353
233.43600,-12.18749102
233.43650,-14.32385188
233.43700,-14.93424069
233.43750,-13.71346306
233.43800,-12.18749102
233.43850,-10.35632458
233.43900,-7.304380499
233.43950,-3.031658792
233.44000,1.851451732
233.44050,7.955339886
233.44100,14.05922804
233.44150,17.72156093
233.44200,17.72156093
233.44250,15.89039449
233.44300,15.28000567
233.44350,15.28000567
233.44400,13.44883922
233.44450,7.34495107
233.44500,-0.2849091222
233.44550,-4.862825238
233.44600,-4.252436422
233.44650,-1.810881161
233.44700,-1.810881161
233.44750,-4.862825238
233.44800,-6.693991684
233.44850,-3.642047607
233.44900,0.9358685086
233.44950,2.767034955
233.45000,0.3254796932
233.45050,-3.642047607
233.45100,-6.693991684
233.45150,-8.52515813
233.45200,-8.830352538
233.45250,-6.999186092
233.45300,-3.031658792
233.45350,-0.5901035299
233.45400,-0.2849091222
233.45450,-0.8952979376
233.45500,-0.8952979376
233.45550,-0.2849091222
233.45600,0.02028528547
233.45650,1.241062916
233.45700,3.682618178
233.45750,4.903395809
233.45800,4.293006993
233.45850,2.767034955
233.45900,1.851451732
233.45950,1.546257324
233.46000,1.546257324
233.46050,1.851451732
233.46100,2.156646139
233.46150,1.241062916
233.46200,0.02028528547
233.46250,0.02028528547
233.46300,2.156646139
233.46350,4.903395809
233.46400,4.598201401
233.46450,2.767034955
233.46500,1.546257324
233.46550,0.9358685086
233.46600,-0.5901035299
233.46650,-3.642047607
233.46700,-4.55763083
233.46750,-1.810881161
233.46800,0.02028528547
233.46850,-0.2849091222
233.46900,-2.116075568
233.46950,-1.505686753
233.47000,0.9358685086
233.47050,1.851451732
233.47100,0.02028528547
233.47150,-3.642047607
233.47200,-5.778408461
233.47250,-5.168019645
233.47300,-3.336853199
233.47350,-1.505686753
233.47400,0.02028528547
233.47450,0.9358685086
233.47500,1.851451732
233.47550,1.241062916
233.47600,0.02028528547
233.47650,-1.810881161
233.47700,-1.505686753
233.47750,0.02028528547
233.47800,0.9358685086
233.47850,0.3254796932
233.47900,0.02028528547
233.47950,0.3254796932
233.48000,0.6306741009
233.48050,0.02028528547
233.48100,-2.116075568
233.48150,-1.810881161
233.48200,0.6306741009
233.48250,3.072229362
233.48300,3.37742377
233.48350,1.241062916
233.48400,-0.8952979376
233.48450,-1.200492345
233.48500,0.6306741009
233.48550,3.682618178
233.48600,4.903395809
233.48650,3.987812586
233.48700,3.37742377
233.48750,3.987812586
233.48800,4.598201401
233.48850,2.767034955
233.48900,0.3254796932
233.48950,0.02028528547
233.49000,0.02028528547
233.49050,-1.505686753
233.49100,-4.252436422
233.49150,-5.778408461
233.49200,-5.168019645
233.49250,-4.252436422
233.49300,-3.947242015
233.49350,-3.947242015
233.49400,-4.252436422
233.49450,-5.168019645
233.49500,-5.473214053
233.49550,-4.252436422
233.49600,-3.031658792
233.49650,-3.642047607
233.49700,-5.473214053
233.49750,-5.473214053
233.49800,-3.642047607
233.49850,-2.726464384
233.49900,-3.947242015
233.49950,-4.55763083
233.50000,-1.505686753
233.50050,3.072229362
233.50100,6.124173439
233.50150,5.818979032
233.50200,4.293006993
233.50250,4.903395809
233.50300,6.734562255
233.50350,6.429367847
233.50400,2.461840547
233.50450,-3.336853199
233.50500,-7.914769315
233.50550,-9.745935761
233.50600,-9.745935761
233.50650,-9.135546946
233.50700,-9.135546946
233.50750,-9.745935761
233.50800,-10.05113017
233.50850,-7.304380499
233.50900,-1.200492345
233.50950,5.208590216
233.51000,7.955339886
233.51050,7.34495107
233.51100,9.176117517
233.51150,15.28000567
233.51200,19.85792179
233.51250,17.11117212
233.51300,9.176117517
233.51350,3.37742377
233.51400,2.156646139
233.51450,1.851451732
233.51500,-0.8952979376
233.51550,-4.252436422
233.51600,-4.55763083
233.51650,-0.2849091222
233.51700,4.598201401
233.51750,7.650145478
233.51800,7.650145478
233.51850,6.734562255
233.51900,5.208590216
233.51950,3.072229362
233.52000,0.6306741009
233.52050,0.02028528547
233.52100,0.9358685086
233.52150,1.851451732
233.52200,0.6306741009
233.52250,-3.031658792
233.52300,-5.778408461
233.52350,-4.862825238
233.52400,-3.642047607
233.52450,-5.473214053
233.52500,-9.440741353
233.52550,-10.96671339
233.52600,-7.609574907
233.52650,-3.031658792
233.52700,-0.8952979376
233.52750,-1.200492345
233.52800,-2.116075568
233.52850,-2.726464384
233.52900,-3.031658792
233.52950,-1.505686753
233.53000,1.241062916
233.53050,4.293006993
233.53100,6.124173439
233.53150,7.650145478
233.53200,8.870923109
233.53250,7.955339886
233.53300,4.293006993
233.53350,2.767034955
233.53400,5.513784624
233.53450,8.870923109
233.53500,7.955339886
233.53550,3.072229362
233.53600,0.6306741009
233.53650,2.767034955
233.53700,6.124173439
233.53750,6.734562255
233.53800,4.598201401
233.53850,1.546257324
233.53900,-0.8952979376
233.53950,-2.421269976
233.54000,-1.505686753
233.54050,0.02028528547
233.54100,0.9358685086
233.54150,0.6306741009
233.54200,0.02028528547
233.54250,0.02028528547
233.54300,-0.2849091222
233.54350,-1.505686753
233.54400,-3.031658792
233.54450,-3.336853199
233.54500,-2.726464384
233.54550,-1.505686753
233.54600,0.02028528547
233.54650,1.241062916
233.54700,1.851451732
233.54750,0.9358685086
233.54800,-1.200492345
233.54850,-3.031658792
233.54900,-3.031658792
233.54950,-1.810881161
233.55000,-2.726464384
233.55050,-6.388797276
233.55100,-9.440741353
233.55150,-9.135546946
233.55200,-7.914769315
233.55250,-8.219963722
233.55300,-8.219963722
233.55350,-4.862825238
233.55400,0.02028528547
233.55450,2.461840547
233.55500,1.546257324
233.55550,2.156646139
233.55600,5.513784624
233.55650,8.260534293
233.55700,7.039756663
233.55750,4.598201401
233.55800,3.072229362
233.55850,1.241062916
233.55900,-1.505686753
233.55950,-3.642047607
233.56000,-3.642047607
233.56050,-3.336853199
233.56100,-5.168019645
233.56150,-6.693991684
233.56200,-4.252436422
233.56250,-0.5901035299
233.56300,0.3254796932
233.56350,0.02028528547
233.56400,1.546257324
233.56450,4.598201401
233.56500,6.124173439
233.56550,3.987812586
233.56600,0.6306741009
233.56650,-0.2849091222
233.56700,0.6306741009
233.56750,3.37742377
233.56800,6.734562255
233.56850,7.955339886
233.56900,6.429367847
233.56950,3.682618178
233.57000,2.461840547
233.57050,2.156646139
233.57100,0.6306741009
233.57150,-0.8952979376
233.57200,-1.200492345
233.57250,-0.2849091222
233.57300,-0.2849091222
233.57350,-2.116075568
233.57400,-2.726464384
233.57450,-1.810881161
233.57500,-1.505686753
233.57550,-3.642047607
233.57600,-4.862825238
233.57650,-3.642047607
233.57700,-1.505686753
233.57750,-2.116075568
233.57800,-3.642047607
233.57850,-4.252436422
233.57900,-4.252436422
233.57950,-4.862825238
233.58000,-4.862825238
233.58050,-1.810881161
233.58100,0.6306741009
233.58150,-0.8952979376
233.58200,-6.999186092
233.58250,-11.88229661
233.58300,-12.49268543
233.58350,-12.49268543
233.58400,-14.93424069
233.58450,-15.84982392
233.58500,-12.18749102
233.58550,-6.083602869
233.58600,-2.726464384
233.58650,-1.505686753
233.58700,0.9358685086
233.58750,5.208590216
233.58800,6.734562255
233.58850,5.513784624
233.58900,7.955339886
233.58950,15.58520008
233.59000,22.29947705
233.59050,22.90986586
233.59100,19.24753297
233.59150,15.89039449
233.59200,13.44883922
233.59250,8.870923109
233.59300,3.987812586
233.59350,1.851451732
233.59400,1.851451732
233.59450,1.851451732
233.59500,0.9358685086
233.59550,0.02028528547
233.59600,-1.505686753
233.59650,-4.252436422
233.59700,-5.473214053
233.59750,-4.252436422
233.59800,-1.810881161
233.59850,-1.505686753
233.59900,-1.810881161
233.59950,-0.5901035299
233.60000,1.546257324
233.60050,2.767034955
233.60100,2.767034955
233.60150,2.767034955
233.60200,1.241062916
233.60250,-3.031658792
233.60300,-8.219963722
233.60350,-10.05113017
233.60400,-8.52515813
233.60450,-6.693991684
233.60500,-7.609574907
233.60550,-9.135546946
233.60600,-10.05113017
233.60650,-10.96671339
233.60700,-11.57710221
233.60750,-11.2719078
233.60800,-8.52515813
233.60850,-4.55763083
233.60900,-1.200492345
233.60950,0.3254796932
233.61000,0.3254796932
233.61050,0.02028528547
233.61100,2.156646139
233.61150,7.039756663
233.61200,11.00728396
233.61250,10.70208956
233.61300,6.734562255
233.61350,2.767034955
233.61400,0.3254796932
233.61450,-1.810881161
233.61500,-3.947242015
233.61550,-4.252436422
233.61600,-2.726464384
233.61650,-2.421269976
233.61700,-4.862825238
233.61750,-7.914769315
233.61800,-7.609574907
233.61850,-4.862825238
233.61900,-1.505686753
233.61950,0.02028528547
233.62000,1.241062916
233.62050,2.767034955
233.62100,3.37742377
233.62150,3.682618178
