"type","name","time_units","begin_time","frequency","count","units"
"signal","Ultium EMG-BRACHIORAD. RT","s",406.98000,2000,22000,"uV"

"time","value"
406.98000,-0.6023052054
406.98050,-2.433471652
406.98100,-0.9074996131
406.98150,4.280805318
406.98200,10.07949906
406.98250,12.21585992
406.98300,10.68988788
406.98350,8.553527026
406.98400,8.248332618
406.98450,8.858721433
406.98500,7.027554987
406.98550,2.449638872
406.98600,-2.433471652
406.98650,-5.180221321
406.98700,-6.400998952
406.98750,-8.232165398
406.98800,-10.67372066
406.98850,-13.11527592
406.98900,-16.16722
406.98950,-19.52435848
406.99000,-18.30358085
406.99050,-8.842554213
406.99100,4.280805318
406.99150,10.38469347
406.99200,7.332749395
406.99250,5.196388541
406.99300,10.68988788
406.99350,17.70935926
406.99400,16.18338722
406.99450,7.027554987
406.99500,0.008083609999
406.99550,0.3132780177
406.99600,2.449638872
406.99650,1.534055649
406.99700,-0.9074996131
406.99750,-1.517888429
406.99800,-0.2971107977
406.99850,0.6184724254
406.99900,1.534055649
406.99950,3.060027687
407.00000,3.97561091
407.00050,3.97561091
407.00100,3.97561091
407.00150,5.196388541
407.00200,6.417166172
407.00250,6.111971764
407.00300,4.891194133
407.00350,3.670416502
407.00400,3.365222095
407.00450,4.585999726
407.00500,6.417166172
407.00550,7.332749395
407.00600,5.196388541
407.00650,1.534055649
407.00700,0.008083609999
407.00750,0.008083609999
407.00800,-2.433471652
407.00850,-8.842554213
407.00900,-14.64124796
407.00950,-14.64124796
407.01000,-10.36852625
407.01050,-7.92697099
407.01100,-7.92697099
407.01150,-7.011387767
407.01200,-5.180221321
407.01250,-5.790610136
407.01300,-7.316582175
407.01350,-5.790610136
407.01400,-1.212694021
407.01450,1.839250056
407.01500,1.228861241
407.01550,0.9236668331
407.01600,3.365222095
407.01650,6.111971764
407.01700,4.585999726
407.01750,0.008083609999
407.01800,-3.654249282
407.01850,-4.264638098
407.01900,-2.738666059
407.01950,-1.212694021
407.02000,0.008083609999
407.02050,1.228861241
407.02100,3.060027687
407.02150,5.501582949
407.02200,6.417166172
407.02250,5.501582949
407.02300,4.585999726
407.02350,5.501582949
407.02400,6.417166172
407.02450,5.501582949
407.02500,3.365222095
407.02550,2.144444464
407.02600,2.144444464
407.02650,1.228861241
407.02700,0.008083609999
407.02750,-0.6023052054
407.02800,-0.6023052054
407.02850,-1.517888429
407.02900,-3.349054875
407.02950,-3.349054875
407.03000,-2.128277244
407.03050,-3.349054875
407.03100,-7.011387767
407.03150,-7.92697099
407.03200,-3.654249282
407.03250,2.449638872
407.03300,5.501582949
407.03350,3.670416502
407.03400,-0.2971107977
407.03450,-4.569832506
407.03500,-8.842554213
407.03550,-11.58930388
407.03600,-11.89449829
407.03650,-8.842554213
407.03700,-3.95944369
407.03750,0.008083609999
407.03800,2.449638872
407.03850,2.754833279
407.03900,2.449638872
407.03950,2.449638872
407.04000,4.585999726
407.04050,8.553527026
407.04100,11.6054711
407.04150,10.38469347
407.04200,4.891194133
407.04250,0.3132780177
407.04300,0.3132780177
407.04350,1.839250056
407.04400,0.008083609999
407.04450,-4.875026913
407.04500,-7.621776583
407.04550,-8.232165398
407.04600,-10.97891507
407.04650,-15.86202559
407.04700,-14.03085914
407.04750,-2.433471652
407.04800,10.68988788
407.04850,17.09897044
407.04900,17.70935926
407.04950,18.31974807
407.05000,17.70935926
407.05050,10.07949906
407.05100,-3.654249282
407.05150,-13.11527592
407.05200,-11.58930388
407.05250,-2.738666059
407.05300,4.891194133
407.05350,7.332749395
407.05400,5.501582949
407.05450,1.534055649
407.05500,-2.128277244
407.05550,-4.875026913
407.05600,-6.095804544
407.05650,-6.400998952
407.05700,-5.790610136
407.05750,-3.349054875
407.05800,0.008083609999
407.05850,3.060027687
407.05900,4.280805318
407.05950,3.365222095
407.06000,2.144444464
407.06050,1.839250056
407.06100,2.449638872
407.06150,2.449638872
407.06200,1.534055649
407.06250,0.008083609999
407.06300,-1.212694021
407.06350,-3.043860467
407.06400,-4.875026913
407.06450,-4.875026913
407.06500,-3.043860467
407.06550,-1.823082836
407.06600,-0.2971107977
407.06650,3.97561091
407.06700,10.07949906
407.06750,12.82624873
407.06800,10.07949906
407.06850,7.94313821
407.06900,11.30027669
407.06950,14.35222077
407.07000,10.99508229
407.07050,2.754833279
407.07100,-1.823082836
407.07150,-1.212694021
407.07200,-1.517888429
407.07250,-6.706193359
407.07300,-13.72566474
407.07350,-17.38799763
407.07400,-16.47241441
407.07450,-12.1996927
407.07500,-7.011387767
407.07550,-3.654249282
407.07600,-2.738666059
407.07650,-3.349054875
407.07700,-3.043860467
407.07750,-2.128277244
407.07800,-0.9074996131
407.07850,0.008083609999
407.07900,0.9236668331
407.07950,0.9236668331
407.08000,0.6184724254
407.08050,1.228861241
407.08100,2.144444464
407.08150,0.6184724254
407.08200,-2.128277244
407.08250,-2.433471652
407.08300,1.228861241
407.08350,5.196388541
407.08400,4.891194133
407.08450,1.228861241
407.08500,-1.212694021
407.08550,-2.433471652
407.08600,-3.95944369
407.08650,-4.569832506
407.08700,-3.349054875
407.08750,-1.823082836
407.08800,-2.128277244
407.08850,-3.349054875
407.08900,-2.128277244
407.08950,0.3132780177
407.09000,1.534055649
407.09050,1.534055649
407.09100,1.228861241
407.09150,0.008083609999
407.09200,-3.043860467
407.09250,-4.569832506
407.09300,-1.823082836
407.09350,3.670416502
407.09400,6.417166172
407.09450,4.585999726
407.09500,1.534055649
407.09550,0.6184724254
407.09600,0.008083609999
407.09650,-0.2971107977
407.09700,-0.2971107977
407.09750,0.9236668331
407.09800,3.365222095
407.09850,4.891194133
407.09900,5.196388541
407.09950,4.891194133
407.10000,3.060027687
407.10050,0.3132780177
407.10100,-1.517888429
407.10150,-2.128277244
407.10200,-0.2971107977
407.10250,2.754833279
407.10300,5.501582949
407.10350,5.501582949
407.10400,2.144444464
407.10450,-0.6023052054
407.10500,0.008083609999
407.10550,3.97561091
407.10600,8.248332618
407.10650,8.858721433
407.10700,7.332749395
407.10750,4.891194133
407.10800,2.754833279
407.10850,0.9236668331
407.10900,0.008083609999
407.10950,-0.9074996131
407.11000,-2.433471652
407.11050,-4.875026913
407.11100,-7.92697099
407.11150,-9.452943029
407.11200,-7.92697099
407.11250,-3.654249282
407.11300,0.008083609999
407.11350,0.008083609999
407.11400,-2.738666059
407.11450,-4.264638098
407.11500,-0.9074996131
407.11550,3.97561091
407.11600,5.501582949
407.11650,3.670416502
407.11700,1.228861241
407.11750,-0.6023052054
407.11800,-3.95944369
407.11850,-7.011387767
407.11900,-6.400998952
407.11950,-2.738666059
407.12000,0.008083609999
407.12050,-0.6023052054
407.12100,-1.212694021
407.12150,0.9236668331
407.12200,3.365222095
407.12250,2.754833279
407.12300,1.228861241
407.12350,1.534055649
407.12400,2.144444464
407.12450,0.008083609999
407.12500,-3.654249282
407.12550,-3.349054875
407.12600,0.008083609999
407.12650,1.228861241
407.12700,-1.517888429
407.12750,-4.569832506
407.12800,-3.654249282
407.12850,-1.517888429
407.12900,-0.9074996131
407.12950,-0.9074996131
407.13000,0.008083609999
407.13050,1.228861241
407.13100,1.228861241
407.13150,0.3132780177
407.13200,-0.2971107977
407.13250,-0.6023052054
407.13300,-1.517888429
407.13350,-1.823082836
407.13400,-0.9074996131
407.13450,0.6184724254
407.13500,1.534055649
407.13550,2.144444464
407.13600,2.144444464
407.13650,0.008083609999
407.13700,-3.654249282
407.13750,-7.316582175
407.13800,-7.92697099
407.13850,-7.621776583
407.13900,-7.621776583
407.13950,-5.180221321
407.14000,1.534055649
407.14050,9.163915841
407.14100,10.68988788
407.14150,6.417166172
407.14200,2.449638872
407.14250,2.144444464
407.14300,1.228861241
407.14350,-1.517888429
407.14400,-2.433471652
407.14450,0.3132780177
407.14500,1.839250056
407.14550,-1.517888429
407.14600,-7.011387767
407.14650,-7.92697099
407.14700,-4.569832506
407.14750,-2.433471652
407.14800,-3.349054875
407.14850,-3.95944369
407.14900,-3.654249282
407.14950,-4.569832506
407.15000,-5.485415729
407.15050,-2.433471652
407.15100,4.585999726
407.15150,10.38469347
407.15200,10.68988788
407.15250,7.027554987
407.15300,2.754833279
407.15350,-0.9074996131
407.15400,-2.738666059
407.15450,-0.9074996131
407.15500,1.839250056
407.15550,1.228861241
407.15600,-1.517888429
407.15650,-1.823082836
407.15700,0.6184724254
407.15750,0.9236668331
407.15800,-0.9074996131
407.15850,0.9236668331
407.15900,8.553527026
407.15950,13.13144314
407.16000,8.248332618
407.16050,1.534055649
407.16100,3.060027687
407.16150,8.858721433
407.16200,7.637943803
407.16250,-0.6023052054
407.16300,-6.706193359
407.16350,-5.485415729
407.16400,-2.738666059
407.16450,-3.95944369
407.16500,-7.011387767
407.16550,-7.621776583
407.16600,-4.875026913
407.16650,0.008083609999
407.16700,4.891194133
407.16750,8.553527026
407.16800,7.94313821
407.16850,4.280805318
407.16900,2.449638872
407.16950,3.97561091
407.17000,5.501582949
407.17050,3.97561091
407.17100,0.6184724254
407.17150,-2.433471652
407.17200,-5.485415729
407.17250,-9.147748621
407.17300,-11.28410947
407.17350,-10.36852625
407.17400,-7.316582175
407.17450,-3.95944369
407.17500,-1.517888429
407.17550,0.3132780177
407.17600,1.534055649
407.17650,2.144444464
407.17700,2.754833279
407.17750,2.754833279
407.17800,1.534055649
407.17850,-0.2971107977
407.17900,-1.517888429
407.17950,-0.9074996131
407.18000,0.008083609999
407.18050,0.6184724254
407.18100,1.228861241
407.18150,1.839250056
407.18200,0.9236668331
407.18250,-0.6023052054
407.18300,-0.9074996131
407.18350,0.008083609999
407.18400,-0.2971107977
407.18450,-3.043860467
407.18500,-3.349054875
407.18550,3.060027687
407.18600,12.52105433
407.18650,17.70935926
407.18700,15.87819281
407.18750,11.6054711
407.18800,8.553527026
407.18850,6.111971764
407.18900,2.449638872
407.18950,-1.823082836
407.19000,-4.875026913
407.19050,-5.485415729
407.19100,-4.264638098
407.19150,-3.043860467
407.19200,-3.95944369
407.19250,-7.011387767
407.19300,-9.452943029
407.19350,-8.537359806
407.19400,-5.790610136
407.19450,-3.95944369
407.19500,-3.654249282
407.19550,-2.128277244
407.19600,1.534055649
407.19650,4.891194133
407.19700,5.196388541
407.19750,4.280805318
407.19800,3.060027687
407.19850,1.228861241
407.19900,-1.212694021
407.19950,-2.433471652
407.20000,-0.6023052054
407.20050,1.839250056
407.20100,1.534055649
407.20150,-0.9074996131
407.20200,-2.128277244
407.20250,-0.2971107977
407.20300,1.534055649
407.20350,1.228861241
407.20400,0.6184724254
407.20450,1.534055649
407.20500,3.060027687
407.20550,2.449638872
407.20600,0.9236668331
407.20650,0.008083609999
407.20700,0.008083609999
407.20750,0.008083609999
407.20800,0.3132780177
407.20850,1.228861241
407.20900,1.534055649
407.20950,0.008083609999
407.21000,0.008083609999
407.21050,2.754833279
407.21100,4.280805318
407.21150,-0.9074996131
407.21200,-11.28410947
407.21250,-16.77760881
407.21300,-13.42047033
407.21350,-6.706193359
407.21400,-3.95944369
407.21450,-4.875026913
407.21500,-3.95944369
407.21550,-0.9074996131
407.21600,0.3132780177
407.21650,-1.517888429
407.21700,-4.875026913
407.21750,-5.485415729
407.21800,-2.738666059
407.21850,0.6184724254
407.21900,3.365222095
407.21950,3.97561091
407.22000,3.060027687
407.22050,2.144444464
407.22100,1.839250056
407.22150,1.534055649
407.22200,1.228861241
407.22250,3.365222095
407.22300,6.722360579
407.22350,9.163915841
407.22400,7.94313821
407.22450,4.585999726
407.22500,2.449638872
407.22550,2.144444464
407.22600,2.449638872
407.22650,1.534055649
407.22700,0.3132780177
407.22750,0.008083609999
407.22800,0.008083609999
407.22850,0.008083609999
407.22900,-1.517888429
407.22950,-2.738666059
407.23000,-2.433471652
407.23050,-0.2971107977
407.23100,2.144444464
407.23150,3.060027687
407.23200,2.449638872
407.23250,0.9236668331
407.23300,-0.9074996131
407.23350,-3.95944369
407.23400,-4.569832506
407.23450,0.3132780177
407.23500,10.07949906
407.23550,16.48858163
407.23600,12.52105433
407.23650,1.534055649
407.23700,-7.621776583
407.23750,-11.89449829
407.23800,-13.42047033
407.23850,-14.64124796
407.23900,-14.33605355
407.23950,-10.67372066
407.24000,-5.790610136
407.24050,-2.433471652
407.24100,-1.517888429
407.24150,-1.823082836
407.24200,-2.128277244
407.24250,-2.128277244
407.24300,-1.517888429
407.24350,-0.6023052054
407.24400,0.008083609999
407.24450,1.839250056
407.24500,3.670416502
407.24550,3.97561091
407.24600,1.534055649
407.24650,0.008083609999
407.24700,1.839250056
407.24750,4.585999726
407.24800,2.754833279
407.24850,-2.433471652
407.24900,-4.264638098
407.24950,-1.212694021
407.25000,0.3132780177
407.25050,-2.128277244
407.25100,-4.569832506
407.25150,-2.433471652
407.25200,0.3132780177
407.25250,0.008083609999
407.25300,-1.517888429
407.25350,-0.2971107977
407.25400,1.534055649
407.25450,1.534055649
407.25500,1.228861241
407.25550,4.891194133
407.25600,8.248332618
407.25650,7.027554987
407.25700,3.060027687
407.25750,2.144444464
407.25800,3.060027687
407.25850,0.9236668331
407.25900,-2.433471652
407.25950,-0.9074996131
407.26000,4.585999726
407.26050,7.332749395
407.26100,3.670416502
407.26150,-0.9074996131
407.26200,-1.823082836
407.26250,-1.212694021
407.26300,-1.212694021
407.26350,-1.823082836
407.26400,-0.9074996131
407.26450,0.3132780177
407.26500,1.839250056
407.26550,3.365222095
407.26600,4.585999726
407.26650,3.060027687
407.26700,0.008083609999
407.26750,-1.823082836
407.26800,-0.6023052054
407.26850,0.6184724254
407.26900,0.9236668331
407.26950,3.060027687
407.27000,8.248332618
407.27050,12.21585992
407.27100,8.858721433
407.27150,0.6184724254
407.27200,-5.180221321
407.27250,-5.790610136
407.27300,-5.180221321
407.27350,-5.790610136
407.27400,-3.043860467
407.27450,5.196388541
407.27500,12.21585992
407.27550,8.858721433
407.27600,-3.349054875
407.27650,-10.97891507
407.27700,-6.095804544
407.27750,4.585999726
407.27800,10.07949906
407.27850,7.637943803
407.27900,3.060027687
407.27950,0.6184724254
407.28000,-0.2971107977
407.28050,-2.128277244
407.28100,-3.043860467
407.28150,-2.433471652
407.28200,-1.823082836
407.28250,-1.823082836
407.28300,-1.517888429
407.28350,0.008083609999
407.28400,0.9236668331
407.28450,0.3132780177
407.28500,-1.823082836
407.28550,-4.264638098
407.28600,-4.875026913
407.28650,-3.654249282
407.28700,-2.433471652
407.28750,-2.433471652
407.28800,-3.654249282
407.28850,-4.264638098
407.28900,-3.043860467
407.28950,-0.6023052054
407.29000,0.9236668331
407.29050,1.839250056
407.29100,2.144444464
407.29150,1.839250056
407.29200,0.9236668331
407.29250,0.3132780177
407.29300,0.008083609999
407.29350,-0.9074996131
407.29400,-2.128277244
407.29450,-2.128277244
407.29500,0.008083609999
407.29550,2.144444464
407.29600,2.449638872
407.29650,0.9236668331
407.29700,0.008083609999
407.29750,0.3132780177
407.29800,1.228861241
407.29850,0.9236668331
407.29900,0.3132780177
407.29950,0.008083609999
407.30000,-0.9074996131
407.30050,-2.433471652
407.30100,-2.738666059
407.30150,-1.212694021
407.30200,0.6184724254
407.30250,1.228861241
407.30300,1.534055649
407.30350,3.365222095
407.30400,5.501582949
407.30450,4.585999726
407.30500,0.9236668331
407.30550,-2.128277244
407.30600,-3.043860467
407.30650,-2.738666059
407.30700,-3.043860467
407.30750,-3.95944369
407.30800,-4.264638098
407.30850,-4.569832506
407.30900,-5.790610136
407.30950,-6.400998952
407.31000,-4.264638098
407.31050,-0.9074996131
407.31100,0.9236668331
407.31150,0.008083609999
407.31200,-3.349054875
407.31250,-6.400998952
407.31300,-5.180221321
407.31350,0.008083609999
407.31400,4.891194133
407.31450,5.196388541
407.31500,2.754833279
407.31550,0.9236668331
407.31600,0.008083609999
407.31650,-4.264638098
407.31700,-10.06333184
407.31750,-11.28410947
407.31800,-7.316582175
407.31850,-4.569832506
407.31900,-6.400998952
407.31950,-7.621776583
407.32000,-4.264638098
407.32050,1.228861241
407.32100,3.670416502
407.32150,3.670416502
407.32200,4.891194133
407.32250,7.94313821
407.32300,10.68988788
407.32350,12.21585992
407.32400,13.43663755
407.32450,13.74183196
407.32500,10.99508229
407.32550,7.027554987
407.32600,5.806777356
407.32650,7.027554987
407.32700,6.722360579
407.32750,2.754833279
407.32800,-1.212694021
407.32850,-1.823082836
407.32900,1.228861241
407.32950,3.365222095
407.33000,1.534055649
407.33050,-2.433471652
407.33100,-5.180221321
407.33150,-4.569832506
407.33200,-3.043860467
407.33250,-4.264638098
407.33300,-7.621776583
407.33350,-9.452943029
407.33400,-7.621776583
407.33450,-2.128277244
407.33500,3.060027687
407.33550,4.585999726
407.33600,0.008083609999
407.33650,-8.232165398
407.33700,-15.55683118
407.33750,-17.69319204
407.33800,-14.33605355
407.33850,-7.621776583
407.33900,0.008083609999
407.33950,4.585999726
407.34000,5.196388541
407.34050,4.280805318
407.34100,4.280805318
407.34150,2.754833279
407.34200,-2.738666059
407.34250,-9.452943029
407.34300,-8.842554213
407.34350,-0.2971107977
407.34400,6.111971764
407.34450,4.891194133
407.34500,2.754833279
407.34550,5.806777356
407.34600,9.774304656
407.34650,7.027554987
407.34700,1.534055649
407.34750,3.060027687
407.34800,10.68988788
407.34850,13.74183196
407.34900,7.027554987
407.34950,-2.128277244
407.35000,-6.706193359
407.35050,-8.842554213
407.35100,-11.89449829
407.35150,-11.89449829
407.35200,-5.180221321
407.35250,3.670416502
407.35300,6.417166172
407.35350,2.754833279
407.35400,-0.6023052054
407.35450,0.008083609999
407.35500,2.754833279
407.35550,4.891194133
407.35600,5.196388541
407.35650,4.585999726
407.35700,3.060027687
407.35750,2.449638872
407.35800,3.365222095
407.35850,4.280805318
407.35900,4.280805318
407.35950,3.97561091
407.36000,4.891194133
407.36050,6.111971764
407.36100,5.196388541
407.36150,1.534055649
407.36200,-1.517888429
407.36250,-3.654249282
407.36300,-5.485415729
407.36350,-7.316582175
407.36400,-7.011387767
407.36450,-3.043860467
407.36500,0.3132780177
407.36550,0.3132780177
407.36600,-2.128277244
407.36650,-3.349054875
407.36700,-3.043860467
407.36750,-3.654249282
407.36800,-6.400998952
407.36850,-8.232165398
407.36900,-7.011387767
407.36950,-3.654249282
407.37000,0.008083609999
407.37050,4.280805318
407.37100,10.38469347
407.37150,15.5729984
407.37200,17.70935926
407.37250,15.267804
407.37300,9.469110249
407.37350,3.365222095
407.37400,0.008083609999
407.37450,-0.6023052054
407.37500,-1.212694021
407.37550,-3.95944369
407.37600,-6.706193359
407.37650,-5.485415729
407.37700,-2.128277244
407.37750,-0.9074996131
407.37800,-3.349054875
407.37850,-6.706193359
407.37900,-7.621776583
407.37950,-6.706193359
407.38000,-3.95944369
407.38050,-0.6023052054
407.38100,1.228861241
407.38150,0.008083609999
407.38200,-0.9074996131
407.38250,3.060027687
407.38300,11.91066551
407.38350,17.40416485
407.38400,14.96260959
407.38450,8.553527026
407.38500,2.144444464
407.38550,-5.485415729
407.38600,-14.64124796
407.38650,-18.91396967
407.38700,-14.03085914
407.38750,-4.569832506
407.38800,1.228861241
407.38850,2.449638872
407.38900,4.585999726
407.38950,8.553527026
407.39000,10.68988788
407.39050,9.163915841
407.39100,6.722360579
407.39150,6.417166172
407.39200,8.248332618
407.39250,9.774304656
407.39300,8.553527026
407.39350,2.449638872
407.39400,-7.621776583
407.39450,-16.47241441
407.39500,-18.60877526
407.39550,-14.03085914
407.39600,-7.92697099
407.39650,-4.264638098
407.39700,-3.349054875
407.39750,-3.349054875
407.39800,-3.349054875
407.39850,-2.738666059
407.39900,0.008083609999
407.39950,3.365222095
407.40000,6.417166172
407.40050,7.637943803
407.40100,7.332749395
407.40150,6.417166172
407.40200,4.585999726
407.40250,2.754833279
407.40300,2.449638872
407.40350,2.144444464
407.40400,0.3132780177
407.40450,-0.6023052054
407.40500,2.144444464
407.40550,7.332749395
407.40600,6.111971764
407.40650,-3.654249282
407.40700,-14.33605355
407.40750,-16.16722
407.40800,-10.97891507
407.40850,-6.706193359
407.40900,-6.095804544
407.40950,-6.400998952
407.41000,-6.400998952
407.41050,-7.011387767
407.41100,-7.011387767
407.41150,-3.349054875
407.41200,2.144444464
407.41250,4.585999726
407.41300,2.449638872
407.41350,1.839250056
407.41400,4.280805318
407.41450,3.670416502
407.41500,-3.349054875
407.41550,-13.11527592
407.41600,-16.77760881
407.41650,-12.1996927
407.41700,-5.180221321
407.41750,-0.6023052054
407.41800,2.144444464
407.41850,5.196388541
407.41900,7.637943803
407.41950,7.332749395
407.42000,3.670416502
407.42050,0.008083609999
407.42100,-0.9074996131
407.42150,0.008083609999
407.42200,0.9236668331
407.42250,-0.6023052054
407.42300,-3.95944369
407.42350,-4.875026913
407.42400,-2.128277244
407.42450,3.060027687
407.42500,7.332749395
407.42550,9.469110249
407.42600,8.248332618
407.42650,5.501582949
407.42700,3.060027687
407.42750,1.839250056
407.42800,1.228861241
407.42850,0.3132780177
407.42900,-1.517888429
407.42950,-2.433471652
407.43000,-0.2971107977
407.43050,3.97561091
407.43100,7.332749395
407.43150,6.722360579
407.43200,2.449638872
407.43250,-0.6023052054
407.43300,-1.517888429
407.43350,-1.212694021
407.43400,-0.9074996131
407.43450,0.008083609999
407.43500,2.144444464
407.43550,3.97561091
407.43600,2.754833279
407.43650,-0.2971107977
407.43700,-2.433471652
407.43750,-1.823082836
407.43800,0.3132780177
407.43850,3.365222095
407.43900,7.027554987
407.43950,8.553527026
407.44000,6.417166172
407.44050,1.228861241
407.44100,-2.128277244
407.44150,-3.95944369
407.44200,-5.485415729
407.44250,-8.232165398
407.44300,-10.67372066
407.44350,-11.58930388
407.44400,-10.67372066
407.44450,-9.147748621
407.44500,-6.095804544
407.44550,-2.128277244
407.44600,0.008083609999
407.44650,-0.6023052054
407.44700,-2.738666059
407.44750,-2.738666059
407.44800,-0.9074996131
407.44850,0.9236668331
407.44900,0.9236668331
407.44950,-0.9074996131
407.45000,-2.433471652
407.45050,-0.9074996131
407.45100,2.754833279
407.45150,5.501582949
407.45200,3.670416502
407.45250,-0.6023052054
407.45300,-4.569832506
407.45350,-5.485415729
407.45400,-4.264638098
407.45450,-2.738666059
407.45500,-1.823082836
407.45550,-2.433471652
407.45600,-3.95944369
407.45650,-3.349054875
407.45700,2.449638872
407.45750,10.99508229
407.45800,15.267804
407.45850,13.13144314
407.45900,9.469110249
407.45950,10.07949906
407.46000,12.21585992
407.46050,10.38469347
407.46100,4.585999726
407.46150,0.3132780177
407.46200,0.3132780177
407.46250,1.228861241
407.46300,0.008083609999
407.46350,-2.738666059
407.46400,-3.043860467
407.46450,-1.517888429
407.46500,-0.2971107977
407.46550,0.3132780177
407.46600,1.839250056
407.46650,3.060027687
407.46700,2.144444464
407.46750,0.3132780177
407.46800,0.008083609999
407.46850,0.008083609999
407.46900,0.008083609999
407.46950,-1.212694021
407.47000,-1.517888429
407.47050,0.008083609999
407.47100,1.228861241
407.47150,0.9236668331
407.47200,-0.9074996131
407.47250,-3.349054875
407.47300,-5.180221321
407.47350,-5.790610136
407.47400,-5.485415729
407.47450,-4.264638098
407.47500,-2.433471652
407.47550,-0.2971107977
407.47600,1.839250056
407.47650,3.060027687
407.47700,1.839250056
407.47750,0.008083609999
407.47800,-0.6023052054
407.47850,0.008083609999
407.47900,1.534055649
407.47950,2.144444464
407.48000,2.754833279
407.48050,3.97561091
407.48100,4.280805318
407.48150,3.060027687
407.48200,1.839250056
407.48250,2.449638872
407.48300,3.670416502
407.48350,3.97561091
407.48400,2.144444464
407.48450,0.008083609999
407.48500,-1.517888429
407.48550,-2.738666059
407.48600,-2.128277244
407.48650,0.9236668331
407.48700,5.196388541
407.48750,6.722360579
407.48800,4.585999726
407.48850,1.534055649
407.48900,-0.6023052054
407.48950,-2.738666059
407.49000,-4.264638098
407.49050,-4.264638098
407.49100,-2.433471652
407.49150,0.008083609999
407.49200,2.144444464
407.49250,4.891194133
407.49300,7.637943803
407.49350,7.94313821
407.49400,4.585999726
407.49450,0.9236668331
407.49500,-0.9074996131
407.49550,-2.433471652
407.49600,-5.180221321
407.49650,-7.92697099
407.49700,-7.92697099
407.49750,-4.569832506
407.49800,-1.517888429
407.49850,-0.9074996131
407.49900,-1.823082836
407.49950,-2.433471652
407.50000,-2.738666059
407.50050,-2.128277244
407.50100,-0.2971107977
407.50150,1.228861241
407.50200,1.534055649
407.50250,0.3132780177
407.50300,0.008083609999
407.50350,0.3132780177
407.50400,0.9236668331
407.50450,0.008083609999
407.50500,-0.6023052054
407.50550,0.9236668331
407.50600,4.891194133
407.50650,7.332749395
407.50700,5.196388541
407.50750,0.6184724254
407.50800,-1.823082836
407.50850,-1.823082836
407.50900,-0.9074996131
407.50950,-0.6023052054
407.51000,-0.9074996131
407.51050,-0.9074996131
407.51100,-1.212694021
407.51150,-1.517888429
407.51200,-1.212694021
407.51250,-0.2971107977
407.51300,-0.2971107977
407.51350,-1.823082836
407.51400,-3.043860467
407.51450,-3.349054875
407.51500,-4.264638098
407.51550,-5.180221321
407.51600,-4.569832506
407.51650,-3.349054875
407.51700,-3.349054875
407.51750,-6.400998952
407.51800,-8.842554213
407.51850,-7.011387767
407.51900,-1.212694021
407.51950,4.280805318
407.52000,6.111971764
407.52050,4.585999726
407.52100,0.9236668331
407.52150,-2.128277244
407.52200,-2.128277244
407.52250,0.9236668331
407.52300,4.585999726
407.52350,5.501582949
407.52400,3.97561091
407.52450,3.365222095
407.52500,4.280805318
407.52550,3.365222095
407.52600,0.008083609999
407.52650,-4.569832506
407.52700,-6.095804544
407.52750,-3.654249282
407.52800,0.6184724254
407.52850,4.585999726
407.52900,6.417166172
407.52950,6.111971764
407.53000,4.891194133
407.53050,2.449638872
407.53100,0.008083609999
407.53150,0.008083609999
407.53200,3.670416502
407.53250,9.774304656
407.53300,14.04702636
407.53350,13.43663755
407.53400,9.163915841
407.53450,3.97561091
407.53500,-1.517888429
407.53550,-7.92697099
407.53600,-13.42047033
407.53650,-15.55683118
407.53700,-14.64124796
407.53750,-12.50488711
407.53800,-10.67372066
407.53850,-7.621776583
407.53900,-3.043860467
407.53950,0.008083609999
407.54000,-1.212694021
407.54050,-5.485415729
407.54100,-7.92697099
407.54150,-7.316582175
407.54200,-7.316582175
407.54250,-8.537359806
407.54300,-6.400998952
407.54350,1.228861241
407.54400,8.858721433
407.54450,9.163915841
407.54500,3.670416502
407.54550,1.534055649
407.54600,4.280805318
407.54650,4.891194133
407.54700,-1.517888429
407.54750,-8.842554213
407.54800,-7.621776583
407.54850,0.6184724254
407.54900,7.332749395
407.54950,6.722360579
407.55000,2.144444464
407.55050,-0.9074996131
407.55100,-2.128277244
407.55150,-2.738666059
407.55200,-3.043860467
407.55250,-2.128277244
407.55300,-0.9074996131
407.55350,-0.6023052054
407.55400,-0.9074996131
407.55450,-1.517888429
407.55500,-2.128277244
407.55550,-3.043860467
407.55600,-3.95944369
407.55650,-3.654249282
407.55700,-1.517888429
407.55750,0.9236668331
407.55800,2.144444464
407.55850,0.9236668331
407.55900,0.008083609999
407.55950,-0.6023052054
407.56000,-0.2971107977
407.56050,0.008083609999
407.56100,1.228861241
407.56150,4.280805318
407.56200,7.027554987
407.56250,6.111971764
407.56300,3.060027687
407.56350,1.228861241
407.56400,0.9236668331
407.56450,0.008083609999
407.56500,-2.128277244
407.56550,-2.128277244
407.56600,1.839250056
407.56650,7.637943803
407.56700,8.553527026
407.56750,4.585999726
407.56800,0.6184724254
407.56850,-0.2971107977
407.56900,-0.2971107977
407.56950,-0.9074996131
407.57000,-2.128277244
407.57050,-2.128277244
407.57100,-1.823082836
407.57150,-0.9074996131
407.57200,0.3132780177
407.57250,1.839250056
407.57300,1.534055649
407.57350,-0.6023052054
407.57400,-2.128277244
407.57450,0.008083609999
407.57500,2.754833279
407.57550,3.670416502
407.57600,3.97561091
407.57650,6.111971764
407.57700,7.94313821
407.57750,4.585999726
407.57800,-3.349054875
407.57850,-10.06333184
407.57900,-11.89449829
407.57950,-9.758137436
407.58000,-5.790610136
407.58050,-0.2971107977
407.58100,5.196388541
407.58150,7.637943803
407.58200,6.417166172
407.58250,3.97561091
407.58300,3.060027687
407.58350,3.670416502
407.58400,3.365222095
407.58450,2.754833279
407.58500,1.839250056
407.58550,0.6184724254
407.58600,-0.9074996131
407.58650,-1.823082836
407.58700,-1.517888429
407.58750,-0.2971107977
407.58800,0.9236668331
407.58850,2.449638872
407.58900,3.365222095
407.58950,2.754833279
407.59000,0.6184724254
407.59050,-1.212694021
407.59100,-2.433471652
407.59150,-3.043860467
407.59200,-3.654249282
407.59250,-3.95944369
407.59300,-3.95944369
407.59350,-4.569832506
407.59400,-4.875026913
407.59450,-4.264638098
407.59500,-3.95944369
407.59550,-4.875026913
407.59600,-6.095804544
407.59650,-5.485415729
407.59700,-3.349054875
407.59750,-1.517888429
407.59800,-1.212694021
407.59850,-3.043860467
407.59900,-6.706193359
407.59950,-9.758137436
407.60000,-7.92697099
407.60050,-0.2971107977
407.60100,7.637943803
407.60150,10.68988788
407.60200,8.858721433
407.60250,6.417166172
407.60300,4.280805318
407.60350,0.3132780177
407.60400,-3.95944369
407.60450,-5.790610136
407.60500,-3.349054875
407.60550,2.144444464
407.60600,10.07949906
407.60650,18.93013689
407.60700,23.2028586
407.60750,19.2353313
407.60800,9.774304656
407.60850,2.754833279
407.60900,0.6184724254
407.60950,0.008083609999
407.61000,-2.433471652
407.61050,-3.654249282
407.61100,-2.128277244
407.61150,-0.6023052054
407.61200,-0.9074996131
407.61250,-1.212694021
407.61300,0.008083609999
407.61350,1.839250056
407.61400,0.008083609999
407.61450,-3.349054875
407.61500,-5.180221321
407.61550,-3.95944369
407.61600,-2.738666059
407.61650,-2.738666059
407.61700,-2.128277244
407.61750,0.6184724254
407.61800,3.670416502
407.61850,4.891194133
407.61900,3.365222095
407.61950,0.9236668331
407.62000,-0.6023052054
407.62050,-0.2971107977
407.62100,0.6184724254
407.62150,1.839250056
407.62200,1.228861241
407.62250,-0.6023052054
407.62300,-1.517888429
407.62350,0.6184724254
407.62400,3.97561091
407.62450,5.196388541
407.62500,2.144444464
407.62550,-1.517888429
407.62600,-3.654249282
407.62650,-3.349054875
407.62700,-3.654249282
407.62750,-4.875026913
407.62800,-4.569832506
407.62850,-2.128277244
407.62900,-0.6023052054
407.62950,-2.433471652
407.63000,-5.485415729
407.63050,-5.790610136
407.63100,-4.264638098
407.63150,-4.264638098
407.63200,-5.790610136
407.63250,-5.180221321
407.63300,-0.2971107977
407.63350,4.280805318
407.63400,5.196388541
407.63450,3.670416502
407.63500,3.365222095
407.63550,5.501582949
407.63600,7.637943803
407.63650,7.332749395
407.63700,4.891194133
407.63750,3.060027687
407.63800,3.365222095
407.63850,5.196388541
407.63900,5.196388541
407.63950,1.228861241
407.64000,-4.875026913
407.64050,-8.232165398
407.64100,-6.095804544
407.64150,-0.9074996131
407.64200,1.839250056
407.64250,1.534055649
407.64300,1.228861241
407.64350,2.449638872
407.64400,4.280805318
407.64450,4.891194133
407.64500,5.196388541
407.64550,6.417166172
407.64600,7.027554987
407.64650,6.111971764
407.64700,1.839250056
407.64750,-4.264638098
407.64800,-10.36852625
407.64850,-13.11527592
407.64900,-11.58930388
407.64950,-8.537359806
407.65000,-7.011387767
407.65050,-5.790610136
407.65100,-3.349054875
407.65150,-2.128277244
407.65200,-6.706193359
407.65250,-14.64124796
407.65300,-16.47241441
407.65350,-7.92697099
407.65400,2.754833279
407.65450,6.417166172
407.65500,2.754833279
407.65550,0.008083609999
407.65600,1.839250056
407.65650,3.060027687
407.65700,0.9236668331
407.65750,-0.6023052054
407.65800,1.534055649
407.65850,5.806777356
407.65900,7.027554987
407.65950,3.670416502
407.66000,0.6184724254
407.66050,-0.6023052054
407.66100,-1.517888429
407.66150,-3.654249282
407.66200,-3.95944369
407.66250,-1.517888429
407.66300,0.9236668331
407.66350,1.228861241
407.66400,0.6184724254
407.66450,3.670416502
407.66500,9.163915841
407.66550,11.91066551
407.66600,9.469110249
407.66650,5.196388541
407.66700,2.144444464
407.66750,-0.6023052054
407.66800,-3.654249282
407.66850,-4.569832506
407.66900,-2.128277244
407.66950,0.008083609999
407.67000,-0.9074996131
407.67050,-3.654249282
407.67100,-3.654249282
407.67150,-1.212694021
407.67200,0.6184724254
407.67250,0.3132780177
407.67300,-0.9074996131
407.67350,-2.128277244
407.67400,-2.738666059
407.67450,-2.128277244
407.67500,-0.6023052054
407.67550,-0.2971107977
407.67600,-2.128277244
407.67650,-4.264638098
407.67700,-4.264638098
407.67750,-3.349054875
407.67800,-2.738666059
407.67850,-2.128277244
407.67900,0.008083609999
407.67950,3.060027687
407.68000,4.585999726
407.68050,5.806777356
407.68100,8.858721433
407.68150,13.13144314
407.68200,15.267804
407.68250,13.74183196
407.68300,11.30027669
407.68350,8.553527026
407.68400,4.280805318
407.68450,-1.823082836
407.68500,-6.095804544
407.68550,-3.95944369
407.68600,1.534055649
407.68650,4.280805318
407.68700,0.9236668331
407.68750,-3.95944369
407.68800,-6.095804544
407.68850,-6.400998952
407.68900,-8.232165398
407.68950,-11.58930388
407.69000,-13.42047033
407.69050,-12.81008151
407.69100,-12.50488711
407.69150,-13.72566474
407.69200,-13.72566474
407.69250,-10.36852625
407.69300,-5.485415729
407.69350,-1.823082836
407.69400,0.008083609999
407.69450,1.534055649
407.69500,2.144444464
407.69550,1.228861241
407.69600,0.9236668331
407.69650,2.449638872
407.69700,3.97561091
407.69750,2.449638872
407.69800,-0.9074996131
407.69850,-2.738666059
407.69900,-1.823082836
407.69950,0.008083609999
407.70000,0.6184724254
407.70050,1.228861241
407.70100,1.839250056
407.70150,1.839250056
407.70200,0.9236668331
407.70250,0.6184724254
407.70300,0.6184724254
407.70350,0.9236668331
407.70400,2.144444464
407.70450,6.417166172
407.70500,11.30027669
407.70550,12.82624873
407.70600,9.774304656
407.70650,5.806777356
407.70700,3.365222095
407.70750,1.228861241
407.70800,-0.9074996131
407.70850,-2.128277244
407.70900,-1.212694021
407.70950,0.008083609999
407.71000,-0.6023052054
407.71050,-2.433471652
407.71100,-3.654249282
407.71150,-4.569832506
407.71200,-4.875026913
407.71250,-4.875026913
407.71300,-4.875026913
407.71350,-5.790610136
407.71400,-7.621776583
407.71450,-6.706193359
407.71500,-1.517888429
407.71550,4.891194133
407.71600,8.553527026
407.71650,8.858721433
407.71700,7.027554987
407.71750,4.585999726
407.71800,2.144444464
407.71850,1.228861241
407.71900,0.6184724254
407.71950,-0.9074996131
407.72000,-5.180221321
407.72050,-7.92697099
407.72100,-6.400998952
407.72150,-1.517888429
407.72200,3.365222095
407.72250,7.027554987
407.72300,9.163915841
407.72350,9.469110249
407.72400,7.94313821
407.72450,6.111971764
407.72500,5.196388541
407.72550,4.891194133
407.72600,4.280805318
407.72650,3.670416502
407.72700,1.839250056
407.72750,-1.823082836
407.72800,-6.400998952
407.72850,-8.232165398
407.72900,-6.095804544
407.72950,-2.128277244
407.73000,1.228861241
407.73050,4.891194133
407.73100,7.332749395
407.73150,6.111971764
407.73200,1.534055649
407.73250,-2.128277244
407.73300,-2.433471652
407.73350,-1.517888429
407.73400,-1.517888429
407.73450,-0.6023052054
407.73500,2.754833279
407.73550,7.332749395
407.73600,10.07949906
407.73650,9.163915841
407.73700,5.806777356
407.73750,0.9236668331
407.73800,-3.654249282
407.73850,-6.095804544
407.73900,-5.180221321
407.73950,-2.433471652
407.74000,-0.6023052054
407.74050,0.008083609999
407.74100,0.9236668331
407.74150,0.9236668331
407.74200,-0.6023052054
407.74250,-2.738666059
407.74300,-3.654249282
407.74350,-4.264638098
407.74400,-5.180221321
407.74450,-4.875026913
407.74500,-0.2971107977
407.74550,6.722360579
407.74600,12.21585992
407.74650,12.21585992
407.74700,7.637943803
407.74750,2.144444464
407.74800,-0.2971107977
407.74850,-1.212694021
407.74900,-2.128277244
407.74950,-4.569832506
407.75000,-7.011387767
407.75050,-7.621776583
407.75100,-5.790610136
407.75150,-3.349054875
407.75200,-2.433471652
407.75250,-3.95944369
407.75300,-7.316582175
407.75350,-9.758137436
407.75400,-9.147748621
407.75450,-6.706193359
407.75500,-4.569832506
407.75550,-4.264638098
407.75600,-2.433471652
407.75650,2.144444464
407.75700,7.637943803
407.75750,8.248332618
407.75800,2.754833279
407.75850,-3.043860467
407.75900,-3.95944369
407.75950,0.008083609999
407.76000,3.97561091
407.76050,4.280805318
407.76100,2.144444464
407.76150,1.228861241
407.76200,4.585999726
407.76250,9.163915841
407.76300,9.774304656
407.76350,5.196388541
407.76400,0.008083609999
407.76450,-0.9074996131
407.76500,-0.6023052054
407.76550,-4.264638098
407.76600,-10.36852625
407.76650,-12.50488711
407.76700,-6.706193359
407.76750,1.228861241
407.76800,4.585999726
407.76850,2.449638872
407.76900,0.008083609999
407.76950,0.008083609999
407.77000,0.6184724254
407.77050,0.9236668331
407.77100,0.008083609999
407.77150,-0.9074996131
407.77200,-2.128277244
407.77250,-3.043860467
407.77300,-3.043860467
407.77350,-1.517888429
407.77400,0.008083609999
407.77450,2.144444464
407.77500,3.060027687
407.77550,1.839250056
407.77600,-1.823082836
407.77650,-7.011387767
407.77700,-9.147748621
407.77750,-7.621776583
407.77800,-4.875026913
407.77850,-3.95944369
407.77900,-4.264638098
407.77950,-3.654249282
407.78000,-2.128277244
407.78050,-0.2971107977
407.78100,1.839250056
407.78150,5.196388541
407.78200,8.248332618
407.78250,9.774304656
407.78300,9.774304656
407.78350,8.858721433
407.78400,7.332749395
407.78450,4.891194133
407.78500,2.754833279
407.78550,2.449638872
407.78600,3.060027687
407.78650,2.754833279
407.78700,1.839250056
407.78750,1.228861241
407.78800,0.008083609999
407.78850,-3.349054875
407.78900,-7.011387767
407.78950,-7.92697099
407.79000,-6.095804544
407.79050,-4.569832506
407.79100,-3.654249282
407.79150,-2.738666059
407.79200,-2.128277244
407.79250,-4.264638098
407.79300,-6.400998952
407.79350,-5.180221321
407.79400,-0.2971107977
407.79450,2.144444464
407.79500,0.008083609999
407.79550,-4.569832506
407.79600,-7.621776583
407.79650,-9.758137436
407.79700,-13.42047033
407.79750,-17.08280322
407.79800,-16.16722
407.79850,-9.758137436
407.79900,-1.212694021
407.79950,6.417166172
407.80000,11.6054711
407.80050,14.35222077
407.80100,14.35222077
407.80150,11.91066551
407.80200,9.163915841
407.80250,7.637943803
407.80300,7.027554987
407.80350,7.027554987
407.80400,7.332749395
407.80450,7.637943803
407.80500,7.94313821
407.80550,7.94313821
407.80600,7.027554987
407.80650,4.891194133
407.80700,1.839250056
407.80750,-0.9074996131
407.80800,-3.654249282
407.80850,-4.264638098
407.80900,-2.738666059
407.80950,0.008083609999
407.81000,2.144444464
407.81050,1.839250056
407.81100,-1.517888429
407.81150,-6.706193359
407.81200,-9.147748621
407.81250,-5.485415729
407.81300,1.839250056
407.81350,7.94313821
407.81400,8.858721433
407.81450,4.891194133
407.81500,0.9236668331
407.81550,-0.9074996131
407.81600,-1.823082836
407.81650,-2.433471652
407.81700,-2.433471652
407.81750,-0.9074996131
407.81800,0.008083609999
407.81850,0.008083609999
407.81900,0.008083609999
407.81950,1.839250056
407.82000,5.501582949
407.82050,7.332749395
407.82100,6.111971764
407.82150,3.670416502
407.82200,2.449638872
407.82250,2.144444464
407.82300,0.9236668331
407.82350,0.008083609999
407.82400,-0.2971107977
407.82450,0.3132780177
407.82500,1.228861241
407.82550,2.144444464
407.82600,3.365222095
407.82650,4.585999726
407.82700,4.280805318
407.82750,1.534055649
407.82800,-0.9074996131
407.82850,-0.9074996131
407.82900,0.9236668331
407.82950,1.839250056
407.83000,0.008083609999
407.83050,-3.043860467
407.83100,-5.790610136
407.83150,-6.706193359
407.83200,-6.095804544
407.83250,-5.180221321
407.83300,-3.349054875
407.83350,-2.128277244
407.83400,-2.738666059
407.83450,-4.569832506
407.83500,-4.875026913
407.83550,-2.433471652
407.83600,-0.2971107977
407.83650,-1.823082836
407.83700,-5.180221321
407.83750,-7.621776583
407.83800,-7.92697099
407.83850,-7.011387767
407.83900,-6.095804544
407.83950,-5.485415729
407.84000,-5.485415729
407.84050,-5.790610136
407.84100,-5.180221321
407.84150,-2.738666059
407.84200,-0.2971107977
407.84250,0.008083609999
407.84300,-0.2971107977
407.84350,2.449638872
407.84400,9.774304656
407.84450,18.01455366
407.84500,22.28727537
407.84550,20.45610893
407.84600,14.04702636
407.84650,6.417166172
407.84700,0.3132780177
407.84750,-3.043860467
407.84800,-5.485415729
407.84850,-8.232165398
407.84900,-10.97891507
407.84950,-11.28410947
407.85000,-9.758137436
407.85050,-8.537359806
407.85100,-8.232165398
407.85150,-7.621776583
407.85200,-5.180221321
407.85250,-2.738666059
407.85300,-3.043860467
407.85350,-5.485415729
407.85400,-6.400998952
407.85450,-3.654249282
407.85500,1.228861241
407.85550,3.97561091
407.85600,3.365222095
407.85650,1.534055649
407.85700,1.534055649
407.85750,3.060027687
407.85800,3.97561091
407.85850,4.280805318
407.85900,5.501582949
407.85950,6.417166172
407.86000,5.196388541
407.86050,1.534055649
407.86100,-0.6023052054
407.86150,-0.2971107977
407.86200,0.3132780177
407.86250,0.008083609999
407.86300,-0.6023052054
407.86350,0.008083609999
407.86400,1.839250056
407.86450,3.670416502
407.86500,3.670416502
407.86550,2.754833279
407.86600,1.534055649
407.86650,0.9236668331
407.86700,1.534055649
407.86750,2.449638872
407.86800,3.060027687
407.86850,3.365222095
407.86900,3.670416502
407.86950,1.839250056
407.87000,-1.212694021
407.87050,-3.95944369
407.87100,-3.654249282
407.87150,-2.738666059
407.87200,-5.180221321
407.87250,-10.67372066
407.87300,-12.50488711
407.87350,-7.92697099
407.87400,-0.6023052054
407.87450,2.449638872
407.87500,0.9236668331
407.87550,-1.212694021
407.87600,-2.128277244
407.87650,-2.128277244
407.87700,-2.128277244
407.87750,-0.6023052054
407.87800,1.839250056
407.87850,3.97561091
407.87900,3.97561091
407.87950,3.97561091
407.88000,5.196388541
407.88050,5.806777356
407.88100,4.280805318
407.88150,2.144444464
407.88200,3.060027687
407.88250,6.417166172
407.88300,9.163915841
407.88350,8.248332618
407.88400,4.280805318
407.88450,0.9236668331
407.88500,0.6184724254
407.88550,3.365222095
407.88600,4.585999726
407.88650,0.3132780177
407.88700,-7.011387767
407.88750,-11.28410947
407.88800,-9.758137436
407.88850,-6.400998952
407.88900,-5.485415729
407.88950,-5.790610136
407.89000,-4.264638098
407.89050,-2.128277244
407.89100,-0.9074996131
407.89150,2.144444464
407.89200,7.637943803
407.89250,8.248332618
407.89300,-2.433471652
407.89350,-17.69319204
407.89400,-22.57630256
407.89450,-14.03085914
407.89500,-2.128277244
407.89550,5.501582949
407.89600,11.30027669
407.89650,17.40416485
407.89700,19.84572011
407.89750,14.96260959
407.89800,8.248332618
407.89850,6.111971764
407.89900,7.94313821
407.89950,7.94313821
407.90000,4.585999726
407.90050,0.008083609999
407.90100,-3.95944369
407.90150,-5.485415729
407.90200,-4.569832506
407.90250,-2.128277244
407.90300,0.008083609999
407.90350,1.534055649
407.90400,3.060027687
407.90450,3.97561091
407.90500,2.449638872
407.90550,-0.6023052054
407.90600,-4.569832506
407.90650,-6.400998952
407.90700,-5.180221321
407.90750,-1.823082836
407.90800,0.6184724254
407.90850,0.3132780177
407.90900,-1.823082836
407.90950,-3.654249282
407.91000,-2.738666059
407.91050,-2.128277244
407.91100,-3.95944369
407.91150,-5.485415729
407.91200,-3.043860467
407.91250,1.228861241
407.91300,2.144444464
407.91350,-0.9074996131
407.91400,-3.95944369
407.91450,-4.875026913
407.91500,-4.875026913
407.91550,-6.095804544
407.91600,-5.180221321
407.91650,-0.9074996131
407.91700,3.670416502
407.91750,3.365222095
407.91800,-2.128277244
407.91850,-9.452943029
407.91900,-12.81008151
407.91950,-11.58930388
407.92000,-7.316582175
407.92050,-3.654249282
407.92100,-2.128277244
407.92150,-0.6023052054
407.92200,1.839250056
407.92250,4.585999726
407.92300,5.806777356
407.92350,5.501582949
407.92400,5.196388541
407.92450,5.196388541
407.92500,4.280805318
407.92550,3.365222095
407.92600,4.891194133
407.92650,8.858721433
407.92700,12.82624873
407.92750,12.52105433
407.92800,7.94313821
407.92850,2.449638872
407.92900,-0.9074996131
407.92950,-2.738666059
407.93000,-3.95944369
407.93050,-5.180221321
407.93100,-4.569832506
407.93150,-2.433471652
407.93200,0.008083609999
407.93250,0.6184724254
407.93300,-0.9074996131
407.93350,-2.433471652
407.93400,-3.043860467
407.93450,-3.349054875
407.93500,-2.738666059
407.93550,0.9236668331
407.93600,7.332749395
407.93650,10.99508229
407.93700,8.858721433
407.93750,2.754833279
407.93800,-2.128277244
407.93850,-3.654249282
407.93900,-2.738666059
407.93950,-1.212694021
407.94000,0.6184724254
407.94050,3.060027687
407.94100,4.585999726
407.94150,4.891194133
407.94200,3.97561091
407.94250,3.365222095
407.94300,3.060027687
407.94350,2.754833279
407.94400,2.144444464
407.94450,0.008083609999
407.94500,-1.823082836
407.94550,-1.212694021
407.94600,3.365222095
407.94650,9.469110249
407.94700,12.52105433
407.94750,10.38469347
407.94800,5.806777356
407.94850,1.839250056
407.94900,0.3132780177
407.94950,0.008083609999
407.95000,-0.6023052054
407.95050,-0.9074996131
407.95100,-1.212694021
407.95150,-2.738666059
407.95200,-4.875026913
407.95250,-5.790610136
407.95300,-4.569832506
407.95350,-3.349054875
407.95400,-4.569832506
407.95450,-6.095804544
407.95500,-5.790610136
407.95550,-3.95944369
407.95600,-3.043860467
407.95650,-3.349054875
407.95700,-1.823082836
407.95750,0.008083609999
407.95800,-1.212694021
407.95850,-4.875026913
407.95900,-6.095804544
407.95950,-1.517888429
407.96000,3.97561091
407.96050,5.806777356
407.96100,5.196388541
407.96150,4.280805318
407.96200,2.754833279
407.96250,0.008083609999
407.96300,-1.823082836
407.96350,0.008083609999
407.96400,3.670416502
407.96450,3.670416502
407.96500,0.008083609999
407.96550,-0.9074996131
407.96600,1.228861241
407.96650,3.670416502
407.96700,2.754833279
407.96750,0.008083609999
407.96800,-1.212694021
407.96850,-1.823082836
407.96900,-3.349054875
407.96950,-6.706193359
407.97000,-8.232165398
407.97050,-5.485415729
407.97100,-1.517888429
407.97150,-0.9074996131
407.97200,-4.875026913
407.97250,-7.92697099
407.97300,-6.706193359
407.97350,-4.569832506
407.97400,-4.264638098
407.97450,-3.349054875
407.97500,1.839250056
407.97550,7.94313821
407.97600,8.858721433
407.97650,3.97561091
407.97700,-0.2971107977
407.97750,-2.128277244
407.97800,-3.654249282
407.97850,-6.095804544
407.97900,-4.875026913
407.97950,0.3132780177
407.98000,5.806777356
407.98050,6.722360579
407.98100,3.97561091
407.98150,1.839250056
407.98200,1.839250056
407.98250,1.839250056
407.98300,0.3132780177
407.98350,-1.212694021
407.98400,-0.9074996131
407.98450,2.754833279
407.98500,7.332749395
407.98550,8.553527026
407.98600,4.585999726
407.98650,-0.9074996131
407.98700,-4.264638098
407.98750,-5.180221321
407.98800,-4.875026913
407.98850,-4.264638098
407.98900,-2.128277244
407.98950,0.3132780177
407.99000,0.008083609999
407.99050,-3.043860467
407.99100,-6.400998952
407.99150,-7.316582175
407.99200,-6.706193359
407.99250,-6.095804544
407.99300,-5.485415729
407.99350,-4.875026913
407.99400,-4.875026913
407.99450,-5.485415729
407.99500,-6.400998952
407.99550,-7.621776583
407.99600,-8.842554213
407.99650,-8.232165398
407.99700,-3.349054875
407.99750,3.365222095
407.99800,7.94313821
407.99850,6.417166172
407.99900,2.449638872
407.99950,0.008083609999
408.00000,0.008083609999
408.00050,0.9236668331
408.00100,3.670416502
408.00150,10.07949906
408.00200,16.18338722
408.00250,15.5729984
408.00300,9.774304656
408.00350,5.501582949
408.00400,6.722360579
408.00450,7.332749395
408.00500,0.3132780177
408.00550,-9.758137436
408.00600,-14.64124796
408.00650,-10.67372066
408.00700,-4.264638098
408.00750,-1.823082836
408.00800,-2.128277244
408.00850,-2.738666059
408.00900,-2.433471652
408.00950,-3.043860467
408.01000,-4.875026913
408.01050,-6.095804544
408.01100,-5.180221321
408.01150,-3.654249282
408.01200,-3.043860467
408.01250,-4.264638098
408.01300,-5.790610136
408.01350,-5.485415729
408.01400,-5.180221321
408.01450,-7.316582175
408.01500,-10.06333184
408.01550,-9.147748621
408.01600,-3.654249282
408.01650,1.534055649
408.01700,3.97561091
408.01750,5.196388541
408.01800,7.637943803
408.01850,8.858721433
408.01900,6.111971764
408.01950,1.534055649
408.02000,0.008083609999
408.02050,1.228861241
408.02100,1.228861241
408.02150,0.6184724254
408.02200,3.365222095
408.02250,9.469110249
408.02300,13.74183196
408.02350,12.82624873
408.02400,9.163915841
408.02450,7.332749395
408.02500,7.637943803
408.02550,9.163915841
408.02600,12.21585992
408.02650,15.267804
408.02700,14.35222077
408.02750,9.469110249
408.02800,5.501582949
408.02850,6.111971764
408.02900,8.248332618
408.02950,6.722360579
408.03000,0.6184724254
408.03050,-4.264638098
408.03100,-5.485415729
408.03150,-3.349054875
408.03200,-1.517888429
408.03250,-0.6023052054
408.03300,-1.212694021
408.03350,-2.738666059
408.03400,-4.569832506
408.03450,-5.790610136
408.03500,-5.485415729
408.03550,-4.264638098
408.03600,-3.95944369
408.03650,-4.569832506
408.03700,-5.180221321
408.03750,-4.569832506
408.03800,-4.875026913
408.03850,-7.011387767
408.03900,-9.147748621
408.03950,-7.316582175
408.04000,-0.9074996131
408.04050,5.501582949
408.04100,7.94313821
408.04150,6.111971764
408.04200,4.280805318
408.04250,4.280805318
408.04300,5.196388541
408.04350,6.111971764
408.04400,6.111971764
408.04450,6.111971764
408.04500,4.891194133
408.04550,3.365222095
408.04600,1.839250056
408.04650,0.3132780177
408.04700,-1.517888429
408.04750,-3.654249282
408.04800,-4.569832506
408.04850,-3.349054875
408.04900,-0.6023052054
408.04950,2.144444464
408.05000,3.97561091
408.05050,3.060027687
408.05100,0.008083609999
408.05150,-2.128277244
408.05200,-2.433471652
408.05250,-3.043860467
408.05300,-7.92697099
408.05350,-16.16722
408.05400,-20.43994171
408.05450,-16.77760881
408.05500,-7.92697099
408.05550,0.008083609999
408.05600,4.585999726
408.05650,6.722360579
408.05700,5.196388541
408.05750,-0.2971107977
408.05800,-5.485415729
408.05850,-4.875026913
408.05900,-0.6023052054
408.05950,0.6184724254
408.06000,-2.433471652
408.06050,-4.569832506
408.06100,-0.9074996131
408.06150,4.280805318
408.06200,6.111971764
408.06250,3.97561091
408.06300,2.449638872
408.06350,3.060027687
408.06400,4.280805318
408.06450,4.280805318
408.06500,2.754833279
408.06550,0.6184724254
408.06600,-0.9074996131
408.06650,-0.9074996131
408.06700,0.3132780177
408.06750,1.534055649
408.06800,0.9236668331
408.06850,0.008083609999
408.06900,-0.9074996131
408.06950,-1.823082836
408.07000,-3.349054875
408.07050,-4.569832506
408.07100,-4.264638098
408.07150,-3.043860467
408.07200,-2.738666059
408.07250,-3.043860467
408.07300,-3.654249282
408.07350,-4.264638098
408.07400,-4.569832506
408.07450,-3.654249282
408.07500,-0.9074996131
408.07550,1.534055649
408.07600,2.449638872
408.07650,3.97561091
408.07700,6.722360579
408.07750,8.553527026
408.07800,7.027554987
408.07850,4.585999726
408.07900,4.891194133
408.07950,7.94313821
408.08000,8.553527026
408.08050,4.280805318
408.08100,-2.433471652
408.08150,-7.621776583
408.08200,-8.537359806
408.08250,-5.790610136
408.08300,-1.823082836
408.08350,0.3132780177
408.08400,0.3132780177
408.08450,0.008083609999
408.08500,1.839250056
408.08550,4.585999726
408.08600,4.280805318
408.08650,0.6184724254
408.08700,-3.95944369
408.08750,-6.095804544
408.08800,-4.875026913
408.08850,-2.738666059
408.08900,-2.128277244
408.08950,-3.043860467
408.09000,-3.95944369
408.09050,-3.95944369
408.09100,-2.433471652
408.09150,0.008083609999
408.09200,1.534055649
408.09250,2.144444464
408.09300,2.144444464
408.09350,1.228861241
408.09400,0.3132780177
408.09450,0.008083609999
408.09500,0.008083609999
408.09550,-0.9074996131
408.09600,-3.043860467
408.09650,-3.349054875
408.09700,-0.9074996131
408.09750,1.534055649
408.09800,2.144444464
408.09850,1.228861241
408.09900,1.228861241
408.09950,2.449638872
408.10000,1.534055649
408.10050,-0.6023052054
408.10100,-1.212694021
408.10150,0.9236668331
408.10200,2.754833279
408.10250,1.534055649
408.10300,1.228861241
408.10350,4.891194133
408.10400,9.774304656
408.10450,10.38469347
408.10500,6.111971764
408.10550,1.534055649
408.10600,0.008083609999
408.10650,-0.2971107977
408.10700,-2.433471652
408.10750,-4.264638098
408.10800,-4.569832506
408.10850,-4.264638098
408.10900,-4.875026913
408.10950,-4.875026913
408.11000,-2.433471652
408.11050,0.9236668331
408.11100,2.144444464
408.11150,0.008083609999
408.11200,-3.95944369
408.11250,-6.400998952
408.11300,-6.400998952
408.11350,-4.569832506
408.11400,-2.433471652
408.11450,-1.823082836
408.11500,-1.823082836
408.11550,-0.2971107977
408.11600,3.670416502
408.11650,7.332749395
408.11700,7.94313821
408.11750,6.111971764
408.11800,4.891194133
408.11850,3.670416502
408.11900,1.228861241
408.11950,-0.2971107977
408.12000,1.839250056
408.12050,5.501582949
408.12100,4.891194133
408.12150,0.3132780177
408.12200,-1.823082836
408.12250,0.3132780177
408.12300,2.754833279
408.12350,2.144444464
408.12400,2.144444464
408.12450,6.111971764
408.12500,9.774304656
408.12550,7.637943803
408.12600,2.144444464
408.12650,0.9236668331
408.12700,3.97561091
408.12750,4.891194133
408.12800,0.6184724254
408.12850,-4.264638098
408.12900,-5.485415729
408.12950,-3.349054875
408.13000,-2.128277244
408.13050,-2.738666059
408.13100,-2.738666059
408.13150,-0.9074996131
408.13200,1.228861241
408.13250,1.534055649
408.13300,0.9236668331
408.13350,1.534055649
408.13400,2.144444464
408.13450,-0.6023052054
408.13500,-8.842554213
408.13550,-16.77760881
408.13600,-17.38799763
408.13650,-9.452943029
408.13700,-0.2971107977
408.13750,5.501582949
408.13800,7.94313821
408.13850,9.469110249
408.13900,9.774304656
408.13950,8.248332618
408.14000,6.417166172
408.14050,6.722360579
408.14100,8.248332618
408.14150,7.637943803
408.14200,2.144444464
408.14250,-5.790610136
408.14300,-10.67372066
408.14350,-9.147748621
408.14400,-4.569832506
408.14450,-3.95944369
408.14500,-9.147748621
408.14550,-14.64124796
408.14600,-13.11527592
408.14650,-5.790610136
408.14700,-0.6023052054
408.14750,-1.212694021
408.14800,-3.95944369
408.14850,-4.264638098
408.14900,-1.517888429
408.14950,0.6184724254
408.15000,0.008083609999
408.15050,-1.212694021
408.15100,-1.517888429
408.15150,0.008083609999
408.15200,0.9236668331
408.15250,0.008083609999
408.15300,-3.654249282
408.15350,-6.400998952
408.15400,-5.790610136
408.15450,-2.738666059
408.15500,0.008083609999
408.15550,1.228861241
408.15600,1.228861241
408.15650,0.6184724254
408.15700,0.3132780177
408.15750,0.9236668331
408.15800,2.449638872
408.15850,3.060027687
408.15900,2.754833279
408.15950,2.449638872
408.16000,3.365222095
408.16050,3.365222095
408.16100,0.9236668331
408.16150,-2.128277244
408.16200,-2.433471652
408.16250,0.008083609999
408.16300,0.008083609999
408.16350,-0.9074996131
408.16400,0.008083609999
408.16450,6.417166172
408.16500,12.21585992
408.16550,12.21585992
408.16600,7.637943803
408.16650,3.670416502
408.16700,2.754833279
408.16750,2.144444464
408.16800,1.228861241
408.16850,0.6184724254
408.16900,0.9236668331
408.16950,0.6184724254
408.17000,-1.212694021
408.17050,-3.349054875
408.17100,-4.264638098
408.17150,-4.875026913
408.17200,-6.400998952
408.17250,-7.92697099
408.17300,-8.537359806
408.17350,-9.147748621
408.17400,-11.28410947
408.17450,-12.81008151
408.17500,-10.97891507
408.17550,-4.569832506
408.17600,2.449638872
408.17650,5.806777356
408.17700,4.891194133
408.17750,3.670416502
408.17800,4.280805318
408.17850,6.111971764
408.17900,6.417166172
408.17950,5.806777356
408.18000,6.111971764
408.18050,7.637943803
408.18100,8.553527026
408.18150,7.027554987
408.18200,4.891194133
408.18250,3.060027687
408.18300,1.534055649
408.18350,0.3132780177
408.18400,0.008083609999
408.18450,0.6184724254
408.18500,0.9236668331
408.18550,0.3132780177
408.18600,-0.6023052054
408.18650,-0.9074996131
408.18700,-0.9074996131
408.18750,-0.6023052054
408.18800,-1.212694021
408.18850,-1.823082836
408.18900,-1.823082836
408.18950,-0.9074996131
408.19000,-0.6023052054
408.19050,-2.128277244
408.19100,-4.875026913
408.19150,-6.400998952
408.19200,-5.790610136
408.19250,-4.875026913
408.19300,-5.485415729
408.19350,-4.875026913
408.19400,-1.212694021
408.19450,3.97561091
408.19500,6.111971764
408.19550,3.365222095
408.19600,-1.517888429
408.19650,-4.569832506
408.19700,-4.569832506
408.19750,-2.433471652
408.19800,0.008083609999
408.19850,2.449638872
408.19900,3.670416502
408.19950,4.280805318
408.20000,5.196388541
408.20050,5.806777356
408.20100,4.891194133
408.20150,1.839250056
408.20200,-0.2971107977
408.20250,-0.9074996131
408.20300,-0.2971107977
408.20350,-0.2971107977
408.20400,-0.2971107977
408.20450,0.9236668331
408.20500,3.365222095
408.20550,3.365222095
408.20600,0.9236668331
408.20650,-0.9074996131
408.20700,-0.9074996131
408.20750,-0.6023052054
408.20800,-2.128277244
408.20850,-4.875026913
408.20900,-5.485415729
408.20950,-3.95944369
408.21000,-1.212694021
408.21050,0.3132780177
408.21100,2.144444464
408.21150,4.280805318
408.21200,4.585999726
408.21250,2.449638872
408.21300,-0.6023052054
408.21350,-1.212694021
408.21400,0.9236668331
408.21450,2.449638872
408.21500,0.3132780177
408.21550,-3.349054875
408.21600,-4.875026913
408.21650,-3.043860467
408.21700,-1.212694021
408.21750,-2.433471652
408.21800,-4.569832506
408.21850,-4.264638098
408.21900,-1.517888429
408.21950,0.9236668331
408.22000,1.534055649
408.22050,0.6184724254
408.22100,-0.9074996131
408.22150,-1.823082836
408.22200,-1.517888429
408.22250,0.008083609999
408.22300,1.534055649
408.22350,1.228861241
408.22400,-0.2971107977
408.22450,-1.823082836
408.22500,-1.823082836
408.22550,-0.6023052054
408.22600,0.6184724254
408.22650,1.839250056
408.22700,1.534055649
408.22750,-0.2971107977
408.22800,-2.738666059
408.22850,-3.654249282
408.22900,-3.95944369
408.22950,-4.569832506
408.23000,-4.569832506
408.23050,-1.212694021
408.23100,3.670416502
408.23150,6.722360579
408.23200,5.196388541
408.23250,2.144444464
408.23300,0.9236668331
408.23350,0.6184724254
408.23400,-0.2971107977
408.23450,-3.043860467
408.23500,-5.790610136
408.23550,-5.790610136
408.23600,-2.128277244
408.23650,3.365222095
408.23700,7.332749395
408.23750,7.027554987
408.23800,3.97561091
408.23850,1.839250056
408.23900,2.144444464
408.23950,3.670416502
408.24000,3.670416502
408.24050,2.144444464
408.24100,0.3132780177
408.24150,-0.6023052054
408.24200,-1.212694021
408.24250,-1.517888429
408.24300,-1.212694021
408.24350,-0.6023052054
408.24400,0.3132780177
408.24450,1.839250056
408.24500,1.534055649
408.24550,0.008083609999
408.24600,0.3132780177
408.24650,4.280805318
408.24700,7.637943803
408.24750,7.027554987
408.24800,2.449638872
408.24850,-1.212694021
408.24900,-0.9074996131
408.24950,2.449638872
408.25000,7.637943803
408.25050,12.21585992
408.25100,13.74183196
408.25150,11.6054711
408.25200,6.417166172
408.25250,2.144444464
408.25300,0.3132780177
408.25350,0.6184724254
408.25400,1.534055649
408.25450,2.144444464
408.25500,2.144444464
408.25550,0.9236668331
408.25600,-1.823082836
408.25650,-5.485415729
408.25700,-7.316582175
408.25750,-6.400998952
408.25800,-4.264638098
408.25850,-1.823082836
408.25900,-0.6023052054
408.25950,-1.212694021
408.26000,-2.128277244
408.26050,-2.433471652
408.26100,-0.9074996131
408.26150,1.534055649
408.26200,3.060027687
408.26250,1.839250056
408.26300,0.008083609999
408.26350,-1.212694021
408.26400,-1.517888429
408.26450,-2.433471652
408.26500,-3.043860467
408.26550,-2.738666059
408.26600,-1.823082836
408.26650,-0.9074996131
408.26700,0.3132780177
408.26750,2.449638872
408.26800,2.449638872
408.26850,-0.6023052054
408.26900,-4.264638098
408.26950,-4.264638098
408.27000,-1.517888429
408.27050,-0.2971107977
408.27100,-1.823082836
408.27150,-2.738666059
408.27200,-2.433471652
408.27250,-3.654249282
408.27300,-7.316582175
408.27350,-9.452943029
408.27400,-7.316582175
408.27450,-3.043860467
408.27500,-0.2971107977
408.27550,0.6184724254
408.27600,1.228861241
408.27650,0.9236668331
408.27700,-0.9074996131
408.27750,-3.95944369
408.27800,-6.095804544
408.27850,-7.011387767
408.27900,-7.011387767
408.27950,-6.706193359
408.28000,-6.400998952
408.28050,-4.875026913
408.28100,-1.823082836
408.28150,1.839250056
408.28200,2.754833279
408.28250,-0.2971107977
408.28300,-2.738666059
408.28350,-0.2971107977
408.28400,4.585999726
408.28450,5.501582949
408.28500,1.839250056
408.28550,-0.2971107977
408.28600,2.754833279
408.28650,7.027554987
408.28700,7.637943803
408.28750,5.196388541
408.28800,3.365222095
408.28850,3.060027687
408.28900,3.365222095
408.28950,3.365222095
408.29000,2.754833279
408.29050,0.008083609999
408.29100,-4.264638098
408.29150,-6.095804544
408.29200,-5.180221321
408.29250,-3.043860467
408.29300,-0.6023052054
408.29350,1.839250056
408.29400,5.196388541
408.29450,7.027554987
408.29500,5.501582949
408.29550,1.228861241
408.29600,-3.043860467
408.29650,-5.485415729
408.29700,-3.654249282
408.29750,0.6184724254
408.29800,3.060027687
408.29850,-0.2971107977
408.29900,-5.790610136
408.29950,-7.621776583
408.30000,-5.485415729
408.30050,-3.654249282
408.30100,-2.128277244
408.30150,2.449638872
408.30200,10.68988788
408.30250,14.96260959
408.30300,11.91066551
408.30350,6.111971764
408.30400,4.280805318
408.30450,4.891194133
408.30500,2.754833279
408.30550,-0.9074996131
408.30600,-2.433471652
408.30650,-0.6023052054
408.30700,1.534055649
408.30750,1.839250056
408.30800,2.144444464
408.30850,2.754833279
408.30900,1.839250056
408.30950,-0.9074996131
408.31000,-3.95944369
408.31050,-4.569832506
408.31100,-3.349054875
408.31150,-3.349054875
408.31200,-4.569832506
408.31250,-5.790610136
408.31300,-6.095804544
408.31350,-6.400998952
408.31400,-6.095804544
408.31450,-4.875026913
408.31500,-3.043860467
408.31550,-1.823082836
408.31600,-2.128277244
408.31650,-3.043860467
408.31700,-3.349054875
408.31750,-2.433471652
408.31800,-1.212694021
408.31850,0.008083609999
408.31900,0.008083609999
408.31950,-0.6023052054
408.32000,-0.9074996131
408.32050,0.008083609999
408.32100,2.754833279
408.32150,5.501582949
408.32200,7.027554987
408.32250,7.637943803
408.32300,7.027554987
408.32350,5.196388541
408.32400,3.060027687
408.32450,2.754833279
408.32500,4.891194133
408.32550,7.332749395
408.32600,6.722360579
408.32650,3.365222095
408.32700,0.3132780177
408.32750,0.008083609999
408.32800,-0.6023052054
408.32850,-3.654249282
408.32900,-7.92697099
408.32950,-10.06333184
408.33000,-7.92697099
408.33050,-3.654249282
408.33100,-1.212694021
408.33150,-2.433471652
408.33200,-5.180221321
408.33250,-6.095804544
408.33300,-4.875026913
408.33350,-4.264638098
408.33400,-3.95944369
408.33450,0.6184724254
408.33500,11.30027669
408.33550,19.84572011
408.33600,18.93013689
408.33650,10.68988788
408.33700,3.97561091
408.33750,3.97561091
408.33800,6.722360579
408.33850,7.027554987
408.33900,4.280805318
408.33950,1.839250056
408.34000,0.9236668331
408.34050,0.9236668331
408.34100,0.9236668331
408.34150,0.008083609999
408.34200,-0.6023052054
408.34250,-1.212694021
408.34300,-0.6023052054
408.34350,0.6184724254
408.34400,1.839250056
408.34450,2.754833279
408.34500,3.97561091
408.34550,4.280805318
408.34600,2.754833279
408.34650,0.008083609999
408.34700,-2.738666059
408.34750,-4.875026913
408.34800,-7.316582175
408.34850,-9.147748621
408.34900,-8.842554213
408.34950,-6.706193359
408.35000,-3.95944369
408.35050,-2.738666059
408.35100,-3.654249282
408.35150,-6.095804544
408.35200,-8.232165398
408.35250,-8.537359806
408.35300,-7.011387767
408.35350,-4.875026913
408.35400,-4.569832506
408.35450,-4.569832506
408.35500,-3.043860467
408.35550,0.008083609999
408.35600,1.228861241
408.35650,0.008083609999
408.35700,0.008083609999
408.35750,3.365222095
408.35800,9.774304656
408.35850,12.82624873
408.35900,10.38469347
408.35950,6.111971764
408.36000,4.585999726
408.36050,3.97561091
408.36100,0.008083609999
408.36150,-7.316582175
408.36200,-13.11527592
408.36250,-13.72566474
408.36300,-13.42047033
408.36350,-17.08280322
408.36400,-23.79708019
408.36450,-26.23863545
408.36500,-21.35552493
408.36550,-13.11527592
408.36600,-6.400998952
408.36650,-1.212694021
408.36700,6.722360579
408.36750,20.15091452
408.36800,32.96907964
408.36850,38.76777339
408.36900,35.71582931
408.36950,34.80024609
408.37000,48.83918884
408.37050,75.0859079
408.37100,90.04043388
408.37150,69.59240857
408.37200,14.96260959
408.37250,-44.55029991
408.37300,-78.73207358
408.37350,-79.6476568
408.37400,-61.64118675
408.37450,-41.80355025
408.37500,-26.84902427
408.37550,-16.77760881
408.37600,-10.67372066
408.37650,-8.537359806
408.37700,-8.537359806
408.37750,-7.92697099
408.37800,-6.095804544
408.37850,-3.95944369
408.37900,-0.9074996131
408.37950,1.228861241
408.38000,1.228861241
408.38050,-1.212694021
408.38100,-4.569832506
408.38150,-6.095804544
408.38200,-6.095804544
408.38250,-5.180221321
408.38300,-3.349054875
408.38350,0.008083609999
408.38400,2.754833279
408.38450,1.839250056
408.38500,-1.212694021
408.38550,-2.433471652
408.38600,-0.2971107977
408.38650,1.534055649
408.38700,1.228861241
408.38750,0.008083609999
408.38800,1.534055649
408.38850,4.585999726
408.38900,5.501582949
408.38950,3.670416502
408.39000,1.534055649
408.39050,0.9236668331
408.39100,0.9236668331
408.39150,-0.2971107977
408.39200,-1.823082836
408.39250,-2.128277244
408.39300,-1.517888429
408.39350,-1.517888429
408.39400,-2.128277244
408.39450,-2.128277244
408.39500,-1.212694021
408.39550,0.008083609999
408.39600,2.754833279
408.39650,5.806777356
408.39700,8.858721433
408.39750,9.774304656
408.39800,9.469110249
408.39850,9.163915841
408.39900,10.07949906
408.39950,10.68988788
408.40000,10.07949906
408.40050,7.94313821
408.40100,5.501582949
408.40150,4.585999726
408.40200,5.196388541
408.40250,5.196388541
408.40300,3.060027687
408.40350,-0.2971107977
408.40400,-2.433471652
408.40450,-2.738666059
408.40500,-2.433471652
408.40550,-3.654249282
408.40600,-5.180221321
408.40650,-4.569832506
408.40700,-0.6023052054
408.40750,3.365222095
408.40800,6.111971764
408.40850,7.027554987
408.40900,7.332749395
408.40950,7.637943803
408.41000,7.332749395
408.41050,6.417166172
408.41100,3.97561091
408.41150,0.6184724254
408.41200,-3.95944369
408.41250,-8.232165398
408.41300,-9.758137436
408.41350,-7.011387767
408.41400,-2.433471652
408.41450,0.3132780177
408.41500,-0.2971107977
408.41550,-3.654249282
408.41600,-4.875026913
408.41650,-3.654249282
408.41700,-2.738666059
408.41750,-3.654249282
408.41800,-5.180221321
408.41850,-3.654249282
408.41900,0.6184724254
408.41950,5.501582949
408.42000,7.637943803
408.42050,7.027554987
408.42100,5.501582949
408.42150,5.196388541
408.42200,5.501582949
408.42250,4.891194133
408.42300,2.449638872
408.42350,0.008083609999
408.42400,-0.6023052054
408.42450,0.008083609999
408.42500,0.008083609999
408.42550,-0.6023052054
408.42600,-0.6023052054
408.42650,-0.2971107977
408.42700,-1.517888429
408.42750,-3.654249282
408.42800,-4.569832506
408.42850,-2.128277244
408.42900,0.9236668331
408.42950,3.060027687
408.43000,3.670416502
408.43050,3.97561091
408.43100,3.060027687
408.43150,0.3132780177
408.43200,-1.212694021
408.43250,-0.9074996131
408.43300,0.008083609999
408.43350,-0.9074996131
408.43400,-3.95944369
408.43450,-6.706193359
408.43500,-8.232165398
408.43550,-8.842554213
408.43600,-7.92697099
408.43650,-6.095804544
408.43700,-3.654249282
408.43750,-2.128277244
408.43800,-0.2971107977
408.43850,3.060027687
408.43900,7.94313821
408.43950,10.38469347
408.44000,8.553527026
408.44050,4.280805318
408.44100,0.9236668331
408.44150,-0.9074996131
408.44200,-1.823082836
408.44250,-1.823082836
408.44300,-1.823082836
408.44350,-1.823082836
408.44400,-2.433471652
408.44450,-2.738666059
408.44500,-1.517888429
408.44550,0.3132780177
408.44600,2.144444464
408.44650,3.060027687
408.44700,3.365222095
408.44750,2.449638872
408.44800,1.228861241
408.44850,0.9236668331
408.44900,1.839250056
408.44950,1.534055649
408.45000,-0.6023052054
408.45050,-3.349054875
408.45100,-3.95944369
408.45150,-2.738666059
408.45200,-2.433471652
408.45250,-3.95944369
408.45300,-5.790610136
408.45350,-6.706193359
408.45400,-6.706193359
408.45450,-6.706193359
408.45500,-6.095804544
408.45550,-4.569832506
408.45600,-4.264638098
408.45650,-4.875026913
408.45700,-4.875026913
408.45750,-4.264638098
408.45800,-3.043860467
408.45850,-1.517888429
408.45900,0.008083609999
408.45950,0.008083609999
408.46000,-1.517888429
408.46050,-3.349054875
408.46100,-2.128277244
408.46150,1.839250056
408.46200,6.417166172
408.46250,10.38469347
408.46300,13.43663755
408.46350,14.96260959
408.46400,13.43663755
408.46450,9.469110249
408.46500,7.027554987
408.46550,6.417166172
408.46600,6.111971764
408.46650,4.585999726
408.46700,2.754833279
408.46750,0.6184724254
408.46800,-1.823082836
408.46850,-4.569832506
408.46900,-4.875026913
408.46950,-4.569832506
408.47000,-6.400998952
408.47050,-9.147748621
408.47100,-9.452943029
408.47150,-5.485415729
408.47200,-1.517888429
408.47250,-0.6023052054
408.47300,-2.128277244
408.47350,-3.95944369
408.47400,-4.569832506
408.47450,-5.180221321
408.47500,-4.569832506
408.47550,-4.264638098
408.47600,-4.569832506
408.47650,-4.569832506
408.47700,-1.823082836
408.47750,3.060027687
408.47800,6.417166172
408.47850,4.891194133
408.47900,0.008083609999
408.47950,-2.738666059
408.48000,-1.212694021
408.48050,2.144444464
408.48100,3.97561091
408.48150,3.060027687
408.48200,0.9236668331
408.48250,0.3132780177
408.48300,1.839250056
408.48350,3.060027687
408.48400,2.754833279
408.48450,1.534055649
408.48500,1.228861241
408.48550,0.6184724254
408.48600,-0.6023052054
408.48650,-3.349054875
408.48700,-4.875026913
408.48750,-4.569832506
408.48800,-3.349054875
408.48850,-2.738666059
408.48900,-2.738666059
408.48950,-2.128277244
408.49000,0.9236668331
408.49050,5.501582949
408.49100,7.332749395
408.49150,3.060027687
408.49200,-5.485415729
408.49250,-11.28410947
408.49300,-9.758137436
408.49350,-3.349054875
408.49400,1.839250056
408.49450,3.97561091
408.49500,3.97561091
408.49550,3.670416502
408.49600,3.670416502
408.49650,4.585999726
408.49700,5.806777356
408.49750,6.111971764
408.49800,3.97561091
408.49850,2.754833279
408.49900,3.97561091
408.49950,6.722360579
408.50000,7.637943803
408.50050,5.806777356
408.50100,3.670416502
408.50150,2.449638872
408.50200,1.534055649
408.50250,0.008083609999
408.50300,0.008083609999
408.50350,1.228861241
408.50400,3.365222095
408.50450,3.97561091
408.50500,3.97561091
408.50550,4.891194133
408.50600,5.806777356
408.50650,6.111971764
408.50700,4.891194133
408.50750,3.060027687
408.50800,1.228861241
408.50850,0.008083609999
408.50900,-1.212694021
408.50950,-2.128277244
408.51000,-3.043860467
408.51050,-3.349054875
408.51100,-2.738666059
408.51150,-1.517888429
408.51200,-1.823082836
408.51250,-3.349054875
408.51300,-4.264638098
408.51350,-4.264638098
408.51400,-4.569832506
408.51450,-5.485415729
408.51500,-5.180221321
408.51550,-4.569832506
408.51600,-5.790610136
408.51650,-9.758137436
408.51700,-12.1996927
408.51750,-10.36852625
408.51800,-6.400998952
408.51850,-2.738666059
408.51900,1.534055649
408.51950,8.553527026
408.52000,14.04702636
408.52050,12.82624873
408.52100,6.417166172
408.52150,1.839250056
408.52200,2.449638872
408.52250,3.670416502
408.52300,0.3132780177
408.52350,-4.569832506
408.52400,-5.790610136
408.52450,-2.433471652
408.52500,0.008083609999
408.52550,0.008083609999
408.52600,0.9236668331
408.52650,6.111971764
408.52700,12.52105433
408.52750,14.35222077
408.52800,9.469110249
408.52850,2.144444464
408.52900,-1.823082836
408.52950,-3.654249282
408.53000,-5.180221321
408.53050,-6.706193359
408.53100,-6.400998952
408.53150,-3.95944369
408.53200,-1.823082836
408.53250,-2.128277244
408.53300,-3.654249282
408.53350,-5.485415729
408.53400,-7.011387767
408.53450,-7.316582175
408.53500,-6.095804544
408.53550,-4.264638098
408.53600,-4.875026913
408.53650,-7.92697099
408.53700,-8.842554213
408.53750,-5.790610136
408.53800,-2.128277244
408.53850,-2.433471652
408.53900,-4.875026913
408.53950,-5.180221321
408.54000,-1.517888429
408.54050,1.228861241
408.54100,1.839250056
408.54150,0.9236668331
408.54200,0.008083609999
408.54250,0.008083609999
408.54300,0.008083609999
408.54350,1.534055649
408.54400,3.060027687
408.54450,2.144444464
408.54500,-0.2971107977
408.54550,-0.9074996131
408.54600,1.534055649
408.54650,4.891194133
408.54700,7.027554987
408.54750,7.94313821
408.54800,8.248332618
408.54850,6.417166172
408.54900,2.449638872
408.54950,-0.6023052054
408.55000,-1.212694021
408.55050,-0.6023052054
408.55100,-1.517888429
408.55150,-4.264638098
408.55200,-6.095804544
408.55250,-5.180221321
408.55300,-1.823082836
408.55350,0.008083609999
408.55400,-0.6023052054
408.55450,-2.738666059
408.55500,-4.264638098
408.55550,-4.569832506
408.55600,-3.95944369
408.55650,-2.738666059
408.55700,-0.2971107977
408.55750,1.534055649
408.55800,2.144444464
408.55850,3.060027687
408.55900,5.806777356
408.55950,10.07949906
408.56000,11.6054711
408.56050,9.163915841
408.56100,5.501582949
408.56150,2.449638872
408.56200,0.008083609999
408.56250,-2.433471652
408.56300,-1.823082836
408.56350,3.060027687
408.56400,7.332749395
408.56450,7.637943803
408.56500,6.722360579
408.56550,8.553527026
408.56600,10.38469347
408.56650,7.332749395
408.56700,1.228861241
408.56750,-1.517888429
408.56800,0.008083609999
408.56850,1.534055649
408.56900,0.3132780177
408.56950,-1.212694021
408.57000,-0.6023052054
408.57050,0.6184724254
408.57100,1.228861241
408.57150,1.228861241
408.57200,0.6184724254
408.57250,-0.6023052054
408.57300,-3.349054875
408.57350,-5.180221321
408.57400,-6.095804544
408.57450,-7.011387767
408.57500,-7.92697099
408.57550,-7.011387767
408.57600,-3.349054875
408.57650,0.008083609999
408.57700,0.3132780177
408.57750,-0.2971107977
408.57800,-1.212694021
408.57850,-1.212694021
408.57900,-0.9074996131
408.57950,-0.9074996131
408.58000,-0.9074996131
408.58050,-1.212694021
408.58100,-1.823082836
408.58150,-1.517888429
408.58200,0.008083609999
408.58250,2.754833279
408.58300,5.196388541
408.58350,6.417166172
408.58400,7.332749395
408.58450,8.858721433
408.58500,10.38469347
408.58550,9.774304656
408.58600,6.722360579
408.58650,3.060027687
408.58700,0.6184724254
408.58750,0.008083609999
408.58800,-0.2971107977
408.58850,-0.9074996131
408.58900,-1.212694021
408.58950,-0.6023052054
408.59000,-0.9074996131
408.59050,-3.043860467
408.59100,-6.095804544
408.59150,-8.537359806
408.59200,-9.147748621
408.59250,-7.316582175
408.59300,-2.128277244
408.59350,4.280805318
408.59400,7.332749395
408.59450,5.196388541
408.59500,0.008083609999
408.59550,-2.738666059
408.59600,-3.95944369
408.59650,-4.264638098
408.59700,-4.264638098
408.59750,-2.738666059
408.59800,-0.2971107977
408.59850,0.008083609999
408.59900,-0.2971107977
408.59950,0.008083609999
408.60000,0.9236668331
408.60050,0.008083609999
408.60100,-2.128277244
408.60150,-1.517888429
408.60200,0.6184724254
408.60250,1.839250056
408.60300,0.6184724254
408.60350,0.9236668331
408.60400,3.060027687
408.60450,3.97561091
408.60500,2.449638872
408.60550,2.754833279
408.60600,5.196388541
408.60650,6.111971764
408.60700,3.365222095
408.60750,0.6184724254
408.60800,1.228861241
408.60850,1.228861241
408.60900,-1.212694021
408.60950,-3.654249282
408.61000,-2.738666059
408.61050,-0.9074996131
408.61100,-1.517888429
408.61150,-2.738666059
408.61200,-2.738666059
408.61250,-2.433471652
408.61300,-3.654249282
408.61350,-3.349054875
408.61400,-0.2971107977
408.61450,2.144444464
408.61500,0.008083609999
408.61550,-3.95944369
408.61600,-5.180221321
408.61650,-3.349054875
408.61700,-2.128277244
408.61750,-3.349054875
408.61800,-3.349054875
408.61850,-1.823082836
408.61900,-1.823082836
408.61950,-3.95944369
408.62000,-5.485415729
408.62050,-4.569832506
408.62100,-2.433471652
408.62150,-1.517888429
408.62200,-0.9074996131
408.62250,0.008083609999
408.62300,0.6184724254
408.62350,0.6184724254
408.62400,0.3132780177
408.62450,0.6184724254
408.62500,2.754833279
408.62550,4.585999726
408.62600,5.806777356
408.62650,4.891194133
408.62700,3.060027687
408.62750,0.9236668331
408.62800,0.008083609999
408.62850,-0.2971107977
408.62900,-0.9074996131
408.62950,-2.128277244
408.63000,-3.349054875
408.63050,-4.569832506
408.63100,-5.790610136
408.63150,-7.011387767
408.63200,-8.232165398
408.63250,-8.232165398
408.63300,-6.095804544
408.63350,-2.738666059
408.63400,0.3132780177
408.63450,1.228861241
408.63500,0.008083609999
408.63550,-1.517888429
408.63600,-1.823082836
408.63650,-1.212694021
408.63700,-0.9074996131
408.63750,-0.2971107977
408.63800,1.534055649
408.63850,3.670416502
408.63900,3.670416502
408.63950,1.839250056
408.64000,0.9236668331
408.64050,1.839250056
408.64100,3.365222095
408.64150,3.365222095
408.64200,2.449638872
408.64250,1.839250056
408.64300,0.9236668331
408.64350,-0.2971107977
408.64400,-1.212694021
408.64450,-0.9074996131
408.64500,-0.2971107977
408.64550,0.008083609999
408.64600,0.008083609999
408.64650,0.9236668331
408.64700,2.754833279
408.64750,4.891194133
408.64800,6.417166172
408.64850,6.111971764
408.64900,3.365222095
408.64950,0.008083609999
408.65000,-1.517888429
408.65050,-1.212694021
408.65100,-1.517888429
408.65150,-3.349054875
408.65200,-4.875026913
408.65250,-3.349054875
408.65300,0.008083609999
408.65350,2.144444464
408.65400,0.9236668331
408.65450,-1.823082836
408.65500,-4.569832506
408.65550,-5.790610136
408.65600,-5.790610136
408.65650,-4.875026913
408.65700,-4.569832506
408.65750,-3.95944369
408.65800,-3.043860467
408.65850,-1.212694021
408.65900,0.3132780177
408.65950,3.060027687
408.66000,7.027554987
408.66050,10.38469347
408.66100,11.91066551
408.66150,11.6054711
408.66200,12.21585992
408.66250,13.13144314
408.66300,13.13144314
408.66350,11.30027669
408.66400,9.163915841
408.66450,7.027554987
408.66500,3.365222095
408.66550,0.008083609999
408.66600,-0.6023052054
408.66650,0.008083609999
408.66700,-0.6023052054
408.66750,-3.349054875
408.66800,-3.654249282
408.66850,-1.517888429
408.66900,-1.212694021
408.66950,-3.95944369
408.67000,-4.875026913
408.67050,-0.9074996131
408.67100,2.754833279
408.67150,1.534055649
408.67200,-1.517888429
408.67250,-1.823082836
408.67300,0.3132780177
408.67350,0.008083609999
408.67400,-2.738666059
408.67450,-3.654249282
408.67500,-0.9074996131
408.67550,0.3132780177
408.67600,-0.9074996131
408.67650,-2.128277244
408.67700,0.008083609999
408.67750,1.228861241
408.67800,-0.2971107977
408.67850,-1.823082836
408.67900,0.3132780177
408.67950,5.806777356
408.68000,8.858721433
408.68050,8.248332618
408.68100,6.417166172
408.68150,3.365222095
408.68200,-1.212694021
408.68250,-6.400998952
408.68300,-8.232165398
408.68350,-7.316582175
408.68400,-6.706193359
408.68450,-7.621776583
408.68500,-5.485415729
408.68550,-0.2971107977
408.68600,2.754833279
408.68650,0.3132780177
408.68700,-3.043860467
408.68750,-2.738666059
408.68800,0.6184724254
408.68850,3.060027687
408.68900,2.449638872
408.68950,0.3132780177
408.69000,-1.517888429
408.69050,-3.043860467
408.69100,-2.738666059
408.69150,-0.9074996131
408.69200,-0.6023052054
408.69250,-3.043860467
408.69300,-6.400998952
408.69350,-7.621776583
408.69400,-6.706193359
408.69450,-5.485415729
408.69500,-3.95944369
408.69550,-2.128277244
408.69600,-2.128277244
408.69650,-4.569832506
408.69700,-5.790610136
408.69750,-3.349054875
408.69800,0.6184724254
408.69850,2.144444464
408.69900,0.6184724254
408.69950,-1.212694021
408.70000,-1.823082836
408.70050,-0.2971107977
408.70100,3.060027687
408.70150,7.027554987
408.70200,7.027554987
408.70250,0.9236668331
408.70300,-6.095804544
408.70350,-7.621776583
408.70400,-2.433471652
408.70450,1.534055649
408.70500,1.534055649
408.70550,0.008083609999
408.70600,0.9236668331
408.70650,0.9236668331
408.70700,-1.517888429
408.70750,-1.823082836
408.70800,4.891194133
408.70850,12.21585992
408.70900,8.248332618
408.70950,-6.095804544
408.71000,-16.77760881
408.71050,-12.81008151
408.71100,-1.517888429
408.71150,2.144444464
408.71200,-3.043860467
408.71250,-8.537359806
408.71300,-7.92697099
408.71350,-4.569832506
408.71400,-3.654249282
408.71450,-3.043860467
408.71500,0.008083609999
408.71550,5.501582949
408.71600,9.469110249
408.71650,9.163915841
408.71700,5.196388541
408.71750,1.228861241
408.71800,0.6184724254
408.71850,2.754833279
408.71900,3.97561091
408.71950,1.839250056
408.72000,-1.517888429
408.72050,-1.212694021
408.72100,3.365222095
408.72150,8.248332618
408.72200,9.469110249
408.72250,7.027554987
408.72300,3.060027687
408.72350,0.008083609999
408.72400,-0.6023052054
408.72450,0.6184724254
408.72500,2.144444464
408.72550,2.449638872
408.72600,2.449638872
408.72650,4.585999726
408.72700,9.163915841
408.72750,12.21585992
408.72800,9.774304656
408.72850,2.449638872
408.72900,-4.875026913
408.72950,-8.537359806
408.73000,-9.147748621
408.73050,-10.36852625
408.73100,-11.89449829
408.73150,-10.06333184
408.73200,-3.349054875
408.73250,3.97561091
408.73300,6.417166172
408.73350,4.280805318
408.73400,3.060027687
408.73450,5.196388541
408.73500,6.722360579
408.73550,4.585999726
408.73600,0.6184724254
408.73650,-1.517888429
408.73700,-1.823082836
408.73750,-1.212694021
408.73800,0.008083609999
408.73850,1.839250056
408.73900,3.97561091
408.73950,4.280805318
408.74000,3.060027687
408.74050,0.3132780177
408.74100,-2.433471652
408.74150,-4.264638098
408.74200,-2.738666059
408.74250,1.228861241
408.74300,5.196388541
408.74350,5.196388541
408.74400,1.228861241
408.74450,-3.95944369
408.74500,-7.011387767
408.74550,-5.790610136
408.74600,-0.6023052054
408.74650,3.97561091
408.74700,4.891194133
408.74750,2.449638872
408.74800,0.3132780177
408.74850,0.3132780177
408.74900,0.008083609999
408.74950,-0.2971107977
408.75000,0.008083609999
408.75050,2.449638872
408.75100,3.97561091
408.75150,1.839250056
408.75200,-0.2971107977
408.75250,2.144444464
408.75300,8.248332618
408.75350,9.774304656
408.75400,4.280805318
408.75450,-2.128277244
408.75500,-3.95944369
408.75550,-2.738666059
408.75600,-2.433471652
408.75650,-3.349054875
408.75700,-2.433471652
408.75750,1.534055649
408.75800,7.637943803
408.75850,13.13144314
408.75900,14.65741518
408.75950,8.248332618
408.76000,-2.128277244
408.76050,-8.232165398
408.76100,-5.180221321
408.76150,0.008083609999
408.76200,0.008083609999
408.76250,-4.264638098
408.76300,-3.349054875
408.76350,2.754833279
408.76400,6.417166172
408.76450,2.754833279
408.76500,-2.128277244
408.76550,-3.349054875
408.76600,-0.9074996131
408.76650,0.6184724254
408.76700,0.9236668331
408.76750,0.6184724254
408.76800,-0.2971107977
408.76850,-3.349054875
408.76900,-6.706193359
408.76950,-9.147748621
408.77000,-11.58930388
408.77050,-13.11527592
408.77100,-12.1996927
408.77150,-9.758137436
408.77200,-10.06333184
408.77250,-12.50488711
408.77300,-13.11527592
408.77350,-8.537359806
408.77400,-3.95944369
408.77450,-3.95944369
408.77500,-6.400998952
408.77550,-6.400998952
408.77600,-4.264638098
408.77650,-4.264638098
408.77700,-5.180221321
408.77750,-2.433471652
408.77800,3.97561091
408.77850,9.163915841
408.77900,9.163915841
408.77950,6.722360579
408.78000,5.501582949
408.78050,5.196388541
408.78100,4.280805318
408.78150,3.97561091
408.78200,5.501582949
408.78250,6.417166172
408.78300,4.280805318
408.78350,1.534055649
408.78400,2.144444464
408.78450,6.417166172
408.78500,9.774304656
408.78550,9.163915841
408.78600,5.501582949
408.78650,2.144444464
408.78700,0.008083609999
408.78750,-0.9074996131
408.78800,-1.823082836
408.78850,-1.517888429
408.78900,-0.9074996131
408.78950,-1.212694021
408.79000,-3.349054875
408.79050,-3.654249282
408.79100,0.008083609999
408.79150,5.196388541
408.79200,4.891194133
408.79250,-2.433471652
408.79300,-10.06333184
408.79350,-10.36852625
408.79400,-5.180221321
408.79450,-2.128277244
408.79500,-2.128277244
408.79550,-0.2971107977
408.79600,6.417166172
408.79650,12.82624873
408.79700,13.74183196
408.79750,10.38469347
408.79800,7.027554987
408.79850,5.196388541
408.79900,3.670416502
408.79950,1.839250056
408.80000,0.3132780177
408.80050,-0.9074996131
408.80100,-3.043860467
408.80150,-3.95944369
408.80200,-3.349054875
408.80250,-2.433471652
408.80300,-2.738666059
408.80350,-1.823082836
408.80400,0.008083609999
408.80450,1.839250056
408.80500,1.228861241
408.80550,0.008083609999
408.80600,-0.6023052054
408.80650,-0.9074996131
408.80700,-3.043860467
408.80750,-4.875026913
408.80800,-3.95944369
408.80850,-1.517888429
408.80900,-1.517888429
408.80950,-4.875026913
408.81000,-7.011387767
408.81050,-5.180221321
408.81100,-1.823082836
408.81150,0.008083609999
408.81200,0.6184724254
408.81250,2.754833279
408.81300,4.585999726
408.81350,4.585999726
408.81400,2.449638872
408.81450,0.008083609999
408.81500,-1.823082836
408.81550,-3.043860467
408.81600,-3.043860467
408.81650,-2.128277244
408.81700,-1.823082836
408.81750,-2.433471652
408.81800,-2.433471652
408.81850,-0.2971107977
408.81900,1.534055649
408.81950,1.228861241
408.82000,-0.2971107977
408.82050,-1.212694021
408.82100,0.6184724254
408.82150,3.060027687
408.82200,4.280805318
408.82250,4.280805318
408.82300,4.585999726
408.82350,3.97561091
408.82400,2.144444464
408.82450,0.008083609999
408.82500,-2.128277244
408.82550,-3.043860467
408.82600,-3.349054875
408.82650,-3.349054875
408.82700,-3.654249282
408.82750,-4.569832506
408.82800,-4.875026913
408.82850,-3.349054875
408.82900,-0.9074996131
408.82950,0.008083609999
408.83000,0.3132780177
408.83050,0.008083609999
408.83100,0.008083609999
408.83150,0.008083609999
408.83200,1.228861241
408.83250,3.670416502
408.83300,5.501582949
408.83350,4.891194133
408.83400,1.839250056
408.83450,-2.128277244
408.83500,-6.400998952
408.83550,-10.36852625
408.83600,-12.1996927
408.83650,-10.06333184
408.83700,-4.569832506
408.83750,1.228861241
408.83800,4.585999726
408.83850,4.585999726
408.83900,2.144444464
408.83950,0.3132780177
408.84000,0.9236668331
408.84050,3.060027687
408.84100,3.670416502
408.84150,1.839250056
408.84200,0.9236668331
408.84250,2.144444464
408.84300,2.754833279
408.84350,1.534055649
408.84400,0.3132780177
408.84450,1.839250056
408.84500,4.280805318
408.84550,4.280805318
408.84600,2.144444464
408.84650,0.6184724254
408.84700,0.6184724254
408.84750,0.6184724254
408.84800,1.228861241
408.84850,3.365222095
408.84900,4.891194133
408.84950,4.280805318
408.85000,0.9236668331
408.85050,-2.128277244
408.85100,-4.264638098
408.85150,-4.875026913
408.85200,-3.95944369
408.85250,-3.043860467
408.85300,-3.654249282
408.85350,-5.790610136
408.85400,-6.095804544
408.85450,-3.043860467
408.85500,0.3132780177
408.85550,0.6184724254
408.85600,-1.517888429
408.85650,-2.738666059
408.85700,-1.212694021
408.85750,1.534055649
408.85800,3.97561091
408.85850,5.196388541
408.85900,5.806777356
408.85950,4.585999726
408.86000,2.754833279
408.86050,1.534055649
408.86100,1.228861241
408.86150,1.839250056
408.86200,3.670416502
408.86250,6.111971764
408.86300,6.417166172
408.86350,3.365222095
408.86400,0.3132780177
408.86450,0.3132780177
408.86500,1.534055649
408.86550,0.3132780177
408.86600,-1.823082836
408.86650,-0.6023052054
408.86700,3.365222095
408.86750,4.891194133
408.86800,0.6184724254
408.86850,-3.654249282
408.86900,-5.485415729
408.86950,-5.485415729
408.87000,-6.400998952
408.87050,-5.790610136
408.87100,-2.738666059
408.87150,0.008083609999
408.87200,0.9236668331
408.87250,2.754833279
408.87300,7.027554987
408.87350,9.774304656
408.87400,7.027554987
408.87450,2.449638872
408.87500,0.008083609999
408.87550,-0.9074996131
408.87600,-4.569832506
408.87650,-9.452943029
408.87700,-11.58930388
408.87750,-10.97891507
408.87800,-10.67372066
408.87850,-11.28410947
408.87900,-10.97891507
408.87950,-9.147748621
408.88000,-7.92697099
408.88050,-7.621776583
408.88100,-6.706193359
408.88150,-3.654249282
408.88200,1.534055649
408.88250,8.858721433
408.88300,12.52105433
408.88350,7.027554987
408.88400,-3.043860467
408.88450,-8.232165398
408.88500,-3.349054875
408.88550,4.280805318
408.88600,7.027554987
408.88650,4.891194133
408.88700,4.280805318
408.88750,5.501582949
408.88800,3.97561091
408.88850,0.008083609999
408.88900,-1.212694021
408.88950,-0.2971107977
408.89000,-1.517888429
408.89050,-5.180221321
408.89100,-6.400998952
408.89150,-2.738666059
408.89200,1.228861241
408.89250,1.534055649
408.89300,-0.9074996131
408.89350,-0.9074996131
408.89400,2.449638872
408.89450,6.417166172
408.89500,7.637943803
408.89550,6.111971764
408.89600,4.280805318
408.89650,4.585999726
408.89700,7.027554987
408.89750,7.027554987
408.89800,0.9236668331
408.89850,-7.621776583
408.89900,-11.89449829
408.89950,-8.232165398
408.90000,-2.128277244
408.90050,0.008083609999
408.90100,-1.517888429
408.90150,-3.654249282
408.90200,-3.654249282
408.90250,-2.128277244
408.90300,0.6184724254
408.90350,4.280805318
408.90400,7.027554987
408.90450,7.94313821
408.90500,8.553527026
408.90550,10.07949906
408.90600,11.6054711
408.90650,10.68988788
408.90700,7.332749395
408.90750,4.280805318
408.90800,2.754833279
408.90850,0.3132780177
408.90900,-2.738666059
408.90950,-5.790610136
408.91000,-6.095804544
408.91050,-3.95944369
408.91100,-1.823082836
408.91150,-0.9074996131
408.91200,-1.212694021
408.91250,-1.212694021
408.91300,0.3132780177
408.91350,2.144444464
408.91400,0.9236668331
408.91450,-2.128277244
408.91500,-4.569832506
408.91550,-3.349054875
408.91600,-0.6023052054
408.91650,0.9236668331
408.91700,2.449638872
408.91750,4.585999726
408.91800,6.417166172
408.91850,6.417166172
408.91900,4.891194133
408.91950,2.144444464
408.92000,-1.212694021
408.92050,-4.569832506
408.92100,-3.95944369
408.92150,0.9236668331
408.92200,5.806777356
408.92250,6.417166172
408.92300,3.670416502
408.92350,1.228861241
408.92400,0.3132780177
408.92450,-0.2971107977
408.92500,-0.6023052054
408.92550,-0.2971107977
408.92600,-0.6023052054
408.92650,-2.128277244
408.92700,-4.569832506
408.92750,-5.180221321
408.92800,-3.95944369
408.92850,-2.433471652
408.92900,-2.433471652
408.92950,-3.349054875
408.93000,-5.485415729
408.93050,-8.232165398
408.93100,-9.758137436
408.93150,-10.06333184
408.93200,-8.537359806
408.93250,-6.095804544
408.93300,-2.738666059
408.93350,-0.2971107977
408.93400,-0.9074996131
408.93450,-3.349054875
408.93500,-5.485415729
408.93550,-5.485415729
408.93600,-3.043860467
408.93650,1.839250056
408.93700,10.38469347
408.93750,19.5405257
408.93800,22.59246978
408.93850,16.79377603
408.93900,7.637943803
408.93950,3.060027687
408.94000,4.585999726
408.94050,7.94313821
408.94100,8.248332618
408.94150,5.501582949
408.94200,3.060027687
408.94250,2.144444464
408.94300,3.060027687
408.94350,3.060027687
408.94400,1.228861241
408.94450,-0.6023052054
408.94500,-0.6023052054
408.94550,1.534055649
408.94600,4.280805318
408.94650,4.891194133
408.94700,3.365222095
408.94750,0.6184724254
408.94800,-1.212694021
408.94850,-2.738666059
408.94900,-3.043860467
408.94950,-3.043860467
408.95000,-3.349054875
408.95050,-3.95944369
408.95100,-4.264638098
408.95150,-4.264638098
408.95200,-4.264638098
408.95250,-3.654249282
408.95300,-2.738666059
408.95350,-2.128277244
408.95400,-3.349054875
408.95450,-4.569832506
408.95500,-4.875026913
408.95550,-3.654249282
408.95600,-2.738666059
408.95650,-3.043860467
408.95700,-3.349054875
408.95750,-3.043860467
408.95800,-2.738666059
408.95850,-3.043860467
408.95900,-2.738666059
408.95950,-1.212694021
408.96000,0.9236668331
408.96050,1.228861241
408.96100,-0.6023052054
408.96150,-4.264638098
408.96200,-7.011387767
408.96250,-8.232165398
408.96300,-8.842554213
408.96350,-8.537359806
408.96400,-5.485415729
408.96450,-0.2971107977
408.96500,4.280805318
408.96550,7.637943803
408.96600,10.38469347
408.96650,14.04702636
408.96700,14.96260959
408.96750,9.774304656
408.96800,1.534055649
408.96850,-3.349054875
408.96900,-2.738666059
408.96950,-0.6023052054
408.97000,-0.6023052054
408.97050,-2.433471652
408.97100,-3.349054875
408.97150,-4.264638098
408.97200,-5.485415729
408.97250,-6.095804544
408.97300,-5.790610136
408.97350,-5.790610136
408.97400,-5.790610136
408.97450,-4.264638098
408.97500,-0.9074996131
408.97550,1.228861241
408.97600,0.3132780177
408.97650,-1.212694021
408.97700,-0.9074996131
408.97750,-0.2971107977
408.97800,-2.128277244
408.97850,-3.95944369
408.97900,-0.6023052054
408.97950,7.027554987
408.98000,10.99508229
408.98050,7.94313821
408.98100,4.280805318
408.98150,5.806777356
408.98200,10.99508229
408.98250,11.6054711
408.98300,6.417166172
408.98350,0.6184724254
408.98400,-0.2971107977
408.98450,1.228861241
408.98500,2.144444464
408.98550,1.228861241
408.98600,0.008083609999
408.98650,-0.6023052054
408.98700,-0.2971107977
408.98750,0.6184724254
408.98800,1.839250056
408.98850,0.9236668331
408.98900,-1.517888429
408.98950,-3.95944369
408.99000,-3.95944369
408.99050,-3.043860467
408.99100,-3.349054875
408.99150,-5.485415729
408.99200,-7.621776583
408.99250,-8.537359806
408.99300,-7.316582175
408.99350,-5.180221321
408.99400,-4.569832506
408.99450,-7.316582175
408.99500,-10.97891507
408.99550,-10.97891507
408.99600,-6.095804544
408.99650,-1.823082836
408.99700,-2.433471652
408.99750,-5.790610136
408.99800,-8.232165398
408.99850,-7.621776583
408.99900,-5.485415729
408.99950,-2.433471652
409.00000,2.144444464
409.00050,7.027554987
409.00100,9.163915841
409.00150,9.163915841
409.00200,8.248332618
409.00250,5.806777356
409.00300,0.9236668331
409.00350,-3.043860467
409.00400,-2.128277244
409.00450,3.060027687
409.00500,7.94313821
409.00550,9.774304656
409.00600,9.774304656
409.00650,9.774304656
409.00700,8.553527026
409.00750,4.891194133
409.00800,1.839250056
409.00850,2.144444464
409.00900,3.97561091
409.00950,4.891194133
409.01000,4.280805318
409.01050,2.449638872
409.01100,0.6184724254
409.01150,0.008083609999
409.01200,1.228861241
409.01250,3.365222095
409.01300,2.754833279
409.01350,-1.823082836
409.01400,-7.011387767
409.01450,-8.537359806
409.01500,-5.180221321
409.01550,-1.212694021
409.01600,0.9236668331
409.01650,1.534055649
409.01700,1.228861241
409.01750,0.6184724254
409.01800,0.3132780177
409.01850,0.008083609999
409.01900,-0.2971107977
409.01950,-1.823082836
409.02000,-2.128277244
409.02050,-0.9074996131
409.02100,1.228861241
409.02150,2.754833279
409.02200,2.449638872
409.02250,1.534055649
409.02300,1.228861241
409.02350,1.228861241
409.02400,0.9236668331
409.02450,1.228861241
409.02500,1.228861241
409.02550,0.9236668331
409.02600,1.534055649
409.02650,2.754833279
409.02700,3.97561091
409.02750,3.97561091
409.02800,2.754833279
409.02850,1.839250056
409.02900,1.839250056
409.02950,1.839250056
409.03000,0.9236668331
409.03050,0.008083609999
409.03100,-1.212694021
409.03150,-1.823082836
409.03200,0.3132780177
409.03250,4.280805318
409.03300,3.060027687
409.03350,-6.706193359
409.03400,-19.21916408
409.03450,-21.96591374
409.03500,-13.72566474
409.03550,-4.875026913
409.03600,-1.823082836
409.03650,-0.6023052054
409.03700,2.449638872
409.03750,3.97561091
409.03800,-1.212694021
409.03850,-9.758137436
409.03900,-13.72566474
409.03950,-10.97891507
409.04000,-5.180221321
409.04050,0.6184724254
409.04100,5.806777356
409.04150,8.553527026
409.04200,7.94313821
409.04250,7.332749395
409.04300,9.469110249
409.04350,11.6054711
409.04400,10.68988788
409.04450,8.248332618
409.04500,7.332749395
409.04550,7.332749395
409.04600,5.806777356
409.04650,2.449638872
409.04700,0.9236668331
409.04750,1.534055649
409.04800,1.839250056
409.04850,0.3132780177
409.04900,-0.9074996131
409.04950,-1.517888429
409.05000,-1.517888429
409.05050,-1.823082836
409.05100,-3.043860467
409.05150,-4.264638098
409.05200,-5.485415729
409.05250,-6.400998952
409.05300,-7.621776583
409.05350,-7.92697099
409.05400,-5.790610136
409.05450,-1.517888429
409.05500,1.228861241
409.05550,0.6184724254
409.05600,-1.212694021
409.05650,-1.823082836
409.05700,-0.2971107977
409.05750,0.9236668331
409.05800,2.754833279
409.05850,6.722360579
409.05900,11.30027669
409.05950,12.52105433
409.06000,8.858721433
409.06050,3.97561091
409.06100,1.534055649
409.06150,1.534055649
409.06200,2.144444464
409.06250,1.839250056
409.06300,0.008083609999
409.06350,-2.128277244
409.06400,-2.738666059
409.06450,-1.823082836
409.06500,-1.517888429
409.06550,-2.738666059
409.06600,-3.349054875
409.06650,-2.738666059
409.06700,-2.738666059
409.06750,-5.180221321
409.06800,-6.400998952
409.06850,-4.264638098
409.06900,-3.043860467
409.06950,-6.400998952
409.07000,-11.89449829
409.07050,-13.11527592
409.07100,-10.06333184
409.07150,-7.011387767
409.07200,-5.485415729
409.07250,-3.95944369
409.07300,-1.517888429
409.07350,0.9236668331
409.07400,4.891194133
409.07450,10.99508229
409.07500,15.267804
409.07550,13.13144314
409.07600,7.332749395
409.07650,3.365222095
409.07700,3.670416502
409.07750,4.585999726
409.07800,4.585999726
409.07850,3.97561091
409.07900,2.144444464
409.07950,0.008083609999
409.08000,-0.9074996131
409.08050,1.534055649
409.08100,4.585999726
409.08150,4.585999726
409.08200,3.97561091
409.08250,6.722360579
409.08300,9.163915841
409.08350,4.891194133
409.08400,-3.349054875
409.08450,-7.621776583
409.08500,-5.180221321
409.08550,-2.738666059
409.08600,-3.654249282
409.08650,-3.95944369
409.08700,-0.6023052054
409.08750,1.534055649
409.08800,0.008083609999
409.08850,-3.95944369
409.08900,-5.485415729
409.08950,-5.790610136
409.09000,-6.400998952
409.09050,-6.400998952
409.09100,-4.569832506
409.09150,-3.654249282
409.09200,-5.180221321
409.09250,-6.095804544
409.09300,-4.569832506
409.09350,-2.738666059
409.09400,-3.95944369
409.09450,-6.095804544
409.09500,-6.095804544
409.09550,-3.95944369
409.09600,-3.654249282
409.09650,-4.875026913
409.09700,-4.569832506
409.09750,-2.128277244
409.09800,-0.2971107977
409.09850,0.008083609999
409.09900,0.008083609999
409.09950,1.534055649
409.10000,2.449638872
409.10050,2.144444464
409.10100,1.534055649
409.10150,1.839250056
409.10200,2.754833279
409.10250,2.449638872
409.10300,1.534055649
409.10350,0.9236668331
409.10400,1.839250056
409.10450,3.365222095
409.10500,4.280805318
409.10550,3.670416502
409.10600,1.534055649
409.10650,0.008083609999
409.10700,-0.9074996131
409.10750,-1.823082836
409.10800,-2.738666059
409.10850,-2.433471652
409.10900,-0.6023052054
409.10950,0.3132780177
409.11000,0.008083609999
409.11050,-0.9074996131
409.11100,0.008083609999
409.11150,1.228861241
409.11200,-0.2971107977
409.11250,-3.349054875
409.11300,-3.349054875
409.11350,0.008083609999
409.11400,0.9236668331
409.11450,0.008083609999
409.11500,0.008083609999
409.11550,3.365222095
409.11600,7.027554987
409.11650,7.94313821
409.11700,7.027554987
409.11750,4.585999726
409.11800,0.3132780177
409.11850,-3.654249282
409.11900,-2.128277244
409.11950,4.280805318
409.12000,9.163915841
409.12050,7.94313821
409.12100,6.111971764
409.12150,9.163915841
409.12200,14.04702636
409.12250,13.74183196
409.12300,9.469110249
409.12350,5.806777356
409.12400,3.97561091
409.12450,2.449638872
409.12500,1.228861241
409.12550,0.6184724254
409.12600,-1.212694021
409.12650,-5.790610136
409.12700,-7.621776583
409.12750,-4.264638098
409.12800,-0.6023052054
409.12850,-2.433471652
409.12900,-7.316582175
409.12950,-7.92697099
409.13000,-3.043860467
409.13050,0.6184724254
409.13100,0.9236668331
409.13150,0.008083609999
409.13200,0.008083609999
409.13250,0.008083609999
409.13300,-1.517888429
409.13350,-3.349054875
409.13400,-4.875026913
409.13450,-6.095804544
409.13500,-7.011387767
409.13550,-6.095804544
409.13600,-3.95944369
409.13650,-3.349054875
409.13700,-4.569832506
409.13750,-4.264638098
409.13800,-1.212694021
409.13850,1.534055649
409.13900,2.449638872
409.13950,1.839250056
409.14000,1.534055649
409.14050,1.228861241
409.14100,0.9236668331
409.14150,1.228861241
409.14200,2.449638872
409.14250,2.754833279
409.14300,1.228861241
409.14350,-0.2971107977
409.14400,-0.2971107977
409.14450,0.6184724254
409.14500,-0.6023052054
409.14550,-4.264638098
409.14600,-5.485415729
409.14650,-1.517888429
409.14700,3.365222095
409.14750,4.585999726
409.14800,3.97561091
409.14850,4.891194133
409.14900,7.332749395
409.14950,7.332749395
409.15000,3.670416502
409.15050,0.008083609999
409.15100,-2.128277244
409.15150,-3.349054875
409.15200,-5.180221321
409.15250,-5.180221321
409.15300,-3.654249282
409.15350,-2.433471652
409.15400,-3.654249282
409.15450,-5.180221321
409.15500,-5.790610136
409.15550,-6.400998952
409.15600,-6.706193359
409.15650,-3.95944369
409.15700,2.144444464
409.15750,6.722360579
409.15800,3.97561091
409.15850,-2.128277244
409.15900,-4.264638098
409.15950,0.008083609999
409.16000,5.196388541
409.16050,6.417166172
409.16100,4.585999726
409.16150,2.449638872
409.16200,0.6184724254
409.16250,-0.9074996131
409.16300,-0.2971107977
409.16350,2.754833279
409.16400,5.806777356
409.16450,7.027554987
409.16500,7.637943803
409.16550,9.163915841
409.16600,9.774304656
409.16650,6.111971764
409.16700,0.6184724254
409.16750,-2.128277244
409.16800,-1.517888429
409.16850,0.008083609999
409.16900,-0.2971107977
409.16950,-2.433471652
409.17000,-5.790610136
409.17050,-9.147748621
409.17100,-10.06333184
409.17150,-7.621776583
409.17200,-3.95944369
409.17250,-3.043860467
409.17300,-5.180221321
409.17350,-6.400998952
409.17400,-7.316582175
409.17450,-10.36852625
409.17500,-13.72566474
409.17550,-11.89449829
409.17600,-3.654249282
409.17650,3.670416502
409.17700,4.585999726
409.17750,2.754833279
409.17800,5.196388541
409.17850,11.30027669
409.17900,13.13144314
409.17950,8.553527026
409.18000,3.670416502
409.18050,3.670416502
409.18100,6.417166172
409.18150,6.722360579
409.18200,3.670416502
409.18250,0.6184724254
409.18300,0.008083609999
409.18350,0.9236668331
409.18400,2.754833279
409.18450,3.97561091
409.18500,5.196388541
409.18550,6.722360579
409.18600,7.027554987
409.18650,5.196388541
409.18700,2.144444464
409.18750,0.008083609999
409.18800,0.9236668331
409.18850,3.060027687
409.18900,3.060027687
409.18950,1.228861241
409.19000,0.008083609999
409.19050,0.9236668331
409.19100,2.144444464
409.19150,1.534055649
409.19200,-0.9074996131
409.19250,-3.043860467
409.19300,-3.654249282
409.19350,-3.043860467
409.19400,-1.823082836
409.19450,-1.212694021
409.19500,-2.433471652
409.19550,-4.264638098
409.19600,-4.875026913
409.19650,-3.043860467
409.19700,-0.9074996131
409.19750,-0.9074996131
409.19800,-2.128277244
409.19850,-3.349054875
409.19900,-4.569832506
409.19950,-6.400998952
409.20000,-7.92697099
409.20050,-6.095804544
409.20100,-2.128277244
409.20150,0.3132780177
409.20200,0.008083609999
409.20250,-0.6023052054
409.20300,-0.6023052054
409.20350,-0.9074996131
409.20400,-3.654249282
409.20450,-6.400998952
409.20500,-5.180221321
409.20550,-0.9074996131
409.20600,0.9236668331
409.20650,0.008083609999
409.20700,-0.9074996131
409.20750,0.008083609999
409.20800,1.534055649
409.20850,1.534055649
409.20900,-0.2971107977
409.20950,-2.433471652
409.21000,-2.738666059
409.21050,-0.9074996131
409.21100,1.534055649
409.21150,2.449638872
409.21200,-0.6023052054
409.21250,-5.180221321
409.21300,-5.790610136
409.21350,-0.2971107977
409.21400,6.111971764
409.21450,7.027554987
409.21500,3.060027687
409.21550,0.008083609999
409.21600,0.9236668331
409.21650,3.670416502
409.21700,3.97561091
409.21750,0.6184724254
409.21800,-2.433471652
409.21850,-3.654249282
409.21900,-1.823082836
409.21950,1.534055649
409.22000,5.806777356
409.22050,9.469110249
409.22100,9.774304656
409.22150,6.111971764
409.22200,0.008083609999
409.22250,-4.569832506
409.22300,-6.706193359
409.22350,-6.400998952
409.22400,-5.485415729
409.22450,-3.349054875
409.22500,-1.212694021
409.22550,-0.9074996131
409.22600,-3.349054875
409.22650,-4.264638098
409.22700,0.6184724254
409.22750,9.469110249
409.22800,14.35222077
409.22850,10.99508229
409.22900,4.891194133
409.22950,1.228861241
409.23000,1.534055649
409.23050,1.534055649
409.23100,-0.2971107977
409.23150,-3.654249282
409.23200,-6.095804544
409.23250,-7.621776583
409.23300,-7.316582175
409.23350,-6.706193359
409.23400,-7.011387767
409.23450,-8.232165398
409.23500,-8.232165398
409.23550,-6.095804544
409.23600,-4.875026913
409.23650,-6.095804544
409.23700,-7.316582175
409.23750,-5.790610136
409.23800,-2.738666059
409.23850,-0.9074996131
409.23900,0.008083609999
409.23950,2.449638872
409.24000,7.332749395
409.24050,10.99508229
409.24100,10.68988788
409.24150,7.027554987
409.24200,4.280805318
409.24250,3.365222095
409.24300,2.754833279
409.24350,1.534055649
409.24400,2.754833279
409.24450,8.858721433
409.24500,16.18338722
409.24550,17.70935926
409.24600,10.99508229
409.24650,2.449638872
409.24700,0.008083609999
409.24750,3.97561091
409.24800,7.332749395
409.24850,5.806777356
409.24900,2.449638872
409.24950,0.9236668331
409.25000,0.6184724254
409.25050,-0.2971107977
409.25100,-2.433471652
409.25150,-3.654249282
409.25200,-4.875026913
409.25250,-7.011387767
409.25300,-8.842554213
409.25350,-8.232165398
409.25400,-5.790610136
409.25450,-2.433471652
409.25500,1.839250056
409.25550,6.722360579
409.25600,8.248332618
409.25650,5.806777356
409.25700,1.839250056
409.25750,0.3132780177
409.25800,0.9236668331
409.25850,0.008083609999
409.25900,-2.128277244
409.25950,-3.654249282
409.26000,-3.043860467
409.26050,-1.212694021
409.26100,0.008083609999
409.26150,2.144444464
409.26200,3.97561091
409.26250,3.97561091
409.26300,2.144444464
409.26350,0.008083609999
409.26400,-2.433471652
409.26450,-6.095804544
409.26500,-9.147748621
409.26550,-8.842554213
409.26600,-5.180221321
409.26650,-0.9074996131
409.26700,0.3132780177
409.26750,-0.2971107977
409.26800,-2.433471652
409.26850,-4.264638098
409.26900,-4.875026913
409.26950,-3.95944369
409.27000,-2.128277244
409.27050,-0.6023052054
409.27100,0.6184724254
409.27150,2.449638872
409.27200,3.060027687
409.27250,0.3132780177
409.27300,-4.569832506
409.27350,-7.92697099
409.27400,-6.706193359
409.27450,-3.043860467
409.27500,-1.212694021
409.27550,-0.9074996131
409.27600,0.3132780177
409.27650,2.754833279
409.27700,3.365222095
409.27750,2.144444464
409.27800,2.449638872
409.27850,7.332749395
409.27900,11.91066551
409.27950,9.163915841
409.28000,-0.2971107977
409.28050,-8.232165398
409.28100,-7.92697099
409.28150,-2.128277244
409.28200,2.449638872
409.28250,3.670416502
409.28300,3.365222095
409.28350,3.365222095
409.28400,3.060027687
409.28450,2.754833279
409.28500,2.754833279
409.28550,3.97561091
409.28600,4.585999726
409.28650,3.97561091
409.28700,3.365222095
409.28750,3.060027687
409.28800,2.754833279
409.28850,0.6184724254
409.28900,-2.738666059
409.28950,-5.790610136
409.29000,-6.095804544
409.29050,-4.264638098
409.29100,-3.349054875
409.29150,-5.485415729
409.29200,-7.92697099
409.29250,-8.232165398
409.29300,-6.706193359
409.29350,-6.095804544
409.29400,-7.92697099
409.29450,-10.06333184
409.29500,-10.36852625
409.29550,-9.452943029
409.29600,-8.537359806
409.29650,-7.621776583
409.29700,-4.875026913
409.29750,-0.2971107977
409.29800,2.754833279
409.29850,2.754833279
409.29900,0.3132780177
409.29950,0.008083609999
409.30000,2.754833279
409.30050,6.722360579
409.30100,7.94313821
409.30150,7.332749395
409.30200,7.332749395
409.30250,7.332749395
409.30300,5.806777356
409.30350,3.670416502
409.30400,3.670416502
409.30450,5.501582949
409.30500,4.280805318
409.30550,0.008083609999
409.30600,-3.95944369
409.30650,-2.738666059
409.30700,0.9236668331
409.30750,2.754833279
409.30800,1.839250056
409.30850,0.9236668331
409.30900,0.9236668331
409.30950,0.3132780177
409.31000,-0.9074996131
409.31050,-2.128277244
409.31100,-2.738666059
409.31150,-2.738666059
409.31200,-1.517888429
409.31250,0.9236668331
409.31300,2.449638872
409.31350,0.008083609999
409.31400,-4.569832506
409.31450,-7.92697099
409.31500,-7.621776583
409.31550,-6.400998952
409.31600,-4.569832506
409.31650,-0.6023052054
409.31700,3.670416502
409.31750,3.365222095
409.31800,-1.823082836
409.31850,-6.706193359
409.31900,-6.400998952
409.31950,-4.264638098
409.32000,-5.485415729
409.32050,-5.790610136
409.32100,0.3132780177
409.32150,11.30027669
409.32200,17.09897044
409.32250,14.65741518
409.32300,10.38469347
409.32350,9.774304656
409.32400,10.68988788
409.32450,9.163915841
409.32500,7.027554987
409.32550,7.027554987
409.32600,7.027554987
409.32650,4.891194133
409.32700,1.534055649
409.32750,0.3132780177
409.32800,0.3132780177
409.32850,-0.6023052054
409.32900,-1.823082836
409.32950,-1.212694021
409.33000,1.228861241
409.33050,4.280805318
409.33100,6.111971764
409.33150,6.111971764
409.33200,3.365222095
409.33250,-0.6023052054
409.33300,-3.95944369
409.33350,-4.875026913
409.33400,-6.706193359
409.33450,-10.36852625
409.33500,-13.42047033
409.33550,-13.42047033
409.33600,-11.89449829
409.33650,-11.28410947
409.33700,-9.758137436
409.33750,-7.011387767
409.33800,-6.706193359
409.33850,-8.232165398
409.33900,-5.180221321
409.33950,3.670416502
409.34000,9.163915841
409.34050,2.449638872
409.34100,-8.232165398
409.34150,-9.452943029
409.34200,-0.9074996131
409.34250,4.891194133
409.34300,3.060027687
409.34350,1.534055649
409.34400,5.501582949
409.34450,8.248332618
409.34500,4.585999726
409.34550,0.008083609999
409.34600,0.6184724254
409.34650,4.891194133
409.34700,6.722360579
409.34750,4.280805318
409.34800,0.9236668331
409.34850,-2.128277244
409.34900,-4.569832506
409.34950,-3.654249282
409.35000,-1.517888429
409.35050,-2.738666059
409.35100,-7.011387767
409.35150,-7.92697099
409.35200,-3.349054875
409.35250,0.3132780177
409.35300,-1.517888429
409.35350,-4.569832506
409.35400,-3.043860467
409.35450,-0.6023052054
409.35500,-3.349054875
409.35550,-7.621776583
409.35600,-5.180221321
409.35650,5.501582949
409.35700,15.267804
409.35750,16.18338722
409.35800,8.248332618
409.35850,-2.128277244
409.35900,-8.842554213
409.35950,-9.452943029
409.36000,-4.875026913
409.36050,0.008083609999
409.36100,3.060027687
409.36150,4.280805318
409.36200,5.806777356
409.36250,7.332749395
409.36300,8.553527026
409.36350,11.6054711
409.36400,17.09897044
409.36450,21.37169215
409.36500,19.2353313
409.36550,8.553527026
409.36600,-4.875026913
409.36650,-14.94644237
409.36700,-17.38799763
409.36750,-14.03085914
409.36800,-10.67372066
409.36850,-10.97891507
409.36900,-11.89449829
409.36950,-8.842554213
409.37000,-2.128277244
409.37050,1.839250056
409.37100,-0.6023052054
409.37150,-6.095804544
409.37200,-8.537359806
409.37250,-6.400998952
409.37300,-2.738666059
409.37350,0.008083609999
409.37400,1.534055649
409.37450,2.449638872
409.37500,2.144444464
409.37550,1.228861241
409.37600,1.228861241
409.37650,2.754833279
409.37700,3.97561091
409.37750,3.97561091
409.37800,3.060027687
409.37850,2.144444464
409.37900,0.6184724254
409.37950,-1.823082836
409.38000,-3.654249282
409.38050,-0.9074996131
409.38100,4.280805318
409.38150,7.637943803
409.38200,5.806777356
409.38250,1.534055649
409.38300,0.008083609999
409.38350,1.534055649
409.38400,5.501582949
409.38450,8.553527026
409.38500,8.248332618
409.38550,2.754833279
409.38600,-3.654249282
409.38650,-4.875026913
409.38700,1.839250056
409.38750,11.6054711
409.38800,14.96260959
409.38850,10.38469347
409.38900,1.839250056
409.38950,-5.485415729
409.39000,-10.06333184
409.39050,-9.452943029
409.39100,-3.043860467
409.39150,3.97561091
409.39200,5.501582949
409.39250,2.144444464
409.39300,0.3132780177
409.39350,2.144444464
409.39400,3.365222095
409.39450,1.534055649
409.39500,0.3132780177
409.39550,2.754833279
409.39600,5.196388541
409.39650,3.365222095
409.39700,-0.2971107977
409.39750,-1.823082836
409.39800,0.008083609999
409.39850,2.449638872
409.39900,3.97561091
409.39950,4.585999726
409.40000,4.280805318
409.40050,3.365222095
409.40100,3.365222095
409.40150,5.196388541
409.40200,6.417166172
409.40250,4.280805318
409.40300,0.008083609999
409.40350,-3.043860467
409.40400,-3.654249282
409.40450,-2.433471652
409.40500,-0.9074996131
409.40550,0.008083609999
409.40600,-0.6023052054
409.40650,-1.517888429
409.40700,-0.9074996131
409.40750,1.534055649
409.40800,3.670416502
409.40850,3.060027687
409.40900,0.008083609999
409.40950,-3.349054875
409.41000,-6.095804544
409.41050,-8.842554213
409.41100,-10.67372066
409.41150,-10.06333184
409.41200,-7.621776583
409.41250,-6.095804544
409.41300,-7.011387767
409.41350,-8.232165398
409.41400,-7.92697099
409.41450,-8.537359806
409.41500,-11.28410947
409.41550,-15.86202559
409.41600,-18.60877526
409.41650,-16.77760881
409.41700,-9.758137436
409.41750,0.3132780177
409.41800,10.99508229
409.41850,18.01455366
409.41900,19.5405257
409.41950,17.40416485
409.42000,13.13144314
409.42050,8.858721433
409.42100,5.806777356
409.42150,4.585999726
409.42200,5.196388541
409.42250,5.501582949
409.42300,4.585999726
409.42350,4.280805318
409.42400,6.111971764
409.42450,8.553527026
409.42500,9.469110249
409.42550,8.553527026
409.42600,7.027554987
409.42650,4.280805318
409.42700,-0.2971107977
409.42750,-4.569832506
409.42800,-5.790610136
409.42850,-4.264638098
409.42900,-3.654249282
409.42950,-6.095804544
409.43000,-7.92697099
409.43050,-6.706193359
409.43100,-4.264638098
409.43150,-3.654249282
409.43200,-5.485415729
409.43250,-7.011387767
409.43300,-6.400998952
409.43350,-5.180221321
409.43400,-4.264638098
409.43450,-4.264638098
409.43500,-5.485415729
409.43550,-6.400998952
409.43600,-6.095804544
409.43650,-4.264638098
409.43700,-2.738666059
409.43750,-3.043860467
409.43800,-3.349054875
409.43850,-2.433471652
409.43900,-0.6023052054
409.43950,0.9236668331
409.44000,2.754833279
409.44050,3.97561091
409.44100,3.365222095
409.44150,1.228861241
409.44200,1.839250056
409.44250,7.332749395
409.44300,11.30027669
409.44350,6.111971764
409.44400,-5.485415729
409.44450,-14.64124796
409.44500,-15.25163678
409.44550,-10.67372066
409.44600,-5.180221321
409.44650,0.9236668331
409.44700,8.248332618
409.44750,12.52105433
409.44800,11.30027669
409.44850,8.248332618
409.44900,6.417166172
409.44950,4.585999726
409.45000,0.3132780177
409.45050,-3.043860467
409.45100,-3.349054875
409.45150,0.008083609999
409.45200,3.060027687
409.45250,4.585999726
409.45300,4.280805318
409.45350,2.144444464
409.45400,-1.212694021
409.45450,-4.569832506
409.45500,-6.095804544
409.45550,-8.537359806
409.45600,-13.11527592
409.45650,-14.33605355
409.45700,-7.92697099
409.45750,3.97561091
409.45800,12.82624873
409.45850,13.43663755
409.45900,8.858721433
409.45950,5.196388541
409.46000,3.060027687
409.46050,0.008083609999
409.46100,-4.569832506
409.46150,-7.011387767
409.46200,-3.95944369
409.46250,2.144444464
409.46300,7.027554987
409.46350,7.332749395
409.46400,5.501582949
409.46450,3.670416502
409.46500,2.754833279
409.46550,1.839250056
409.46600,0.6184724254
409.46650,-0.9074996131
409.46700,-2.433471652
409.46750,-3.043860467
409.46800,-1.212694021
409.46850,1.839250056
409.46900,4.280805318
409.46950,3.670416502
409.47000,2.144444464
409.47050,2.754833279
409.47100,3.97561091
409.47150,2.449638872
409.47200,-0.9074996131
409.47250,-2.738666059
409.47300,-1.517888429
409.47350,-1.517888429
409.47400,-6.095804544
409.47450,-10.97891507
409.47500,-11.28410947
409.47550,-6.400998952
409.47600,-1.517888429
409.47650,0.008083609999
409.47700,0.008083609999
409.47750,-0.9074996131
409.47800,-0.6023052054
409.47850,0.008083609999
409.47900,0.008083609999
409.47950,-0.6023052054
409.48000,-0.9074996131
409.48050,0.008083609999
409.48100,1.228861241
409.48150,1.534055649
409.48200,2.144444464
409.48250,4.280805318
409.48300,5.196388541
409.48350,0.6184724254
409.48400,-5.180221321
409.48450,-6.095804544
409.48500,-0.9074996131
409.48550,3.060027687
409.48600,2.144444464
409.48650,0.008083609999
409.48700,1.534055649
409.48750,3.365222095
409.48800,0.008083609999
409.48850,-6.706193359
409.48900,-8.842554213
409.48950,-3.95944369
409.49000,1.839250056
409.49050,3.060027687
409.49100,0.6184724254
409.49150,-0.2971107977
409.49200,0.008083609999
409.49250,0.008083609999
409.49300,-2.738666059
409.49350,-6.400998952
409.49400,-9.147748621
409.49450,-10.36852625
409.49500,-11.28410947
409.49550,-11.89449829
409.49600,-9.758137436
409.49650,-4.569832506
409.49700,0.6184724254
409.49750,2.144444464
409.49800,0.9236668331
409.49850,1.228861241
409.49900,4.280805318
409.49950,8.248332618
409.50000,9.774304656
409.50050,7.637943803
409.50100,3.670416502
409.50150,0.3132780177
409.50200,-1.212694021
409.50250,-1.823082836
409.50300,-1.823082836
409.50350,-0.9074996131
409.50400,1.534055649
409.50450,5.501582949
409.50500,7.332749395
409.50550,5.196388541
409.50600,1.534055649
409.50650,-1.212694021
409.50700,-2.433471652
409.50750,-1.823082836
409.50800,0.008083609999
409.50850,0.9236668331
409.50900,-0.6023052054
409.50950,-4.264638098
409.51000,-5.485415729
409.51050,-3.95944369
409.51100,-2.738666059
409.51150,-3.654249282
409.51200,-3.654249282
409.51250,-1.517888429
409.51300,0.9236668331
409.51350,2.144444464
409.51400,3.060027687
409.51450,5.501582949
409.51500,7.94313821
409.51550,7.027554987
409.51600,4.891194133
409.51650,3.97561091
409.51700,4.280805318
409.51750,3.365222095
409.51800,0.9236668331
409.51850,-1.212694021
409.51900,-3.349054875
409.51950,-5.180221321
409.52000,-4.875026913
409.52050,-1.517888429
409.52100,1.534055649
409.52150,1.534055649
409.52200,-0.6023052054
409.52250,-0.2971107977
409.52300,3.365222095
409.52350,6.417166172
409.52400,4.891194133
409.52450,2.144444464
409.52500,4.585999726
409.52550,12.21585992
409.52600,16.18338722
409.52650,9.163915841
409.52700,-4.569832506
409.52750,-12.1996927
409.52800,-7.316582175
409.52850,2.449638872
409.52900,4.891194133
409.52950,-2.128277244
409.53000,-10.36852625
409.53050,-10.97891507
409.53100,-5.485415729
409.53150,-0.6023052054
409.53200,1.534055649
409.53250,3.670416502
409.53300,4.280805318
409.53350,1.534055649
409.53400,-2.433471652
409.53450,-2.433471652
409.53500,2.449638872
409.53550,6.111971764
409.53600,3.97561091
409.53650,0.008083609999
409.53700,-2.433471652
409.53750,-3.349054875
409.53800,-3.95944369
409.53850,-2.433471652
409.53900,2.754833279
409.53950,8.248332618
409.54000,7.332749395
409.54050,3.670416502
409.54100,4.585999726
409.54150,9.774304656
409.54200,9.469110249
409.54250,0.008083609999
409.54300,-9.147748621
409.54350,-8.537359806
409.54400,-0.9074996131
409.54450,3.670416502
409.54500,2.754833279
409.54550,1.228861241
409.54600,1.534055649
409.54650,1.228861241
409.54700,-0.2971107977
409.54750,-0.9074996131
409.54800,0.3132780177
409.54850,1.839250056
409.54900,0.9236668331
409.54950,0.008083609999
409.55000,-0.2971107977
409.55050,-1.823082836
409.55100,-4.264638098
409.55150,-4.569832506
409.55200,-1.517888429
409.55250,1.228861241
409.55300,2.144444464
409.55350,1.534055649
409.55400,1.228861241
409.55450,1.839250056
409.55500,2.144444464
409.55550,2.144444464
409.55600,1.534055649
409.55650,0.008083609999
409.55700,-1.823082836
409.55750,-2.738666059
409.55800,-1.823082836
409.55850,-1.517888429
409.55900,-2.738666059
409.55950,-2.738666059
409.56000,0.008083609999
409.56050,4.280805318
409.56100,5.806777356
409.56150,3.670416502
409.56200,0.9236668331
409.56250,-0.6023052054
409.56300,-1.517888429
409.56350,-2.738666059
409.56400,-4.569832506
409.56450,-6.706193359
409.56500,-7.011387767
409.56550,-3.043860467
409.56600,2.449638872
409.56650,4.891194133
409.56700,2.449638872
409.56750,0.008083609999
409.56800,1.534055649
409.56850,3.97561091
409.56900,2.144444464
409.56950,-0.9074996131
409.57000,-0.2971107977
409.57050,3.060027687
409.57100,5.196388541
409.57150,4.585999726
409.57200,3.365222095
409.57250,2.144444464
409.57300,-1.212694021
409.57350,-6.400998952
409.57400,-8.537359806
409.57450,-6.400998952
409.57500,-3.95944369
409.57550,-3.95944369
409.57600,-3.95944369
409.57650,-1.823082836
409.57700,0.008083609999
409.57750,-0.6023052054
409.57800,-4.569832506
409.57850,-8.232165398
409.57900,-9.452943029
409.57950,-6.095804544
409.58000,0.008083609999
409.58050,6.111971764
409.58100,9.469110249
409.58150,10.68988788
409.58200,12.52105433
409.58250,12.21585992
409.58300,7.332749395
409.58350,0.9236668331
409.58400,-0.2971107977
409.58450,2.144444464
409.58500,3.060027687
409.58550,0.008083609999
409.58600,-3.349054875
409.58650,-3.654249282
409.58700,-2.433471652
409.58750,-2.738666059
409.58800,-2.433471652
409.58850,-0.9074996131
409.58900,-0.6023052054
409.58950,-2.738666059
409.59000,-3.95944369
409.59050,-2.433471652
409.59100,-1.212694021
409.59150,-2.433471652
409.59200,-3.95944369
409.59250,-2.738666059
409.59300,-1.823082836
409.59350,-4.875026913
409.59400,-8.842554213
409.59450,-9.147748621
409.59500,-5.180221321
409.59550,-1.517888429
409.59600,-0.2971107977
409.59650,0.008083609999
409.59700,0.3132780177
409.59750,0.008083609999
409.59800,0.9236668331
409.59850,4.891194133
409.59900,8.248332618
409.59950,5.806777356
409.60000,-1.517888429
409.60050,-6.400998952
409.60100,-5.180221321
409.60150,-2.128277244
409.60200,-1.823082836
409.60250,-2.433471652
409.60300,-0.2971107977
409.60350,3.670416502
409.60400,6.417166172
409.60450,6.417166172
409.60500,6.111971764
409.60550,6.417166172
409.60600,5.501582949
409.60650,3.365222095
409.60700,2.144444464
409.60750,2.144444464
409.60800,1.228861241
409.60850,-1.823082836
409.60900,-4.875026913
409.60950,-3.95944369
409.61000,0.008083609999
409.61050,3.060027687
409.61100,3.060027687
409.61150,0.008083609999
409.61200,-3.349054875
409.61250,-5.180221321
409.61300,-5.485415729
409.61350,-6.095804544
409.61400,-7.316582175
409.61450,-8.232165398
409.61500,-7.92697099
409.61550,-7.92697099
409.61600,-9.147748621
