"type","name","time_units","begin_time","frequency","count","units"
"signal","Ultium EMG-FLEX.CAPR.U RT","s",406.98000,2000,22000,"uV"

"time","value"
406.98000,-0.5692081607
406.98050,-0.5692081607
406.98100,0.9567638778
406.98150,3.093124732
406.98200,3.703513547
406.98250,2.482735916
406.98300,0.6515694701
406.98350,-0.264013753
406.98400,0.04118065471
406.98450,0.6515694701
406.98500,1.567152693
406.98550,1.872347101
406.98600,2.482735916
406.98650,2.482735916
406.98700,1.261958286
406.98750,-1.484791384
406.98800,-3.926346645
406.98850,-5.757513092
406.98900,-6.978290722
406.98950,-7.588679538
406.99000,-6.367901907
406.99050,-1.484791384
406.99100,4.008707955
406.99150,7.060652032
406.99200,6.450263216
406.99250,5.229485586
406.99300,5.534679993
406.99350,6.145068809
406.99400,5.229485586
406.99450,3.093124732
406.99500,1.567152693
406.99550,1.567152693
406.99600,1.872347101
406.99650,1.567152693
406.99700,0.6515694701
406.99750,0.04118065471
406.99800,-0.8744025684
406.99850,-2.095180199
406.99900,-2.400374607
406.99950,-1.179596976
407.00000,0.9567638778
407.00050,2.787930324
407.00100,2.482735916
407.00150,0.9567638778
407.00200,0.9567638778
407.00250,1.567152693
407.00300,1.567152693
407.00350,0.9567638778
407.00400,0.04118065471
407.00450,-1.484791384
407.00500,-3.010763422
407.00550,-4.231541053
407.00600,-3.926346645
407.00650,-3.010763422
407.00700,-2.095180199
407.00750,-1.484791384
407.00800,-1.179596976
407.00850,-2.400374607
407.00900,-4.231541053
407.00950,-4.841929869
407.01000,-3.621152238
407.01050,-2.095180199
407.01100,-1.789985791
407.01150,-1.789985791
407.01200,-1.179596976
407.01250,-0.8744025684
407.01300,-2.095180199
407.01350,-3.31595783
407.01400,-2.095180199
407.01450,0.3463750624
407.01500,1.261958286
407.01550,0.6515694701
407.01600,0.6515694701
407.01650,1.261958286
407.01700,0.9567638778
407.01750,-0.5692081607
407.01800,-1.484791384
407.01850,-0.5692081607
407.01900,0.3463750624
407.01950,0.3463750624
407.02000,0.3463750624
407.02050,1.261958286
407.02100,2.787930324
407.02150,2.787930324
407.02200,1.261958286
407.02250,0.3463750624
407.02300,0.3463750624
407.02350,0.3463750624
407.02400,0.04118065471
407.02450,-0.5692081607
407.02500,-0.264013753
407.02550,0.3463750624
407.02600,0.6515694701
407.02650,0.9567638778
407.02700,0.9567638778
407.02750,0.6515694701
407.02800,0.04118065471
407.02850,-0.264013753
407.02900,0.04118065471
407.02950,0.04118065471
407.03000,-2.095180199
407.03050,-5.452318684
407.03100,-6.062707499
407.03150,-3.621152238
407.03200,0.04118065471
407.03250,1.872347101
407.03300,2.482735916
407.03350,1.872347101
407.03400,1.261958286
407.03450,0.9567638778
407.03500,0.9567638778
407.03550,0.04118065471
407.03600,-1.179596976
407.03650,-1.484791384
407.03700,0.04118065471
407.03750,1.567152693
407.03800,1.872347101
407.03850,1.567152693
407.03900,1.567152693
407.03950,1.261958286
407.04000,0.04118065471
407.04050,-0.264013753
407.04100,0.3463750624
407.04150,0.9567638778
407.04200,0.04118065471
407.04250,-0.8744025684
407.04300,0.3463750624
407.04350,1.872347101
407.04400,0.04118065471
407.04450,-3.31595783
407.04500,-4.536735461
407.04550,-4.536735461
407.04600,-6.062707499
407.04650,-7.588679538
407.04700,-5.757513092
407.04750,-1.789985791
407.04800,0.04118065471
407.04850,0.3463750624
407.04900,4.313902363
407.04950,10.41779052
407.05000,10.72298492
407.05050,2.482735916
407.05100,-5.757513092
407.05150,-4.841929869
407.05200,2.787930324
407.05250,9.197012886
407.05300,9.502207293
407.05350,7.36584644
407.05400,6.450263216
407.05450,5.534679993
407.05500,3.703513547
407.05550,1.261958286
407.05600,-0.264013753
407.05650,-1.179596976
407.05700,-1.484791384
407.05750,-0.264013753
407.05800,0.9567638778
407.05850,1.261958286
407.05900,0.3463750624
407.05950,-0.264013753
407.06000,0.04118065471
407.06050,2.787930324
407.06100,5.229485586
407.06150,5.229485586
407.06200,1.872347101
407.06250,-2.400374607
407.06300,-4.536735461
407.06350,-3.010763422
407.06400,-0.5692081607
407.06450,0.04118065471
407.06500,-1.484791384
407.06550,-3.31595783
407.06600,-3.621152238
407.06650,-2.705569015
407.06700,-1.789985791
407.06750,-1.484791384
407.06800,-0.5692081607
407.06850,0.04118065471
407.06900,1.567152693
407.06950,2.787930324
407.07000,3.398319139
407.07050,2.787930324
407.07100,0.9567638778
407.07150,-0.264013753
407.07200,-0.5692081607
407.07250,0.04118065471
407.07300,0.04118065471
407.07350,-1.179596976
407.07400,-1.789985791
407.07450,-0.5692081607
407.07500,0.3463750624
407.07550,0.6515694701
407.07600,0.04118065471
407.07650,-0.264013753
407.07700,-0.264013753
407.07750,-0.5692081607
407.07800,0.04118065471
407.07850,0.9567638778
407.07900,2.177541509
407.07950,1.567152693
407.08000,-0.264013753
407.08050,-2.095180199
407.08100,-3.31595783
407.08150,-4.536735461
407.08200,-5.147124276
407.08250,-4.536735461
407.08300,-2.400374607
407.08350,-0.264013753
407.08400,0.04118065471
407.08450,-0.8744025684
407.08500,-3.010763422
407.08550,-4.231541053
407.08600,-3.31595783
407.08650,-1.179596976
407.08700,-0.264013753
407.08750,-0.8744025684
407.08800,-0.8744025684
407.08850,0.6515694701
407.08900,2.177541509
407.08950,2.177541509
407.09000,0.9567638778
407.09050,0.04118065471
407.09100,0.04118065471
407.09150,0.3463750624
407.09200,0.04118065471
407.09250,0.6515694701
407.09300,1.872347101
407.09350,2.787930324
407.09400,2.482735916
407.09450,1.567152693
407.09500,1.261958286
407.09550,1.567152693
407.09600,1.567152693
407.09650,0.9567638778
407.09700,0.9567638778
407.09750,3.398319139
407.09800,6.450263216
407.09850,7.060652032
407.09900,3.703513547
407.09950,-1.484791384
407.10000,-4.841929869
407.10050,-4.536735461
407.10100,-2.400374607
407.10150,-0.8744025684
407.10200,-0.8744025684
407.10250,-1.484791384
407.10300,-2.400374607
407.10350,-3.621152238
407.10400,-4.841929869
407.10450,-5.147124276
407.10500,-3.926346645
407.10550,-1.179596976
407.10600,1.567152693
407.10650,2.787930324
407.10700,1.872347101
407.10750,0.3463750624
407.10800,-0.264013753
407.10850,-0.8744025684
407.10900,-0.5692081607
407.10950,0.3463750624
407.11000,1.261958286
407.11050,0.04118065471
407.11100,-3.621152238
407.11150,-4.536735461
407.11200,-1.484791384
407.11250,2.177541509
407.11300,2.177541509
407.11350,-0.264013753
407.11400,-0.5692081607
407.11450,2.482735916
407.11500,5.839874401
407.11550,5.534679993
407.11600,3.093124732
407.11650,1.872347101
407.11700,1.261958286
407.11750,0.04118065471
407.11800,-2.705569015
407.11850,-4.231541053
407.11900,-3.31595783
407.11950,-0.8744025684
407.12000,0.9567638778
407.12050,0.6515694701
407.12100,-0.5692081607
407.12150,-1.179596976
407.12200,-0.5692081607
407.12250,-0.264013753
407.12300,-1.179596976
407.12350,-2.705569015
407.12400,-3.926346645
407.12450,-5.147124276
407.12500,-5.147124276
407.12550,-2.400374607
407.12600,0.9567638778
407.12650,2.177541509
407.12700,-0.264013753
407.12750,-3.926346645
407.12800,-5.147124276
407.12850,-3.31595783
407.12900,-1.484791384
407.12950,-0.5692081607
407.13000,0.04118065471
407.13050,0.9567638778
407.13100,2.177541509
407.13150,4.008707955
407.13200,4.924291178
407.13250,4.924291178
407.13300,4.008707955
407.13350,3.093124732
407.13400,2.177541509
407.13450,1.872347101
407.13500,1.872347101
407.13550,2.177541509
407.13600,1.872347101
407.13650,0.3463750624
407.13700,-0.5692081607
407.13750,-0.5692081607
407.13800,-0.264013753
407.13850,-1.484791384
407.13900,-2.705569015
407.13950,-1.179596976
407.14000,1.567152693
407.14050,3.093124732
407.14100,1.872347101
407.14150,0.6515694701
407.14200,0.04118065471
407.14250,-1.179596976
407.14300,-3.621152238
407.14350,-5.452318684
407.14400,-5.757513092
407.14450,-4.536735461
407.14500,-2.400374607
407.14550,0.6515694701
407.14600,3.703513547
407.14650,3.703513547
407.14700,0.9567638778
407.14750,-0.5692081607
407.14800,0.04118065471
407.14850,1.261958286
407.14900,0.6515694701
407.14950,-1.484791384
407.15000,-2.705569015
407.15050,-1.789985791
407.15100,0.3463750624
407.15150,1.872347101
407.15200,0.9567638778
407.15250,-1.789985791
407.15300,-4.841929869
407.15350,-4.536735461
407.15400,-0.264013753
407.15450,5.229485586
407.15500,7.36584644
407.15550,4.61909677
407.15600,0.04118065471
407.15650,-1.179596976
407.15700,0.04118065471
407.15750,-0.264013753
407.15800,-3.010763422
407.15850,-3.010763422
407.15900,1.261958286
407.15950,4.924291178
407.16000,2.482735916
407.16050,-1.179596976
407.16100,0.3463750624
407.16150,6.450263216
407.16200,7.976235255
407.16250,1.567152693
407.16300,-4.231541053
407.16350,-4.231541053
407.16400,-0.5692081607
407.16450,0.6515694701
407.16500,0.3463750624
407.16550,0.04118065471
407.16600,-1.179596976
407.16650,-2.400374607
407.16700,-1.179596976
407.16750,2.787930324
407.16800,4.61909677
407.16850,1.872347101
407.16900,-1.789985791
407.16950,-1.789985791
407.17000,0.9567638778
407.17050,1.567152693
407.17100,0.04118065471
407.17150,-0.8744025684
407.17200,0.04118065471
407.17250,0.6515694701
407.17300,0.04118065471
407.17350,-0.5692081607
407.17400,-0.8744025684
407.17450,-0.264013753
407.17500,0.3463750624
407.17550,0.9567638778
407.17600,0.9567638778
407.17650,0.04118065471
407.17700,-0.8744025684
407.17750,-0.8744025684
407.17800,-0.8744025684
407.17850,-1.179596976
407.17900,-0.264013753
407.17950,0.9567638778
407.18000,1.872347101
407.18050,0.6515694701
407.18100,-1.179596976
407.18150,-1.484791384
407.18200,-0.5692081607
407.18250,-0.264013753
407.18300,-1.179596976
407.18350,-2.400374607
407.18400,-3.621152238
407.18450,-4.231541053
407.18500,-2.400374607
407.18550,0.9567638778
407.18600,4.61909677
407.18650,5.839874401
407.18700,5.839874401
407.18750,7.671040847
407.18800,10.11259611
407.18850,10.11259611
407.18900,6.450263216
407.18950,1.261958286
407.19000,-1.789985791
407.19050,-3.010763422
407.19100,-2.400374607
407.19150,-1.179596976
407.19200,-0.5692081607
407.19250,-0.5692081607
407.19300,-0.5692081607
407.19350,-0.5692081607
407.19400,-0.5692081607
407.19450,-0.8744025684
407.19500,-0.5692081607
407.19550,0.04118065471
407.19600,0.04118065471
407.19650,0.3463750624
407.19700,1.567152693
407.19750,3.398319139
407.19800,3.093124732
407.19850,0.04118065471
407.19900,-3.621152238
407.19950,-5.147124276
407.20000,-4.536735461
407.20050,-4.231541053
407.20100,-4.841929869
407.20150,-5.452318684
407.20200,-4.536735461
407.20250,-3.010763422
407.20300,-1.789985791
407.20350,-0.8744025684
407.20400,0.3463750624
407.20450,1.567152693
407.20500,1.261958286
407.20550,0.04118065471
407.20600,-0.5692081607
407.20650,-1.179596976
407.20700,-1.789985791
407.20750,-2.705569015
407.20800,-2.400374607
407.20850,-0.264013753
407.20900,1.261958286
407.20950,2.177541509
407.21000,3.703513547
407.21050,7.060652032
407.21100,7.976235255
407.21150,3.398319139
407.21200,-3.926346645
407.21250,-7.588679538
407.21300,-5.147124276
407.21350,-1.179596976
407.21400,0.04118065471
407.21450,-1.484791384
407.21500,-1.179596976
407.21550,1.567152693
407.21600,4.313902363
407.21650,4.61909677
407.21700,2.177541509
407.21750,-1.484791384
407.21800,-3.926346645
407.21850,-2.400374607
407.21900,0.6515694701
407.21950,3.093124732
407.22000,2.177541509
407.22050,0.04118065471
407.22100,-1.484791384
407.22150,-1.484791384
407.22200,-0.8744025684
407.22250,-0.5692081607
407.22300,-0.5692081607
407.22350,-0.5692081607
407.22400,-0.8744025684
407.22450,-2.095180199
407.22500,-3.31595783
407.22550,-3.621152238
407.22600,-3.010763422
407.22650,-1.179596976
407.22700,0.04118065471
407.22750,-0.264013753
407.22800,-1.484791384
407.22850,-2.095180199
407.22900,-0.8744025684
407.22950,1.261958286
407.23000,3.703513547
407.23050,4.924291178
407.23100,4.008707955
407.23150,2.482735916
407.23200,2.482735916
407.23250,4.313902363
407.23300,4.313902363
407.23350,0.9567638778
407.23400,-2.095180199
407.23450,-0.264013753
407.23500,5.839874401
407.23550,9.502207293
407.23600,5.839874401
407.23650,-1.179596976
407.23700,-4.841929869
407.23750,-3.010763422
407.23800,0.04118065471
407.23850,0.04118065471
407.23900,-1.484791384
407.23950,-2.705569015
407.24000,-2.705569015
407.24050,-2.400374607
407.24100,-2.705569015
407.24150,-2.705569015
407.24200,-1.789985791
407.24250,-1.179596976
407.24300,-0.8744025684
407.24350,-1.179596976
407.24400,-1.179596976
407.24450,-1.484791384
407.24500,-2.095180199
407.24550,-2.705569015
407.24600,-2.705569015
407.24650,-1.789985791
407.24700,0.04118065471
407.24750,0.04118065471
407.24800,-0.5692081607
407.24850,-1.484791384
407.24900,0.04118065471
407.24950,2.177541509
407.25000,1.872347101
407.25050,0.3463750624
407.25100,1.261958286
407.25150,4.61909677
407.25200,6.755457624
407.25250,5.839874401
407.25300,3.093124732
407.25350,1.567152693
407.25400,0.9567638778
407.25450,0.9567638778
407.25500,1.567152693
407.25550,2.482735916
407.25600,2.787930324
407.25650,1.567152693
407.25700,0.9567638778
407.25750,1.567152693
407.25800,1.567152693
407.25850,-0.264013753
407.25900,-1.789985791
407.25950,-0.8744025684
407.26000,0.9567638778
407.26050,0.6515694701
407.26100,-0.8744025684
407.26150,-1.484791384
407.26200,-0.5692081607
407.26250,-0.8744025684
407.26300,-2.705569015
407.26350,-3.926346645
407.26400,-3.31595783
407.26450,-2.400374607
407.26500,-3.010763422
407.26550,-3.621152238
407.26600,-3.926346645
407.26650,-3.926346645
407.26700,-3.621152238
407.26750,-2.705569015
407.26800,-1.484791384
407.26850,-0.264013753
407.26900,0.6515694701
407.26950,3.703513547
407.27000,7.671040847
407.27050,9.502207293
407.27100,5.534679993
407.27150,-0.8744025684
407.27200,-3.926346645
407.27250,-1.484791384
407.27300,1.872347101
407.27350,2.177541509
407.27400,1.567152693
407.27450,4.313902363
407.27500,8.58662407
407.27550,7.976235255
407.27600,1.261958286
407.27650,-4.231541053
407.27700,-3.926346645
407.27750,0.04118065471
407.27800,1.872347101
407.27850,0.6515694701
407.27900,-0.264013753
407.27950,-0.5692081607
407.28000,-0.264013753
407.28050,-0.5692081607
407.28100,-0.5692081607
407.28150,-0.5692081607
407.28200,-0.8744025684
407.28250,-0.5692081607
407.28300,0.9567638778
407.28350,2.482735916
407.28400,0.6515694701
407.28450,-2.705569015
407.28500,-4.841929869
407.28550,-3.926346645
407.28600,-2.400374607
407.28650,-2.095180199
407.28700,-2.400374607
407.28750,-1.789985791
407.28800,-0.5692081607
407.28850,0.04118065471
407.28900,0.6515694701
407.28950,2.177541509
407.29000,3.703513547
407.29050,5.229485586
407.29100,5.839874401
407.29150,6.450263216
407.29200,6.450263216
407.29250,5.229485586
407.29300,3.093124732
407.29350,1.567152693
407.29400,1.567152693
407.29450,2.482735916
407.29500,3.398319139
407.29550,3.398319139
407.29600,2.482735916
407.29650,2.177541509
407.29700,2.177541509
407.29750,1.567152693
407.29800,0.04118065471
407.29850,-1.789985791
407.29900,-1.179596976
407.29950,0.04118065471
407.30000,0.6515694701
407.30050,-1.179596976
407.30100,-2.705569015
407.30150,-2.400374607
407.30200,-1.789985791
407.30250,-1.484791384
407.30300,-1.484791384
407.30350,-0.8744025684
407.30400,-0.5692081607
407.30450,-1.484791384
407.30500,-2.400374607
407.30550,-1.484791384
407.30600,-0.264013753
407.30650,0.04118065471
407.30700,-0.8744025684
407.30750,-0.8744025684
407.30800,-0.8744025684
407.30850,-1.789985791
407.30900,-2.705569015
407.30950,-1.484791384
407.31000,0.6515694701
407.31050,2.177541509
407.31100,2.177541509
407.31150,0.9567638778
407.31200,0.04118065471
407.31250,-0.264013753
407.31300,0.9567638778
407.31350,3.703513547
407.31400,6.145068809
407.31450,5.839874401
407.31500,4.924291178
407.31550,5.229485586
407.31600,4.313902363
407.31650,1.261958286
407.31700,-1.789985791
407.31750,-1.484791384
407.31800,0.04118065471
407.31850,-1.484791384
407.31900,-6.978290722
407.31950,-10.94581802
407.32000,-10.33542921
407.32050,-7.28348513
407.32100,-6.062707499
407.32150,-6.062707499
407.32200,-4.536735461
407.32250,-3.010763422
407.32300,-2.400374607
407.32350,-1.789985791
407.32400,0.04118065471
407.32450,2.177541509
407.32500,2.787930324
407.32550,0.9567638778
407.32600,0.04118065471
407.32650,1.261958286
407.32700,3.398319139
407.32750,3.398319139
407.32800,0.6515694701
407.32850,-0.8744025684
407.32900,0.3463750624
407.32950,2.482735916
407.33000,0.9567638778
407.33050,-3.010763422
407.33100,-5.757513092
407.33150,-4.231541053
407.33200,-1.789985791
407.33250,-1.789985791
407.33300,-3.31595783
407.33350,-3.010763422
407.33400,0.04118065471
407.33450,3.703513547
407.33500,6.755457624
407.33550,7.976235255
407.33600,5.534679993
407.33650,0.6515694701
407.33700,-3.010763422
407.33750,-3.31595783
407.33800,-0.5692081607
407.33850,2.177541509
407.33900,3.398319139
407.33950,2.787930324
407.34000,1.567152693
407.34050,0.04118065471
407.34100,-1.179596976
407.34150,-3.926346645
407.34200,-8.809457169
407.34250,-13.38737328
407.34300,-13.38737328
407.34350,-8.809457169
407.34400,-4.841929869
407.34450,-3.926346645
407.34500,-2.400374607
407.34550,1.567152693
407.34600,5.839874401
407.34650,6.145068809
407.34700,4.008707955
407.34750,4.313902363
407.34800,6.450263216
407.34850,6.145068809
407.34900,2.787930324
407.34950,-0.264013753
407.35000,-1.789985791
407.35050,-3.31595783
407.35100,-5.147124276
407.35150,-4.536735461
407.35200,-1.179596976
407.35250,0.04118065471
407.35300,-3.010763422
407.35350,-7.893873946
407.35400,-8.504262761
407.35450,-3.010763422
407.35500,4.924291178
407.35550,9.502207293
407.35600,9.807401701
407.35650,7.671040847
407.35700,5.839874401
407.35750,4.924291178
407.35800,4.61909677
407.35850,4.313902363
407.35900,3.398319139
407.35950,1.872347101
407.36000,0.3463750624
407.36050,-0.264013753
407.36100,-0.8744025684
407.36150,-1.179596976
407.36200,-2.400374607
407.36250,-3.926346645
407.36300,-3.926346645
407.36350,-1.789985791
407.36400,0.04118065471
407.36450,0.9567638778
407.36500,0.3463750624
407.36550,0.3463750624
407.36600,0.9567638778
407.36650,0.3463750624
407.36700,-1.484791384
407.36750,-4.231541053
407.36800,-5.452318684
407.36850,-6.673096315
407.36900,-9.114651576
407.36950,-11.25101243
407.37000,-9.419845984
407.37050,-3.31595783
407.37100,3.093124732
407.37150,6.450263216
407.37200,6.755457624
407.37250,5.839874401
407.37300,4.924291178
407.37350,4.008707955
407.37400,4.008707955
407.37450,5.229485586
407.37500,5.839874401
407.37550,3.703513547
407.37600,0.6515694701
407.37650,0.04118065471
407.37700,2.482735916
407.37750,4.61909677
407.37800,3.398319139
407.37850,0.04118065471
407.37900,-1.789985791
407.37950,-0.5692081607
407.38000,2.177541509
407.38050,4.313902363
407.38100,4.008707955
407.38150,2.787930324
407.38200,1.261958286
407.38250,0.9567638778
407.38300,0.9567638778
407.38350,0.3463750624
407.38400,-1.179596976
407.38450,-3.010763422
407.38500,-3.621152238
407.38550,-2.095180199
407.38600,0.6515694701
407.38650,3.703513547
407.38700,5.229485586
407.38750,4.313902363
407.38800,2.482735916
407.38850,2.482735916
407.38900,4.924291178
407.38950,6.450263216
407.39000,5.229485586
407.39050,1.567152693
407.39100,-1.179596976
407.39150,-1.789985791
407.39200,-0.264013753
407.39250,1.261958286
407.39300,1.261958286
407.39350,-0.264013753
407.39400,-2.400374607
407.39450,-2.705569015
407.39500,-0.5692081607
407.39550,0.6515694701
407.39600,0.04118065471
407.39650,-1.179596976
407.39700,-1.179596976
407.39750,0.04118065471
407.39800,0.04118065471
407.39850,-0.264013753
407.39900,-2.095180199
407.39950,-3.621152238
407.40000,-4.841929869
407.40050,-4.231541053
407.40100,-2.095180199
407.40150,-0.264013753
407.40200,-0.264013753
407.40250,-1.179596976
407.40300,-1.484791384
407.40350,-2.095180199
407.40400,-3.31595783
407.40450,-3.621152238
407.40500,-0.8744025684
407.40550,2.482735916
407.40600,1.567152693
407.40650,-3.010763422
407.40700,-6.367901907
407.40750,-5.147124276
407.40800,-3.31595783
407.40850,-3.926346645
407.40900,-5.452318684
407.40950,-3.621152238
407.41000,0.04118065471
407.41050,0.9567638778
407.41100,0.04118065471
407.41150,0.3463750624
407.41200,2.482735916
407.41250,3.093124732
407.41300,2.787930324
407.41350,3.703513547
407.41400,6.145068809
407.41450,6.145068809
407.41500,0.9567638778
407.41550,-5.452318684
407.41600,-8.504262761
407.41650,-6.673096315
407.41700,-3.31595783
407.41750,-1.179596976
407.41800,-0.8744025684
407.41850,-0.5692081607
407.41900,0.9567638778
407.41950,1.872347101
407.42000,0.04118065471
407.42050,-3.010763422
407.42100,-4.841929869
407.42150,-3.31595783
407.42200,-2.095180199
407.42250,-4.841929869
407.42300,-9.114651576
407.42350,-9.725040392
407.42400,-4.841929869
407.42450,2.177541509
407.42500,7.060652032
407.42550,7.976235255
407.42600,6.450263216
407.42650,3.703513547
407.42700,1.261958286
407.42750,-0.5692081607
407.42800,-2.400374607
407.42850,-3.31595783
407.42900,-3.31595783
407.42950,-3.621152238
407.43000,-4.536735461
407.43050,-4.231541053
407.43100,-1.179596976
407.43150,2.482735916
407.43200,4.924291178
407.43250,4.61909677
407.43300,3.398319139
407.43350,2.482735916
407.43400,1.872347101
407.43450,2.482735916
407.43500,4.008707955
407.43550,6.145068809
407.43600,6.450263216
407.43650,4.313902363
407.43700,2.482735916
407.43750,2.177541509
407.43800,1.872347101
407.43850,1.261958286
407.43900,2.482735916
407.43950,5.839874401
407.44000,7.976235255
407.44050,6.145068809
407.44100,2.177541509
407.44150,-0.264013753
407.44200,-0.8744025684
407.44250,-2.095180199
407.44300,-3.926346645
407.44350,-5.757513092
407.44400,-6.062707499
407.44450,-5.452318684
407.44500,-4.231541053
407.44550,-2.400374607
407.44600,-1.484791384
407.44650,-2.095180199
407.44700,-2.705569015
407.44750,-2.705569015
407.44800,-1.789985791
407.44850,-0.8744025684
407.44900,0.04118065471
407.44950,0.3463750624
407.45000,0.04118065471
407.45050,-0.264013753
407.45100,0.3463750624
407.45150,4.008707955
407.45200,7.060652032
407.45250,6.450263216
407.45300,2.177541509
407.45350,-0.8744025684
407.45400,-0.264013753
407.45450,1.261958286
407.45500,2.177541509
407.45550,1.261958286
407.45600,0.04118065471
407.45650,-1.484791384
407.45700,-2.095180199
407.45750,-0.8744025684
407.45800,0.9567638778
407.45850,2.787930324
407.45900,2.482735916
407.45950,2.482735916
407.46000,3.703513547
407.46050,4.924291178
407.46100,4.008707955
407.46150,1.261958286
407.46200,-0.8744025684
407.46250,-2.095180199
407.46300,-3.621152238
407.46350,-5.147124276
407.46400,-6.367901907
407.46450,-5.452318684
407.46500,-3.31595783
407.46550,-1.179596976
407.46600,-0.264013753
407.46650,-1.484791384
407.46700,-3.621152238
407.46750,-3.926346645
407.46800,-1.179596976
407.46850,1.261958286
407.46900,0.3463750624
407.46950,-2.705569015
407.47000,-3.926346645
407.47050,-1.179596976
407.47100,1.567152693
407.47150,1.567152693
407.47200,0.04118065471
407.47250,0.04118065471
407.47300,0.6515694701
407.47350,0.9567638778
407.47400,0.04118065471
407.47450,0.04118065471
407.47500,1.872347101
407.47550,3.093124732
407.47600,2.787930324
407.47650,2.177541509
407.47700,2.177541509
407.47750,2.787930324
407.47800,3.398319139
407.47850,3.398319139
407.47900,3.093124732
407.47950,1.567152693
407.48000,-0.264013753
407.48050,-1.789985791
407.48100,-2.095180199
407.48150,-2.705569015
407.48200,-3.621152238
407.48250,-2.400374607
407.48300,1.567152693
407.48350,5.839874401
407.48400,5.839874401
407.48450,2.177541509
407.48500,-1.484791384
407.48550,-3.010763422
407.48600,-2.095180199
407.48650,0.04118065471
407.48700,1.872347101
407.48750,3.398319139
407.48800,3.703513547
407.48850,3.093124732
407.48900,2.177541509
407.48950,0.9567638778
407.49000,0.3463750624
407.49050,1.261958286
407.49100,2.177541509
407.49150,1.567152693
407.49200,0.04118065471
407.49250,0.3463750624
407.49300,3.398319139
407.49350,5.229485586
407.49400,3.398319139
407.49450,0.9567638778
407.49500,2.482735916
407.49550,5.534679993
407.49600,5.839874401
407.49650,3.703513547
407.49700,2.787930324
407.49750,3.703513547
407.49800,3.093124732
407.49850,0.6515694701
407.49900,0.04118065471
407.49950,0.3463750624
407.50000,0.04118065471
407.50050,-0.5692081607
407.50100,0.04118065471
407.50150,1.261958286
407.50200,0.04118065471
407.50250,-2.705569015
407.50300,-3.621152238
407.50350,-1.484791384
407.50400,-0.5692081607
407.50450,-3.621152238
407.50500,-6.673096315
407.50550,-5.147124276
407.50600,-1.179596976
407.50650,0.9567638778
407.50700,0.9567638778
407.50750,0.04118065471
407.50800,-1.484791384
407.50850,-4.231541053
407.50900,-4.841929869
407.50950,-1.789985791
407.51000,0.6515694701
407.51050,-0.264013753
407.51100,-2.400374607
407.51150,-1.789985791
407.51200,0.3463750624
407.51250,1.567152693
407.51300,0.3463750624
407.51350,-0.8744025684
407.51400,-1.484791384
407.51450,-2.400374607
407.51500,-3.010763422
407.51550,-1.179596976
407.51600,1.567152693
407.51650,2.482735916
407.51700,1.261958286
407.51750,0.04118065471
407.51800,0.04118065471
407.51850,0.6515694701
407.51900,1.872347101
407.51950,4.008707955
407.52000,5.839874401
407.52050,3.703513547
407.52100,-1.484791384
407.52150,-5.452318684
407.52200,-4.231541053
407.52250,-0.264013753
407.52300,0.3463750624
407.52350,-1.484791384
407.52400,-3.010763422
407.52450,-2.095180199
407.52500,-0.8744025684
407.52550,-1.484791384
407.52600,-2.705569015
407.52650,-4.231541053
407.52700,-5.147124276
407.52750,-4.536735461
407.52800,-1.789985791
407.52850,1.872347101
407.52900,5.229485586
407.52950,6.755457624
407.53000,6.145068809
407.53050,4.313902363
407.53100,2.177541509
407.53150,1.261958286
407.53200,3.093124732
407.53250,6.450263216
407.53300,8.281429663
407.53350,7.060652032
407.53400,5.534679993
407.53450,4.61909677
407.53500,3.703513547
407.53550,1.872347101
407.53600,-0.8744025684
407.53650,-2.705569015
407.53700,-2.705569015
407.53750,-3.010763422
407.53800,-3.621152238
407.53850,-3.010763422
407.53900,-0.5692081607
407.53950,1.567152693
407.54000,0.3463750624
407.54050,-3.621152238
407.54100,-6.062707499
407.54150,-4.536735461
407.54200,-2.400374607
407.54250,-3.010763422
407.54300,-5.147124276
407.54350,-5.147124276
407.54400,-4.231541053
407.54450,-5.452318684
407.54500,-8.199068353
407.54550,-8.199068353
407.54600,-3.926346645
407.54650,-0.8744025684
407.54700,-2.400374607
407.54750,-5.757513092
407.54800,-5.757513092
407.54850,-2.400374607
407.54900,0.04118065471
407.54950,0.04118065471
407.55000,-0.5692081607
407.55050,0.3463750624
407.55100,2.177541509
407.55150,3.093124732
407.55200,2.482735916
407.55250,1.567152693
407.55300,1.872347101
407.55350,2.482735916
407.55400,2.787930324
407.55450,2.482735916
407.55500,1.567152693
407.55550,0.3463750624
407.55600,-0.5692081607
407.55650,-1.484791384
407.55700,-1.484791384
407.55750,-1.179596976
407.55800,-0.264013753
407.55850,0.6515694701
407.55900,1.261958286
407.55950,0.3463750624
407.56000,-1.179596976
407.56050,-2.095180199
407.56100,-0.8744025684
407.56150,0.9567638778
407.56200,1.261958286
407.56250,0.3463750624
407.56300,0.6515694701
407.56350,2.787930324
407.56400,2.482735916
407.56450,-1.484791384
407.56500,-6.978290722
407.56550,-8.199068353
407.56600,-4.536735461
407.56650,-0.8744025684
407.56700,-0.264013753
407.56750,-2.095180199
407.56800,-3.010763422
407.56850,-3.010763422
407.56900,-2.705569015
407.56950,-3.010763422
407.57000,-3.010763422
407.57050,-1.789985791
407.57100,0.04118065471
407.57150,2.482735916
407.57200,4.61909677
407.57250,5.839874401
407.57300,5.534679993
407.57350,3.398319139
407.57400,1.261958286
407.57450,0.3463750624
407.57500,0.9567638778
407.57550,1.567152693
407.57600,1.872347101
407.57650,2.787930324
407.57700,3.703513547
407.57750,2.482735916
407.57800,-0.8744025684
407.57850,-4.536735461
407.57900,-4.841929869
407.57950,-2.400374607
407.58000,0.04118065471
407.58050,0.3463750624
407.58100,0.3463750624
407.58150,1.567152693
407.58200,2.787930324
407.58250,2.482735916
407.58300,0.9567638778
407.58350,0.04118065471
407.58400,0.3463750624
407.58450,-0.264013753
407.58500,-3.010763422
407.58550,-5.452318684
407.58600,-5.452318684
407.58650,-3.926346645
407.58700,-2.705569015
407.58750,-1.484791384
407.58800,0.9567638778
407.58850,4.313902363
407.58900,5.534679993
407.58950,3.703513547
407.59000,1.567152693
407.59050,1.261958286
407.59100,2.482735916
407.59150,2.787930324
407.59200,2.177541509
407.59250,1.567152693
407.59300,0.9567638778
407.59350,0.3463750624
407.59400,0.04118065471
407.59450,0.9567638778
407.59500,2.482735916
407.59550,2.482735916
407.59600,0.9567638778
407.59650,-0.264013753
407.59700,0.04118065471
407.59750,2.177541509
407.59800,2.787930324
407.59850,0.3463750624
407.59900,-3.010763422
407.59950,-3.926346645
407.60000,-1.179596976
407.60050,1.872347101
407.60100,2.787930324
407.60150,1.872347101
407.60200,1.567152693
407.60250,2.482735916
407.60300,3.398319139
407.60350,2.787930324
407.60400,0.04118065471
407.60450,-4.536735461
407.60500,-8.504262761
407.60550,-7.893873946
407.60600,-0.5692081607
407.60650,8.891818478
407.60700,13.774929
407.60750,10.41779052
407.60800,2.787930324
407.60850,-2.095180199
407.60900,-3.31595783
407.60950,-3.31595783
407.61000,-3.926346645
407.61050,-4.231541053
407.61100,-3.31595783
407.61150,-2.095180199
407.61200,-1.179596976
407.61250,0.04118065471
407.61300,1.567152693
407.61350,3.093124732
407.61400,3.703513547
407.61450,3.093124732
407.61500,1.872347101
407.61550,0.9567638778
407.61600,0.9567638778
407.61650,1.567152693
407.61700,2.177541509
407.61750,1.567152693
407.61800,0.9567638778
407.61850,0.9567638778
407.61900,0.3463750624
407.61950,-2.095180199
407.62000,-5.452318684
407.62050,-6.367901907
407.62100,-4.841929869
407.62150,-3.010763422
407.62200,-3.010763422
407.62250,-3.621152238
407.62300,-2.705569015
407.62350,-0.5692081607
407.62400,0.6515694701
407.62450,0.9567638778
407.62500,0.04118065471
407.62550,-1.789985791
407.62600,-2.705569015
407.62650,-1.789985791
407.62700,-0.264013753
407.62750,0.6515694701
407.62800,1.567152693
407.62850,3.093124732
407.62900,3.703513547
407.62950,3.093124732
407.63000,2.177541509
407.63050,1.872347101
407.63100,2.177541509
407.63150,0.9567638778
407.63200,-0.5692081607
407.63250,-0.264013753
407.63300,1.567152693
407.63350,3.398319139
407.63400,2.787930324
407.63450,1.872347101
407.63500,2.482735916
407.63550,4.008707955
407.63600,4.313902363
407.63650,2.482735916
407.63700,0.3463750624
407.63750,-0.5692081607
407.63800,0.3463750624
407.63850,2.482735916
407.63900,3.093124732
407.63950,0.3463750624
407.64000,-3.31595783
407.64050,-4.536735461
407.64100,-2.400374607
407.64150,0.3463750624
407.64200,1.567152693
407.64250,0.6515694701
407.64300,0.04118065471
407.64350,0.04118065471
407.64400,-0.5692081607
407.64450,-1.789985791
407.64500,-2.095180199
407.64550,0.04118065471
407.64600,2.787930324
407.64650,3.093124732
407.64700,-0.264013753
407.64750,-4.536735461
407.64800,-6.367901907
407.64850,-5.147124276
407.64900,-3.926346645
407.64950,-4.231541053
407.65000,-3.621152238
407.65050,-0.8744025684
407.65100,2.177541509
407.65150,2.177541509
407.65200,-0.264013753
407.65250,-2.095180199
407.65300,-0.5692081607
407.65350,2.787930324
407.65400,4.008707955
407.65450,2.482735916
407.65500,0.3463750624
407.65550,0.3463750624
407.65600,1.872347101
407.65650,2.787930324
407.65700,2.177541509
407.65750,1.567152693
407.65800,2.482735916
407.65850,4.008707955
407.65900,4.61909677
407.65950,3.703513547
407.66000,2.482735916
407.66050,2.177541509
407.66100,2.177541509
407.66150,0.6515694701
407.66200,-0.8744025684
407.66250,-2.705569015
407.66300,-4.536735461
407.66350,-6.367901907
407.66400,-6.673096315
407.66450,-3.621152238
407.66500,0.3463750624
407.66550,1.567152693
407.66600,0.04118065471
407.66650,-1.789985791
407.66700,-2.400374607
407.66750,-3.010763422
407.66800,-5.147124276
407.66850,-5.757513092
407.66900,-4.231541053
407.66950,-1.789985791
407.67000,-1.179596976
407.67050,-1.789985791
407.67100,-0.8744025684
407.67150,1.261958286
407.67200,3.093124732
407.67250,2.787930324
407.67300,0.9567638778
407.67350,0.3463750624
407.67400,1.567152693
407.67450,4.313902363
407.67500,6.450263216
407.67550,7.36584644
407.67600,6.755457624
407.67650,4.924291178
407.67700,2.177541509
407.67750,-0.5692081607
407.67800,-2.095180199
407.67850,-0.5692081607
407.67900,1.567152693
407.67950,1.872347101
407.68000,0.04118065471
407.68050,-0.8744025684
407.68100,-0.5692081607
407.68150,0.04118065471
407.68200,0.9567638778
407.68250,1.261958286
407.68300,0.9567638778
407.68350,-0.264013753
407.68400,-1.789985791
407.68450,-2.095180199
407.68500,-0.5692081607
407.68550,0.3463750624
407.68600,0.3463750624
407.68650,-0.5692081607
407.68700,-1.789985791
407.68750,-2.400374607
407.68800,-2.095180199
407.68850,-1.789985791
407.68900,-2.705569015
407.68950,-3.621152238
407.69000,-3.621152238
407.69050,-2.705569015
407.69100,-3.010763422
407.69150,-5.147124276
407.69200,-6.062707499
407.69250,-3.926346645
407.69300,-0.8744025684
407.69350,0.9567638778
407.69400,2.482735916
407.69450,4.924291178
407.69500,7.060652032
407.69550,6.450263216
407.69600,3.398319139
407.69650,1.567152693
407.69700,2.177541509
407.69750,3.398319139
407.69800,4.008707955
407.69850,3.398319139
407.69900,2.177541509
407.69950,0.3463750624
407.70000,-1.789985791
407.70050,-3.621152238
407.70100,-3.31595783
407.70150,-1.484791384
407.70200,0.6515694701
407.70250,1.872347101
407.70300,1.567152693
407.70350,0.04118065471
407.70400,-0.8744025684
407.70450,0.04118065471
407.70500,2.177541509
407.70550,2.177541509
407.70600,0.3463750624
407.70650,-0.264013753
407.70700,0.6515694701
407.70750,1.567152693
407.70800,0.6515694701
407.70850,-0.5692081607
407.70900,-1.179596976
407.70950,-0.8744025684
407.71000,-1.179596976
407.71050,-1.179596976
407.71100,0.04118065471
407.71150,1.872347101
407.71200,1.261958286
407.71250,-0.5692081607
407.71300,-1.789985791
407.71350,0.04118065471
407.71400,2.787930324
407.71450,3.398319139
407.71500,1.567152693
407.71550,0.3463750624
407.71600,0.6515694701
407.71650,0.9567638778
407.71700,0.04118065471
407.71750,-1.179596976
407.71800,-0.5692081607
407.71850,0.6515694701
407.71900,0.04118065471
407.71950,-2.705569015
407.72000,-5.147124276
407.72050,-5.147124276
407.72100,-3.31595783
407.72150,-1.484791384
407.72200,0.3463750624
407.72250,1.872347101
407.72300,1.261958286
407.72350,-2.095180199
407.72400,-5.452318684
407.72450,-6.673096315
407.72500,-6.367901907
407.72550,-6.062707499
407.72600,-5.147124276
407.72650,-2.400374607
407.72700,0.9567638778
407.72750,2.482735916
407.72800,1.567152693
407.72850,0.6515694701
407.72900,1.872347101
407.72950,4.313902363
407.73000,5.534679993
407.73050,5.534679993
407.73100,3.703513547
407.73150,1.872347101
407.73200,0.6515694701
407.73250,0.6515694701
407.73300,0.6515694701
407.73350,0.3463750624
407.73400,0.04118065471
407.73450,0.04118065471
407.73500,1.261958286
407.73550,2.787930324
407.73600,4.008707955
407.73650,4.008707955
407.73700,2.177541509
407.73750,-0.8744025684
407.73800,-3.621152238
407.73850,-4.231541053
407.73900,-3.31595783
407.73950,-2.705569015
407.74000,-1.789985791
407.74050,-0.264013753
407.74100,0.04118065471
407.74150,-1.789985791
407.74200,-4.231541053
407.74250,-4.231541053
407.74300,-3.31595783
407.74350,-4.231541053
407.74400,-6.062707499
407.74450,-4.536735461
407.74500,0.9567638778
407.74550,5.839874401
407.74600,6.755457624
407.74650,4.924291178
407.74700,3.093124732
407.74750,0.9567638778
407.74800,-0.8744025684
407.74850,-1.789985791
407.74900,-1.484791384
407.74950,-1.789985791
407.75000,-4.231541053
407.75050,-5.757513092
407.75100,-3.31595783
407.75150,1.872347101
407.75200,6.450263216
407.75250,7.060652032
407.75300,4.313902363
407.75350,0.6515694701
407.75400,-2.400374607
407.75450,-3.31595783
407.75500,-2.095180199
407.75550,-1.789985791
407.75600,-3.010763422
407.75650,-3.31595783
407.75700,0.04118065471
407.75750,4.924291178
407.75800,4.313902363
407.75850,-2.095180199
407.75900,-8.504262761
407.75950,-8.809457169
407.76000,-3.926346645
407.76050,-0.264013753
407.76100,-0.5692081607
407.76150,-1.484791384
407.76200,-0.264013753
407.76250,2.177541509
407.76300,4.008707955
407.76350,4.008707955
407.76400,3.093124732
407.76450,1.872347101
407.76500,-0.5692081607
407.76550,-4.231541053
407.76600,-6.978290722
407.76650,-7.28348513
407.76700,-5.147124276
407.76750,-2.095180199
407.76800,0.04118065471
407.76850,1.261958286
407.76900,1.261958286
407.76950,0.9567638778
407.77000,1.261958286
407.77050,2.177541509
407.77100,3.093124732
407.77150,3.093124732
407.77200,2.177541509
407.77250,0.9567638778
407.77300,0.9567638778
407.77350,1.567152693
407.77400,3.093124732
407.77450,3.703513547
407.77500,4.313902363
407.77550,4.61909677
407.77600,4.313902363
407.77650,2.177541509
407.77700,-0.8744025684
407.77750,-3.010763422
407.77800,-1.789985791
407.77850,0.04118065471
407.77900,0.04118065471
407.77950,-1.484791384
407.78000,-2.705569015
407.78050,-1.179596976
407.78100,1.261958286
407.78150,3.093124732
407.78200,3.398319139
407.78250,3.398319139
407.78300,3.093124732
407.78350,1.261958286
407.78400,-1.484791384
407.78450,-3.621152238
407.78500,-2.705569015
407.78550,0.9567638778
407.78600,3.703513547
407.78650,3.398319139
407.78700,1.261958286
407.78750,0.04118065471
407.78800,0.6515694701
407.78850,0.6515694701
407.78900,0.04118065471
407.78950,0.04118065471
407.79000,0.6515694701
407.79050,0.9567638778
407.79100,0.04118065471
407.79150,0.04118065471
407.79200,0.6515694701
407.79250,0.6515694701
407.79300,-0.5692081607
407.79350,-0.8744025684
407.79400,2.482735916
407.79450,7.976235255
407.79500,11.02817933
407.79550,8.58662407
407.79600,3.093124732
407.79650,-1.484791384
407.79700,-3.621152238
407.79750,-4.841929869
407.79800,-6.673096315
407.79850,-8.504262761
407.79900,-8.504262761
407.79950,-5.452318684
407.80000,-0.8744025684
407.80050,3.093124732
407.80100,4.924291178
407.80150,4.313902363
407.80200,1.567152693
407.80250,-2.095180199
407.80300,-5.452318684
407.80350,-6.062707499
407.80400,-4.536735461
407.80450,-2.705569015
407.80500,-1.484791384
407.80550,-0.264013753
407.80600,1.567152693
407.80650,2.482735916
407.80700,0.9567638778
407.80750,-1.179596976
407.80800,-1.789985791
407.80850,-1.179596976
407.80900,-1.484791384
407.80950,-2.400374607
407.81000,-2.095180199
407.81050,-0.264013753
407.81100,0.3463750624
407.81150,-0.264013753
407.81200,-0.8744025684
407.81250,0.6515694701
407.81300,3.703513547
407.81350,5.229485586
407.81400,6.145068809
407.81450,7.060652032
407.81500,7.36584644
407.81550,4.924291178
407.81600,1.261958286
407.81650,0.04118065471
407.81700,2.482735916
407.81750,4.61909677
407.81800,3.398319139
407.81850,0.6515694701
407.81900,0.6515694701
407.81950,3.093124732
407.82000,4.924291178
407.82050,4.61909677
407.82100,3.093124732
407.82150,1.261958286
407.82200,0.04118065471
407.82250,-0.5692081607
407.82300,-0.5692081607
407.82350,-1.179596976
407.82400,-3.010763422
407.82450,-5.147124276
407.82500,-4.841929869
407.82550,-2.400374607
407.82600,0.04118065471
407.82650,0.9567638778
407.82700,1.261958286
407.82750,1.567152693
407.82800,0.9567638778
407.82850,-0.264013753
407.82900,-1.179596976
407.82950,0.04118065471
407.83000,1.872347101
407.83050,1.872347101
407.83100,-0.264013753
407.83150,-2.095180199
407.83200,-2.705569015
407.83250,-2.705569015
407.83300,-2.400374607
407.83350,-1.179596976
407.83400,0.04118065471
407.83450,-0.264013753
407.83500,-1.789985791
407.83550,-1.484791384
407.83600,1.261958286
407.83650,4.313902363
407.83700,4.61909677
407.83750,2.482735916
407.83800,1.261958286
407.83850,0.6515694701
407.83900,-0.5692081607
407.83950,-2.705569015
407.84000,-3.926346645
407.84050,-2.705569015
407.84100,-0.8744025684
407.84150,-0.264013753
407.84200,-1.484791384
407.84250,-3.926346645
407.84300,-6.978290722
407.84350,-8.504262761
407.84400,-5.757513092
407.84450,0.04118065471
407.84500,6.450263216
407.84550,9.197012886
407.84600,7.060652032
407.84650,3.093124732
407.84700,0.04118065471
407.84750,-0.264013753
407.84800,0.04118065471
407.84850,-0.5692081607
407.84900,-2.400374607
407.84950,-3.926346645
407.85000,-4.536735461
407.85050,-4.231541053
407.85100,-3.31595783
407.85150,-1.789985791
407.85200,0.04118065471
407.85250,1.567152693
407.85300,2.177541509
407.85350,1.872347101
407.85400,0.9567638778
407.85450,0.04118065471
407.85500,-0.264013753
407.85550,0.04118065471
407.85600,1.567152693
407.85650,2.482735916
407.85700,1.872347101
407.85750,0.3463750624
407.85800,-0.8744025684
407.85850,-1.484791384
407.85900,-0.8744025684
407.85950,0.04118065471
407.86000,1.567152693
407.86050,2.177541509
407.86100,1.261958286
407.86150,-0.5692081607
407.86200,-2.705569015
407.86250,-3.31595783
407.86300,-3.010763422
407.86350,-2.400374607
407.86400,-2.400374607
407.86450,-2.400374607
407.86500,-0.5692081607
407.86550,2.177541509
407.86600,3.398319139
407.86650,2.177541509
407.86700,0.6515694701
407.86750,0.04118065471
407.86800,0.3463750624
407.86850,1.261958286
407.86900,1.872347101
407.86950,1.567152693
407.87000,0.3463750624
407.87050,-0.264013753
407.87100,0.3463750624
407.87150,1.872347101
407.87200,0.9567638778
407.87250,-2.095180199
407.87300,-5.147124276
407.87350,-5.147124276
407.87400,-3.010763422
407.87450,-0.8744025684
407.87500,0.04118065471
407.87550,0.04118065471
407.87600,-1.484791384
407.87650,-2.095180199
407.87700,-0.5692081607
407.87750,1.872347101
407.87800,3.093124732
407.87850,1.872347101
407.87900,0.04118065471
407.87950,-1.179596976
407.88000,-1.484791384
407.88050,-0.8744025684
407.88100,-0.264013753
407.88150,-0.5692081607
407.88200,-1.789985791
407.88250,-2.400374607
407.88300,-0.264013753
407.88350,1.872347101
407.88400,2.482735916
407.88450,2.177541509
407.88500,3.703513547
407.88550,5.534679993
407.88600,3.398319139
407.88650,-2.400374607
407.88700,-6.367901907
407.88750,-4.841929869
407.88800,-0.5692081607
407.88850,0.6515694701
407.88900,-0.5692081607
407.88950,-1.789985791
407.89000,-1.789985791
407.89050,-2.705569015
407.89100,-4.231541053
407.89150,-2.400374607
407.89200,4.008707955
407.89250,8.58662407
407.89300,5.229485586
407.89350,-2.705569015
407.89400,-7.28348513
407.89450,-4.231541053
407.89500,0.3463750624
407.89550,2.482735916
407.89600,3.703513547
407.89650,5.534679993
407.89700,6.145068809
407.89750,4.313902363
407.89800,2.482735916
407.89850,3.398319139
407.89900,4.924291178
407.89950,3.703513547
407.90000,1.261958286
407.90050,0.04118065471
407.90100,-0.8744025684
407.90150,-3.010763422
407.90200,-4.841929869
407.90250,-4.231541053
407.90300,-2.400374607
407.90350,-0.8744025684
407.90400,0.04118065471
407.90450,1.261958286
407.90500,0.9567638778
407.90550,-1.789985791
407.90600,-5.757513092
407.90650,-6.978290722
407.90700,-5.757513092
407.90750,-3.621152238
407.90800,-1.484791384
407.90850,0.04118065471
407.90900,0.3463750624
407.90950,0.04118065471
407.91000,0.6515694701
407.91050,3.093124732
407.91100,3.703513547
407.91150,0.9567638778
407.91200,-0.5692081607
407.91250,1.567152693
407.91300,4.313902363
407.91350,3.703513547
407.91400,0.3463750624
407.91450,-1.484791384
407.91500,-1.789985791
407.91550,-2.705569015
407.91600,-3.31595783
407.91650,-0.8744025684
407.91700,2.482735916
407.91750,3.093124732
407.91800,0.6515694701
407.91850,-1.484791384
407.91900,-1.179596976
407.91950,-0.5692081607
407.92000,-1.179596976
407.92050,-1.789985791
407.92100,-0.5692081607
407.92150,1.567152693
407.92200,3.398319139
407.92250,3.703513547
407.92300,3.093124732
407.92350,2.177541509
407.92400,1.567152693
407.92450,0.6515694701
407.92500,-0.5692081607
407.92550,-1.179596976
407.92600,0.3463750624
407.92650,4.008707955
407.92700,6.145068809
407.92750,4.924291178
407.92800,1.567152693
407.92850,0.04118065471
407.92900,0.3463750624
407.92950,0.04118065471
407.93000,-1.484791384
407.93050,-2.705569015
407.93100,-2.095180199
407.93150,-0.5692081607
407.93200,0.04118065471
407.93250,0.6515694701
407.93300,2.177541509
407.93350,3.093124732
407.93400,2.177541509
407.93450,1.567152693
407.93500,3.093124732
407.93550,5.229485586
407.93600,4.008707955
407.93650,-0.264013753
407.93700,-3.010763422
407.93750,-2.095180199
407.93800,0.04118065471
407.93850,0.9567638778
407.93900,0.6515694701
407.93950,0.6515694701
407.94000,0.6515694701
407.94050,-0.264013753
407.94100,-1.484791384
407.94150,-0.8744025684
407.94200,0.04118065471
407.94250,-0.264013753
407.94300,-1.789985791
407.94350,-2.705569015
407.94400,-4.841929869
407.94450,-8.199068353
407.94500,-10.64062361
407.94550,-8.199068353
407.94600,-1.484791384
407.94650,3.398319139
407.94700,2.787930324
407.94750,-0.8744025684
407.94800,-3.31595783
407.94850,-3.31595783
407.94900,-2.400374607
407.94950,-2.095180199
407.95000,-2.095180199
407.95050,-1.484791384
407.95100,-1.789985791
407.95150,-2.095180199
407.95200,-1.179596976
407.95250,0.6515694701
407.95300,2.482735916
407.95350,1.567152693
407.95400,0.3463750624
407.95450,1.261958286
407.95500,3.093124732
407.95550,4.008707955
407.95600,3.398319139
407.95650,3.398319139
407.95700,4.008707955
407.95750,2.787930324
407.95800,-0.5692081607
407.95850,-3.621152238
407.95900,-3.621152238
407.95950,-1.484791384
407.96000,0.9567638778
407.96050,3.093124732
407.96100,3.703513547
407.96150,2.787930324
407.96200,0.3463750624
407.96250,-1.179596976
407.96300,-1.179596976
407.96350,-1.179596976
407.96400,-1.179596976
407.96450,-1.179596976
407.96500,-0.264013753
407.96550,0.6515694701
407.96600,1.567152693
407.96650,1.567152693
407.96700,1.872347101
407.96750,1.872347101
407.96800,1.872347101
407.96850,1.261958286
407.96900,0.04118065471
407.96950,-1.484791384
407.97000,-1.484791384
407.97050,0.3463750624
407.97100,2.482735916
407.97150,1.872347101
407.97200,0.04118065471
407.97250,0.04118065471
407.97300,2.177541509
407.97350,3.398319139
407.97400,2.482735916
407.97450,2.177541509
407.97500,5.534679993
407.97550,8.58662407
407.97600,7.060652032
407.97650,2.787930324
407.97700,0.04118065471
407.97750,0.04118065471
407.97800,0.6515694701
407.97850,0.3463750624
407.97900,0.3463750624
407.97950,1.872347101
407.98000,2.787930324
407.98050,1.872347101
407.98100,0.6515694701
407.98150,1.261958286
407.98200,2.177541509
407.98250,0.6515694701
407.98300,-3.31595783
407.98350,-6.367901907
407.98400,-4.841929869
407.98450,0.04118065471
407.98500,3.398319139
407.98550,2.177541509
407.98600,-1.484791384
407.98650,-3.926346645
407.98700,-3.621152238
407.98750,-2.705569015
407.98800,-1.789985791
407.98850,-0.5692081607
407.98900,0.9567638778
407.98950,2.482735916
407.99000,2.787930324
407.99050,1.567152693
407.99100,0.04118065471
407.99150,-0.8744025684
407.99200,-0.5692081607
407.99250,0.04118065471
407.99300,0.04118065471
407.99350,-0.5692081607
407.99400,0.04118065471
407.99450,2.177541509
407.99500,3.093124732
407.99550,0.04118065471
407.99600,-3.621152238
407.99650,-2.095180199
407.99700,4.313902363
407.99750,8.891818478
407.99800,6.755457624
407.99850,1.261958286
407.99900,-1.484791384
407.99950,-1.789985791
408.00000,-2.400374607
408.00050,-1.789985791
408.00100,0.9567638778
408.00150,4.313902363
408.00200,3.703513547
408.00250,0.04118065471
408.00300,-0.5692081607
408.00350,2.482735916
408.00400,3.703513547
408.00450,-1.179596976
408.00500,-9.725040392
408.00550,-14.30295651
408.00600,-13.08217888
408.00650,-9.725040392
408.00700,-6.978290722
408.00750,-3.926346645
408.00800,-0.264013753
408.00850,1.872347101
408.00900,1.261958286
408.00950,-0.264013753
408.01000,-1.484791384
408.01050,-0.264013753
408.01100,1.567152693
408.01150,2.482735916
408.01200,1.261958286
408.01250,-1.179596976
408.01300,-3.621152238
408.01350,-4.841929869
408.01400,-5.452318684
408.01450,-5.757513092
408.01500,-4.841929869
408.01550,-2.400374607
408.01600,-0.264013753
408.01650,-0.8744025684
408.01700,-2.400374607
408.01750,-1.179596976
408.01800,2.177541509
408.01850,4.313902363
408.01900,2.787930324
408.01950,0.3463750624
408.02000,0.04118065471
408.02050,0.9567638778
408.02100,0.6515694701
408.02150,-0.8744025684
408.02200,-3.010763422
408.02250,-3.621152238
408.02300,-3.31595783
408.02350,-2.705569015
408.02400,-2.705569015
408.02450,-3.621152238
408.02500,-3.926346645
408.02550,-2.095180199
408.02600,1.261958286
408.02650,3.398319139
408.02700,1.261958286
408.02750,-1.789985791
408.02800,-1.484791384
408.02850,1.567152693
408.02900,4.313902363
408.02950,2.482735916
408.03000,-1.484791384
408.03050,-3.926346645
408.03100,-2.705569015
408.03150,0.04118065471
408.03200,2.482735916
408.03250,3.093124732
408.03300,1.872347101
408.03350,0.9567638778
408.03400,1.261958286
408.03450,2.177541509
408.03500,2.787930324
408.03550,0.9567638778
408.03600,-1.484791384
408.03650,-3.010763422
408.03700,-2.705569015
408.03750,-2.095180199
408.03800,-2.400374607
408.03850,-3.621152238
408.03900,-3.31595783
408.03950,-0.264013753
408.04000,2.177541509
408.04050,2.787930324
408.04100,1.261958286
408.04150,0.3463750624
408.04200,0.9567638778
408.04250,1.567152693
408.04300,1.261958286
408.04350,0.6515694701
408.04400,0.3463750624
408.04450,0.3463750624
408.04500,0.6515694701
408.04550,1.261958286
408.04600,2.482735916
408.04650,3.093124732
408.04700,2.787930324
408.04750,2.787930324
408.04800,2.787930324
408.04850,2.177541509
408.04900,1.872347101
408.04950,2.482735916
408.05000,3.093124732
408.05050,2.177541509
408.05100,0.3463750624
408.05150,0.04118065471
408.05200,1.261958286
408.05250,0.6515694701
408.05300,-2.705569015
408.05350,-6.978290722
408.05400,-7.893873946
408.05450,-4.231541053
408.05500,0.6515694701
408.05550,5.839874401
408.05600,8.281429663
408.05650,6.450263216
408.05700,2.177541509
408.05750,-0.264013753
408.05800,0.3463750624
408.05850,1.872347101
408.05900,0.04118065471
408.05950,-3.31595783
408.06000,-4.841929869
408.06050,-3.621152238
408.06100,-2.400374607
408.06150,-1.789985791
408.06200,-1.484791384
408.06250,-1.179596976
408.06300,-1.179596976
408.06350,-1.179596976
408.06400,-0.8744025684
408.06450,-0.264013753
408.06500,-0.8744025684
408.06550,-2.400374607
408.06600,-3.010763422
408.06650,-2.400374607
408.06700,-1.484791384
408.06750,-0.5692081607
408.06800,0.04118065471
408.06850,0.3463750624
408.06900,0.04118065471
408.06950,0.04118065471
408.07000,0.9567638778
408.07050,1.872347101
408.07100,1.567152693
408.07150,0.9567638778
408.07200,1.261958286
408.07250,2.177541509
408.07300,2.787930324
408.07350,1.872347101
408.07400,1.261958286
408.07450,1.872347101
408.07500,2.787930324
408.07550,2.482735916
408.07600,1.872347101
408.07650,2.482735916
408.07700,4.313902363
408.07750,5.534679993
408.07800,4.924291178
408.07850,3.093124732
408.07900,2.177541509
408.07950,2.787930324
408.08000,3.093124732
408.08050,2.177541509
408.08100,0.6515694701
408.08150,0.04118065471
408.08200,0.3463750624
408.08250,0.3463750624
408.08300,0.04118065471
408.08350,-0.8744025684
408.08400,-3.010763422
408.08450,-4.841929869
408.08500,-4.231541053
408.08550,-0.8744025684
408.08600,2.177541509
408.08650,1.872347101
408.08700,-1.484791384
408.08750,-4.536735461
408.08800,-4.231541053
408.08850,-1.179596976
408.08900,0.6515694701
408.08950,0.3463750624
408.09000,-0.5692081607
408.09050,-0.5692081607
408.09100,0.3463750624
408.09150,0.6515694701
408.09200,-0.5692081607
408.09250,-1.789985791
408.09300,-0.8744025684
408.09350,1.261958286
408.09400,2.482735916
408.09450,1.872347101
408.09500,0.9567638778
408.09550,0.9567638778
408.09600,0.6515694701
408.09650,0.04118065471
408.09700,0.04118065471
408.09750,2.482735916
408.09800,4.924291178
408.09850,5.839874401
408.09900,4.924291178
408.09950,3.703513547
408.10000,2.177541509
408.10050,-0.5692081607
408.10100,-3.31595783
408.10150,-3.621152238
408.10200,-3.010763422
408.10250,-3.31595783
408.10300,-3.31595783
408.10350,-0.8744025684
408.10400,2.177541509
408.10450,3.398319139
408.10500,0.6515694701
408.10550,-1.789985791
408.10600,-2.095180199
408.10650,-1.179596976
408.10700,-1.179596976
408.10750,-1.179596976
408.10800,-0.264013753
408.10850,0.3463750624
408.10900,0.6515694701
408.10950,0.3463750624
408.11000,0.3463750624
408.11050,0.9567638778
408.11100,1.261958286
408.11150,1.567152693
408.11200,1.567152693
408.11250,0.6515694701
408.11300,-0.264013753
408.11350,0.04118065471
408.11400,1.567152693
408.11450,1.567152693
408.11500,-0.5692081607
408.11550,-2.095180199
408.11600,0.04118065471
408.11650,4.008707955
408.11700,6.145068809
408.11750,5.229485586
408.11800,2.787930324
408.11850,0.9567638778
408.11900,-0.264013753
408.11950,-1.179596976
408.12000,-0.5692081607
408.12050,0.04118065471
408.12100,-1.179596976
408.12150,-4.231541053
408.12200,-6.062707499
408.12250,-5.147124276
408.12300,-3.926346645
408.12350,-3.926346645
408.12400,-3.010763422
408.12450,-0.264013753
408.12500,2.787930324
408.12550,3.093124732
408.12600,1.261958286
408.12650,0.6515694701
408.12700,1.567152693
408.12750,1.872347101
408.12800,0.04118065471
408.12850,-1.484791384
408.12900,-0.8744025684
408.12950,0.04118065471
408.13000,-0.5692081607
408.13050,-3.010763422
408.13100,-4.231541053
408.13150,-2.095180199
408.13200,0.3463750624
408.13250,0.9567638778
408.13300,0.3463750624
408.13350,1.567152693
408.13400,4.924291178
408.13450,5.229485586
408.13500,0.3463750624
408.13550,-5.757513092
408.13600,-7.28348513
408.13650,-3.621152238
408.13700,0.04118065471
408.13750,1.567152693
408.13800,2.177541509
408.13850,4.313902363
408.13900,6.145068809
408.13950,5.534679993
408.14000,4.61909677
408.14050,6.450263216
408.14100,8.891818478
408.14150,8.281429663
408.14200,3.703513547
408.14250,-1.179596976
408.14300,-4.231541053
408.14350,-4.231541053
408.14400,-3.621152238
408.14450,-4.536735461
408.14500,-6.978290722
408.14550,-8.809457169
408.14600,-7.893873946
408.14650,-3.621152238
408.14700,0.04118065471
408.14750,-0.264013753
408.14800,-3.010763422
408.14850,-5.147124276
408.14900,-5.452318684
408.14950,-5.147124276
408.15000,-4.536735461
408.15050,-3.621152238
408.15100,-2.095180199
408.15150,0.04118065471
408.15200,3.398319139
408.15250,6.450263216
408.15300,6.450263216
408.15350,2.787930324
408.15400,-0.8744025684
408.15450,-1.789985791
408.15500,0.04118065471
408.15550,1.261958286
408.15600,0.9567638778
408.15650,0.04118065471
408.15700,0.04118065471
408.15750,1.567152693
408.15800,3.093124732
408.15850,3.703513547
408.15900,3.398319139
408.15950,2.482735916
408.16000,1.567152693
408.16050,0.04118065471
408.16100,-2.095180199
408.16150,-3.926346645
408.16200,-3.31595783
408.16250,-0.8744025684
408.16300,-0.264013753
408.16350,-2.095180199
408.16400,-3.621152238
408.16450,-1.484791384
408.16500,2.177541509
408.16550,3.703513547
408.16600,1.872347101
408.16650,-0.264013753
408.16700,-2.095180199
408.16750,-3.621152238
408.16800,-4.841929869
408.16850,-3.926346645
408.16900,-1.484791384
408.16950,0.04118065471
408.17000,0.04118065471
408.17050,-0.5692081607
408.17100,0.04118065471
408.17150,0.9567638778
408.17200,0.3463750624
408.17250,-1.484791384
408.17300,-2.705569015
408.17350,-1.789985791
408.17400,-1.789985791
408.17450,-3.010763422
408.17500,-3.010763422
408.17550,-0.5692081607
408.17600,1.872347101
408.17650,2.787930324
408.17700,1.872347101
408.17750,0.9567638778
408.17800,1.261958286
408.17850,1.872347101
408.17900,1.567152693
408.17950,0.9567638778
408.18000,0.9567638778
408.18050,0.6515694701
408.18100,0.04118065471
408.18150,-0.8744025684
408.18200,-1.484791384
408.18250,-2.095180199
408.18300,-2.705569015
408.18350,-3.010763422
408.18400,-2.095180199
408.18450,-1.179596976
408.18500,-1.484791384
408.18550,-2.095180199
408.18600,-1.484791384
408.18650,-0.8744025684
408.18700,-0.8744025684
408.18750,-2.400374607
408.18800,-3.31595783
408.18850,-2.400374607
408.18900,-0.8744025684
408.18950,-0.264013753
408.19000,-0.5692081607
408.19050,-0.5692081607
408.19100,0.04118065471
408.19150,0.9567638778
408.19200,0.6515694701
408.19250,-0.264013753
408.19300,-0.264013753
408.19350,1.261958286
408.19400,3.093124732
408.19450,2.482735916
408.19500,1.261958286
408.19550,1.872347101
408.19600,4.008707955
408.19650,4.61909677
408.19700,2.482735916
408.19750,1.261958286
408.19800,1.872347101
408.19850,2.482735916
408.19900,1.261958286
408.19950,0.6515694701
408.20000,1.567152693
408.20050,2.177541509
408.20100,0.3463750624
408.20150,-1.484791384
408.20200,-1.179596976
408.20250,-0.264013753
408.20300,-0.5692081607
408.20350,-0.8744025684
408.20400,0.3463750624
408.20450,2.787930324
408.20500,3.093124732
408.20550,0.9567638778
408.20600,0.04118065471
408.20650,1.261958286
408.20700,3.093124732
408.20750,2.787930324
408.20800,0.04118065471
408.20850,-2.705569015
408.20900,-3.621152238
408.20950,-3.31595783
408.21000,-2.095180199
408.21050,-0.8744025684
408.21100,0.9567638778
408.21150,4.008707955
408.21200,6.145068809
408.21250,5.839874401
408.21300,3.703513547
408.21350,2.482735916
408.21400,3.703513547
408.21450,5.534679993
408.21500,5.839874401
408.21550,5.229485586
408.21600,5.229485586
408.21650,6.145068809
408.21700,6.145068809
408.21750,4.008707955
408.21800,0.3463750624
408.21850,-2.705569015
408.21900,-3.621152238
408.21950,-2.400374607
408.22000,-0.5692081607
408.22050,-0.8744025684
408.22100,-2.400374607
408.22150,-2.705569015
408.22200,-0.8744025684
408.22250,0.6515694701
408.22300,0.04118065471
408.22350,-0.8744025684
408.22400,-1.179596976
408.22450,-1.789985791
408.22500,-3.010763422
408.22550,-3.926346645
408.22600,-3.010763422
408.22650,-0.5692081607
408.22700,0.04118065471
408.22750,-0.8744025684
408.22800,-2.400374607
408.22850,-2.400374607
408.22900,-2.400374607
408.22950,-3.621152238
408.23000,-3.621152238
408.23050,-1.179596976
408.23100,1.567152693
408.23150,2.482735916
408.23200,1.261958286
408.23250,0.6515694701
408.23300,2.177541509
408.23350,4.61909677
408.23400,5.229485586
408.23450,2.482735916
408.23500,-0.8744025684
408.23550,-2.705569015
408.23600,-0.5692081607
408.23650,2.482735916
408.23700,4.313902363
408.23750,3.093124732
408.23800,0.6515694701
408.23850,-0.8744025684
408.23900,-1.484791384
408.23950,-1.179596976
408.24000,-0.5692081607
408.24050,0.04118065471
408.24100,0.04118065471
408.24150,-0.5692081607
408.24200,-1.484791384
408.24250,-2.400374607
408.24300,-3.926346645
408.24350,-4.841929869
408.24400,-3.621152238
408.24450,-1.179596976
408.24500,0.04118065471
408.24550,-1.179596976
408.24600,-1.484791384
408.24650,0.04118065471
408.24700,2.482735916
408.24750,2.177541509
408.24800,-1.179596976
408.24850,-6.367901907
408.24900,-9.419845984
408.24950,-7.588679538
408.25000,-1.179596976
408.25050,5.839874401
408.25100,10.41779052
408.25150,10.41779052
408.25200,8.891818478
408.25250,7.671040847
408.25300,6.145068809
408.25350,3.703513547
408.25400,0.6515694701
408.25450,-0.264013753
408.25500,0.04118065471
408.25550,0.9567638778
408.25600,0.04118065471
408.25650,-1.789985791
408.25700,-2.095180199
408.25750,-0.5692081607
408.25800,0.6515694701
408.25850,0.04118065471
408.25900,-2.400374607
408.25950,-3.31595783
408.26000,-0.8744025684
408.26050,1.872347101
408.26100,2.482735916
408.26150,0.6515694701
408.26200,-0.5692081607
408.26250,-0.5692081607
408.26300,-0.264013753
408.26350,-0.5692081607
408.26400,-1.789985791
408.26450,-2.705569015
408.26500,-3.31595783
408.26550,-3.010763422
408.26600,-2.705569015
408.26650,-2.705569015
408.26700,-2.400374607
408.26750,-1.789985791
408.26800,-1.789985791
408.26850,-3.621152238
408.26900,-4.841929869
408.26950,-2.705569015
408.27000,1.567152693
408.27050,3.703513547
408.27100,2.482735916
408.27150,0.04118065471
408.27200,0.04118065471
408.27250,1.261958286
408.27300,0.9567638778
408.27350,-0.264013753
408.27400,-0.8744025684
408.27450,0.3463750624
408.27500,2.177541509
408.27550,2.482735916
408.27600,2.787930324
408.27650,3.398319139
408.27700,3.703513547
408.27750,2.482735916
408.27800,-0.264013753
408.27850,-2.400374607
408.27900,-2.095180199
408.27950,-0.8744025684
408.28000,-1.179596976
408.28050,-2.400374607
408.28100,-3.621152238
408.28150,-3.621152238
408.28200,-3.621152238
408.28250,-4.231541053
408.28300,-3.621152238
408.28350,-2.095180199
408.28400,-0.8744025684
408.28450,-1.789985791
408.28500,-3.926346645
408.28550,-3.621152238
408.28600,-1.789985791
408.28650,0.04118065471
408.28700,0.3463750624
408.28750,0.3463750624
408.28800,0.04118065471
408.28850,0.04118065471
408.28900,0.04118065471
408.28950,0.9567638778
408.29000,1.261958286
408.29050,0.3463750624
408.29100,0.04118065471
408.29150,0.6515694701
408.29200,1.567152693
408.29250,1.567152693
408.29300,2.177541509
408.29350,4.008707955
408.29400,5.839874401
408.29450,5.229485586
408.29500,3.398319139
408.29550,1.261958286
408.29600,0.04118065471
408.29650,-1.179596976
408.29700,-0.5692081607
408.29750,2.177541509
408.29800,3.703513547
408.29850,0.6515694701
408.29900,-3.621152238
408.29950,-4.231541053
408.30000,-1.484791384
408.30050,0.04118065471
408.30100,-0.5692081607
408.30150,-0.264013753
408.30200,1.872347101
408.30250,2.177541509
408.30300,-0.8744025684
408.30350,-3.926346645
408.30400,-2.400374607
408.30450,0.3463750624
408.30500,0.6515694701
408.30550,-1.789985791
408.30600,-3.31595783
408.30650,-2.705569015
408.30700,-1.789985791
408.30750,-1.789985791
408.30800,-1.179596976
408.30850,0.04118065471
408.30900,0.3463750624
408.30950,-1.484791384
408.31000,-3.010763422
408.31050,-1.789985791
408.31100,1.261958286
408.31150,4.313902363
408.31200,5.229485586
408.31250,4.61909677
408.31300,2.177541509
408.31350,-0.8744025684
408.31400,-3.621152238
408.31450,-3.621152238
408.31500,-0.8744025684
408.31550,1.567152693
408.31600,1.567152693
408.31650,0.04118065471
408.31700,0.04118065471
408.31750,0.6515694701
408.31800,0.9567638778
408.31850,0.04118065471
408.31900,-1.789985791
408.31950,-2.400374607
408.32000,-1.179596976
408.32050,0.04118065471
408.32100,-0.264013753
408.32150,-0.8744025684
408.32200,-0.5692081607
408.32250,0.04118065471
408.32300,0.04118065471
408.32350,-0.264013753
408.32400,-0.8744025684
408.32450,-0.264013753
408.32500,0.9567638778
408.32550,1.567152693
408.32600,1.261958286
408.32650,0.04118065471
408.32700,0.04118065471
408.32750,0.3463750624
408.32800,0.9567638778
408.32850,0.3463750624
408.32900,-0.8744025684
408.32950,-1.484791384
408.33000,-0.5692081607
408.33050,1.261958286
408.33100,3.093124732
408.33150,3.093124732
408.33200,2.482735916
408.33250,2.482735916
408.33300,2.787930324
408.33350,2.787930324
408.33400,2.482735916
408.33450,3.703513547
408.33500,6.145068809
408.33550,7.976235255
408.33600,7.976235255
408.33650,6.450263216
408.33700,4.61909677
408.33750,3.093124732
408.33800,2.177541509
408.33850,1.567152693
408.33900,1.872347101
408.33950,1.261958286
408.34000,-0.264013753
408.34050,-2.095180199
408.34100,-2.400374607
408.34150,-2.095180199
408.34200,-2.095180199
408.34250,-2.705569015
408.34300,-3.010763422
408.34350,-2.400374607
408.34400,-2.095180199
408.34450,-2.400374607
408.34500,-3.010763422
408.34550,-3.31595783
408.34600,-3.010763422
408.34650,-2.705569015
408.34700,-2.095180199
408.34750,-1.789985791
408.34800,-0.5692081607
408.34850,0.6515694701
408.34900,2.787930324
408.34950,4.008707955
408.35000,3.703513547
408.35050,2.787930324
408.35100,1.872347101
408.35150,0.6515694701
408.35200,-0.5692081607
408.35250,-2.095180199
408.35300,-2.095180199
408.35350,-0.264013753
408.35400,2.177541509
408.35450,4.008707955
408.35500,4.313902363
408.35550,3.093124732
408.35600,0.6515694701
408.35650,-2.095180199
408.35700,-3.621152238
408.35750,-3.621152238
408.35800,-2.095180199
408.35850,-2.095180199
408.35900,-3.621152238
408.35950,-4.841929869
408.36000,-3.010763422
408.36050,0.6515694701
408.36100,2.482735916
408.36150,0.3463750624
408.36200,-3.010763422
408.36250,-4.231541053
408.36300,-3.31595783
408.36350,-4.231541053
408.36400,-6.673096315
408.36450,-7.893873946
408.36500,-6.062707499
408.36550,-3.31595783
408.36600,-2.400374607
408.36650,-2.400374607
408.36700,-1.179596976
408.36750,1.261958286
408.36800,3.398319139
408.36850,4.61909677
408.36900,5.534679993
408.36950,6.145068809
408.37000,7.060652032
408.37050,11.02817933
408.37100,19.87881716
408.37150,30.56062142
408.37200,33.00217669
408.37250,20.79440038
408.37300,-0.264013753
408.37350,-19.18606703
408.37400,-26.51073282
408.37450,-23.15359433
408.37500,-16.13412295
408.37550,-10.33542921
408.37600,-6.367901907
408.37650,-3.010763422
408.37700,-1.179596976
408.37750,-1.484791384
408.37800,-3.010763422
408.37850,-3.621152238
408.37900,-3.010763422
408.37950,-1.789985791
408.38000,-1.179596976
408.38050,-1.179596976
408.38100,-1.789985791
408.38150,-2.705569015
408.38200,-3.31595783
408.38250,-3.621152238
408.38300,-2.705569015
408.38350,-1.179596976
408.38400,0.3463750624
408.38450,0.3463750624
408.38500,-1.179596976
408.38550,-3.31595783
408.38600,-3.010763422
408.38650,-1.789985791
408.38700,-1.484791384
408.38750,-1.789985791
408.38800,-0.264013753
408.38850,2.482735916
408.38900,3.703513547
408.38950,1.872347101
408.39000,0.04118065471
408.39050,0.9567638778
408.39100,3.398319139
408.39150,4.008707955
408.39200,2.482735916
408.39250,1.261958286
408.39300,1.567152693
408.39350,2.787930324
408.39400,3.703513547
408.39450,3.703513547
408.39500,3.093124732
408.39550,1.567152693
408.39600,0.04118065471
408.39650,0.04118065471
408.39700,0.6515694701
408.39750,1.872347101
408.39800,2.482735916
408.39850,3.093124732
408.39900,3.093124732
408.39950,1.872347101
408.40000,0.3463750624
408.40050,0.04118065471
408.40100,0.9567638778
408.40150,2.787930324
408.40200,3.398319139
408.40250,2.482735916
408.40300,0.04118065471
408.40350,-2.095180199
408.40400,-3.621152238
408.40450,-2.705569015
408.40500,-1.484791384
408.40550,-2.095180199
408.40600,-3.621152238
408.40650,-3.31595783
408.40700,-0.8744025684
408.40750,0.04118065471
408.40800,-1.179596976
408.40850,-3.010763422
408.40900,-2.705569015
408.40950,-0.5692081607
408.41000,0.3463750624
408.41050,0.3463750624
408.41100,1.567152693
408.41150,4.313902363
408.41200,5.839874401
408.41250,5.229485586
408.41300,3.398319139
408.41350,3.093124732
408.41400,3.398319139
408.41450,3.703513547
408.41500,2.787930324
408.41550,1.261958286
408.41600,0.04118065471
408.41650,0.04118065471
408.41700,1.261958286
408.41750,2.177541509
408.41800,1.567152693
408.41850,0.6515694701
408.41900,0.6515694701
408.41950,2.482735916
408.42000,3.703513547
408.42050,3.703513547
408.42100,2.482735916
408.42150,1.872347101
408.42200,1.261958286
408.42250,-0.8744025684
408.42300,-4.841929869
408.42350,-6.978290722
408.42400,-5.757513092
408.42450,-3.010763422
408.42500,-1.484791384
408.42550,-1.789985791
408.42600,-1.789985791
408.42650,-1.484791384
408.42700,-2.705569015
408.42750,-4.231541053
408.42800,-4.536735461
408.42850,-2.705569015
408.42900,-0.5692081607
408.42950,0.9567638778
408.43000,2.787930324
408.43050,4.008707955
408.43100,2.787930324
408.43150,0.3463750624
408.43200,0.3463750624
408.43250,3.093124732
408.43300,4.313902363
408.43350,1.872347101
408.43400,-1.179596976
408.43450,-2.095180199
408.43500,-1.179596976
408.43550,-1.179596976
408.43600,-1.179596976
408.43650,0.6515694701
408.43700,3.398319139
408.43750,3.703513547
408.43800,2.177541509
408.43850,1.872347101
408.43900,4.008707955
408.43950,4.924291178
408.44000,2.482735916
408.44050,0.04118065471
408.44100,-0.5692081607
408.44150,-0.264013753
408.44200,-0.8744025684
408.44250,-2.400374607
408.44300,-2.400374607
408.44350,-1.179596976
408.44400,0.04118065471
408.44450,0.6515694701
408.44500,2.482735916
408.44550,3.703513547
408.44600,3.093124732
408.44650,0.9567638778
408.44700,-1.179596976
408.44750,-1.789985791
408.44800,-2.095180199
408.44850,-3.621152238
408.44900,-5.757513092
408.44950,-7.588679538
408.45000,-6.978290722
408.45050,-4.231541053
408.45100,-1.484791384
408.45150,-0.5692081607
408.45200,-1.179596976
408.45250,-1.484791384
408.45300,-0.5692081607
408.45350,-0.264013753
408.45400,-1.789985791
408.45450,-3.010763422
408.45500,-1.484791384
408.45550,0.6515694701
408.45600,0.9567638778
408.45650,-1.789985791
408.45700,-3.31595783
408.45750,-1.789985791
408.45800,0.6515694701
408.45850,1.261958286
408.45900,0.3463750624
408.45950,0.04118065471
408.46000,0.04118065471
408.46050,0.04118065471
408.46100,-0.5692081607
408.46150,-0.8744025684
408.46200,-0.8744025684
408.46250,-1.179596976
408.46300,0.04118065471
408.46350,2.482735916
408.46400,4.924291178
408.46450,4.313902363
408.46500,1.567152693
408.46550,-0.264013753
408.46600,-0.8744025684
408.46650,0.04118065471
408.46700,0.6515694701
408.46750,0.6515694701
408.46800,-0.8744025684
408.46850,-3.31595783
408.46900,-3.926346645
408.46950,-2.095180199
408.47000,-0.8744025684
408.47050,-1.789985791
408.47100,-1.789985791
408.47150,0.04118065471
408.47200,2.177541509
408.47250,1.261958286
408.47300,-1.179596976
408.47350,-2.095180199
408.47400,-0.8744025684
408.47450,0.04118065471
408.47500,0.04118065471
408.47550,0.04118065471
408.47600,0.04118065471
408.47650,0.04118065471
408.47700,1.872347101
408.47750,4.61909677
408.47800,6.145068809
408.47850,3.398319139
408.47900,-1.179596976
408.47950,-3.31595783
408.48000,-1.484791384
408.48050,0.9567638778
408.48100,1.261958286
408.48150,0.04118065471
408.48200,-1.484791384
408.48250,-2.095180199
408.48300,-1.789985791
408.48350,-0.5692081607
408.48400,0.04118065471
408.48450,0.04118065471
408.48500,-1.179596976
408.48550,-2.095180199
408.48600,-2.400374607
408.48650,-2.095180199
408.48700,-2.705569015
408.48750,-2.705569015
408.48800,-2.400374607
408.48850,-1.484791384
408.48900,-0.264013753
408.48950,0.9567638778
408.49000,2.787930324
408.49050,4.313902363
408.49100,4.008707955
408.49150,2.177541509
408.49200,0.3463750624
408.49250,0.04118065471
408.49300,1.261958286
408.49350,2.177541509
408.49400,1.872347101
408.49450,1.261958286
408.49500,1.872347101
408.49550,3.398319139
408.49600,5.229485586
408.49650,6.145068809
408.49700,5.534679993
408.49750,4.008707955
408.49800,2.482735916
408.49850,2.482735916
408.49900,3.398319139
408.49950,3.703513547
408.50000,2.482735916
408.50050,0.3463750624
408.50100,-0.5692081607
408.50150,-0.5692081607
408.50200,-0.5692081607
408.50250,-1.179596976
408.50300,-1.484791384
408.50350,-1.179596976
408.50400,-0.8744025684
408.50450,-0.264013753
408.50500,0.04118065471
408.50550,0.3463750624
408.50600,-0.264013753
408.50650,-1.789985791
408.50700,-3.926346645
408.50750,-4.536735461
408.50800,-3.621152238
408.50850,-1.789985791
408.50900,-0.264013753
408.50950,-0.264013753
408.51000,-0.8744025684
408.51050,-1.179596976
408.51100,-0.264013753
408.51150,0.04118065471
408.51200,0.04118065471
408.51250,0.04118065471
408.51300,0.3463750624
408.51350,0.3463750624
408.51400,0.04118065471
408.51450,0.04118065471
408.51500,1.261958286
408.51550,2.482735916
408.51600,1.261958286
408.51650,-1.179596976
408.51700,-2.400374607
408.51750,-1.484791384
408.51800,-1.179596976
408.51850,-2.400374607
408.51900,-1.789985791
408.51950,1.567152693
408.52000,4.61909677
408.52050,3.093124732
408.52100,-0.264013753
408.52150,-1.484791384
408.52200,0.04118065471
408.52250,0.3463750624
408.52300,-1.789985791
408.52350,-4.841929869
408.52400,-4.841929869
408.52450,-2.400374607
408.52500,0.04118065471
408.52550,0.3463750624
408.52600,0.04118065471
408.52650,-0.264013753
408.52700,0.6515694701
408.52750,2.482735916
408.52800,3.093124732
408.52850,2.177541509
408.52900,0.6515694701
408.52950,-0.264013753
408.53000,-2.095180199
408.53050,-3.621152238
408.53100,-3.31595783
408.53150,-0.8744025684
408.53200,0.9567638778
408.53250,0.3463750624
408.53300,-1.179596976
408.53350,-2.400374607
408.53400,-1.789985791
408.53450,-0.5692081607
408.53500,0.6515694701
408.53550,0.3463750624
408.53600,-2.095180199
408.53650,-5.452318684
408.53700,-5.452318684
408.53750,-0.8744025684
408.53800,2.787930324
408.53850,1.872347101
408.53900,-1.789985791
408.53950,-3.621152238
408.54000,-1.484791384
408.54050,0.3463750624
408.54100,0.04118065471
408.54150,-1.789985791
408.54200,-3.926346645
408.54250,-4.841929869
408.54300,-4.841929869
408.54350,-3.31595783
408.54400,-2.095180199
408.54450,-2.400374607
408.54500,-3.31595783
408.54550,-2.705569015
408.54600,0.04118065471
408.54650,2.787930324
408.54700,3.398319139
408.54750,2.482735916
408.54800,1.872347101
408.54850,1.261958286
408.54900,0.04118065471
408.54950,-1.789985791
408.55000,-2.400374607
408.55050,-1.789985791
408.55100,-0.8744025684
408.55150,-1.484791384
408.55200,-2.095180199
408.55250,-0.8744025684
408.55300,1.261958286
408.55350,3.703513547
408.55400,6.145068809
408.55450,7.976235255
408.55500,8.58662407
408.55550,6.450263216
408.55600,3.093124732
408.55650,1.567152693
408.55700,1.567152693
408.55750,1.567152693
408.55800,0.04118065471
408.55850,-1.179596976
408.55900,0.04118065471
408.55950,2.177541509
408.56000,3.398319139
408.56050,2.482735916
408.56100,0.9567638778
408.56150,0.04118065471
408.56200,-1.179596976
408.56250,-1.789985791
408.56300,-0.264013753
408.56350,1.567152693
408.56400,2.177541509
408.56450,0.9567638778
408.56500,0.3463750624
408.56550,1.261958286
408.56600,2.482735916
408.56650,2.177541509
408.56700,0.6515694701
408.56750,0.3463750624
408.56800,0.9567638778
408.56850,0.9567638778
408.56900,0.3463750624
408.56950,0.04118065471
408.57000,0.04118065471
408.57050,0.6515694701
408.57100,1.261958286
408.57150,0.9567638778
408.57200,0.6515694701
408.57250,0.6515694701
408.57300,1.872347101
408.57350,3.398319139
408.57400,3.398319139
408.57450,2.177541509
408.57500,0.9567638778
408.57550,1.567152693
408.57600,3.093124732
408.57650,3.093124732
408.57700,1.567152693
408.57750,0.04118065471
408.57800,0.3463750624
408.57850,1.872347101
408.57900,3.398319139
408.57950,3.398319139
408.58000,1.261958286
408.58050,-1.789985791
408.58100,-4.231541053
408.58150,-3.926346645
408.58200,-3.010763422
408.58250,-2.705569015
408.58300,-3.926346645
408.58350,-4.536735461
408.58400,-2.095180199
408.58450,1.872347101
408.58500,5.839874401
408.58550,6.450263216
408.58600,3.093124732
408.58650,-1.484791384
408.58700,-4.231541053
408.58750,-2.705569015
408.58800,0.3463750624
408.58850,1.872347101
408.58900,0.9567638778
408.58950,0.04118065471
408.59000,0.04118065471
408.59050,0.3463750624
408.59100,0.3463750624
408.59150,-0.264013753
408.59200,0.04118065471
408.59250,2.482735916
408.59300,5.534679993
408.59350,6.755457624
408.59400,5.229485586
408.59450,2.482735916
408.59500,0.6515694701
408.59550,0.3463750624
408.59600,0.6515694701
408.59650,0.9567638778
408.59700,0.9567638778
408.59750,0.9567638778
408.59800,0.04118065471
408.59850,-0.5692081607
408.59900,0.04118065471
408.59950,1.261958286
408.60000,2.177541509
408.60050,0.3463750624
408.60100,-2.400374607
408.60150,-3.621152238
408.60200,-3.010763422
408.60250,-1.484791384
408.60300,-0.264013753
408.60350,0.04118065471
408.60400,-1.179596976
408.60450,-3.010763422
408.60500,-3.010763422
408.60550,-1.179596976
408.60600,-0.5692081607
408.60650,-2.705569015
408.60700,-4.536735461
408.60750,-2.705569015
408.60800,0.6515694701
408.60850,1.567152693
408.60900,0.04118065471
408.60950,-0.264013753
408.61000,0.3463750624
408.61050,0.6515694701
408.61100,-0.8744025684
408.61150,-1.484791384
408.61200,-0.5692081607
408.61250,0.3463750624
408.61300,0.6515694701
408.61350,1.261958286
408.61400,1.567152693
408.61450,0.6515694701
408.61500,-0.8744025684
408.61550,-0.8744025684
408.61600,0.6515694701
408.61650,1.872347101
408.61700,1.872347101
408.61750,1.872347101
408.61800,1.567152693
408.61850,0.04118065471
408.61900,-3.621152238
408.61950,-5.452318684
408.62000,-4.231541053
408.62050,-2.095180199
408.62100,-1.179596976
408.62150,-1.179596976
408.62200,-0.8744025684
408.62250,-0.264013753
408.62300,-0.264013753
408.62350,0.04118065471
408.62400,0.6515694701
408.62450,1.567152693
408.62500,1.261958286
408.62550,0.3463750624
408.62600,-0.264013753
408.62650,-1.179596976
408.62700,-2.705569015
408.62750,-3.621152238
408.62800,-3.31595783
408.62850,-2.095180199
408.62900,-0.8744025684
408.62950,0.04118065471
408.63000,0.3463750624
408.63050,0.6515694701
408.63100,0.9567638778
408.63150,0.6515694701
408.63200,0.04118065471
408.63250,-1.484791384
408.63300,-2.705569015
408.63350,-3.31595783
408.63400,-2.400374607
408.63450,-0.5692081607
408.63500,0.6515694701
408.63550,0.6515694701
408.63600,0.04118065471
408.63650,-0.264013753
408.63700,0.04118065471
408.63750,0.9567638778
408.63800,2.177541509
408.63850,2.482735916
408.63900,0.9567638778
408.63950,-0.5692081607
408.64000,-1.484791384
408.64050,-0.8744025684
408.64100,0.04118065471
408.64150,0.3463750624
408.64200,0.04118065471
408.64250,-0.5692081607
408.64300,0.04118065471
408.64350,0.6515694701
408.64400,1.567152693
408.64450,1.872347101
408.64500,1.261958286
408.64550,0.04118065471
408.64600,-1.484791384
408.64650,-2.400374607
408.64700,-2.095180199
408.64750,-0.5692081607
408.64800,0.04118065471
408.64850,-0.264013753
408.64900,-0.5692081607
408.64950,-0.264013753
408.65000,0.04118065471
408.65050,0.04118065471
408.65100,-1.179596976
408.65150,-3.010763422
408.65200,-3.621152238
408.65250,-2.095180199
408.65300,0.04118065471
408.65350,0.6515694701
408.65400,-0.264013753
408.65450,-1.484791384
408.65500,-0.5692081607
408.65550,0.6515694701
408.65600,0.3463750624
408.65650,-1.179596976
408.65700,-3.010763422
408.65750,-3.31595783
408.65800,-3.926346645
408.65850,-4.841929869
408.65900,-4.536735461
408.65950,-1.484791384
408.66000,1.261958286
408.66050,2.787930324
408.66100,3.093124732
408.66150,3.703513547
408.66200,4.924291178
408.66250,5.229485586
408.66300,4.313902363
408.66350,2.787930324
408.66400,1.261958286
408.66450,-0.264013753
408.66500,-1.484791384
408.66550,-2.095180199
408.66600,-1.789985791
408.66650,-2.400374607
408.66700,-3.621152238
408.66750,-4.536735461
408.66800,-3.010763422
408.66850,-0.8744025684
408.66900,0.04118065471
408.66950,-0.264013753
408.67000,0.04118065471
408.67050,1.872347101
408.67100,3.093124732
408.67150,1.872347101
408.67200,0.04118065471
408.67250,-0.264013753
408.67300,0.04118065471
408.67350,0.04118065471
408.67400,-0.264013753
408.67450,0.9567638778
408.67500,3.703513547
408.67550,6.145068809
408.67600,7.060652032
408.67650,7.060652032
408.67700,6.755457624
408.67750,5.229485586
408.67800,3.093124732
408.67850,1.872347101
408.67900,1.567152693
408.67950,1.261958286
408.68000,0.9567638778
408.68050,1.261958286
408.68100,1.872347101
408.68150,2.177541509
408.68200,1.567152693
408.68250,0.6515694701
408.68300,-0.8744025684
408.68350,-3.31595783
408.68400,-6.062707499
408.68450,-6.062707499
408.68500,-2.705569015
408.68550,1.261958286
408.68600,2.787930324
408.68650,1.567152693
408.68700,0.04118065471
408.68750,0.04118065471
408.68800,0.9567638778
408.68850,3.093124732
408.68900,4.313902363
408.68950,2.787930324
408.69000,0.04118065471
408.69050,-2.400374607
408.69100,-2.705569015
408.69150,-1.179596976
408.69200,-0.264013753
408.69250,0.04118065471
408.69300,-0.264013753
408.69350,-1.179596976
408.69400,-2.095180199
408.69450,-1.484791384
408.69500,0.04118065471
408.69550,0.04118065471
408.69600,-2.705569015
408.69650,-5.147124276
408.69700,-4.231541053
408.69750,-0.264013753
408.69800,2.482735916
408.69850,2.482735916
408.69900,0.9567638778
408.69950,0.3463750624
408.70000,0.04118065471
408.70050,-0.5692081607
408.70100,-0.8744025684
408.70150,0.04118065471
408.70200,1.872347101
408.70250,1.567152693
408.70300,-0.5692081607
408.70350,-2.705569015
408.70400,-3.010763422
408.70450,-2.095180199
408.70500,-2.400374607
408.70550,-3.010763422
408.70600,-2.705569015
408.70650,-2.095180199
408.70700,-3.010763422
408.70750,-3.926346645
408.70800,-2.095180199
408.70850,2.482735916
408.70900,4.61909677
408.70950,0.04118065471
408.71000,-7.588679538
408.71050,-10.94581802
408.71100,-7.28348513
408.71150,-1.789985791
408.71200,0.04118065471
408.71250,-0.264013753
408.71300,0.3463750624
408.71350,3.703513547
408.71400,6.755457624
408.71450,6.755457624
408.71500,5.229485586
408.71550,4.924291178
408.71600,5.534679993
408.71650,5.839874401
408.71700,4.61909677
408.71750,2.787930324
408.71800,2.177541509
408.71850,2.177541509
408.71900,1.261958286
408.71950,-0.5692081607
408.72000,-3.31595783
408.72050,-4.841929869
408.72100,-3.31595783
408.72150,1.567152693
408.72200,7.671040847
408.72250,9.807401701
408.72300,6.450263216
408.72350,1.261958286
408.72400,-0.8744025684
408.72450,0.04118065471
408.72500,1.567152693
408.72550,1.261958286
408.72600,0.04118065471
408.72650,0.04118065471
408.72700,2.787930324
408.72750,6.145068809
408.72800,6.755457624
408.72850,2.177541509
408.72900,-5.147124276
408.72950,-11.25101243
408.73000,-13.08217888
408.73050,-11.86140125
408.73100,-9.419845984
408.73150,-6.673096315
408.73200,-2.705569015
408.73250,1.567152693
408.73300,5.839874401
408.73350,9.807401701
408.73400,13.46973459
408.73450,14.69051222
408.73500,12.24895696
408.73550,7.36584644
408.73600,2.482735916
408.73650,-0.8744025684
408.73700,-3.31595783
408.73750,-3.621152238
408.73800,-1.789985791
408.73850,0.3463750624
408.73900,1.872347101
408.73950,2.787930324
408.74000,3.703513547
408.74050,3.093124732
408.74100,-0.264013753
408.74150,-4.841929869
408.74200,-6.062707499
408.74250,-3.010763422
408.74300,0.3463750624
408.74350,0.9567638778
408.74400,-1.789985791
408.74450,-6.062707499
408.74500,-10.0302348
408.74550,-11.25101243
408.74600,-8.809457169
408.74650,-4.536735461
408.74700,-3.010763422
408.74750,-5.757513092
408.74800,-9.419845984
408.74850,-10.64062361
408.74900,-9.114651576
408.74950,-7.588679538
408.75000,-5.757513092
408.75050,-2.095180199
408.75100,2.787930324
408.75150,5.839874401
408.75200,4.924291178
408.75250,3.703513547
408.75300,4.924291178
408.75350,7.060652032
408.75400,6.755457624
408.75450,4.008707955
408.75500,1.567152693
408.75550,0.9567638778
408.75600,0.9567638778
408.75650,0.9567638778
408.75700,0.6515694701
408.75750,0.6515694701
408.75800,2.177541509
408.75850,5.534679993
408.75900,8.281429663
408.75950,6.145068809
408.76000,-0.264013753
408.76050,-5.452318684
408.76100,-4.231541053
408.76150,0.04118065471
408.76200,0.9567638778
408.76250,-0.5692081607
408.76300,0.04118065471
408.76350,3.398319139
408.76400,5.839874401
408.76450,4.61909677
408.76500,0.9567638778
408.76550,-3.010763422
408.76600,-7.588679538
408.76650,-10.94581802
408.76700,-10.33542921
408.76750,-6.062707499
408.76800,-3.010763422
408.76850,-3.621152238
408.76900,-6.062707499
408.76950,-6.673096315
408.77000,-6.367901907
408.77050,-6.367901907
408.77100,-6.367901907
408.77150,-4.536735461
408.77200,-2.400374607
408.77250,-1.484791384
408.77300,-1.789985791
408.77350,-0.8744025684
408.77400,0.3463750624
408.77450,1.567152693
408.77500,1.567152693
408.77550,0.3463750624
408.77600,0.04118065471
408.77650,0.04118065471
408.77700,1.872347101
408.77750,4.313902363
408.77800,7.060652032
408.77850,9.197012886
408.77900,8.891818478
408.77950,5.839874401
408.78000,1.567152693
408.78050,-0.8744025684
408.78100,-0.8744025684
408.78150,0.04118065471
408.78200,0.9567638778
408.78250,1.567152693
408.78300,3.093124732
408.78350,3.703513547
408.78400,2.177541509
408.78450,0.6515694701
408.78500,1.261958286
408.78550,3.093124732
408.78600,2.787930324
408.78650,0.3463750624
408.78700,-1.484791384
408.78750,-2.095180199
408.78800,-2.095180199
408.78850,-1.789985791
408.78900,-0.264013753
408.78950,1.261958286
408.79000,2.177541509
408.79050,1.261958286
408.79100,1.567152693
408.79150,4.313902363
408.79200,7.36584644
408.79250,7.060652032
408.79300,4.313902363
408.79350,1.261958286
408.79400,0.6515694701
408.79450,1.872347101
408.79500,3.093124732
408.79550,3.398319139
408.79600,2.787930324
408.79650,1.872347101
408.79700,0.9567638778
408.79750,0.6515694701
408.79800,0.3463750624
408.79850,0.04118065471
408.79900,0.04118065471
408.79950,0.3463750624
408.80000,0.6515694701
408.80050,0.3463750624
408.80100,-0.264013753
408.80150,-1.789985791
408.80200,-3.621152238
408.80250,-4.231541053
408.80300,-3.31595783
408.80350,-1.789985791
408.80400,-0.8744025684
408.80450,-1.179596976
408.80500,-2.095180199
408.80550,-2.705569015
408.80600,-3.621152238
408.80650,-5.147124276
408.80700,-6.673096315
408.80750,-5.757513092
408.80800,-2.705569015
408.80850,0.9567638778
408.80900,3.398319139
408.80950,2.787930324
408.81000,0.04118065471
408.81050,-2.705569015
408.81100,-3.31595783
408.81150,-2.095180199
408.81200,0.04118065471
408.81250,1.872347101
408.81300,3.398319139
408.81350,4.313902363
408.81400,4.313902363
408.81450,3.398319139
408.81500,3.093124732
408.81550,4.008707955
408.81600,4.313902363
408.81650,3.398319139
408.81700,0.9567638778
408.81750,-0.264013753
408.81800,0.04118065471
408.81850,1.872347101
408.81900,3.398319139
408.81950,3.093124732
408.82000,2.482735916
408.82050,2.482735916
408.82100,3.093124732
408.82150,2.482735916
408.82200,0.04118065471
408.82250,-2.095180199
408.82300,-2.400374607
408.82350,-1.179596976
408.82400,-1.484791384
408.82450,-3.621152238
408.82500,-6.367901907
408.82550,-7.28348513
408.82600,-5.757513092
408.82650,-2.705569015
408.82700,-0.5692081607
408.82750,0.04118065471
408.82800,0.04118065471
408.82850,0.04118065471
408.82900,0.6515694701
408.82950,0.9567638778
408.83000,0.3463750624
408.83050,0.04118065471
408.83100,0.6515694701
408.83150,1.567152693
408.83200,1.567152693
408.83250,3.093124732
408.83300,6.450263216
408.83350,9.502207293
408.83400,9.807401701
408.83450,7.976235255
408.83500,6.145068809
408.83550,3.703513547
408.83600,0.04118065471
408.83650,-1.789985791
408.83700,-0.5692081607
408.83750,2.177541509
408.83800,3.093124732
408.83850,1.261958286
408.83900,-0.264013753
408.83950,-1.179596976
408.84000,-1.179596976
408.84050,-2.095180199
408.84100,-3.010763422
408.84150,-3.31595783
408.84200,-2.400374607
408.84250,-0.8744025684
408.84300,0.6515694701
408.84350,0.9567638778
408.84400,0.9567638778
408.84450,2.482735916
408.84500,4.313902363
408.84550,4.313902363
408.84600,1.872347101
408.84650,-0.264013753
408.84700,-1.179596976
408.84750,-1.484791384
408.84800,-1.789985791
408.84850,-1.179596976
408.84900,0.6515694701
408.84950,2.177541509
408.85000,1.261958286
408.85050,-1.179596976
408.85100,-3.621152238
408.85150,-3.926346645
408.85200,-2.400374607
408.85250,0.6515694701
408.85300,2.787930324
408.85350,1.261958286
408.85400,-1.789985791
408.85450,-2.400374607
408.85500,0.6515694701
408.85550,3.398319139
408.85600,2.787930324
408.85650,0.9567638778
408.85700,0.04118065471
408.85750,0.04118065471
408.85800,-0.264013753
408.85850,0.04118065471
408.85900,2.177541509
408.85950,4.008707955
408.86000,3.093124732
408.86050,0.04118065471
408.86100,-1.179596976
408.86150,-0.5692081607
408.86200,0.04118065471
408.86250,-1.179596976
408.86300,-3.621152238
408.86350,-4.841929869
408.86400,-4.231541053
408.86450,-2.095180199
408.86500,-0.8744025684
408.86550,-1.179596976
408.86600,-1.484791384
408.86650,-1.179596976
408.86700,-1.789985791
408.86750,-3.926346645
408.86800,-5.757513092
408.86850,-5.452318684
408.86900,-4.536735461
408.86950,-4.536735461
408.87000,-5.147124276
408.87050,-5.147124276
408.87100,-3.926346645
408.87150,-2.095180199
408.87200,0.04118065471
408.87250,3.703513547
408.87300,5.839874401
408.87350,4.008707955
408.87400,0.3463750624
408.87450,-1.484791384
408.87500,-1.179596976
408.87550,-1.179596976
408.87600,-1.484791384
408.87650,-1.179596976
408.87700,-0.5692081607
408.87750,-1.484791384
408.87800,-3.010763422
408.87850,-3.926346645
408.87900,-4.231541053
408.87950,-5.757513092
408.88000,-6.978290722
408.88050,-5.757513092
408.88100,-2.705569015
408.88150,1.261958286
408.88200,5.839874401
408.88250,9.807401701
408.88300,8.891818478
408.88350,1.567152693
408.88400,-6.062707499
408.88450,-6.978290722
408.88500,-2.095180199
408.88550,0.9567638778
408.88600,0.04118065471
408.88650,-2.705569015
408.88700,-4.231541053
408.88750,-4.841929869
408.88800,-5.147124276
408.88850,-3.621152238
408.88900,-1.179596976
408.88950,-0.5692081607
408.89000,-2.095180199
408.89050,-2.095180199
408.89100,0.04118065471
408.89150,2.787930324
408.89200,2.787930324
408.89250,1.872347101
408.89300,2.787930324
408.89350,5.229485586
408.89400,6.450263216
408.89450,6.450263216
408.89500,5.839874401
408.89550,4.61909677
408.89600,3.398319139
408.89650,3.093124732
408.89700,2.482735916
408.89750,-1.484791384
408.89800,-8.199068353
408.89850,-11.25101243
408.89900,-8.199068353
408.89950,-2.705569015
408.90000,-0.5692081607
408.90050,-2.095180199
408.90100,-2.400374607
408.90150,0.04118065471
408.90200,3.703513547
408.90250,4.924291178
408.90300,4.008707955
408.90350,2.177541509
408.90400,0.04118065471
408.90450,-2.095180199
408.90500,-2.095180199
408.90550,-0.264013753
408.90600,0.04118065471
408.90650,-0.8744025684
408.90700,-1.484791384
408.90750,0.04118065471
408.90800,1.567152693
408.90850,0.9567638778
408.90900,0.04118065471
408.90950,0.3463750624
408.91000,2.787930324
408.91050,4.008707955
408.91100,3.398319139
408.91150,2.482735916
408.91200,2.177541509
408.91250,3.093124732
408.91300,4.313902363
408.91350,4.008707955
408.91400,1.872347101
408.91450,0.04118065471
408.91500,0.04118065471
408.91550,2.787930324
408.91600,4.313902363
408.91650,4.008707955
408.91700,3.398319139
408.91750,3.703513547
408.91800,3.703513547
408.91850,1.872347101
408.91900,0.04118065471
408.91950,-0.8744025684
408.92000,-2.705569015
408.92050,-4.536735461
408.92100,-3.926346645
408.92150,-0.5692081607
408.92200,1.261958286
408.92250,0.04118065471
408.92300,-1.484791384
408.92350,-0.5692081607
408.92400,0.6515694701
408.92450,0.6515694701
408.92500,-0.264013753
408.92550,-0.264013753
408.92600,-0.5692081607
408.92650,-1.789985791
408.92700,-3.621152238
408.92750,-3.31595783
408.92800,-1.789985791
408.92850,-1.484791384
408.92900,-1.484791384
408.92950,-1.179596976
408.93000,-1.179596976
408.93050,-3.010763422
408.93100,-5.452318684
408.93150,-5.452318684
408.93200,-3.31595783
408.93250,-1.484791384
408.93300,-1.179596976
408.93350,-2.095180199
408.93400,-3.621152238
408.93450,-5.147124276
408.93500,-3.926346645
408.93550,0.04118065471
408.93600,5.534679993
408.93650,9.807401701
408.93700,11.94376256
408.93750,12.55415137
408.93800,10.11259611
408.93850,5.534679993
408.93900,1.261958286
408.93950,0.3463750624
408.94000,1.567152693
408.94050,2.177541509
408.94100,1.567152693
408.94150,0.9567638778
408.94200,0.6515694701
408.94250,0.3463750624
408.94300,0.04118065471
408.94350,0.04118065471
408.94400,0.04118065471
408.94450,0.04118065471
408.94500,0.04118065471
408.94550,0.04118065471
408.94600,-0.264013753
408.94650,-1.179596976
408.94700,-1.484791384
408.94750,-1.484791384
408.94800,-2.095180199
408.94850,-3.010763422
408.94900,-3.010763422
408.94950,-1.789985791
408.95000,-1.179596976
408.95050,-1.484791384
408.95100,-1.179596976
408.95150,0.3463750624
408.95200,1.261958286
408.95250,0.3463750624
408.95300,0.04118065471
408.95350,0.9567638778
408.95400,2.482735916
408.95450,2.177541509
408.95500,0.9567638778
408.95550,1.261958286
408.95600,2.482735916
408.95650,3.398319139
408.95700,2.787930324
408.95750,2.177541509
408.95800,1.872347101
408.95850,1.567152693
408.95900,1.567152693
408.95950,2.177541509
408.96000,2.177541509
408.96050,0.04118065471
408.96100,-3.010763422
408.96150,-4.536735461
408.96200,-3.926346645
408.96250,-4.231541053
408.96300,-6.062707499
408.96350,-6.673096315
408.96400,-3.621152238
408.96450,0.04118065471
408.96500,0.9567638778
408.96550,0.04118065471
408.96600,1.261958286
408.96650,4.924291178
408.96700,7.060652032
408.96750,3.703513547
408.96800,-1.789985791
408.96850,-4.841929869
408.96900,-3.926346645
408.96950,-1.484791384
408.97000,-0.5692081607
408.97050,-0.5692081607
408.97100,-0.264013753
408.97150,0.3463750624
408.97200,0.9567638778
408.97250,0.6515694701
408.97300,0.3463750624
408.97350,0.6515694701
408.97400,1.872347101
408.97450,2.787930324
408.97500,2.177541509
408.97550,0.6515694701
408.97600,0.6515694701
408.97650,2.787930324
408.97700,4.008707955
408.97750,1.567152693
408.97800,-0.8744025684
408.97850,-0.264013753
408.97900,3.703513547
408.97950,5.839874401
408.98000,3.093124732
408.98050,0.04118065471
408.98100,-0.264013753
408.98150,1.261958286
408.98200,0.9567638778
408.98250,-1.179596976
408.98300,-2.705569015
408.98350,-1.179596976
408.98400,0.04118065471
408.98450,0.3463750624
408.98500,-0.264013753
408.98550,-1.179596976
408.98600,-1.789985791
408.98650,-2.705569015
408.98700,-3.31595783
408.98750,-3.31595783
408.98800,-3.31595783
408.98850,-4.536735461
408.98900,-6.367901907
408.98950,-6.673096315
408.99000,-5.147124276
408.99050,-2.705569015
408.99100,-0.264013753
408.99150,0.04118065471
408.99200,-0.8744025684
408.99250,-2.400374607
408.99300,-1.789985791
408.99350,0.04118065471
408.99400,1.261958286
408.99450,-0.264013753
408.99500,-3.31595783
408.99550,-3.926346645
408.99600,-1.484791384
408.99650,2.177541509
408.99700,4.61909677
408.99750,5.534679993
408.99800,4.61909677
408.99850,1.872347101
408.99900,-1.179596976
408.99950,-3.31595783
409.00000,-3.010763422
409.00050,-1.179596976
409.00100,0.04118065471
409.00150,0.9567638778
409.00200,1.567152693
409.00250,0.04118065471
409.00300,-2.400374607
409.00350,-3.926346645
409.00400,-3.010763422
409.00450,-0.8744025684
409.00500,0.3463750624
409.00550,0.6515694701
409.00600,1.872347101
409.00650,3.398319139
409.00700,3.398319139
409.00750,1.567152693
409.00800,0.3463750624
409.00850,1.567152693
409.00900,4.313902363
409.00950,5.534679993
409.01000,4.313902363
409.01050,1.567152693
409.01100,0.04118065471
409.01150,0.04118065471
409.01200,1.261958286
409.01250,2.482735916
409.01300,3.093124732
409.01350,2.177541509
409.01400,1.261958286
409.01450,0.04118065471
409.01500,-0.8744025684
409.01550,-0.8744025684
409.01600,0.04118065471
409.01650,1.872347101
409.01700,2.787930324
409.01750,2.482735916
409.01800,1.567152693
409.01850,0.6515694701
409.01900,0.04118065471
409.01950,-0.5692081607
409.02000,-0.8744025684
409.02050,-0.5692081607
409.02100,-0.8744025684
409.02150,-1.484791384
409.02200,-2.095180199
409.02250,-2.095180199
409.02300,-1.484791384
409.02350,-0.5692081607
409.02400,0.3463750624
409.02450,0.3463750624
409.02500,-1.179596976
409.02550,-3.621152238
409.02600,-3.926346645
409.02650,-2.095180199
409.02700,-0.8744025684
409.02750,-1.179596976
409.02800,-3.010763422
409.02850,-4.231541053
409.02900,-4.841929869
409.02950,-5.147124276
409.03000,-3.621152238
409.03050,-0.8744025684
409.03100,0.3463750624
409.03150,0.04118065471
409.03200,0.6515694701
409.03250,4.924291178
409.03300,8.281429663
409.03350,4.924291178
409.03400,-3.010763422
409.03450,-7.893873946
409.03500,-3.926346645
409.03550,3.703513547
409.03600,8.281429663
409.03650,8.58662407
409.03700,7.976235255
409.03750,7.36584644
409.03800,6.145068809
409.03850,4.61909677
409.03900,4.61909677
409.03950,5.229485586
409.04000,4.313902363
409.04050,1.872347101
409.04100,-1.179596976
409.04150,-5.452318684
409.04200,-10.94581802
409.04250,-13.9977621
409.04300,-10.94581802
409.04350,-3.926346645
409.04400,0.6515694701
409.04450,0.6515694701
409.04500,-1.484791384
409.04550,-2.400374607
409.04600,-2.095180199
409.04650,-2.095180199
409.04700,-3.31595783
409.04750,-4.536735461
409.04800,-4.231541053
409.04850,-2.705569015
409.04900,-1.484791384
409.04950,-0.8744025684
409.05000,-1.179596976
409.05050,-1.179596976
409.05100,0.04118065471
409.05150,1.261958286
409.05200,1.567152693
409.05250,0.04118065471
409.05300,-1.789985791
409.05350,-2.400374607
409.05400,-1.484791384
409.05450,0.3463750624
409.05500,2.177541509
409.05550,3.398319139
409.05600,3.093124732
409.05650,1.567152693
409.05700,0.04118065471
409.05750,-0.8744025684
409.05800,0.3463750624
409.05850,4.313902363
409.05900,7.976235255
409.05950,8.58662407
409.06000,6.755457624
409.06050,4.61909677
409.06100,3.398319139
409.06150,2.482735916
409.06200,0.9567638778
409.06250,0.04118065471
409.06300,-0.5692081607
409.06350,-0.8744025684
409.06400,-0.8744025684
409.06450,-0.8744025684
409.06500,-1.179596976
409.06550,-2.095180199
409.06600,-2.705569015
409.06650,-2.400374607
409.06700,-2.705569015
409.06750,-3.621152238
409.06800,-3.010763422
409.06850,-0.264013753
409.06900,1.261958286
409.06950,0.04118065471
409.07000,-2.400374607
409.07050,-3.010763422
409.07100,-1.179596976
409.07150,-0.264013753
409.07200,-0.5692081607
409.07250,-0.8744025684
409.07300,0.04118065471
409.07350,1.261958286
409.07400,3.093124732
409.07450,5.229485586
409.07500,6.755457624
409.07550,6.450263216
409.07600,5.229485586
409.07650,4.61909677
409.07700,4.008707955
409.07750,3.093124732
409.07800,3.398319139
409.07850,4.313902363
409.07900,4.008707955
409.07950,1.872347101
409.08000,0.04118065471
409.08050,0.6515694701
409.08100,1.567152693
409.08150,1.261958286
409.08200,1.261958286
409.08250,3.703513547
409.08300,4.924291178
409.08350,1.261958286
409.08400,-3.926346645
409.08450,-5.757513092
409.08500,-3.010763422
409.08550,-1.179596976
409.08600,-1.789985791
409.08650,-1.179596976
409.08700,0.9567638778
409.08750,1.261958286
409.08800,-1.484791384
409.08850,-4.536735461
409.08900,-4.536735461
409.08950,-3.010763422
409.09000,-2.400374607
409.09050,-1.484791384
409.09100,0.6515694701
409.09150,2.482735916
409.09200,1.872347101
409.09250,0.3463750624
409.09300,0.04118065471
409.09350,0.9567638778
409.09400,1.261958286
409.09450,1.261958286
409.09500,1.567152693
409.09550,0.9567638778
409.09600,0.04118065471
409.09650,-0.264013753
409.09700,0.3463750624
409.09750,0.6515694701
409.09800,0.04118065471
409.09850,-0.264013753
409.09900,0.6515694701
409.09950,0.9567638778
409.10000,-0.5692081607
409.10050,-2.095180199
409.10100,-0.8744025684
409.10150,0.9567638778
409.10200,0.6515694701
409.10250,-1.484791384
409.10300,-3.31595783
409.10350,-3.010763422
409.10400,-2.095180199
409.10450,-0.8744025684
409.10500,0.04118065471
409.10550,0.3463750624
409.10600,-0.5692081607
409.10650,-1.789985791
409.10700,-1.484791384
409.10750,-0.5692081607
409.10800,-1.179596976
409.10850,-1.789985791
409.10900,-1.179596976
409.10950,-0.264013753
409.11000,-1.179596976
409.11050,-3.010763422
409.11100,-3.010763422
409.11150,-1.179596976
409.11200,-0.5692081607
409.11250,-1.179596976
409.11300,-0.264013753
409.11350,2.177541509
409.11400,4.008707955
409.11450,2.482735916
409.11500,0.6515694701
409.11550,1.567152693
409.11600,4.61909677
409.11650,6.450263216
409.11700,4.924291178
409.11750,0.9567638778
409.11800,-2.400374607
409.11850,-3.621152238
409.11900,-0.8744025684
409.11950,3.703513547
409.12000,6.755457624
409.12050,5.839874401
409.12100,3.398319139
409.12150,2.177541509
409.12200,1.567152693
409.12250,0.6515694701
409.12300,-0.8744025684
409.12350,-2.400374607
409.12400,-4.231541053
409.12450,-5.452318684
409.12500,-5.452318684
409.12550,-4.231541053
409.12600,-4.231541053
409.12650,-6.367901907
409.12700,-7.28348513
409.12750,-4.841929869
409.12800,-1.484791384
409.12850,-1.484791384
409.12900,-4.231541053
409.12950,-4.536735461
409.13000,-2.400374607
409.13050,-0.5692081607
409.13100,-1.179596976
409.13150,-2.095180199
409.13200,-0.8744025684
409.13250,0.9567638778
409.13300,0.9567638778
409.13350,-0.264013753
409.13400,-0.8744025684
409.13450,-0.8744025684
409.13500,-0.8744025684
409.13550,-0.8744025684
409.13600,0.04118065471
409.13650,1.261958286
409.13700,0.3463750624
409.13750,-1.789985791
409.13800,-2.400374607
409.13850,-0.264013753
409.13900,1.567152693
409.13950,0.9567638778
409.14000,-0.5692081607
409.14050,-1.179596976
409.14100,-0.8744025684
409.14150,-1.179596976
409.14200,-1.484791384
409.14250,-1.179596976
409.14300,-0.5692081607
409.14350,-0.8744025684
409.14400,-2.095180199
409.14450,-2.705569015
409.14500,-2.095180199
409.14550,-1.179596976
409.14600,-0.8744025684
409.14650,-0.5692081607
409.14700,0.04118065471
409.14750,1.261958286
409.14800,2.177541509
409.14850,2.482735916
409.14900,1.567152693
409.14950,0.3463750624
409.15000,-0.8744025684
409.15050,-1.484791384
409.15100,-0.8744025684
409.15150,0.04118065471
409.15200,0.9567638778
409.15250,0.9567638778
409.15300,1.261958286
409.15350,2.177541509
409.15400,3.398319139
409.15450,2.787930324
409.15500,0.04118065471
409.15550,-3.010763422
409.15600,-4.231541053
409.15650,-0.5692081607
409.15700,5.229485586
409.15750,9.197012886
409.15800,7.060652032
409.15850,-0.264013753
409.15900,-6.673096315
409.15950,-6.978290722
409.16000,-3.010763422
409.16050,-0.264013753
409.16100,-1.789985791
409.16150,-3.621152238
409.16200,-2.400374607
409.16250,0.9567638778
409.16300,3.398319139
409.16350,4.008707955
409.16400,3.703513547
409.16450,3.093124732
409.16500,2.177541509
409.16550,0.9567638778
409.16600,0.6515694701
409.16650,-0.264013753
409.16700,-3.926346645
409.16750,-6.367901907
409.16800,-3.31595783
409.16850,3.703513547
409.16900,8.281429663
409.16950,6.450263216
409.17000,2.177541509
409.17050,0.3463750624
409.17100,1.567152693
409.17150,2.482735916
409.17200,1.567152693
409.17250,0.9567638778
409.17300,0.6515694701
409.17350,0.6515694701
409.17400,0.04118065471
409.17450,-1.789985791
409.17500,-3.621152238
409.17550,-3.31595783
409.17600,0.6515694701
409.17650,5.839874401
409.17700,7.671040847
409.17750,5.229485586
409.17800,3.398319139
409.17850,5.839874401
409.17900,8.58662407
409.17950,6.755457624
409.18000,1.567152693
409.18050,-0.5692081607
409.18100,1.261958286
409.18150,3.398319139
409.18200,2.177541509
409.18250,-0.8744025684
409.18300,-3.010763422
409.18350,-2.400374607
409.18400,-1.484791384
409.18450,-0.8744025684
409.18500,-0.8744025684
409.18550,-0.264013753
409.18600,0.04118065471
409.18650,0.04118065471
409.18700,-1.789985791
409.18750,-3.621152238
409.18800,-3.926346645
409.18850,-2.400374607
409.18900,-0.8744025684
409.18950,-0.264013753
409.19000,-0.5692081607
409.19050,0.04118065471
409.19100,1.261958286
409.19150,1.872347101
409.19200,0.6515694701
409.19250,-0.5692081607
409.19300,-1.484791384
409.19350,-0.5692081607
409.19400,1.567152693
409.19450,4.313902363
409.19500,5.839874401
409.19550,5.839874401
409.19600,5.534679993
409.19650,5.839874401
409.19700,5.839874401
409.19750,4.313902363
409.19800,1.567152693
409.19850,-0.5692081607
409.19900,-1.789985791
409.19950,-3.31595783
409.20000,-4.231541053
409.20050,-3.926346645
409.20100,-1.789985791
409.20150,-0.5692081607
409.20200,-0.8744025684
409.20250,-1.484791384
409.20300,-0.5692081607
409.20350,0.04118065471
409.20400,-0.8744025684
409.20450,-3.31595783
409.20500,-3.31595783
409.20550,-0.8744025684
409.20600,0.3463750624
409.20650,0.04118065471
409.20700,-1.789985791
409.20750,-1.789985791
409.20800,-0.8744025684
409.20850,-0.264013753
409.20900,0.04118065471
409.20950,0.04118065471
409.21000,-0.264013753
409.21050,-0.8744025684
409.21100,-0.5692081607
409.21150,0.6515694701
409.21200,1.261958286
409.21250,0.6515694701
409.21300,0.04118065471
409.21350,2.177541509
409.21400,4.924291178
409.21450,4.924291178
409.21500,2.177541509
409.21550,1.261958286
409.21600,3.703513547
409.21650,6.755457624
409.21700,6.755457624
409.21750,4.008707955
409.21800,1.567152693
409.21850,0.3463750624
409.21900,0.3463750624
409.21950,1.567152693
409.22000,3.398319139
409.22050,3.703513547
409.22100,1.567152693
409.22150,-2.095180199
409.22200,-5.757513092
409.22250,-7.893873946
409.22300,-9.114651576
409.22350,-8.809457169
409.22400,-7.893873946
409.22450,-5.147124276
409.22500,-1.789985791
409.22550,0.3463750624
409.22600,0.04118065471
409.22650,-1.789985791
409.22700,-0.5692081607
409.22750,5.229485586
409.22800,9.502207293
409.22850,5.839874401
409.22900,-2.705569015
409.22950,-7.893873946
409.23000,-5.147124276
409.23050,-0.264013753
409.23100,0.04118065471
409.23150,-1.484791384
409.23200,-1.484791384
409.23250,0.04118065471
409.23300,-0.264013753
409.23350,-1.789985791
409.23400,-1.484791384
409.23450,0.04118065471
409.23500,0.04118065471
409.23550,-0.8744025684
409.23600,-1.179596976
409.23650,0.6515694701
409.23700,2.482735916
409.23750,2.177541509
409.23800,0.9567638778
409.23850,0.9567638778
409.23900,1.872347101
409.23950,2.177541509
409.24000,1.872347101
409.24050,1.872347101
409.24100,1.872347101
409.24150,1.567152693
409.24200,1.567152693
409.24250,0.6515694701
409.24300,-1.789985791
409.24350,-5.147124276
409.24400,-5.147124276
409.24450,-0.264013753
409.24500,5.229485586
409.24550,5.839874401
409.24600,0.3463750624
409.24650,-4.536735461
409.24700,-3.621152238
409.24750,0.3463750624
409.24800,2.177541509
409.24850,-0.8744025684
409.24900,-4.536735461
409.24950,-5.147124276
409.25000,-2.705569015
409.25050,-1.484791384
409.25100,-2.095180199
409.25150,-2.705569015
409.25200,-2.095180199
409.25250,-1.179596976
409.25300,-2.095180199
409.25350,-3.926346645
409.25400,-3.621152238
409.25450,-1.179596976
409.25500,1.261958286
409.25550,1.567152693
409.25600,0.6515694701
409.25650,0.3463750624
409.25700,0.9567638778
409.25750,0.6515694701
409.25800,0.04118065471
409.25850,0.04118065471
409.25900,1.261958286
409.25950,1.872347101
409.26000,0.9567638778
409.26050,0.6515694701
409.26100,1.872347101
409.26150,3.703513547
409.26200,4.008707955
409.26250,2.177541509
409.26300,0.04118065471
409.26350,-2.095180199
409.26400,-3.926346645
409.26450,-5.452318684
409.26500,-5.452318684
409.26550,-3.621152238
409.26600,-0.8744025684
409.26650,0.04118065471
409.26700,-0.8744025684
409.26750,-2.400374607
409.26800,-2.705569015
409.26850,-2.705569015
409.26900,-3.010763422
409.26950,-3.010763422
409.27000,-1.179596976
409.27050,1.261958286
409.27100,2.787930324
409.27150,2.177541509
409.27200,0.3463750624
409.27250,-0.5692081607
409.27300,-1.179596976
409.27350,-1.179596976
409.27400,-0.5692081607
409.27450,0.04118065471
409.27500,0.9567638778
409.27550,1.872347101
409.27600,3.093124732
409.27650,3.398319139
409.27700,2.177541509
409.27750,0.9567638778
409.27800,2.787930324
409.27850,7.36584644
409.27900,9.502207293
409.27950,5.229485586
409.28000,-2.400374607
409.28050,-7.28348513
409.28100,-6.673096315
409.28150,-3.621152238
409.28200,-2.095180199
409.28250,-1.179596976
409.28300,0.04118065471
409.28350,1.872347101
409.28400,1.872347101
409.28450,0.3463750624
409.28500,0.04118065471
409.28550,0.9567638778
409.28600,1.567152693
409.28650,0.3463750624
409.28700,-0.264013753
409.28750,0.9567638778
409.28800,2.787930324
409.28850,2.177541509
409.28900,0.04118065471
409.28950,-0.8744025684
409.29000,0.04118065471
409.29050,0.6515694701
409.29100,0.04118065471
409.29150,-1.179596976
409.29200,-1.484791384
409.29250,-1.484791384
409.29300,-3.010763422
409.29350,-4.841929869
409.29400,-5.147124276
409.29450,-3.31595783
409.29500,-1.789985791
409.29550,-2.095180199
409.29600,-3.010763422
409.29650,-2.400374607
409.29700,0.04118065471
409.29750,2.177541509
409.29800,3.093124732
409.29850,3.093124732
409.29900,2.787930324
409.29950,2.482735916
409.30000,2.482735916
409.30050,4.008707955
409.30100,5.229485586
409.30150,4.313902363
409.30200,2.177541509
409.30250,0.6515694701
409.30300,0.9567638778
409.30350,0.6515694701
409.30400,-0.264013753
409.30450,-1.179596976
409.30500,-0.5692081607
409.30550,-0.5692081607
409.30600,-2.400374607
409.30650,-3.926346645
409.30700,-3.010763422
409.30750,-0.5692081607
409.30800,0.04118065471
409.30850,0.04118065471
409.30900,-0.5692081607
409.30950,-0.264013753
409.31000,-0.264013753
409.31050,-0.5692081607
409.31100,-0.5692081607
409.31150,0.04118065471
409.31200,0.9567638778
409.31250,2.177541509
409.31300,3.398319139
409.31350,3.398319139
409.31400,1.872347101
409.31450,-0.264013753
409.31500,-1.789985791
409.31550,-2.095180199
409.31600,-2.095180199
409.31650,-1.179596976
409.31700,0.04118065471
409.31750,0.3463750624
409.31800,-0.8744025684
409.31850,-3.31595783
409.31900,-4.841929869
409.31950,-4.231541053
409.32000,-2.400374607
409.32050,0.04118065471
409.32100,2.787930324
409.32150,4.924291178
409.32200,4.924291178
409.32250,3.703513547
409.32300,3.093124732
409.32350,4.008707955
409.32400,4.924291178
409.32450,3.093124732
409.32500,0.04118065471
409.32550,-1.179596976
409.32600,-0.8744025684
409.32650,-0.264013753
409.32700,0.04118065471
409.32750,0.04118065471
409.32800,0.6515694701
409.32850,0.9567638778
409.32900,0.3463750624
409.32950,0.04118065471
409.33000,-0.5692081607
409.33050,-0.5692081607
409.33100,0.04118065471
409.33150,1.261958286
409.33200,1.567152693
409.33250,0.3463750624
409.33300,-0.5692081607
409.33350,0.04118065471
409.33400,2.177541509
409.33450,3.398319139
409.33500,2.177541509
409.33550,0.04118065471
409.33600,-2.400374607
409.33650,-3.31595783
409.33700,-2.095180199
409.33750,0.04118065471
409.33800,0.04118065471
409.33850,-1.179596976
409.33900,0.3463750624
409.33950,6.145068809
409.34000,8.58662407
409.34050,2.177541509
409.34100,-6.978290722
409.34150,-8.809457169
409.34200,-2.400374607
409.34250,1.261958286
409.34300,-0.8744025684
409.34350,-3.926346645
409.34400,-1.484791384
409.34450,1.872347101
409.34500,0.3463750624
409.34550,-3.010763422
409.34600,-3.010763422
409.34650,0.04118065471
409.34700,0.9567638778
409.34750,-0.8744025684
409.34800,-2.095180199
409.34850,-0.264013753
409.34900,2.177541509
409.34950,2.787930324
409.35000,0.9567638778
409.35050,-1.179596976
409.35100,-3.010763422
409.35150,-2.400374607
409.35200,-0.8744025684
409.35250,-0.264013753
409.35300,-1.179596976
409.35350,-0.5692081607
409.35400,2.177541509
409.35450,4.008707955
409.35500,1.567152693
409.35550,-1.789985791
409.35600,-0.8744025684
409.35650,4.61909677
409.35700,10.11259611
409.35750,10.72298492
409.35800,6.145068809
409.35850,0.04118065471
409.35900,-3.621152238
409.35950,-3.31595783
409.36000,-0.8744025684
409.36050,1.261958286
409.36100,2.787930324
409.36150,4.008707955
409.36200,4.008707955
409.36250,2.177541509
409.36300,-0.264013753
409.36350,-0.5692081607
409.36400,2.482735916
409.36450,6.145068809
409.36500,4.924291178
409.36550,-2.705569015
409.36600,-13.69256769
409.36650,-19.18606703
409.36700,-15.21853973
409.36750,-4.231541053
409.36800,3.398319139
409.36850,3.398319139
409.36900,-0.8744025684
409.36950,-2.400374607
409.37000,0.3463750624
409.37050,2.482735916
409.37100,0.3463750624
409.37150,-3.621152238
409.37200,-5.757513092
409.37250,-5.147124276
409.37300,-2.705569015
409.37350,0.9567638778
409.37400,5.229485586
409.37450,6.450263216
409.37500,4.924291178
409.37550,3.093124732
409.37600,2.787930324
409.37650,2.482735916
409.37700,1.872347101
409.37750,2.482735916
409.37800,4.924291178
409.37850,6.755457624
409.37900,4.61909677
409.37950,0.04118065471
409.38000,-2.705569015
409.38050,-1.789985791
409.38100,0.3463750624
409.38150,0.04118065471
409.38200,-2.095180199
409.38250,-3.926346645
409.38300,-3.31595783
409.38350,-0.8744025684
409.38400,0.3463750624
409.38450,0.04118065471
409.38500,-2.705569015
409.38550,-5.147124276
409.38600,-4.841929869
409.38650,0.3463750624
409.38700,8.58662407
409.38750,14.08012341
409.38800,12.24895696
409.38850,4.61909677
409.38900,-3.31595783
409.38950,-9.114651576
409.39000,-12.77698447
409.39050,-12.77698447
409.39100,-8.504262761
409.39150,-3.31595783
409.39200,-2.705569015
409.39250,-5.147124276
409.39300,-5.147124276
409.39350,-1.789985791
409.39400,0.6515694701
409.39450,0.9567638778
409.39500,2.787930324
409.39550,8.58662407
409.39600,13.46973459
409.39650,11.94376256
409.39700,7.060652032
409.39750,3.398319139
409.39800,1.567152693
409.39850,-0.5692081607
409.39900,-2.095180199
409.39950,-0.8744025684
409.40000,0.9567638778
409.40050,1.261958286
409.40100,0.3463750624
409.40150,1.567152693
409.40200,2.787930324
409.40250,0.9567638778
409.40300,-2.095180199
409.40350,-3.31595783
409.40400,-2.705569015
409.40450,-3.31595783
409.40500,-4.536735461
409.40550,-3.31595783
409.40600,-1.484791384
409.40650,-3.010763422
409.40700,-6.367901907
409.40750,-6.062707499
409.40800,-2.400374607
409.40850,-0.8744025684
409.40900,-2.400374607
409.40950,-1.179596976
409.41000,4.313902363
409.41050,8.58662407
409.41100,7.671040847
409.41150,4.61909677
409.41200,3.093124732
409.41250,1.872347101
409.41300,-0.8744025684
409.41350,-1.484791384
409.41400,2.177541509
409.41450,6.145068809
409.41500,4.313902363
409.41550,-0.8744025684
409.41600,-3.31595783
409.41650,-1.789985791
409.41700,0.3463750624
409.41750,2.177541509
409.41800,4.924291178
409.41850,7.976235255
409.41900,7.976235255
409.41950,4.924291178
409.42000,1.872347101
409.42050,0.6515694701
409.42100,1.261958286
409.42150,2.482735916
409.42200,4.008707955
409.42250,4.61909677
409.42300,3.398319139
409.42350,3.093124732
409.42400,5.229485586
409.42450,7.976235255
409.42500,7.36584644
409.42550,4.008707955
409.42600,0.9567638778
409.42650,-1.179596976
409.42700,-4.536735461
409.42750,-7.588679538
409.42800,-7.588679538
409.42850,-5.452318684
409.42900,-5.147124276
409.42950,-7.893873946
409.43000,-9.419845984
409.43050,-8.809457169
409.43100,-7.893873946
409.43150,-8.504262761
409.43200,-7.28348513
409.43250,-2.705569015
409.43300,1.567152693
409.43350,1.872347101
409.43400,-0.264013753
409.43450,-1.179596976
409.43500,0.3463750624
409.43550,3.093124732
409.43600,4.008707955
409.43650,3.093124732
409.43700,0.04118065471
409.43750,-3.010763422
409.43800,-4.536735461
409.43850,-3.31595783
409.43900,-0.8744025684
409.43950,0.04118065471
409.44000,0.04118065471
409.44050,0.3463750624
409.44100,-0.5692081607
409.44150,-3.010763422
409.44200,-3.926346645
409.44250,-0.5692081607
409.44300,2.787930324
409.44350,1.872347101
409.44400,-3.31595783
409.44450,-8.504262761
409.44500,-9.419845984
409.44550,-7.28348513
409.44600,-4.231541053
409.44650,-0.264013753
409.44700,2.787930324
409.44750,3.398319139
409.44800,1.567152693
409.44850,0.3463750624
409.44900,1.261958286
409.44950,2.177541509
409.45000,0.6515694701
409.45050,-2.095180199
409.45100,-4.231541053
409.45150,-3.621152238
409.45200,-0.5692081607
409.45250,2.177541509
409.45300,2.482735916
409.45350,0.04118065471
409.45400,-2.400374607
409.45450,-2.400374607
409.45500,-0.8744025684
409.45550,-0.5692081607
409.45600,-2.095180199
409.45650,-3.010763422
409.45700,-0.264013753
409.45750,4.313902363
409.45800,7.36584644
409.45850,7.671040847
409.45900,5.839874401
409.45950,4.008707955
409.46000,2.482735916
409.46050,0.04118065471
409.46100,-2.705569015
409.46150,-2.705569015
409.46200,0.04118065471
409.46250,3.398319139
409.46300,3.093124732
409.46350,0.04118065471
409.46400,-1.179596976
409.46450,0.3463750624
409.46500,1.872347101
409.46550,0.3463750624
409.46600,-1.484791384
409.46650,-1.484791384
409.46700,0.04118065471
409.46750,1.261958286
409.46800,1.872347101
409.46850,2.177541509
409.46900,2.177541509
409.46950,0.6515694701
409.47000,-0.264013753
409.47050,0.3463750624
409.47100,2.177541509
409.47150,2.177541509
409.47200,0.6515694701
409.47250,0.9567638778
409.47300,3.093124732
409.47350,3.703513547
409.47400,0.04118065471
409.47450,-4.536735461
409.47500,-6.062707499
409.47550,-2.705569015
409.47600,1.567152693
409.47650,3.703513547
409.47700,3.398319139
409.47750,2.482735916
409.47800,2.482735916
409.47850,2.787930324
409.47900,2.177541509
409.47950,0.9567638778
409.48000,-0.264013753
409.48050,-1.789985791
409.48100,-3.31595783
409.48150,-3.926346645
409.48200,-2.705569015
409.48250,-0.5692081607
409.48300,-0.264013753
409.48350,-2.095180199
409.48400,-3.926346645
409.48450,-3.010763422
409.48500,-0.264013753
409.48550,0.04118065471
409.48600,-1.789985791
409.48650,-2.400374607
409.48700,0.3463750624
409.48750,3.093124732
409.48800,0.04118065471
409.48850,-7.28348513
409.48900,-10.64062361
409.48950,-6.062707499
409.49000,-0.264013753
409.49050,0.9567638778
409.49100,-0.5692081607
409.49150,0.04118065471
409.49200,3.398319139
409.49250,4.61909677
409.49300,1.567152693
409.49350,-0.8744025684
409.49400,-0.5692081607
409.49450,0.3463750624
409.49500,0.3463750624
409.49550,0.04118065471
409.49600,1.872347101
409.49650,3.703513547
409.49700,3.398319139
409.49750,0.9567638778
409.49800,0.04118065471
409.49850,1.261958286
409.49900,3.093124732
409.49950,4.313902363
409.50000,4.61909677
409.50050,5.534679993
409.50100,5.534679993
409.50150,3.703513547
409.50200,0.6515694701
409.50250,-0.5692081607
409.50300,-0.5692081607
409.50350,-0.264013753
409.50400,-1.789985791
409.50450,-3.926346645
409.50500,-4.841929869
409.50550,-3.31595783
409.50600,-2.095180199
409.50650,-3.010763422
409.50700,-5.147124276
409.50750,-4.841929869
409.50800,-2.095180199
409.50850,-1.484791384
409.50900,-4.231541053
409.50950,-6.367901907
409.51000,-3.621152238
409.51050,2.177541509
409.51100,5.534679993
409.51150,4.924291178
409.51200,3.093124732
409.51250,3.398319139
409.51300,4.61909677
409.51350,4.924291178
409.51400,4.313902363
409.51450,4.008707955
409.51500,4.008707955
409.51550,3.398319139
409.51600,2.177541509
409.51650,0.6515694701
409.51700,0.04118065471
409.51750,-0.5692081607
409.51800,-0.5692081607
409.51850,-1.179596976
409.51900,-2.705569015
409.51950,-4.841929869
409.52000,-4.536735461
409.52050,-1.789985791
409.52100,0.04118065471
409.52150,-0.5692081607
409.52200,-3.31595783
409.52250,-3.621152238
409.52300,-2.400374607
409.52350,-2.095180199
409.52400,-4.231541053
409.52450,-5.147124276
409.52500,-0.8744025684
409.52550,6.450263216
409.52600,10.72298492
409.52650,7.36584644
409.52700,-0.264013753
409.52750,-5.452318684
409.52800,-3.926346645
409.52850,0.6515694701
409.52900,2.177541509
409.52950,-2.095180199
409.53000,-7.28348513
409.53050,-7.893873946
409.53100,-3.926346645
409.53150,0.04118065471
409.53200,1.872347101
409.53250,3.398319139
409.53300,4.008707955
409.53350,2.482735916
409.53400,0.04118065471
409.53450,0.6515694701
409.53500,4.924291178
409.53550,7.976235255
409.53600,6.755457624
409.53650,3.398319139
409.53700,2.482735916
409.53750,1.872347101
409.53800,0.04118065471
409.53850,-1.484791384
409.53900,-0.264013753
409.53950,1.261958286
409.54000,0.04118065471
409.54050,-2.400374607
409.54100,-1.484791384
409.54150,1.261958286
409.54200,0.6515694701
409.54250,-3.621152238
409.54300,-5.147124276
409.54350,-0.264013753
409.54400,4.61909677
409.54450,3.398319139
409.54500,-2.095180199
409.54550,-4.841929869
409.54600,-3.010763422
409.54650,-0.8744025684
409.54700,-0.8744025684
409.54750,-0.8744025684
409.54800,0.3463750624
409.54850,1.567152693
409.54900,0.9567638778
409.54950,0.3463750624
409.55000,1.261958286
409.55050,1.567152693
409.55100,0.3463750624
409.55150,0.04118065471
409.55200,2.177541509
409.55250,5.839874401
409.55300,7.060652032
409.55350,6.450263216
409.55400,6.145068809
409.55450,7.36584644
409.55500,8.281429663
409.55550,6.755457624
409.55600,3.093124732
409.55650,-0.264013753
409.55700,-2.400374607
409.55750,-2.705569015
409.55800,-1.789985791
409.55850,-0.8744025684
409.55900,-1.179596976
409.55950,-0.8744025684
409.56000,0.04118065471
409.56050,1.261958286
409.56100,0.04118065471
409.56150,-3.010763422
409.56200,-4.231541053
409.56250,-2.705569015
409.56300,-0.8744025684
409.56350,-2.400374607
409.56400,-6.673096315
409.56450,-9.114651576
409.56500,-7.28348513
409.56550,-2.705569015
409.56600,0.04118065471
409.56650,-0.5692081607
409.56700,-1.789985791
409.56750,0.04118065471
409.56800,3.093124732
409.56850,4.313902363
409.56900,1.567152693
409.56950,-1.179596976
409.57000,-0.5692081607
409.57050,2.177541509
409.57100,4.61909677
409.57150,4.924291178
409.57200,4.61909677
409.57250,3.093124732
409.57300,-0.264013753
409.57350,-3.31595783
409.57400,-3.31595783
409.57450,-1.484791384
409.57500,-0.8744025684
409.57550,-1.484791384
409.57600,-0.264013753
409.57650,3.093124732
409.57700,5.534679993
409.57750,3.093124732
409.57800,-1.484791384
409.57850,-4.536735461
409.57900,-3.926346645
409.57950,-0.264013753
409.58000,3.398319139
409.58050,6.145068809
409.58100,7.060652032
409.58150,6.145068809
409.58200,4.924291178
409.58250,3.093124732
409.58300,0.3463750624
409.58350,-2.095180199
409.58400,-3.31595783
409.58450,-3.010763422
409.58500,-1.484791384
409.58550,-0.5692081607
409.58600,-1.179596976
409.58650,-3.621152238
409.58700,-6.367901907
409.58750,-6.978290722
409.58800,-5.757513092
409.58850,-4.231541053
409.58900,-3.926346645
409.58950,-3.926346645
409.59000,-3.31595783
409.59050,-3.31595783
409.59100,-3.926346645
409.59150,-2.705569015
409.59200,0.9567638778
409.59250,3.703513547
409.59300,1.872347101
409.59350,-1.789985791
409.59400,-3.31595783
409.59450,-0.8744025684
409.59500,1.261958286
409.59550,2.482735916
409.59600,3.093124732
409.59650,4.008707955
409.59700,3.398319139
409.59750,2.482735916
409.59800,4.008707955
409.59850,7.060652032
409.59900,7.671040847
409.59950,3.093124732
409.60000,-2.705569015
409.60050,-5.452318684
409.60100,-4.536735461
409.60150,-3.926346645
409.60200,-4.841929869
409.60250,-5.147124276
409.60300,-2.705569015
409.60350,0.04118065471
409.60400,0.9567638778
409.60450,0.04118065471
409.60500,-0.5692081607
409.60550,0.04118065471
409.60600,0.9567638778
409.60650,1.261958286
409.60700,0.9567638778
409.60750,1.567152693
409.60800,2.482735916
409.60850,2.482735916
409.60900,1.872347101
409.60950,2.787930324
