time,Brachiarod, EXt Carp,EXT DIG,Flex CarpU,Flex Carp R
120.92,2.862665586,4.961658809,0.7908210914,1.766955129,-0.7468950597
120.9205,5.304220848,4.046075586,2.927181945,2.682538352,-2.272867098
120.921,4.083443217,1.909714732,5.979126022,4.208510391,-2.578061506
120.9215,1.947082363,-0.2266461219,7.810292469,5.429288021,-3.493644729
120.922,1.336693548,-2.973395791,7.810292469,5.124093614,-4.409227952
120.9225,1.641887955,-4.804562237,6.894709245,3.903315983,-5.935199991
120.923,1.03149914,-5.72014546,5.979126022,2.682538352,-7.461172029
120.9235,-0.4944728984,-6.635728684,5.368737207,2.682538352,-8.987144068
120.924,-1.715250529,-8.161700722,4.147959576,3.292927168,-9.597532883
120.9245,-1.715250529,-9.992867168,1.401209907,3.903315983,-9.597532883
120.925,-1.104861714,-10.90845039,-1.65073417,3.292927168,-10.2079217
120.9255,0.115915917,-10.60325598,-6.533844693,2.072149537,-11.73389374
120.926,1.336693548,-9.687672761,-12.94292726,1.156566314,-12.95467137
120.9265,2.557471179,-9.382478353,-18.741621,0.8513719059,-11.73389374
120.927,2.252276771,-9.687672761,-21.48837067,0.8513719059,-8.987144068
120.9275,0.7263047324,-10.29806158,-18.43642659,0.5461774982,-7.155977621
120.928,0.115915917,-10.60325598,-12.63773285,0.5461774982,-6.850783214
120.9285,0.115915917,-10.29806158,-8.36501114,0.5461774982,-7.155977621
120.929,0.7263047324,-9.077283945,-6.228650286,0.5461774982,-6.240394398
120.9295,1.03149914,-7.551311907,-3.787095024,-0.06421131716,-5.019616768
120.93,1.641887955,-5.414951053,0.7908210914,-1.590183356,-4.71442236
120.9305,2.557471179,-3.888979014,5.368737207,-2.200572171,-4.104033544
120.931,1.641887955,-2.973395791,8.420681284,-1.895377763,-1.662478283
120.9315,-0.7996673061,-3.278590199,11.47262536,-1.284988948,1.084271386
120.932,-1.715250529,-2.973395791,14.21937503,-0.6746001326,3.22063224
120.9325,1.336693548,-0.8370349373,11.16743095,-1.590183356,3.22063224
120.933,8.050970517,2.520103547,-1.040345355,-4.336933025,1.389465794
120.9335,12.32369223,5.572047624,-16.60526015,-7.69407151,-0.1365062443
120.934,12.32369223,6.487630848,-21.79356508,-9.220043548,-0.1365062443
120.9345,9.882136963,6.487630848,-14.46889929,-7.69407151,1.389465794
120.935,7.135387294,6.792825255,-4.092289432,-4.336933025,3.525826648
120.9355,4.388637625,7.098019663,0.4856266837,-1.895377763,4.746604279
120.936,1.336693548,6.792825255,0.7908210914,-1.590183356,3.831021056
120.9365,0.115915917,5.877242032,1.401209907,-2.505766579,3.22063224
120.937,1.336693548,5.572047624,2.011598722,-2.810960986,3.525826648
120.9375,3.167859994,5.572047624,1.401209907,-2.200572171,4.136215463
120.938,2.862665586,5.572047624,0.180432276,-1.284988948,4.441409871
120.9385,1.336693548,5.877242032,0.4856266837,-0.3694057249,3.525826648
120.939,0.7263047324,5.572047624,1.096015499,0.5461774982,3.22063224
120.9395,1.03149914,4.656464401,-0.1247621317,1.766955129,2.915437833
120.94,0.4211103247,2.520103547,-1.345539762,3.292927168,2.305049017
120.9405,-0.7996673061,0.07854828584,-2.261122986,3.903315983,0.7790769788
120.941,-1.715250529,-1.142229345,-4.39748384,3.598121575,-0.7468950597
120.9415,-0.7996673061,-0.8370349373,-8.059816732,3.292927168,-2.578061506
120.942,0.4211103247,-0.2266461219,-10.19617759,3.598121575,-4.104033544
120.9425,0.4211103247,0.07854828584,-9.58578877,3.903315983,-5.019616768
120.943,-0.4944728984,-0.2266461219,-9.280594363,3.903315983,-4.71442236
120.9435,-1.715250529,-1.75261816,-11.41695522,3.598121575,-5.019616768
120.944,-2.325639345,-4.194173422,-12.94292726,3.598121575,-5.935199991
120.9445,-2.325639345,-6.330534276,-10.50137199,3.598121575,-7.155977621
120.945,-2.325639345,-7.551311907,-5.007872655,3.598121575,-7.461172029
120.9455,-1.410056122,-7.551311907,-0.7351509471,3.598121575,-7.461172029
120.946,0.115915917,-7.246117499,2.011598722,3.903315983,-8.071560845
120.9465,1.336693548,-7.856506314,5.368737207,3.598121575,-8.987144068
120.947,1.947082363,-8.772089538,7.505098061,2.682538352,-8.376755252
120.9475,1.641887955,-9.077283945,6.894709245,1.156566314,-6.545588806
120.948,1.336693548,-8.46689513,6.28432043,-0.06421131716,-6.240394398
120.9485,1.947082363,-6.635728684,8.725875692,-0.6746001326,-7.155977621
120.949,2.862665586,-4.49936783,11.47262536,-1.895377763,-7.155977621
120.9495,3.167859994,-3.278590199,11.16743095,-2.810960986,-5.019616768
120.95,2.557471179,-3.888979014,9.031070099,-3.421349802,-2.578061506
120.9505,1.947082363,-4.49936783,8.115486876,-4.031738617,-1.967672691
120.951,2.252276771,-3.888979014,8.115486876,-4.94732184,-1.662478283
120.9515,3.473054402,-1.142229345,5.979126022,-5.557710656,-0.441700652
120.952,3.778248809,0.9941315089,2.927181945,-5.252516248,1.694660202
120.9525,2.557471179,1.909714732,2.621987538,-4.336933025,4.136215463
120.953,0.7263047324,2.520103547,2.31679313,-4.642127433,6.272576317
120.9535,-0.1892784907,4.046075586,-2.566317393,-5.862905063,7.188159541
120.954,-0.1892784907,6.487630848,-11.41695522,-6.778488287,6.272576317
120.9545,0.115915917,8.013602886,-17.21564896,-6.473293879,5.051798687
120.955,-0.7996673061,7.403214071,-17.52084337,-4.94732184,5.662187502
120.9555,-2.325639345,7.098019663,-16.91045456,-3.116155394,8.408937171
120.956,-3.851611383,7.708408478,-18.741621,-0.9797945403,10.85049243
120.9565,-4.156805791,9.234380517,-19.65720422,0.5461774982,11.15568684
120.957,-3.851611383,9.844769332,-16.30006574,1.461760721,10.24010362
120.9575,-4.462000199,9.539574925,-11.41695522,2.377343944,9.324520394
120.958,-5.682777829,9.844769332,-8.670205547,4.513704798,8.103742764
120.9585,-6.598361052,10.14996374,-6.228650286,7.260454468,6.577770725
120.959,-6.90355546,9.234380517,-1.040345355,9.091620914,6.272576317
120.9595,-7.208749868,6.487630848,5.673931615,9.396815322,5.96738191
120.96,-7.513944276,4.351269994,9.031070099,8.481232098,4.136215463
120.9605,-7.208749868,4.046075586,7.810292469,7.565648875,1.084271386
120.961,-5.377583422,4.351269994,5.979126022,6.344871245,-0.1365062443
120.9615,-4.156805791,3.740881178,6.894709245,4.818899206,-0.1365062443
120.962,-5.072389014,1.909714732,10.86223655,4.208510391,-1.052089467
120.9625,-7.208749868,0.3837426935,14.21937503,5.429288021,-3.798839137
120.963,-7.208749868,-0.2266461219,15.44015266,6.95526006,-6.240394398
120.9635,-4.156805791,-1.447423753,13.30379181,6.650065652,-8.376755252
120.964,0.115915917,-3.278590199,9.641458915,5.734482429,-10.51311611
120.9645,4.388637625,-6.025339868,5.368737207,5.429288021,-11.73389374
120.965,9.271748148,-7.856506314,-0.1247621317,5.429288021,-11.12350492
120.9655,15.3756363,-8.46689513,-5.923455878,3.292927168,-10.51311611
120.966,19.64835801,-6.940923091,-9.280594363,-0.06421131716,-12.64947696
120.9665,19.03796919,-5.72014546,-8.059816732,-2.200572171,-13.87025459
120.967,14.46005308,-6.330534276,-4.702678247,-0.9797945403,-11.12350492
120.9675,10.79772019,-8.161700722,-2.566317393,0.8513719059,-7.155977621
120.968,10.79772019,-9.077283945,-2.261122986,1.156566314,-7.461172029
120.9685,12.01849782,-8.46689513,-1.65073417,0.2409830905,-8.376755252
120.969,11.408109,-8.772089538,-0.1247621317,-0.9797945403,0.1686881634
120.9695,8.050970517,-11.2136448,0.4856266837,-2.200572171,18.48035263
120.97,4.083443217,-13.04481125,0.4856266837,-4.031738617,30.68812893
120.9705,1.03149914,-10.90845039,1.401209907,-5.252516248,26.72060163
120.971,-1.410056122,-6.025339868,4.147959576,-4.642127433,14.51282533
120.9715,-3.546416975,-2.057812568,6.589514838,-2.810960986,8.408937171
120.972,-6.598361052,-0.5318405296,8.420681284,-1.590183356,9.93490921
120.9725,-11.78666598,0.07854828584,9.946653322,-1.590183356,10.85049243
120.973,-16.97497091,1.299325917,10.25184773,-1.284988948,8.714131579
120.9735,-19.72172058,3.435686771,8.420681284,-0.9797945403,8.408937171
120.974,-17.89055414,6.18243644,5.063542799,-0.9797945403,10.85049243
120.9745,-13.00744361,9.234380517,3.537570761,-0.6746001326,11.15568684
120.975,-8.124333091,11.37074137,5.063542799,0.5461774982,9.019325987
120.9755,-4.462000199,11.06554696,5.368737207,1.766955129,8.103742764
120.976,-2.020444937,10.14996374,2.621987538,0.5461774982,9.629714802
120.9765,-0.1892784907,10.45515815,-0.1247621317,-2.505766579,9.629714802
120.977,0.115915917,11.98113019,0.4856266837,-4.336933025,5.96738191
120.9775,-0.7996673061,11.98113019,3.232376353,-3.421349802,3.22063224
120.978,-3.241222568,11.06554696,4.147959576,-1.284988948,3.831021056
120.9785,-5.072389014,10.14996374,2.927181945,-0.06421131716,4.746604279
120.979,-5.377583422,11.06554696,1.096015499,0.2409830905,3.22063224
120.9795,-4.156805791,11.06554696,-1.345539762,0.2409830905,1.389465794
120.98,-3.241222568,9.539574925,-5.313067063,-0.06421131716,1.694660202
120.9805,-4.767194606,7.098019663,-8.059816732,-0.3694057249,2.610243425
120.981,-7.208749868,5.572047624,-7.144233509,-0.06421131716,1.694660202
120.9815,-7.208749868,5.266853217,-5.313067063,1.461760721,-1.967672691
120.982,-4.462000199,4.961658809,-5.007872655,2.377343944,-7.155977621
120.9825,-1.715250529,4.961658809,-5.313067063,2.98773276,-12.64947696
120.983,-2.630833752,4.961658809,-5.007872655,3.598121575,-17.83778189
120.9835,-4.156805791,4.961658809,-5.923455878,4.208510391,-22.1105036
120.984,-2.020444937,4.656464401,-9.58578877,3.292927168,-24.85725327
120.9845,4.99902644,3.740881178,-11.11176081,1.156566314,-27.60400294
120.985,12.93408104,1.909714732,-5.61826147,0.2409830905,-28.82478057
120.9855,16.59641393,0.07854828584,4.453153984,0.8513719059,-27.29880853
120.986,15.68083071,-1.75261816,10.86223655,1.461760721,-22.72089241
120.9865,12.62888663,-2.973395791,9.641458915,0.5461774982,-18.1429763
120.987,9.271748148,-4.804562237,5.673931615,-0.06421131716,-15.09103222
120.9875,6.219804071,-8.772089538,3.842765168,-0.06421131716,-8.68194966
120.988,4.083443217,-13.96039447,3.537570761,-0.9797945403,4.441409871
120.9885,2.252276771,-17.31753295,3.232376353,-4.031738617,20.61671348
120.989,0.115915917,-17.62272736,5.673931615,-6.168099471,30.99332334
120.9895,-4.462000199,-15.48636651,12.69340299,-4.336933025,30.68812893
120.99,-9.345110722,-12.43442243,20.933652,-0.3694057249,23.36346315
120.9905,-9.955499537,-8.161700722,25.51156812,0.5461774982,14.20763092
120.991,-4.767194606,-2.363006976,24.29079048,-2.200572171,5.96738191
120.9915,1.947082363,2.21490914,19.40767996,-5.862905063,0.7790769788
120.992,5.304220848,4.656464401,13.91418062,-7.388877102,0.4738825711
120.9925,3.778248809,4.656464401,9.336264507,-5.862905063,4.136215463
120.993,1.03149914,4.961658809,6.589514838,-3.72654421,7.798548356
120.9935,0.115915917,5.572047624,5.063542799,-2.200572171,8.408937171
120.994,0.4211103247,5.572047624,4.453153984,-0.9797945403,8.408937171
120.9945,0.7263047324,4.656464401,3.842765168,-0.3694057249,10.54529803
120.995,0.115915917,5.266853217,1.706404315,-0.6746001326,12.98685329
120.9955,-0.4944728984,8.013602886,-1.040345355,-1.590183356,12.37646447
120.996,0.115915917,10.45515815,-1.65073417,-1.590183356,9.324520394
120.9965,2.557471179,9.844769332,2.011598722,-0.06421131716,6.272576317
120.997,6.524998479,8.318797294,10.55704214,0.8513719059,4.136215463
120.9975,8.356164925,8.929186109,20.01806878,-0.06421131716,1.694660202
120.998,6.219804071,10.76035256,26.12195693,-3.116155394,-0.441700652
120.9985,1.641887955,11.06554696,26.42715134,-5.557710656,-1.967672691
120.999,-2.020444937,8.623991701,20.32326318,-6.473293879,-3.188450321
120.9995,-3.851611383,6.487630848,11.16743095,-5.862905063,-4.104033544
121.0,-4.462000199,6.487630848,4.453153984,-3.421349802,-4.104033544
121.0005,-5.072389014,5.572047624,2.31679313,1.461760721,-2.578061506
121.001,-4.767194606,2.825297955,1.706404315,6.95526006,-0.7468950597
121.0015,-4.462000199,0.3837426935,-1.65073417,8.786426506,-0.7468950597
121.002,-5.682777829,1.299325917,-4.702678247,7.260454468,-2.272867098
121.0025,-10.26069394,4.046075586,-1.955928578,6.344871245,-4.104033544
121.003,-16.05938769,4.351269994,0.7908210914,7.870843283,-5.324811175
121.0035,-17.89055414,2.21490914,-8.059816732,9.091620914,-6.850783214
121.004,-13.92302684,-0.2266461219,-32.47536935,6.344871245,-8.071560845
121.0045,-8.429527499,-2.973395791,-56.58572756,2.072149537,-7.461172029
121.005,-6.90355546,-6.635728684,-63.91039334,0.8513719059,-5.324811175
121.0055,-10.26069394,-10.29806158,-54.14417229,2.682538352,-3.188450321
121.006,-14.83861006,-11.2136448,-38.88445191,3.292927168,-2.578061506
121.0065,-17.28016532,-9.687672761,-26.98187001,1.766955129,-1.967672691
121.007,-17.28016532,-8.46689513,-19.04681541,0.8513719059,-1.357283875
121.0075,-16.97497091,-9.077283945,-12.33253844,1.156566314,-1.662478283
121.008,-15.14380447,-9.382478353,-8.059816732,1.461760721,-4.104033544
121.0085,-11.17627717,-8.772089538,-6.839039101,0.5461774982,-5.935199991
121.009,-5.987972237,-8.161700722,-7.144233509,-0.6746001326,-5.630005583
121.0095,-2.630833752,-9.077283945,-6.839039101,-1.284988948,-3.493644729
121.01,-1.104861714,-11.2136448,-3.481900616,-1.590183356,-2.272867098
121.0105,0.115915917,-12.73961684,3.537570761,-2.200572171,-2.272867098
121.011,1.641887955,-13.35000565,11.16743095,-1.895377763,-2.272867098
121.0115,2.252276771,-12.73961684,14.82976385,-0.3694057249,-0.1365062443
121.012,0.4211103247,-11.51883921,14.52456944,0.8513719059,2.915437833
121.0125,-1.410056122,-9.382478353,13.60898621,1.461760721,5.662187502
121.013,-1.410056122,-7.551311907,14.52456944,1.156566314,6.272576317
121.0135,0.4211103247,-6.330534276,13.91418062,0.8513719059,4.441409871
121.014,2.862665586,-6.330534276,8.725875692,0.5461774982,2.610243425
121.0145,4.388637625,-7.551311907,2.927181945,-0.06421131716,2.915437833
121.015,4.693832032,-9.077283945,1.401209907,-0.9797945403,5.356993094
121.0155,4.083443217,-9.077283945,3.537570761,-1.284988948,8.103742764
121.016,3.167859994,-6.635728684,5.673931615,-0.6746001326,9.324520394
121.0165,2.862665586,-2.363006976,5.368737207,-0.06421131716,8.103742764
121.017,4.693832032,2.21490914,3.842765168,-0.06421131716,6.272576317
121.0175,7.440581702,5.572047624,2.31679313,-0.06421131716,4.441409871
121.018,8.96655374,6.487630848,0.4856266837,-0.06421131716,2.305049017
121.0185,9.271748148,5.266853217,-1.65073417,0.2409830905,0.4738825711
121.019,9.576942556,3.740881178,-5.007872655,0.5461774982,-0.7468950597
121.0195,10.79772019,3.740881178,-9.58578877,0.5461774982,-1.662478283
121.02,11.10291459,4.046075586,-15.38448252,0.2409830905,-2.883255914
121.0205,9.271748148,2.825297955,-20.26759304,0.5461774982,-3.493644729
121.021,7.135387294,0.3837426935,-21.79356508,2.072149537,-3.188450321
121.0215,6.830192886,-1.447423753,-19.04681541,3.292927168,-3.188450321
121.022,8.050970517,-1.75261816,-14.16370489,4.208510391,-4.71442236
121.0225,8.661359333,-1.75261816,-9.280594363,4.208510391,-7.461172029
121.023,8.050970517,-2.973395791,-6.533844693,4.513704798,-9.597532883
121.0235,7.74577611,-4.804562237,-6.533844693,4.818899206,-9.902727291
121.024,8.050970517,-6.330534276,-5.923455878,4.818899206,-9.597532883
121.0245,7.440581702,-7.551311907,-3.176706209,4.208510391,-9.902727291
121.025,4.693832032,-8.772089538,0.4856266837,3.903315983,-10.2079217
121.0255,1.947082363,-9.687672761,2.011598722,3.598121575,-9.292338475
121.026,2.252276771,-9.687672761,0.7908210914,2.98773276,-7.766366437
121.0265,5.609415256,-8.772089538,-0.7351509471,1.766955129,-7.766366437
121.027,8.661359333,-7.246117499,-2.261122986,1.156566314,-8.68194966
121.0275,9.576942556,-5.109756645,-2.871511801,1.461760721,-8.68194966
121.028,9.271748148,-3.278590199,-3.176706209,1.766955129,-6.545588806
121.0285,9.271748148,-2.973395791,-2.261122986,0.5461774982,-3.188450321
121.029,9.271748148,-3.583784607,-1.345539762,-0.6746001326,-1.357283875
121.0295,8.661359333,-2.973395791,-1.65073417,-1.895377763,-1.357283875
121.03,7.74577611,-0.5318405296,-1.955928578,-1.895377763,-1.662478283
121.0305,6.830192886,1.909714732,-1.040345355,-2.505766579,-1.357283875
121.031,6.830192886,4.961658809,0.180432276,-3.421349802,-1.052089467
121.0315,7.135387294,8.013602886,-0.1247621317,-4.336933025,-1.052089467
121.032,7.74577611,10.45515815,-1.345539762,-4.642127433,-0.7468950597
121.0325,6.830192886,9.844769332,-1.040345355,-4.94732184,0.4738825711
121.033,4.693832032,6.18243644,1.401209907,-6.168099471,3.831021056
121.0335,1.947082363,3.740881178,3.842765168,-7.083682694,7.798548356
121.034,-0.7996673061,4.961658809,4.147959576,-6.778488287,9.324520394
121.0345,-3.851611383,8.623991701,4.453153984,-6.168099471,7.493353948
121.035,-7.208749868,11.67593578,6.28432043,-5.557710656,3.831021056
121.0355,-9.955499537,12.89671341,6.589514838,-5.252516248,1.694660202
121.036,-9.955499537,13.50710222,2.927181945,-4.031738617,1.99985461
121.0365,-7.513944276,13.81229663,-1.040345355,-3.116155394,2.305049017
121.037,-5.377583422,12.89671341,-1.345539762,-3.116155394,1.084271386
121.0375,-4.767194606,11.37074137,1.706404315,-3.116155394,0.1686881634
121.038,-4.156805791,10.45515815,5.063542799,-1.590183356,0.7790769788
121.0385,-1.715250529,10.45515815,5.979126022,0.8513719059,0.7790769788
121.039,1.336693548,11.06554696,6.28432043,2.072149537,-1.967672691
121.0395,3.778248809,10.45515815,7.810292469,1.156566314,-4.71442236
121.04,4.083443217,8.013602886,10.86223655,-0.06421131716,-1.967672691
121.0405,2.252276771,4.046075586,14.21937503,0.8513719059,4.136215463
121.041,-2.325639345,0.3837426935,18.79729115,3.292927168,8.408937171
121.0415,-8.734721906,-0.5318405296,25.20637371,5.429288021,6.577770725
121.042,-12.70224921,0.3837426935,31.31026186,6.650065652,0.7790769788
121.0425,-10.87108276,1.299325917,32.8362339,6.95526006,-4.71442236
121.043,-4.767194606,0.3837426935,27.34273456,5.734482429,-8.987144068
121.0435,-0.4944728984,-1.142229345,18.49209674,3.598121575,-12.64947696
121.044,-0.1892784907,-2.973395791,11.16743095,2.682538352,-15.09103222
121.0445,-1.715250529,-4.804562237,4.758348392,3.598121575,-16.00661544
121.045,-0.7996673061,-7.551311907,-5.923455878,4.208510391,-14.78583781
121.0455,2.557471179,-10.60325598,-21.48837067,2.377343944,-9.597532883
121.046,6.830192886,-12.73961684,-32.78056376,-1.284988948,0.1686881634
121.0465,8.96655374,-13.04481125,-32.17017494,-3.72654421,10.54529803
121.047,8.356164925,-12.73961684,-24.23512034,-3.116155394,13.5972421
121.0475,5.914609663,-11.51883921,-19.04681541,-1.284988948,7.798548356
121.048,3.473054402,-9.687672761,-18.741621,-0.6746001326,0.1686881634
121.0485,1.336693548,-7.856506314,-16.91045456,-0.9797945403,-2.578061506
121.049,0.4211103247,-5.414951053,-10.50137199,-0.3694057249,-1.662478283
121.0495,0.7263047324,-2.973395791,-5.007872655,0.2409830905,-1.357283875
121.05,2.252276771,-1.142229345,-5.313067063,0.5461774982,-2.272867098
121.0505,3.778248809,-0.8370349373,-7.754622324,-0.06421131716,-1.357283875
121.051,4.388637625,-1.75261816,-6.839039101,-0.6746001326,1.694660202
121.0515,4.083443217,-1.75261816,-4.39748384,-0.9797945403,3.831021056
121.052,3.167859994,-0.2266461219,-3.176706209,-1.284988948,4.746604279
121.0525,1.336693548,1.604520324,-1.65073417,-1.284988948,6.272576317
121.053,-2.020444937,2.520103547,3.537570761,0.2409830905,9.019325987
121.0535,-4.767194606,3.130492363,7.810292469,1.766955129,9.93490921
121.054,-3.851611383,5.266853217,3.232376353,0.8513719059,6.577770725
121.0545,0.115915917,8.623991701,-7.449427917,-2.505766579,1.084271386
121.055,1.947082363,10.45515815,-13.24812166,-5.557710656,-1.662478283
121.0555,0.115915917,9.234380517,-6.228650286,-5.252516248,-0.1365062443
121.056,-4.156805791,7.098019663,5.368737207,-2.505766579,3.22063224
121.0565,-5.377583422,7.403214071,9.336264507,-0.9797945403,5.96738191
121.057,-2.630833752,11.06554696,1.706404315,-1.284988948,5.96738191
121.0575,0.7263047324,13.81229663,-7.754622324,-3.116155394,4.746604279
121.058,3.167859994,12.591519,-11.41695522,-4.94732184,3.525826648
121.0585,4.99902644,9.844769332,-10.50137199,-6.168099471,2.305049017
121.059,8.050970517,8.929186109,-10.50137199,-6.168099471,-0.1365062443
121.0595,11.408109,9.844769332,-11.72214962,-4.94732184,-4.104033544
121.06,12.93408104,8.929186109,-11.11176081,-3.421349802,-8.376755252
121.0605,11.71330341,5.572047624,-8.36501114,-1.590183356,-9.902727291
121.061,8.050970517,2.21490914,-5.923455878,-0.6746001326,-8.68194966
121.0615,4.388637625,1.299325917,-2.871511801,-0.3694057249,-6.545588806
121.062,3.167859994,1.299325917,4.147959576,-0.06421131716,-7.155977621
121.0625,3.473054402,0.3837426935,14.21937503,0.8513719059,-9.292338475
121.063,3.167859994,-1.142229345,18.79729115,2.377343944,-9.597532883
121.0635,1.03149914,-3.278590199,13.60898621,2.377343944,-7.766366437
121.064,-1.104861714,-5.109756645,5.673931615,1.156566314,-5.630005583
121.0645,-1.410056122,-6.635728684,3.537570761,0.2409830905,-5.324811175
121.065,-2.020444937,-7.856506314,7.505098061,1.156566314,-2.883255914
121.0655,-4.462000199,-9.687672761,12.08301418,2.98773276,5.356993094
121.066,-7.208749868,-13.04481125,13.60898621,3.598121575,16.64918618
121.0665,-8.124333091,-16.70714414,14.52456944,3.292927168,22.14268552
121.067,-6.90355546,-16.70714414,15.44015266,3.598121575,18.17515822
121.0675,-5.682777829,-12.73961684,14.52456944,4.513704798,9.019325987
121.068,-5.377583422,-8.772089538,11.77781977,4.513704798,1.99985461
121.0685,-3.546416975,-7.246117499,9.031070099,3.598121575,-1.052089467
121.069,-1.104861714,-7.551311907,8.420681284,2.682538352,-2.272867098
121.0695,0.115915917,-6.940923091,7.810292469,1.766955129,-3.188450321
121.07,0.4211103247,-5.109756645,5.979126022,-0.6746001326,-3.188450321
121.0705,1.947082363,-3.583784607,5.673931615,-5.862905063,-2.578061506
121.071,4.388637625,-1.142229345,8.725875692,-11.05120999,-2.272867098
121.0715,4.083443217,1.299325917,13.30379181,-13.49276526,-2.272867098
121.072,-0.7996673061,2.520103547,14.82976385,-12.88237644,-1.357283875
121.0725,-7.513944276,0.9941315089,12.38820858,-9.525237956,1.084271386
121.073,-9.955499537,0.07854828584,8.420681284,-6.168099471,3.831021056
121.0735,-9.039916314,1.299325917,6.894709245,-4.031738617,5.356993094
121.074,-7.819138683,4.351269994,7.199903653,-3.72654421,5.662187502
121.0745,-7.513944276,6.18243644,7.199903653,-4.031738617,5.356993094
121.075,-5.682777829,5.877242032,5.673931615,-4.031738617,4.746604279
121.0755,-1.715250529,6.792825255,2.927181945,-4.94732184,3.831021056
121.076,1.03149914,8.318797294,-0.1247621317,-6.778488287,3.22063224
121.0765,1.03149914,8.318797294,-4.39748384,-7.083682694,3.831021056
121.077,-1.410056122,6.487630848,-8.975399955,-4.642127433,5.051798687
121.0775,-4.462000199,5.572047624,-10.8065664,-0.06421131716,5.356993094
121.078,-5.377583422,6.487630848,-8.975399955,2.98773276,4.746604279
121.0785,-4.462000199,7.098019663,-6.533844693,3.903315983,3.525826648
121.079,-2.020444937,5.877242032,-6.228650286,3.598121575,1.99985461
121.0795,-0.1892784907,4.656464401,-6.533844693,3.598121575,0.1686881634
121.08,0.115915917,4.351269994,-4.702678247,3.598121575,-1.052089467
121.0805,-0.7996673061,4.351269994,-1.955928578,2.682538352,-1.357283875
121.081,-1.410056122,2.825297955,-1.345539762,2.377343944,-1.357283875
121.0815,0.115915917,0.07854828584,-2.566317393,2.98773276,-2.272867098
121.082,2.252276771,-1.75261816,-2.871511801,4.513704798,-5.019616768
121.0825,3.167859994,-2.973395791,-1.65073417,5.429288021,-6.850783214
121.083,2.252276771,-3.888979014,0.4856266837,5.734482429,-6.545588806
121.0835,0.4211103247,-5.109756645,1.706404315,6.039676837,-5.019616768
121.084,-0.4944728984,-6.330534276,1.706404315,5.429288021,-3.798839137
121.0845,-0.4944728984,-7.856506314,1.096015499,4.513704798,-4.71442236
121.085,0.115915917,-9.077283945,0.4856266837,3.292927168,-6.850783214
121.0855,1.336693548,-9.382478353,-0.1247621317,2.377343944,-9.597532883
121.086,3.778248809,-8.46689513,-0.4299565394,1.766955129,-10.81831051
121.0865,5.914609663,-8.161700722,-2.261122986,0.2409830905,-10.2079217
121.087,6.524998479,-9.382478353,-3.787095024,-2.200572171,-8.376755252
121.0875,4.083443217,-10.90845039,-4.092289432,-4.94732184,-6.850783214
121.088,-0.1892784907,-10.60325598,-2.871511801,-6.778488287,-6.545588806
121.0885,-5.072389014,-8.161700722,-1.040345355,-6.473293879,-5.935199991
121.089,-9.345110722,-6.025339868,0.4856266837,-4.336933025,-4.409227952
121.0895,-13.92302684,-5.72014546,2.011598722,-1.895377763,-1.052089467
121.09,-18.19574855,-6.635728684,2.927181945,-0.06421131716,2.305049017
121.0905,-20.02691499,-6.025339868,2.621987538,-0.06421131716,5.051798687
121.091,-18.19574855,-4.194173422,2.011598722,-1.284988948,5.96738191
121.0915,-14.22822125,-2.057812568,2.621987538,-2.810960986,5.356993094
121.092,-11.17627717,-0.5318405296,5.368737207,-2.810960986,5.051798687
121.0925,-9.345110722,0.9941315089,7.199903653,-1.895377763,5.96738191
121.093,-7.819138683,3.435686771,7.505098061,-1.284988948,7.188159541
121.0935,-6.293166645,5.266853217,6.28432043,-1.895377763,6.882965133
121.094,-5.072389014,5.877242032,5.063542799,-3.421349802,5.051798687
121.0945,-4.156805791,6.487630848,4.147959576,-5.557710656,3.831021056
121.095,-2.325639345,8.013602886,3.232376353,-7.083682694,3.831021056
121.0955,-0.4944728984,10.14996374,2.011598722,-7.999265917,4.136215463
121.096,0.7263047324,11.06554696,0.180432276,-8.304460325,3.525826648
121.0965,0.4211103247,11.06554696,-1.040345355,-7.69407151,2.610243425
121.097,-1.410056122,11.37074137,-1.345539762,-6.778488287,2.305049017
121.0975,-5.377583422,11.37074137,-1.040345355,-5.862905063,3.22063224
121.098,-10.26069394,10.45515815,-0.1247621317,-4.031738617,4.441409871
121.0985,-14.22822125,8.929186109,-0.4299565394,-1.284988948,5.051798687
121.099,-16.3645821,8.013602886,-2.261122986,1.156566314,5.051798687
121.0995,-16.3645821,7.708408478,-5.007872655,2.072149537,4.441409871
121.1,-13.92302684,7.098019663,-8.059816732,1.156566314,2.610243425
121.1005,-6.293166645,5.572047624,-11.11176081,-0.06421131716,0.1686881634
121.101,5.304220848,4.351269994,-13.24812166,-0.9797945403,-2.578061506
121.1015,16.29121953,3.435686771,-13.24812166,-1.590183356,-5.324811175
121.102,19.64835801,2.520103547,-10.50137199,-0.9797945403,-6.545588806
121.1025,15.3756363,0.07854828584,-5.923455878,1.156566314,-6.240394398
121.103,9.882136963,-2.057812568,-1.65073417,2.98773276,-5.935199991
121.1035,8.661359333,-4.194173422,-0.7351509471,2.682538352,-6.545588806
121.104,10.18733137,-5.109756645,-3.176706209,1.461760721,-7.461172029
121.1045,11.10291459,-5.414951053,-6.533844693,0.8513719059,-8.68194966
121.105,10.49252578,-5.72014546,-6.533844693,1.461760721,-8.68194966
121.1055,9.882136963,-6.025339868,-2.871511801,1.461760721,-8.376755252
121.106,9.576942556,-6.025339868,2.011598722,0.5461774982,-8.071560845
121.1065,8.96655374,-6.330534276,3.842765168,-0.06421131716,-7.766366437
121.107,7.74577611,-6.940923091,2.31679313,-0.06421131716,-6.850783214
121.1075,4.99902644,-8.161700722,0.7908210914,0.5461774982,-5.019616768
121.108,1.641887955,-9.077283945,2.31679313,1.766955129,-2.272867098
121.1085,-1.715250529,-8.161700722,5.673931615,2.98773276,-0.1365062443
121.109,-3.851611383,-6.025339868,6.894709245,2.377343944,0.7790769788
121.1095,-3.546416975,-4.49936783,5.063542799,0.2409830905,0.1686881634
121.11,-2.020444937,-4.49936783,1.401209907,-1.590183356,-0.441700652
121.1105,0.115915917,-3.888979014,-2.566317393,-2.810960986,-1.357283875
121.111,2.862665586,-1.75261816,-8.975399955,-4.336933025,-1.662478283
121.1115,6.524998479,1.299325917,-17.52084337,-7.083682694,-0.7468950597
121.112,8.356164925,3.130492363,-24.84550916,-9.525237956,0.7790769788
121.1125,7.440581702,3.130492363,-27.28706442,-9.525237956,2.915437833
121.113,5.304220848,2.520103547,-26.6766756,-7.388877102,3.831021056
121.1135,4.99902644,2.825297955,-27.59225882,-6.778488287,3.831021056
121.114,6.830192886,3.740881178,-30.94939731,-7.69407151,3.525826648
121.1145,8.661359333,5.266853217,-32.47536935,-7.69407151,3.831021056
121.115,8.356164925,5.877242032,-26.37148119,-5.557710656,5.051798687
121.1155,5.914609663,5.572047624,-14.16370489,-2.505766579,5.96738191
121.116,2.252276771,4.961658809,-0.7351509471,-0.3694057249,6.272576317
121.1165,-0.7996673061,5.572047624,8.725875692,1.766955129,6.272576317
121.117,-2.630833752,7.098019663,15.44015266,4.513704798,5.96738191
121.1175,-3.241222568,8.318797294,20.62845759,6.95526006,5.051798687
121.118,-2.93602816,7.098019663,24.9011793,7.565648875,3.831021056
121.1185,-2.325639345,4.961658809,26.42715134,6.650065652,2.915437833
121.119,-1.104861714,4.046075586,24.29079048,6.650065652,1.99985461
121.1195,0.7263047324,3.435686771,19.71287437,6.95526006,0.4738825711
121.12,1.947082363,2.520103547,15.44015266,7.565648875,-0.7468950597
121.1205,1.336693548,0.3837426935,12.38820858,7.870843283,-1.052089467
121.121,0.115915917,-1.142229345,11.47262536,7.870843283,-0.7468950597
121.1215,-0.4944728984,-2.668201383,11.77781977,8.481232098,-1.662478283
121.122,-0.7996673061,-4.194173422,11.77781977,9.396815322,-4.409227952
121.1225,-1.104861714,-6.025339868,10.55704214,10.00720414,-6.850783214
121.123,-1.104861714,-7.551311907,8.725875692,10.00720414,-7.155977621
121.1235,0.115915917,-8.161700722,5.979126022,8.786426506,-6.545588806
121.124,2.252276771,-8.161700722,3.232376353,6.344871245,-6.850783214
121.1245,3.167859994,-8.772089538,1.096015499,4.513704798,-8.376755252
121.125,3.167859994,-9.992867168,0.4856266837,4.513704798,-8.68194966
121.1255,4.083443217,-10.29806158,0.4856266837,3.598121575,-8.376755252
121.126,5.914609663,-9.687672761,0.4856266837,1.156566314,-9.292338475
121.1265,6.219804071,-8.772089538,0.180432276,-1.590183356,-10.81831051
121.127,2.862665586,-9.382478353,1.401209907,-2.200572171,-10.2079217
121.1275,-1.410056122,-10.60325598,4.147959576,-0.06421131716,-7.461172029
121.128,-3.546416975,-10.29806158,5.979126022,2.377343944,-4.409227952
121.1285,-2.020444937,-8.161700722,4.758348392,2.98773276,-3.188450321
121.129,-0.1892784907,-6.025339868,2.011598722,2.377343944,-2.883255914
121.1295,0.4211103247,-4.804562237,0.180432276,1.156566314,-1.967672691
121.13,0.4211103247,-4.194173422,-0.1247621317,-0.06421131716,-0.441700652
121.1305,1.641887955,-3.278590199,-2.261122986,-1.895377763,0.4738825711
121.131,2.862665586,-1.447423753,-8.059816732,-3.72654421,2.610243425
121.1315,2.557471179,0.3837426935,-14.7740937,-4.031738617,5.356993094
121.132,1.641887955,2.825297955,-18.741621,-2.810960986,6.272576317
121.1325,1.641887955,6.487630848,-19.35200982,-1.284988948,4.136215463
121.133,2.862665586,8.929186109,-17.52084337,-0.9797945403,1.084271386
121.1335,4.388637625,9.539574925,-13.24812166,-1.284988948,0.7790769788
121.134,3.778248809,9.234380517,-6.839039101,-1.590183356,3.525826648
121.1345,1.947082363,9.844769332,-0.4299565394,-0.06421131716,5.662187502
121.135,1.03149914,11.67593578,2.31679313,1.766955129,5.96738191
121.1355,1.03149914,13.50710222,3.232376353,2.98773276,6.272576317
121.136,1.03149914,14.11749104,5.063542799,2.98773276,7.188159541
121.1365,-0.1892784907,14.72787986,7.505098061,1.766955129,6.577770725
121.137,-2.325639345,15.33826867,8.420681284,0.5461774982,6.577770725
121.1375,-3.851611383,14.11749104,6.894709245,-0.3694057249,12.07127006
121.138,-4.767194606,10.45515815,5.368737207,-0.6746001326,23.97385196
121.1385,-5.377583422,5.266853217,4.147959576,-0.06421131716,33.4348786
121.139,-5.072389014,2.825297955,1.096015499,2.072149537,30.99332334
121.1395,-3.241222568,4.046075586,-4.39748384,3.292927168,19.39593585
121.14,-0.7996673061,6.18243644,-9.890983178,3.598121575,8.408937171
121.1405,1.947082363,6.18243644,-13.24812166,4.208510391,3.831021056
121.141,4.693832032,4.961658809,-16.30006574,5.429288021,1.694660202
121.1415,6.830192886,4.961658809,-21.18317626,5.429288021,-1.967672691
121.142,6.524998479,5.572047624,-23.62473152,4.208510391,-6.240394398
121.1425,3.167859994,4.656464401,-19.04681541,2.682538352,-7.461172029
121.143,0.4211103247,2.21490914,-9.58578877,2.682538352,-6.240394398
121.1435,0.4211103247,0.3837426935,-2.566317393,3.292927168,-6.545588806
121.144,3.167859994,0.07854828584,-0.1247621317,3.598121575,-8.376755252
121.1445,5.609415256,-0.5318405296,0.180432276,3.292927168,-9.292338475
121.145,8.050970517,-3.278590199,1.706404315,3.598121575,-8.987144068
121.1455,12.32369223,-5.414951053,1.401209907,2.98773276,-9.902727291
121.146,15.98602512,-4.804562237,-1.955928578,0.2409830905,-12.34428255
121.1465,13.54446986,-4.194173422,-4.702678247,-2.810960986,-12.34428255
121.147,2.862665586,-6.025339868,-2.871511801,-3.72654421,-8.376755252
121.1475,-10.26069394,-8.46689513,2.011598722,-0.6746001326,-4.104033544
121.148,-17.58535973,-7.856506314,6.28432043,4.208510391,-3.493644729
121.1485,-16.3645821,-3.583784607,7.199903653,7.870843283,-5.935199991
121.149,-11.48147158,-0.2266461219,6.894709245,8.176037691,-8.071560845
121.1495,-7.819138683,0.07854828584,7.199903653,5.734482429,-9.902727291
121.15,-7.208749868,0.07854828584,6.894709245,2.377343944,-12.64947696
121.1505,-7.819138683,0.3837426935,6.589514838,0.5461774982,-14.78583781
121.151,-7.513944276,0.9941315089,7.505098061,-0.06421131716,-12.34428255
121.1515,-5.377583422,1.299325917,9.641458915,-0.6746001326,-7.155977621
121.152,-1.410056122,2.520103547,10.25184773,-1.590183356,-4.104033544
121.1525,3.778248809,5.266853217,8.115486876,-1.895377763,-4.409227952
121.153,9.271748148,6.18243644,5.368737207,-1.895377763,-0.1365062443
121.1535,12.01849782,3.435686771,3.842765168,-2.810960986,12.98685329
121.154,9.576942556,0.6889371012,4.147959576,-4.031738617,28.55176808
121.1545,2.862665586,0.9941315089,5.063542799,-3.72654421,34.04526742
121.155,-2.93602816,3.740881178,5.368737207,-1.895377763,26.41540723
121.1555,-4.767194606,5.877242032,4.758348392,-0.9797945403,14.51282533
121.156,-2.630833752,6.487630848,2.927181945,-2.200572171,8.408937171
121.1565,-0.7996673061,7.098019663,0.4856266837,-2.810960986,7.493353948
121.157,-0.7996673061,8.318797294,-0.7351509471,-0.9797945403,7.493353948
121.1575,-1.410056122,8.623991701,-0.1247621317,0.8513719059,5.662187502
121.158,-1.410056122,7.708408478,1.401209907,1.156566314,3.525826648
121.1585,-1.104861714,6.487630848,1.401209907,0.8513719059,2.610243425
121.159,-1.410056122,6.18243644,0.4856266837,1.156566314,2.305049017
121.1595,-1.715250529,5.877242032,0.4856266837,2.682538352,1.389465794
121.16,-0.7996673061,4.656464401,0.7908210914,3.292927168,0.4738825711
121.1605,0.4211103247,0.9941315089,-0.7351509471,2.98773276,1.694660202
121.161,1.336693548,-3.888979014,-5.007872655,2.682538352,7.798548356
121.1615,0.4211103247,-9.077283945,-7.754622324,2.98773276,15.73360296
121.162,-0.7996673061,-10.90845039,-6.228650286,3.598121575,18.48035263
121.1625,-0.7996673061,-9.382478353,-2.871511801,4.208510391,12.98685329
121.163,1.336693548,-6.635728684,-1.040345355,4.513704798,4.441409871
121.1635,3.473054402,-6.025339868,-1.040345355,3.903315983,-0.441700652
121.164,3.778248809,-7.246117499,-1.65073417,2.682538352,-1.662478283
121.1645,2.862665586,-8.772089538,-1.345539762,2.072149537,-3.188450321
121.165,3.167859994,-9.382478353,-1.65073417,2.377343944,-6.240394398
121.1655,4.388637625,-9.077283945,-1.955928578,2.682538352,-8.68194966
121.166,4.99902644,-8.161700722,-1.65073417,1.766955129,-9.597532883
121.1665,4.388637625,-7.246117499,-1.345539762,0.5461774982,-10.51311611
121.167,4.388637625,-8.161700722,-2.261122986,0.5461774982,-11.42869933
121.1675,4.083443217,-11.2136448,-3.481900616,0.8513719059,-9.597532883
121.168,3.167859994,-14.26558888,-3.176706209,0.5461774982,-4.71442236
121.1685,1.641887955,-15.1811721,-1.040345355,-0.06421131716,-0.1365062443
121.169,1.947082363,-14.57078328,0.7908210914,-0.06421131716,0.1686881634
121.1695,4.388637625,-12.73961684,1.401209907,-0.9797945403,-1.052089467
121.17,5.914609663,-9.687672761,-0.1247621317,-2.200572171,-0.7468950597
121.1705,4.083443217,-6.025339868,-1.345539762,-3.421349802,1.694660202
121.171,1.641887955,-2.973395791,-1.040345355,-3.421349802,4.746604279
121.1715,0.115915917,-1.142229345,-0.1247621317,-2.200572171,5.96738191
121.172,-2.020444937,0.07854828584,-0.1247621317,-2.505766579,5.96738191
121.1725,-5.682777829,2.21490914,-0.4299565394,-3.72654421,5.051798687
121.173,-8.124333091,4.046075586,-0.7351509471,-4.642127433,4.136215463
121.1735,-6.598361052,5.572047624,0.7908210914,-5.252516248,3.22063224
121.174,-2.93602816,7.708408478,4.758348392,-5.557710656,1.694660202
121.1745,-1.715250529,10.76035256,9.031070099,-5.252516248,0.7790769788
121.175,-3.546416975,12.28632459,12.38820858,-4.031738617,0.4738825711
121.1755,-4.767194606,11.67593578,12.9985974,-1.895377763,0.7790769788
121.176,-3.546416975,10.14996374,10.86223655,-1.284988948,1.694660202
121.1765,-0.4944728984,9.844769332,6.894709245,-2.505766579,2.915437833
121.177,1.336693548,10.14996374,3.232376353,-4.642127433,3.22063224
121.1775,2.252276771,9.844769332,0.180432276,-5.252516248,1.99985461
121.178,2.557471179,9.234380517,-2.566317393,-4.031738617,-1.052089467
121.1785,2.557471179,9.539574925,-5.007872655,-2.810960986,-4.104033544
121.179,2.557471179,9.539574925,-4.702678247,-1.895377763,-5.324811175
121.1795,0.7263047324,8.623991701,-1.955928578,-1.895377763,-4.71442236
121.18,-2.93602816,6.792825255,-0.4299565394,-2.200572171,-4.71442236
121.1805,-7.208749868,4.046075586,-2.566317393,-2.505766579,-4.71442236
121.181,-9.039916314,0.6889371012,-7.144233509,-1.895377763,-3.493644729
121.1815,-6.90355546,-1.447423753,-12.33253844,-0.3694057249,-2.272867098
121.182,-3.851611383,-0.8370349373,-17.52084337,0.5461774982,-2.883255914
121.1825,-1.104861714,2.21490914,-19.35200982,0.5461774982,-4.71442236
121.183,0.7263047324,4.656464401,-10.19617759,0.5461774982,-5.630005583
121.1835,3.167859994,3.435686771,9.641458915,2.072149537,-5.324811175
121.184,4.693832032,0.07854828584,27.03754015,4.818899206,-6.545588806
121.1845,5.609415256,-0.8370349373,27.03754015,6.95526006,-9.292338475
121.185,5.609415256,-0.2266461219,10.55704214,7.260454468,-10.51311611
121.1855,5.914609663,-0.2266461219,-6.839039101,6.95526006,-9.902727291
121.186,5.609415256,-2.973395791,-14.16370489,6.95526006,-9.292338475
121.1865,4.99902644,-7.856506314,-12.02734403,5.734482429,-10.51311611
121.187,4.388637625,-12.43442243,-5.923455878,4.513704798,-11.42869933
121.1875,4.693832032,-15.48636651,1.401209907,3.903315983,-10.51311611
121.188,4.083443217,-15.1811721,7.810292469,3.903315983,-8.68194966
121.1885,1.641887955,-12.73961684,9.031070099,2.682538352,-8.68194966
121.189,-0.7996673061,-10.29806158,6.28432043,0.8513719059,-8.376755252
121.1895,-2.93602816,-9.382478353,5.368737207,0.5461774982,-6.240394398
121.19,-5.682777829,-8.46689513,6.28432043,2.98773276,-3.798839137
121.1905,-8.734721906,-6.940923091,0.7908210914,3.903315983,-3.493644729
121.191,-10.26069394,-5.414951053,-12.33253844,-0.06421131716,-5.019616768
121.1915,-10.26069394,-5.414951053,-22.7091483,-5.252516248,-4.71442236
121.192,-10.26069394,-6.635728684,-20.57278745,-6.778488287,-0.7468950597
121.1925,-12.09186039,-7.246117499,-10.50137199,-4.642127433,4.746604279
121.193,-14.22822125,-6.330534276,-3.481900616,-3.116155394,9.019325987
121.1935,-13.92302684,-3.278590199,-1.040345355,-3.72654421,11.15568684
121.194,-10.87108276,2.520103547,1.401209907,-4.642127433,12.98685329
121.1945,-7.513944276,9.844769332,5.368737207,-3.421349802,13.5972421
121.195,-5.072389014,14.72787986,6.589514838,-2.200572171,12.07127006
121.1955,-2.325639345,15.33826867,3.232376353,-2.505766579,8.103742764
121.196,0.4211103247,13.81229663,-0.4299565394,-3.72654421,3.831021056
121.1965,2.862665586,13.20190782,-1.345539762,-3.421349802,1.389465794
121.197,4.083443217,12.28632459,-0.7351509471,-2.810960986,1.084271386
121.1975,3.473054402,9.844769332,-0.1247621317,-3.72654421,1.389465794
121.198,2.252276771,7.098019663,0.4856266837,-5.557710656,0.1686881634
121.1985,1.336693548,6.487630848,1.401209907,-6.778488287,-1.357283875
121.199,0.4211103247,7.708408478,1.401209907,-6.168099471,-2.883255914
121.1995,-1.410056122,8.013602886,2.011598722,-5.252516248,-4.104033544
121.2,-6.293166645,6.792825255,4.147959576,-4.94732184,-5.630005583
121.2005,-12.70224921,4.046075586,5.673931615,-4.336933025,-5.935199991
121.201,-18.50094295,0.6889371012,3.537570761,-3.116155394,-2.578061506
121.2015,-21.24769262,-3.583784607,-0.7351509471,-1.590183356,3.525826648
121.202,-21.24769262,-8.772089538,-3.176706209,-0.3694057249,7.798548356
121.2025,-20.3321094,-13.35000565,-0.7351509471,0.8513719059,8.408937171
121.203,-19.11133177,-18.23311618,2.011598722,2.377343944,6.577770725
121.2035,-15.44899888,-21.89544907,2.31679313,2.377343944,4.746604279
121.204,-6.598361052,-22.20064348,-0.1247621317,1.461760721,1.389465794
121.2045,6.524998479,-18.23311618,-1.65073417,1.461760721,-4.104033544
121.205,19.3431636,-13.65520006,-1.955928578,2.682538352,-9.902727291
121.2055,26.05744057,-11.51883921,-1.345539762,2.682538352,-12.34428255
121.206,24.83666294,-10.90845039,-0.1247621317,0.8513719059,-11.42869933
121.2065,19.03796919,-9.382478353,1.096015499,-0.06421131716,-9.902727291
121.207,12.62888663,-9.077283945,2.927181945,1.461760721,-8.071560845
121.2075,9.271748148,-11.2136448,4.147959576,2.98773276,-5.630005583
121.208,9.271748148,-13.35000565,3.842765168,2.072149537,-3.798839137
121.2085,10.49252578,-11.82403361,2.31679313,-0.06421131716,-4.104033544
121.209,10.18733137,-6.940923091,1.096015499,-0.9797945403,-5.630005583
121.2095,8.356164925,-3.583784607,0.180432276,-0.3694057249,-6.240394398
121.21,7.440581702,-3.583784607,-0.4299565394,-0.06421131716,-4.71442236
121.2105,8.356164925,-3.583784607,-2.261122986,-1.284988948,-2.883255914
121.211,10.18733137,-1.75261816,-3.176706209,-2.810960986,-1.967672691
121.2115,10.18733137,0.6889371012,-1.65073417,-4.031738617,-1.967672691
121.212,8.661359333,3.130492363,1.096015499,-4.94732184,-1.357283875
121.2125,7.135387294,5.572047624,2.927181945,-5.557710656,-0.7468950597
121.213,5.609415256,7.708408478,1.401209907,-4.94732184,0.1686881634
121.2135,4.388637625,9.234380517,-0.1247621317,-4.031738617,1.389465794
121.214,3.778248809,10.14996374,0.180432276,-3.421349802,2.305049017
121.2145,3.778248809,11.98113019,2.621987538,-3.421349802,2.305049017
121.215,3.473054402,14.42268545,3.232376353,-2.810960986,1.084271386
121.2155,2.557471179,15.94865749,2.31679313,-1.895377763,-0.1365062443
121.216,1.336693548,16.25385189,2.011598722,-1.284988948,-1.052089467
121.2165,1.336693548,15.64346308,2.927181945,-1.895377763,-0.7468950597
121.217,1.947082363,14.72787986,2.011598722,-3.421349802,-0.7468950597
121.2175,2.862665586,14.11749104,-2.871511801,-4.94732184,-1.662478283
121.218,3.473054402,13.50710222,-9.890983178,-5.252516248,-3.798839137
121.2185,3.473054402,13.20190782,-13.85851048,-3.421349802,-4.71442236
121.219,1.947082363,12.28632459,-12.33253844,-0.3694057249,-3.798839137
121.2195,-2.020444937,10.76035256,-5.313067063,2.072149537,-2.272867098
121.22,-7.513944276,8.929186109,4.758348392,3.292927168,-0.7468950597
121.2205,-12.09186039,8.013602886,14.52456944,4.208510391,3.831021056
121.221,-13.31263802,6.18243644,21.23884641,5.429288021,13.5972421
121.2215,-12.09186039,2.21490914,23.07001285,5.734482429,22.14268552
121.222,-9.039916314,-1.75261816,20.933652,5.124093614,21.22710229
121.2225,-5.682777829,-4.194173422,16.9661247,4.513704798,10.54529803
121.223,-3.851611383,-3.888979014,11.16743095,4.513704798,-0.7468950597
121.2235,-2.325639345,-3.583784607,4.453153984,2.98773276,-6.240394398
121.224,-0.4944728984,-4.49936783,-0.4299565394,0.2409830905,-6.545588806
121.2245,1.947082363,-6.025339868,-3.787095024,-1.284988948,-6.240394398
121.225,4.388637625,-6.940923091,-7.449427917,-0.3694057249,-7.155977621
121.2255,5.304220848,-8.46689513,-11.72214962,-0.06421131716,-8.071560845
121.226,5.304220848,-9.687672761,-14.7740937,-0.9797945403,-8.376755252
121.2265,6.219804071,-10.60325598,-15.68967692,-3.116155394,-8.68194966
121.227,6.830192886,-9.992867168,-15.07928811,-3.116155394,-8.68194966
121.2275,5.609415256,-8.46689513,-13.85851048,-1.895377763,-8.376755252
121.228,3.167859994,-6.635728684,-9.890983178,-1.590183356,-8.987144068
121.2285,1.03149914,-5.414951053,-1.955928578,-1.284988948,-8.987144068
121.229,-1.104861714,-5.109756645,6.894709245,0.5461774982,-6.240394398
121.2295,-4.767194606,-6.330534276,13.60898621,3.903315983,-0.7468950597
121.23,-8.124333091,-7.246117499,16.9661247,5.734482429,2.915437833
121.2305,-8.124333091,-6.025339868,18.49209674,5.734482429,2.610243425
121.231,-5.072389014,-2.363006976,17.57651352,5.124093614,0.7790769788
121.2315,-2.325639345,0.3837426935,12.08301418,3.598121575,0.4738825711
121.232,-2.325639345,1.909714732,4.147959576,-0.3694057249,2.305049017
121.2325,-2.93602816,2.520103547,-1.345539762,-5.557710656,3.831021056
121.233,-1.715250529,4.046075586,-1.65073417,-7.388877102,4.746604279
121.2335,0.115915917,6.487630848,0.180432276,-6.168099471,6.272576317
121.234,0.115915917,8.013602886,0.4856266837,-4.642127433,7.798548356
121.2345,-0.4944728984,8.318797294,-0.7351509471,-5.252516248,8.408937171
121.235,-1.104861714,8.318797294,-1.955928578,-5.557710656,9.324520394
121.2355,-1.715250529,8.623991701,-0.7351509471,-3.421349802,11.46088125
121.236,-4.767194606,8.623991701,2.621987538,-1.284988948,13.29204769
121.2365,-10.26069394,8.013602886,7.810292469,-0.3694057249,13.5972421
121.237,-14.53341565,7.708408478,12.08301418,-0.06421131716,13.29204769
121.2375,-14.83861006,7.403214071,14.21937503,0.2409830905,12.07127006
121.238,-12.3970548,6.18243644,14.52456944,0.2409830905,9.93490921
121.2385,-10.56588835,4.351269994,14.52456944,-0.06421131716,7.798548356
121.239,-10.87108276,3.435686771,14.82976385,0.5461774982,7.188159541
121.2395,-12.3970548,4.351269994,14.21937503,1.461760721,6.882965133
121.24,-12.09186039,6.792825255,11.77781977,1.461760721,1.694660202
121.2405,-8.429527499,8.623991701,9.641458915,0.2409830905,-7.461172029
121.241,-2.325639345,8.623991701,8.420681284,-0.06421131716,-15.70142104
121.2415,3.778248809,7.403214071,5.063542799,1.461760721,-17.53258748
121.242,9.271748148,5.877242032,-2.566317393,2.682538352,-16.00661544
121.2425,14.46005308,3.740881178,-12.33253844,2.072149537,-15.70142104
121.243,17.81719156,1.604520324,-17.52084337,0.8513719059,-16.61700426
121.2435,17.20680275,-0.2266461219,-16.91045456,1.156566314,-15.39622663
121.244,12.93408104,-1.75261816,-16.60526015,2.377343944,-13.25986578
121.2445,9.576942556,-3.278590199,-21.18317626,2.072149537,-12.64947696
121.245,10.49252578,-5.109756645,-28.81303646,0.2409830905,-11.12350492
121.2455,13.84966426,-8.161700722,-31.86498053,-1.590183356,-4.409227952
121.246,15.07044189,-12.12922802,-27.89745323,-3.116155394,7.493353948
121.2465,12.62888663,-15.79156091,-19.96239863,-3.421349802,16.64918618
121.247,8.661359333,-17.62272736,-12.94292726,-1.590183356,16.95438059
121.2475,5.609415256,-17.01233855,-8.670205547,1.156566314,9.93490921
121.248,4.99902644,-14.87597769,-7.144233509,2.98773276,2.610243425
121.2485,5.304220848,-12.73961684,-6.533844693,1.461760721,-1.052089467
121.249,5.914609663,-10.29806158,-5.923455878,-0.9797945403,-1.967672691
121.2495,5.304220848,-8.161700722,-4.39748384,-3.116155394,-1.052089467
121.25,4.083443217,-6.025339868,-2.261122986,-3.72654421,-0.1365062443
121.2505,3.167859994,-3.888979014,-1.345539762,-4.031738617,0.7790769788
121.251,3.167859994,-1.142229345,-1.65073417,-4.336933025,1.694660202
121.2515,3.473054402,0.3837426935,-2.261122986,-4.336933025,2.610243425
121.252,3.473054402,0.6889371012,-2.261122986,-4.336933025,3.22063224
121.2525,2.862665586,0.3837426935,-2.261122986,-4.94732184,4.136215463
121.253,2.862665586,1.299325917,-1.955928578,-5.862905063,5.356993094
121.2535,3.167859994,3.435686771,-0.7351509471,-5.557710656,6.272576317
121.254,2.557471179,4.961658809,-0.1247621317,-4.336933025,6.577770725
121.2545,1.947082363,5.877242032,-0.1247621317,-3.72654421,6.272576317
121.255,1.947082363,6.792825255,-0.1247621317,-3.72654421,5.356993094
121.2555,2.557471179,8.623991701,0.180432276,-2.810960986,4.441409871
121.256,2.252276771,9.234380517,1.706404315,-0.6746001326,4.136215463
121.2565,-0.1892784907,7.708408478,2.621987538,0.5461774982,5.051798687
121.257,-3.546416975,6.792825255,3.232376353,0.2409830905,5.96738191
121.2575,-5.682777829,7.708408478,5.673931615,-0.06421131716,6.272576317
121.258,-5.072389014,8.929186109,9.031070099,-0.06421131716,4.746604279
121.2585,-3.241222568,8.318797294,10.86223655,1.461760721,2.610243425
121.259,-2.93602816,6.792825255,10.86223655,2.682538352,0.7790769788
121.2595,-4.156805791,5.877242032,11.16743095,3.598121575,0.4738825711
121.26,-6.293166645,5.266853217,11.47262536,4.208510391,1.389465794
121.2605,-7.513944276,2.825297955,10.86223655,4.208510391,1.99985461
121.261,-7.208749868,0.07854828584,9.031070099,3.598121575,1.694660202
121.2615,-6.90355546,-1.447423753,8.115486876,4.513704798,-0.441700652
121.262,-6.90355546,-1.447423753,8.420681284,5.734482429,-4.104033544
121.2625,-5.072389014,-2.057812568,8.725875692,6.039676837,-7.155977621
121.263,-1.104861714,-4.194173422,7.199903653,4.513704798,-8.071560845
121.2635,1.947082363,-5.72014546,5.063542799,2.98773276,-7.155977621
121.264,2.557471179,-6.025339868,1.706404315,3.292927168,-7.766366437
121.2645,1.03149914,-6.940923091,-4.702678247,3.903315983,-9.597532883
121.265,0.115915917,-9.687672761,-12.63773285,3.903315983,-10.81831051
121.2655,0.115915917,-12.12922802,-16.91045456,3.292927168,-10.2079217
121.266,0.115915917,-12.43442243,-15.07928811,3.598121575,-8.68194966
121.2665,0.115915917,-11.82403361,-10.8065664,4.818899206,-8.987144068
121.267,1.336693548,-12.12922802,-8.36501114,4.818899206,-10.2079217
121.2675,3.167859994,-12.73961684,-6.533844693,3.598121575,-9.902727291
121.268,4.99902644,-12.43442243,-4.092289432,2.377343944,-7.766366437
121.2685,5.914609663,-10.90845039,-4.702678247,1.766955129,-6.545588806
121.269,6.524998479,-9.687672761,-11.41695522,0.8513719059,-6.545588806
121.2695,6.830192886,-8.161700722,-19.04681541,-0.9797945403,-6.240394398
121.27,7.135387294,-4.49936783,-19.65720422,-2.810960986,-3.798839137
121.2705,6.830192886,0.3837426935,-13.55331607,-2.810960986,-1.357283875
121.271,6.830192886,3.740881178,-7.449427917,-1.895377763,-0.441700652
121.2715,6.219804071,4.656464401,-5.61826147,-1.895377763,0.4738825711
121.272,6.219804071,4.351269994,-4.702678247,-3.116155394,3.22063224
121.2725,6.830192886,5.877242032,-3.481900616,-5.252516248,5.051798687
121.273,7.135387294,7.708408478,-4.092289432,-7.388877102,4.136215463
121.2735,5.914609663,8.013602886,-7.144233509,-8.304460325,1.99985461
121.274,2.252276771,4.961658809,-9.890983178,-7.388877102,2.610243425
121.2745,-2.020444937,1.299325917,-8.975399955,-4.94732184,5.662187502
121.275,-6.293166645,0.9941315089,-5.61826147,-2.505766579,7.798548356
121.2755,-10.26069394,4.351269994,-2.566317393,-1.284988948,7.798548356
121.276,-12.70224921,8.013602886,-0.1247621317,-0.6746001326,6.882965133
121.2765,-10.56588835,10.14996374,1.706404315,-0.06421131716,5.96738191
121.277,-4.767194606,11.06554696,2.011598722,0.8513719059,2.915437833
121.2775,-2.020444937,12.28632459,2.011598722,2.072149537,-0.441700652
121.278,-6.90355546,11.67593578,4.758348392,3.903315983,-0.441700652
121.2785,-15.75419328,7.098019663,10.55704214,4.513704798,2.610243425
121.279,-18.80613736,-0.5318405296,15.13495825,2.98773276,5.662187502
121.2795,-13.61783243,-7.856506314,13.91418062,1.156566314,5.662187502
121.28,-6.598361052,-11.82403361,9.336264507,0.8513719059,5.051798687
121.2805,-1.715250529,-11.82403361,5.063542799,1.156566314,5.356993094
121.281,2.252276771,-9.077283945,1.706404315,0.8513719059,5.051798687
121.2815,8.96655374,-5.72014546,-2.261122986,0.2409830905,2.305049017
121.282,14.46005308,-3.583784607,-6.533844693,-0.06421131716,-1.052089467
121.2825,14.46005308,-3.583784607,-8.975399955,-0.06421131716,-2.883255914
121.283,8.661359333,-3.888979014,-7.754622324,-0.6746001326,-3.188450321
121.2835,0.7263047324,-3.583784607,-4.39748384,-1.284988948,-2.272867098
121.284,-5.987972237,-3.583784607,-1.345539762,0.5461774982,-0.1365062443
121.2845,-11.17627717,-4.49936783,-0.4299565394,4.208510391,2.305049017
121.285,-13.31263802,-6.025339868,-0.7351509471,5.734482429,0.7790769788
121.2855,-13.31263802,-6.330534276,-0.4299565394,4.818899206,-3.188450321
121.286,-12.70224921,-6.330534276,2.31679313,4.513704798,-5.324811175
121.2865,-13.31263802,-8.46689513,7.199903653,6.344871245,-1.967672691
121.287,-13.61783243,-12.73961684,10.25184773,7.565648875,1.99985461
121.2875,-11.78666598,-15.1811721,9.946653322,6.344871245,1.694660202
121.288,-7.513944276,-13.65520006,7.810292469,3.903315983,-1.357283875
121.2885,-4.156805791,-9.077283945,6.28432043,2.682538352,-2.578061506
121.289,-3.241222568,-5.414951053,5.368737207,3.598121575,-1.662478283
121.2895,-5.377583422,-3.888979014,4.758348392,4.513704798,-1.357283875
121.29,-8.734721906,-2.668201383,4.147959576,3.598121575,-2.272867098
121.2905,-11.17627717,-0.5318405296,5.063542799,0.8513719059,-2.272867098
121.291,-12.70224921,1.299325917,5.673931615,-1.895377763,-1.052089467
121.2915,-14.53341565,2.520103547,5.673931615,-3.421349802,-0.1365062443
121.292,-16.05938769,2.825297955,4.453153984,-3.116155394,1.389465794
121.2925,-13.31263802,3.740881178,2.31679313,-2.200572171,3.525826648
121.293,-4.462000199,4.656464401,-0.7351509471,-2.200572171,5.96738191
121.2935,6.524998479,5.877242032,-4.702678247,-3.421349802,5.96738191
121.294,13.84966426,7.098019663,-6.533844693,-3.72654421,4.746604279
121.2945,15.3756363,8.929186109,-5.007872655,-3.116155394,5.051798687
121.295,14.46005308,10.45515815,-2.566317393,-2.505766579,6.882965133
121.2955,14.76524749,11.06554696,-3.481900616,-3.116155394,8.103742764
121.296,15.3756363,10.76035256,-6.839039101,-3.421349802,7.798548356
121.2965,14.76524749,10.45515815,-8.36501114,-2.810960986,7.493353948
121.297,14.15485867,11.06554696,-6.228650286,-1.895377763,7.188159541
121.2975,14.46005308,11.67593578,-3.176706209,-1.590183356,5.051798687
121.298,13.84966426,11.67593578,-3.787095024,-1.895377763,1.694660202
121.2985,9.576942556,10.76035256,-6.533844693,-1.895377763,-0.441700652
121.299,1.947082363,9.844769332,-6.839039101,-1.590183356,-1.052089467
121.2995,-3.546416975,8.623991701,-2.871511801,-1.284988948,-0.7468950597
121.3,-4.767194606,7.403214071,1.706404315,-1.284988948,-0.7468950597
121.3005,-3.851611383,6.792825255,5.368737207,-0.9797945403,-1.052089467
121.301,-3.851611383,6.792825255,11.16743095,-0.06421131716,-1.662478283
121.3015,-5.377583422,6.792825255,20.933652,1.156566314,-2.578061506
121.302,-6.598361052,4.961658809,30.08948423,2.682538352,-3.798839137
121.3025,-5.682777829,3.130492363,31.31026186,3.903315983,-5.324811175
121.303,-3.546416975,1.909714732,23.37520726,3.292927168,-8.071560845
121.3035,-1.410056122,1.909714732,13.30379181,1.766955129,-10.51311611
121.304,0.115915917,1.299325917,7.199903653,0.5461774982,-11.42869933
121.3045,0.115915917,-0.2266461219,4.453153984,1.156566314,-9.902727291
121.305,-1.410056122,-2.973395791,3.537570761,2.377343944,-8.376755252
121.3055,-2.630833752,-5.109756645,4.453153984,2.682538352,-7.766366437
121.306,-1.715250529,-5.72014546,6.589514838,1.766955129,-8.071560845
121.3065,0.115915917,-5.414951053,8.115486876,0.8513719059,-8.376755252
121.307,0.4211103247,-4.804562237,7.505098061,0.8513719059,-9.902727291
121.3075,-1.715250529,-4.49936783,5.673931615,1.461760721,-11.73389374
121.308,-2.325639345,-4.49936783,1.096015499,1.156566314,-12.34428255
121.3085,1.336693548,-3.583784607,-8.059816732,-0.06421131716,-11.73389374
121.309,6.524998479,-1.142229345,-19.96239863,-2.505766579,-12.34428255
121.3095,7.74577611,0.6889371012,-26.06628679,-4.031738617,-13.87025459
121.31,5.304220848,0.9941315089,-21.48837067,-5.252516248,-13.56506018
121.3105,4.083443217,1.299325917,-12.94292726,-5.862905063,-12.03908814
121.311,7.135387294,3.130492363,-9.58578877,-6.473293879,-11.73389374
121.3115,10.49252578,5.877242032,-11.72214962,-6.473293879,-11.12350492
121.312,9.882136963,6.487630848,-13.55331607,-6.473293879,-4.104033544
121.3125,6.830192886,3.435686771,-9.58578877,-5.862905063,7.798548356
121.313,5.304220848,0.07854828584,-2.261122986,-4.94732184,15.12321414
121.3135,6.524998479,0.07854828584,2.31679313,-3.421349802,12.98685329
121.314,8.050970517,2.825297955,1.401209907,-2.505766579,10.54529803
121.3145,8.050970517,6.487630848,-3.787095024,-2.200572171,17.86996381
121.315,6.830192886,7.403214071,-9.58578877,-3.116155394,29.77254571
121.3155,5.609415256,6.487630848,-11.11176081,-2.810960986,33.1296842
121.316,3.473054402,5.572047624,-8.059816732,-1.284988948,25.80501841
121.3165,0.7263047324,6.487630848,-4.39748384,0.2409830905,16.95438059
121.317,-0.7996673061,8.623991701,-3.787095024,0.8513719059,13.29204769
121.3175,-0.7996673061,10.14996374,-5.313067063,1.156566314,11.46088125
121.318,-0.4944728984,10.45515815,-5.007872655,1.461760721,9.019325987
121.3185,-0.7996673061,9.844769332,-3.176706209,1.766955129,7.798548356
121.319,-0.4944728984,9.844769332,-1.345539762,1.461760721,7.493353948
121.3195,1.336693548,9.539574925,-0.4299565394,1.156566314,5.96738191
121.32,2.557471179,8.013602886,1.706404315,2.072149537,2.915437833
121.3205,0.115915917,5.266853217,5.673931615,3.598121575,1.694660202
121.321,-3.851611383,2.520103547,9.336264507,4.818899206,2.915437833
121.3215,-5.377583422,0.9941315089,10.25184773,5.734482429,3.525826648
121.322,-2.325639345,-0.2266461219,9.336264507,6.95526006,1.389465794
121.3225,1.641887955,-1.447423753,7.505098061,7.260454468,-0.441700652
121.323,3.473054402,-2.668201383,4.758348392,6.344871245,-1.662478283
121.3235,3.778248809,-3.278590199,2.31679313,4.818899206,-3.188450321
121.324,4.388637625,-4.804562237,1.096015499,4.513704798,-4.409227952
121.3245,4.388637625,-6.635728684,1.401209907,5.734482429,-4.104033544
121.325,1.641887955,-8.161700722,1.096015499,6.344871245,-3.798839137
121.3255,-2.020444937,-8.46689513,-0.1247621317,5.124093614,-6.240394398
121.326,-4.767194606,-8.161700722,-1.345539762,3.903315983,-9.292338475
121.3265,-5.072389014,-7.246117499,-0.7351509471,3.598121575,-9.597532883
121.327,-5.072389014,-6.330534276,0.180432276,3.598121575,-7.766366437
121.3275,-5.072389014,-6.330534276,0.180432276,3.292927168,-7.461172029
121.328,-4.462000199,-6.940923091,-1.345539762,3.598121575,-9.902727291
121.3285,-3.241222568,-7.246117499,-2.261122986,5.429288021,-11.42869933
121.329,-2.630833752,-6.025339868,-0.4299565394,6.344871245,-9.902727291
121.3295,-3.546416975,-3.888979014,2.621987538,5.429288021,-8.071560845
121.33,-4.767194606,-2.668201383,6.894709245,3.903315983,-7.461172029
121.3305,-4.767194606,-1.75261816,11.16743095,2.98773276,-6.850783214
121.331,-4.156805791,0.07854828584,13.91418062,2.377343944,-4.71442236
121.3315,-4.156805791,4.961658809,13.30379181,0.5461774982,-2.578061506
121.332,-5.987972237,10.14996374,9.336264507,-1.284988948,-1.357283875
121.3325,-9.039916314,13.20190782,5.673931615,-1.590183356,0.4738825711
121.333,-12.09186039,13.20190782,5.979126022,-0.06421131716,3.831021056
121.3335,-12.3970548,11.98113019,8.420681284,1.156566314,7.188159541
121.334,-9.955499537,11.06554696,9.336264507,-0.06421131716,7.798548356
121.3345,-5.987972237,10.76035256,7.505098061,-2.810960986,6.882965133
121.335,-2.325639345,10.14996374,4.758348392,-4.336933025,6.577770725
121.3355,0.115915917,8.013602886,2.927181945,-3.72654421,7.188159541
121.336,1.641887955,5.572047624,0.7908210914,-2.810960986,6.882965133
121.3365,2.252276771,3.435686771,-0.7351509471,-2.200572171,6.272576317
121.337,1.641887955,2.825297955,-1.65073417,-1.590183356,5.662187502
121.3375,1.641887955,2.825297955,-2.261122986,-0.6746001326,5.051798687
121.338,2.862665586,2.520103547,-5.313067063,-0.06421131716,4.136215463
121.3385,4.99902644,2.825297955,-11.41695522,0.5461774982,2.610243425
121.339,6.524998479,3.435686771,-16.91045456,0.5461774982,0.4738825711
121.3395,7.135387294,2.520103547,-15.99487133,-0.06421131716,-0.441700652
121.34,7.74577611,-1.447423753,-8.975399955,-0.3694057249,-0.7468950597
121.3405,8.356164925,-6.025339868,-1.65073417,-0.9797945403,-0.441700652
121.341,8.050970517,-8.46689513,0.4856266837,-0.9797945403,-0.441700652
121.3415,6.524998479,-8.772089538,-1.040345355,-0.6746001326,-0.1365062443
121.342,4.99902644,-9.992867168,-3.176706209,0.2409830905,0.7790769788
121.3425,4.388637625,-12.73961684,-3.787095024,1.461760721,1.694660202
121.343,4.693832032,-13.96039447,-5.007872655,1.461760721,1.389465794
121.3435,5.304220848,-11.82403361,-8.670205547,-0.06421131716,-0.441700652
121.344,5.609415256,-8.46689513,-11.11176081,-2.200572171,-3.188450321
121.3445,5.304220848,-7.551311907,-9.58578877,-2.810960986,-5.019616768
121.345,4.388637625,-8.772089538,-6.533844693,-2.810960986,-6.850783214
121.3455,3.778248809,-9.687672761,-6.533844693,-3.116155394,-8.987144068
121.346,3.473054402,-9.382478353,-11.11176081,-4.336933025,-8.987144068
121.3465,2.252276771,-9.077283945,-15.99487133,-5.252516248,-5.935199991
121.347,0.115915917,-9.382478353,-16.60526015,-4.94732184,-2.883255914
121.3475,-1.410056122,-9.992867168,-15.38448252,-4.642127433,-1.967672691
121.348,-1.410056122,-10.29806158,-15.99487133,-4.336933025,-1.967672691
121.3485,-2.020444937,-9.992867168,-17.82603778,-2.505766579,-0.441700652
121.349,-4.767194606,-9.077283945,-15.68967692,1.156566314,1.694660202
121.3495,-8.734721906,-7.551311907,-7.754622324,4.513704798,2.305049017
121.35,-11.48147158,-6.025339868,0.180432276,4.513704798,1.084271386
121.3505,-12.09186039,-3.888979014,4.147959576,1.461760721,0.1686881634
121.351,-10.56588835,-1.142229345,4.758348392,-1.284988948,-0.1365062443
121.3515,-7.513944276,0.6889371012,4.758348392,-1.895377763,0.4738825711
121.352,-3.546416975,1.604520324,3.842765168,-1.284988948,2.305049017
121.3525,-1.104861714,0.9941315089,1.096015499,-1.590183356,5.662187502
121.353,-1.104861714,0.6889371012,0.4856266837,-2.810960986,7.798548356
121.3535,-2.630833752,2.520103547,7.199903653,-3.116155394,7.188159541
121.354,-3.546416975,6.487630848,18.49209674,-2.505766579,5.662187502
121.3545,-3.851611383,9.539574925,26.73234575,-1.590183356,6.272576317
121.355,-4.767194606,9.844769332,30.08948423,-0.3694057249,8.103742764
121.3555,-3.851611383,8.929186109,33.14142831,0.5461774982,8.103742764
121.356,1.336693548,9.234380517,34.97259475,0.2409830905,5.356993094
121.3565,9.882136963,11.06554696,28.25831778,-2.200572171,2.915437833
121.357,15.68083071,12.591519,11.16743095,-6.473293879,2.305049017
121.3575,14.46005308,12.28632459,-4.702678247,-8.914849141,1.99985461
121.358,8.96655374,10.76035256,-8.059816732,-7.388877102,1.694660202
121.3585,4.388637625,8.318797294,-2.261122986,-3.72654421,1.99985461
121.359,4.388637625,5.877242032,2.31679313,-0.9797945403,3.831021056
121.3595,6.219804071,4.046075586,2.31679313,-0.3694057249,5.051798687
121.36,6.524998479,2.825297955,0.180432276,-1.284988948,4.136215463
121.3605,5.609415256,1.909714732,-1.65073417,-2.505766579,2.305049017
121.361,4.99902644,0.6889371012,-6.533844693,-3.421349802,1.389465794
121.3615,5.609415256,0.07854828584,-12.94292726,-4.031738617,0.4738825711
121.362,4.99902644,0.07854828584,-14.7740937,-4.94732184,-0.1365062443
121.3625,1.336693548,-0.8370349373,-10.19617759,-4.94732184,-1.357283875
121.363,-3.546416975,-2.363006976,-3.176706209,-4.031738617,-2.272867098
121.3635,-7.208749868,-4.49936783,0.7908210914,-1.590183356,-4.104033544
121.364,-7.513944276,-6.940923091,2.621987538,0.5461774982,-5.630005583
121.3645,-5.682777829,-8.46689513,3.537570761,2.072149537,-6.240394398
121.365,-2.630833752,-9.077283945,3.537570761,2.072149537,-6.240394398
121.3655,1.03149914,-8.46689513,2.011598722,1.461760721,-7.461172029
121.366,5.609415256,-6.940923091,-0.1247621317,1.156566314,-11.12350492
121.3665,8.661359333,-5.72014546,-2.261122986,0.5461774982,-14.78583781
121.367,8.661359333,-5.414951053,-3.787095024,0.2409830905,-15.70142104
121.3675,7.135387294,-5.414951053,-4.39748384,-0.06421131716,-15.39622663
121.368,5.304220848,-5.109756645,-3.481900616,-0.9797945403,-15.09103222
121.3685,3.473054402,-5.109756645,-3.176706209,-2.200572171,-14.78583781
121.369,1.336693548,-5.109756645,-4.39748384,-2.505766579,-12.34428255
121.3695,0.115915917,-4.194173422,-5.007872655,-2.505766579,-8.68194966
121.37,1.03149914,-2.057812568,-2.871511801,-3.72654421,-7.461172029
121.3705,2.252276771,0.07854828584,-0.1247621317,-5.862905063,-8.987144068
121.371,1.336693548,0.07854828584,1.096015499,-7.388877102,-7.766366437
121.3715,-2.325639345,-0.8370349373,0.180432276,-7.083682694,-0.1365062443
121.372,-7.208749868,-1.75261816,-0.4299565394,-5.252516248,11.15568684
121.3725,-11.17627717,-0.8370349373,-0.1247621317,-3.421349802,18.78554703
121.373,-12.70224921,1.299325917,2.011598722,-3.116155394,18.78554703
121.3735,-12.3970548,3.740881178,3.842765168,-3.421349802,15.42840855
121.374,-10.26069394,5.572047624,4.758348392,-3.72654421,13.90243651
121.3745,-7.819138683,6.792825255,3.537570761,-4.642127433,14.20763092
121.375,-6.598361052,7.403214071,0.7908210914,-5.252516248,13.5972421
121.3755,-6.293166645,7.708408478,-1.345539762,-4.642127433,11.76607566
121.376,-5.987972237,7.708408478,-1.65073417,-2.810960986,11.76607566
121.3765,-5.072389014,7.098019663,-0.7351509471,-0.9797945403,13.90243651
121.377,-3.851611383,6.487630848,-1.345539762,-0.3694057249,14.81801973
121.3775,-3.241222568,5.877242032,-2.871511801,-0.6746001326,12.98685329
121.378,-1.715250529,5.572047624,-2.871511801,-0.6746001326,10.24010362
121.3785,0.115915917,5.572047624,-0.4299565394,-0.06421131716,9.324520394
121.379,1.336693548,5.572047624,1.401209907,1.461760721,8.408937171
121.3795,1.03149914,5.572047624,2.927181945,2.98773276,5.356993094
121.38,0.4211103247,5.266853217,4.147959576,3.598121575,1.389465794
121.3805,1.336693548,4.656464401,5.979126022,3.598121575,-1.052089467
121.381,2.862665586,2.825297955,6.894709245,2.682538352,-2.578061506
121.3815,2.862665586,0.3837426935,6.894709245,2.377343944,-4.71442236
121.382,1.336693548,-1.447423753,7.505098061,2.682538352,-6.850783214
121.3825,0.115915917,-3.278590199,8.420681284,3.903315983,-6.545588806
121.383,-1.104861714,-4.49936783,8.115486876,5.429288021,-4.71442236
121.3835,-2.630833752,-4.804562237,5.979126022,6.039676837,-5.324811175
121.384,-4.767194606,-4.194173422,3.232376353,5.734482429,-10.51311611
121.3845,-5.377583422,-4.49936783,1.096015499,5.429288021,-16.61700426
121.385,-3.851611383,-6.635728684,-1.345539762,5.734482429,-19.36375393
121.3855,-1.104861714,-8.46689513,-4.702678247,6.039676837,-20.27933715
121.386,1.641887955,-8.772089538,-7.144233509,5.124093614,-23.02608682
121.3865,4.083443217,-7.856506314,-6.533844693,2.98773276,-26.38322531
121.387,5.914609663,-8.161700722,-3.481900616,1.766955129,-26.0780309
121.3875,5.914609663,-9.687672761,-0.4299565394,2.072149537,-21.80530919
121.388,4.388637625,-10.29806158,0.7908210914,3.292927168,-18.75336511
121.3885,4.388637625,-8.46689513,1.401209907,4.208510391,-18.44817071
121.389,6.219804071,-5.109756645,1.096015499,3.903315983,-15.09103222
121.3895,8.356164925,-3.278590199,0.4856266837,2.98773276,-3.798839137
121.39,8.050970517,-3.278590199,-0.1247621317,1.461760721,9.93490921
121.3905,6.219804071,-4.804562237,-1.040345355,-0.06421131716,17.25957499
121.391,4.99902644,-5.414951053,-1.955928578,-0.6746001326,16.95438059
121.3915,4.083443217,-4.194173422,-2.871511801,-0.6746001326,17.25957499
121.392,1.947082363,-1.75261816,-2.261122986,-0.3694057249,23.05826874
121.3925,-0.4944728984,-0.8370349373,-0.1247621317,-0.3694057249,30.07774012
121.393,-2.630833752,-1.75261816,1.706404315,-0.6746001326,30.38293453
121.3935,-3.546416975,-2.973395791,3.842765168,-0.3694057249,23.36346315
121.394,-3.851611383,-0.8370349373,6.894709245,-0.06421131716,15.42840855
121.3945,-3.241222568,3.740881178,10.86223655,0.5461774982,10.54529803
121.395,-1.715250529,8.929186109,12.38820858,0.2409830905,8.103742764
121.3955,-0.1892784907,11.06554696,10.86223655,-0.3694057249,5.356993094
121.396,0.7263047324,9.844769332,8.725875692,-0.06421131716,2.305049017
121.3965,2.557471179,7.098019663,7.505098061,1.156566314,0.4738825711
121.397,5.609415256,3.130492363,4.147959576,2.377343944,-0.441700652
121.3975,5.914609663,-0.5318405296,1.096015499,2.682538352,-0.7468950597
121.398,1.03149914,-3.278590199,5.063542799,2.98773276,-0.1365062443
121.3985,-5.377583422,-3.278590199,14.82976385,4.513704798,0.4738825711
121.399,-7.513944276,-2.363006976,16.35573588,5.734482429,0.7790769788
121.3995,-3.851611383,-2.057812568,-0.4299565394,5.429288021,0.7790769788
121.4,-0.4944728984,-2.363006976,-24.84550916,4.208510391,0.7790769788
121.4005,-2.020444937,-2.363006976,-35.83250783,4.818899206,0.4738825711
121.401,-5.682777829,-1.447423753,-30.33900849,6.039676837,-0.7468950597
121.4015,-6.598361052,-1.142229345,-24.84550916,6.039676837,-3.798839137
121.402,-4.767194606,-1.447423753,-28.20264764,4.818899206,-6.545588806
121.4025,-4.767194606,-1.447423753,-31.55978612,3.903315983,-8.071560845
121.403,-7.819138683,-0.8370349373,-24.54031475,3.292927168,-8.987144068
121.4035,-11.17627717,-0.2266461219,-12.33253844,1.766955129,-11.12350492
121.404,-11.17627717,-1.142229345,-6.228650286,-0.3694057249,-14.175449
121.4045,-6.598361052,-2.057812568,-6.533844693,-0.9797945403,-16.61700426
121.405,0.4211103247,-2.668201383,-5.313067063,0.2409830905,-17.83778189
121.4055,5.304220848,-2.973395791,-1.955928578,2.682538352,-17.22739308
121.406,4.083443217,-3.278590199,-0.1247621317,3.903315983,-16.00661544
121.4065,-1.715250529,-4.194173422,0.7908210914,5.124093614,-15.39622663
121.407,-6.293166645,-5.414951053,3.537570761,6.039676837,-16.61700426
121.4075,-3.546416975,-6.635728684,6.894709245,6.039676837,-17.53258748
121.408,3.473054402,-8.46689513,6.28432043,4.818899206,-14.78583781
121.4085,9.271748148,-10.29806158,1.096015499,3.292927168,-8.376755252
121.409,11.408109,-10.60325598,-3.787095024,2.072149537,-1.662478283
121.4095,12.62888663,-9.382478353,-5.61826147,1.156566314,1.389465794
121.41,14.46005308,-7.246117499,-5.61826147,-0.06421131716,1.694660202
121.4105,15.3756363,-6.025339868,-4.39748384,-0.6746001326,1.99985461
121.411,14.15485867,-4.804562237,-2.566317393,0.2409830905,2.915437833
121.4115,12.93408104,-2.973395791,-1.040345355,0.5461774982,3.831021056
121.412,12.93408104,0.07854828584,-0.7351509471,-1.284988948,4.746604279
121.4125,12.32369223,1.909714732,-1.040345355,-3.72654421,5.96738191
121.413,9.271748148,3.130492363,0.180432276,-4.336933025,6.882965133
121.4135,4.99902644,3.740881178,2.31679313,-2.810960986,6.882965133
121.414,2.557471179,5.266853217,3.232376353,-2.505766579,7.188159541
121.4145,1.336693548,7.403214071,2.621987538,-3.421349802,9.019325987
121.415,0.7263047324,8.929186109,2.927181945,-4.642127433,10.85049243
121.4155,-0.1892784907,9.234380517,3.842765168,-5.252516248,10.85049243
121.416,-0.7996673061,9.234380517,4.147959576,-5.252516248,9.93490921
121.4165,-0.7996673061,9.539574925,2.31679313,-4.94732184,9.019325987
121.417,-1.715250529,10.76035256,0.180432276,-3.72654421,8.408937171
121.4175,-3.546416975,12.591519,-0.1247621317,-1.895377763,6.882965133
121.418,-5.377583422,13.81229663,1.401209907,-0.3694057249,4.441409871
121.4185,-5.682777829,13.81229663,4.147959576,-0.06421131716,1.694660202
121.419,-4.767194606,12.28632459,5.979126022,0.5461774982,-0.1365062443
121.4195,-3.241222568,10.45515815,6.894709245,1.461760721,-1.662478283
121.42,-2.630833752,8.318797294,6.894709245,1.766955129,-3.493644729
121.4205,-2.325639345,5.877242032,6.28432043,1.461760721,-4.104033544
121.421,-1.410056122,2.520103547,4.147959576,0.8513719059,-3.798839137
121.4215,0.115915917,0.3837426935,2.31679313,0.2409830905,-4.409227952
121.422,1.03149914,0.07854828584,1.401209907,0.2409830905,-6.850783214
121.4225,0.7263047324,0.07854828584,2.927181945,0.2409830905,-9.597532883
121.423,0.115915917,-0.5318405296,3.842765168,0.2409830905,-10.81831051
121.4235,0.4211103247,-2.668201383,2.011598722,1.156566314,-11.42869933
121.424,1.336693548,-5.109756645,-0.7351509471,2.682538352,-12.03908814
121.4245,1.336693548,-7.246117499,-2.261122986,4.208510391,-12.95467137
121.425,0.7263047324,-8.772089538,-1.345539762,4.513704798,-12.64947696
121.4255,0.4211103247,-9.992867168,-1.65073417,3.598121575,-11.42869933
121.426,1.03149914,-10.29806158,-3.176706209,2.072149537,-10.2079217
121.4265,1.336693548,-9.382478353,-4.092289432,0.8513719059,-9.902727291
121.427,1.336693548,-8.161700722,-2.261122986,-0.06421131716,-9.597532883
121.4275,1.641887955,-8.161700722,0.7908210914,-0.3694057249,-8.376755252
121.428,1.03149914,-9.382478353,3.842765168,-0.3694057249,-6.545588806
121.4285,-1.104861714,-9.992867168,7.505098061,0.2409830905,-5.019616768
121.429,-2.93602816,-7.246117499,11.77781977,0.8513719059,-4.409227952
121.4295,-2.020444937,-2.973395791,13.30379181,-0.06421131716,-3.798839137
121.43,0.115915917,0.07854828584,11.16743095,-2.810960986,-3.188450321
121.4305,0.7263047324,0.6889371012,8.115486876,-5.252516248,-1.967672691
121.431,-0.7996673061,0.6889371012,7.199903653,-5.862905063,0.1686881634
121.4315,-2.020444937,1.909714732,7.810292469,-5.862905063,2.305049017
121.432,-2.020444937,3.740881178,6.28432043,-6.168099471,4.136215463
121.4325,-3.241222568,4.961658809,2.31679313,-6.473293879,5.356993094
121.433,-5.377583422,5.266853217,-1.345539762,-5.862905063,5.96738191
121.4335,-5.987972237,5.266853217,-4.702678247,-5.252516248,6.577770725
121.434,-3.241222568,5.877242032,-7.449427917,-5.862905063,6.577770725
121.4345,-0.1892784907,6.18243644,-10.19617759,-6.473293879,6.272576317
121.435,0.115915917,6.487630848,-12.94292726,-5.252516248,5.662187502
121.4355,0.115915917,7.403214071,-17.21564896,-3.116155394,5.662187502
121.436,0.7263047324,8.929186109,-23.31953712,-2.200572171,5.356993094
121.4365,0.115915917,10.14996374,-26.06628679,-2.810960986,3.831021056
121.437,-2.630833752,10.76035256,-20.87798186,-3.421349802,2.305049017
121.4375,-4.156805791,11.67593578,-9.890983178,-2.505766579,1.389465794
121.438,-3.546416975,11.67593578,-0.7351509471,-1.284988948,2.305049017
121.4385,-2.630833752,10.76035256,2.621987538,-0.3694057249,3.525826648
121.439,-3.546416975,9.234380517,4.453153984,0.2409830905,3.22063224
121.4395,-4.767194606,8.013602886,7.505098061,1.461760721,1.694660202
121.44,-3.546416975,7.403214071,10.86223655,2.98773276,-0.1365062443
121.4405,-1.410056122,6.487630848,10.55704214,3.598121575,-1.357283875
121.441,0.4211103247,4.351269994,7.505098061,4.208510391,-1.967672691
121.4415,3.473054402,1.909714732,3.232376353,4.513704798,-3.493644729
121.442,8.96655374,-0.5318405296,-0.1247621317,3.292927168,-5.324811175
121.4425,14.46005308,-2.668201383,-2.261122986,1.156566314,-5.935199991
121.443,15.3756363,-4.194173422,-3.481900616,0.2409830905,-5.019616768
121.4435,13.54446986,-5.109756645,-3.176706209,1.461760721,-3.188450321
121.444,12.01849782,-6.635728684,-2.566317393,2.682538352,-2.272867098
121.4445,11.71330341,-9.687672761,-1.65073417,1.461760721,-1.662478283
121.445,8.356164925,-12.73961684,-1.040345355,-0.06421131716,-1.052089467
121.4455,0.7263047324,-14.57078328,-0.4299565394,-0.3694057249,-0.1365062443
121.446,-6.293166645,-14.26558888,0.180432276,0.5461774982,0.7790769788
121.4465,-9.039916314,-13.35000565,1.096015499,1.156566314,1.084271386
121.447,-7.819138683,-12.43442243,1.401209907,0.2409830905,1.084271386
121.4475,-5.377583422,-12.12922802,0.7908210914,-0.3694057249,1.084271386
121.448,-5.072389014,-12.12922802,-0.1247621317,-0.3694057249,1.084271386
121.4485,-5.682777829,-12.73961684,-0.4299565394,-1.284988948,0.7790769788
121.449,-5.682777829,-12.43442243,0.4856266837,-3.72654421,0.7790769788
121.4495,-3.851611383,-10.29806158,1.401209907,-6.168099471,1.694660202
121.45,-0.7996673061,-6.940923091,0.4856266837,-6.473293879,2.610243425
121.4505,1.336693548,-2.973395791,-1.040345355,-4.94732184,1.99985461
121.451,2.862665586,0.07854828584,-1.955928578,-4.336933025,-0.1365062443
121.4515,4.388637625,1.909714732,-1.955928578,-5.557710656,-2.272867098
121.452,5.914609663,3.130492363,-2.566317393,-7.388877102,-1.967672691
121.4525,6.524998479,4.656464401,-3.787095024,-7.69407151,-0.1365062443
121.453,5.914609663,6.18243644,-4.39748384,-6.473293879,0.7790769788
121.4535,4.99902644,7.403214071,-3.481900616,-5.252516248,0.1686881634
121.454,4.388637625,7.403214071,-2.566317393,-4.94732184,0.1686881634
121.4545,3.778248809,7.098019663,-1.345539762,-4.642127433,2.915437833
121.455,2.862665586,8.013602886,0.7908210914,-3.421349802,5.96738191
121.4555,1.336693548,9.539574925,4.147959576,-1.590183356,6.272576317
121.456,-0.1892784907,10.14996374,5.979126022,-0.6746001326,5.356993094
121.4565,-3.241222568,7.708408478,5.063542799,-1.284988948,9.019325987
121.457,-6.598361052,3.740881178,3.842765168,-1.895377763,17.25957499
121.4575,-8.734721906,0.6889371012,4.758348392,-0.9797945403,23.36346315
121.458,-8.429527499,0.07854828584,6.894709245,1.156566314,21.83749111
121.4585,-7.208749868,0.07854828584,8.725875692,2.682538352,15.42840855
121.459,-5.987972237,0.07854828584,8.725875692,2.682538352,9.324520394
121.4595,-5.377583422,0.3837426935,7.810292469,2.377343944,5.356993094
121.46,-4.462000199,1.299325917,6.589514838,2.98773276,1.99985461
121.4605,-3.546416975,0.9941315089,5.368737207,3.598121575,-0.441700652
121.461,-3.241222568,-0.5318405296,5.063542799,2.072149537,-1.967672691
121.4615,-3.546416975,-2.363006976,5.063542799,-0.6746001326,-2.578061506
121.462,-3.241222568,-2.057812568,5.673931615,-2.200572171,-3.798839137
121.4625,-3.546416975,-1.447423753,7.505098061,-0.9797945403,-5.019616768
121.463,-5.072389014,-2.363006976,10.25184773,1.461760721,-5.935199991
121.4635,-6.598361052,-4.194173422,12.08301418,3.292927168,-7.155977621
121.464,-6.293166645,-4.804562237,11.77781977,3.598121575,-8.68194966
121.4645,-4.767194606,-5.109756645,9.641458915,3.598121575,-9.597532883
121.465,-3.851611383,-6.025339868,7.505098061,3.903315983,-8.987144068
121.4655,-4.156805791,-6.940923091,5.979126022,2.98773276,-8.987144068
121.466,-4.462000199,-6.635728684,5.673931615,1.461760721,-10.81831051
121.4665,-4.156805791,-5.72014546,5.673931615,-0.06421131716,-12.64947696
121.467,-4.156805791,-5.414951053,5.368737207,-0.3694057249,-11.73389374
121.4675,-3.546416975,-4.804562237,3.537570761,-0.3694057249,-10.2079217
121.468,-0.7996673061,-2.973395791,-0.4299565394,-0.6746001326,-10.2079217
121.4685,3.167859994,-0.5318405296,-6.228650286,-1.590183356,-9.902727291
121.469,6.219804071,-0.8370349373,-11.41695522,-2.810960986,-7.461172029
121.4695,6.524998479,-2.363006976,-14.7740937,-2.810960986,-6.240394398
121.47,4.693832032,-1.75261816,-15.99487133,-2.505766579,-6.850783214
121.4705,3.778248809,2.520103547,-14.7740937,-1.590183356,-4.409227952
121.471,3.778248809,7.098019663,-10.19617759,-1.590183356,6.882965133
121.4715,3.167859994,9.539574925,-4.39748384,-1.590183356,21.5322967
121.472,1.336693548,9.844769332,-1.040345355,-1.284988948,27.02579604
121.4725,-0.4944728984,10.14996374,-2.261122986,-0.6746001326,20.31151907
121.473,-1.410056122,9.844769332,-5.313067063,-0.06421131716,9.629714802
121.4735,-0.7996673061,8.623991701,-7.144233509,-0.3694057249,4.441409871
121.474,0.7263047324,6.792825255,-5.61826147,-1.284988948,4.746604279
121.4745,1.336693548,5.266853217,-1.65073417,-2.200572171,5.051798687
121.475,1.03149914,3.740881178,3.842765168,-2.200572171,3.831021056
121.4755,-0.1892784907,3.435686771,8.725875692,-0.6746001326,1.084271386
121.476,-1.715250529,5.572047624,10.25184773,0.2409830905,-2.578061506
121.4765,-3.546416975,9.844769332,6.894709245,-0.06421131716,-5.324811175
121.477,-6.293166645,12.89671341,1.706404315,-1.590183356,-5.630005583
121.4775,-8.124333091,12.28632459,-0.7351509471,-2.505766579,-3.798839137
121.478,-8.429527499,8.623991701,-1.345539762,-1.284988948,-2.883255914
121.4785,-7.819138683,5.572047624,-3.481900616,-0.06421131716,-2.883255914
121.479,-6.90355546,4.656464401,-8.059816732,0.2409830905,-3.493644729
121.4795,-4.767194606,4.351269994,-13.85851048,-0.3694057249,-4.409227952
121.48,0.115915917,3.130492363,-18.741621,-1.590183356,-5.019616768
121.4805,5.609415256,0.07854828584,-21.79356508,-1.895377763,-0.1365062443
121.481,9.271748148,-3.278590199,-21.48837067,-1.284988948,12.98685329
121.4815,8.96655374,-6.635728684,-18.43642659,-0.06421131716,27.02579604
121.482,6.524998479,-8.161700722,-15.38448252,-0.06421131716,30.99332334
121.4825,4.388637625,-7.551311907,-13.55331607,-1.590183356,23.97385196
121.483,3.167859994,-5.72014546,-11.11176081,-3.116155394,14.81801973
121.4835,1.947082363,-4.49936783,-3.787095024,-1.895377763,9.324520394
121.484,0.7263047324,-4.194173422,6.589514838,2.072149537,5.051798687
121.4845,-1.104861714,-5.109756645,15.74534707,6.039676837,-0.1365062443
121.485,-3.851611383,-5.414951053,20.01806878,7.870843283,-3.188450321
121.4855,-5.987972237,-3.278590199,21.23884641,6.650065652,-3.493644729
121.486,-5.072389014,-0.5318405296,20.933652,4.513704798,-4.409227952
121.4865,-2.020444937,0.3837426935,19.71287437,2.98773276,-8.071560845
121.487,-1.104861714,-0.8370349373,19.40767996,2.682538352,-11.12350492
121.4875,-3.851611383,-2.668201383,20.933652,3.903315983,-9.597532883
121.488,-8.124333091,-2.668201383,22.45962404,5.124093614,-5.630005583
121.4885,-9.955499537,-1.447423753,20.32326318,5.734482429,-3.798839137
121.489,-8.734721906,-0.2266461219,13.60898621,5.124093614,-3.493644729
121.4895,-6.293166645,0.6889371012,7.199903653,4.208510391,-3.188450321
121.49,-3.546416975,1.909714732,3.842765168,3.598121575,-2.272867098
121.4905,-1.410056122,3.435686771,2.31679313,2.377343944,-2.272867098
121.491,-0.4944728984,3.740881178,-0.1247621317,0.8513719059,-1.967672691
121.4915,-1.104861714,4.351269994,-2.566317393,-0.06421131716,0.4738825711
121.492,-2.020444937,5.266853217,-1.65073417,0.8513719059,4.136215463
121.4925,-2.325639345,6.792825255,2.621987538,2.377343944,5.96738191
121.493,-1.715250529,8.318797294,6.589514838,2.377343944,5.662187502
121.4935,-0.4944728984,9.539574925,8.725875692,1.156566314,4.746604279
121.494,0.4211103247,11.37074137,9.641458915,0.2409830905,4.746604279
121.4945,0.7263047324,13.20190782,10.86223655,-0.06421131716,5.356993094
121.495,1.336693548,13.81229663,10.86223655,-0.6746001326,6.272576317
121.4955,2.252276771,13.20190782,7.505098061,-1.895377763,6.272576317
121.496,3.473054402,12.28632459,-0.1247621317,-2.810960986,5.96738191
121.4965,3.778248809,12.28632459,-9.58578877,-2.810960986,5.356993094
121.497,2.252276771,13.20190782,-15.38448252,-2.505766579,5.051798687
121.4975,-0.4944728984,13.20190782,-13.85851048,-2.200572171,5.356993094
121.498,-3.851611383,12.591519,-8.059816732,-0.9797945403,4.746604279
121.4985,-6.293166645,11.98113019,-3.481900616,0.8513719059,1.389465794
121.499,-6.293166645,11.67593578,-3.176706209,2.377343944,-3.493644729
121.4995,-4.767194606,9.844769332,-3.787095024,1.461760721,-6.850783214
121.5,-3.851611383,5.877242032,-3.481900616,-0.06421131716,-4.71442236
121.5005,-5.377583422,1.299325917,-5.007872655,-0.9797945403,2.610243425
121.501,-7.208749868,-1.447423753,-9.890983178,0.2409830905,10.85049243
121.5015,-7.208749868,-2.668201383,-14.7740937,1.766955129,13.90243651
121.502,-5.987972237,-3.583784607,-15.68967692,2.682538352,9.93490921
121.5025,-6.293166645,-4.804562237,-14.7740937,2.98773276,3.831021056
121.503,-5.072389014,-5.414951053,-18.43642659,2.682538352,-0.441700652
121.5035,2.862665586,-5.414951053,-25.45589797,1.461760721,-3.493644729
121.504,17.51199716,-6.330534276,-28.20264764,-0.06421131716,-7.461172029
121.5045,30.94055109,-8.161700722,-23.62473152,-0.06421131716,-11.73389374
121.505,35.82366162,-9.382478353,-17.21564896,2.072149537,-13.87025459
121.5055,33.68730076,-9.077283945,-14.16370489,3.292927168,-14.48064341
121.506,30.63535669,-9.077283945,-9.58578877,2.682538352,-15.09103222
121.5065,28.80419024,-9.077283945,1.096015499,2.072149537,-15.70142104
121.507,26.36263498,-8.46689513,14.21937503,4.208510391,-15.09103222
121.5075,20.56394123,-7.246117499,20.62845759,6.650065652,-13.25986578
121.508,12.93408104,-6.635728684,17.88170792,6.344871245,-12.34428255
121.5085,5.304220848,-6.330534276,12.08301418,3.598121575,-12.95467137
121.509,-0.7996673061,-3.888979014,8.115486876,0.5461774982,-13.56506018
121.5095,-4.767194606,0.3837426935,5.673931615,-0.6746001326,-12.34428255
121.51,-6.598361052,3.435686771,3.842765168,-1.895377763,-9.902727291
121.5105,-7.513944276,3.130492363,3.232376353,-3.421349802,-7.155977621
121.511,-7.208749868,1.604520324,3.842765168,-3.72654421,-1.967672691
121.5115,-4.462000199,0.9941315089,2.927181945,-2.810960986,6.882965133
121.512,-0.1892784907,1.299325917,0.4856266837,-2.200572171,16.64918618
121.5125,2.862665586,2.21490914,-0.7351509471,-2.505766579,18.78554703
121.513,4.693832032,4.656464401,-0.1247621317,-3.72654421,11.46088125
121.5135,5.914609663,8.013602886,-0.1247621317,-4.336933025,2.915437833
121.514,6.219804071,8.318797294,-1.345539762,-3.72654421,3.22063224
121.5145,5.304220848,4.046075586,-2.261122986,-2.810960986,12.37646447
121.515,4.083443217,0.07854828584,-0.4299565394,-2.505766579,21.5322967
121.5155,2.862665586,1.604520324,1.706404315,-2.810960986,22.75307433
121.516,1.336693548,8.318797294,2.011598722,-2.810960986,17.86996381
121.5165,-0.1892784907,13.20190782,1.096015499,-1.590183356,12.68165888
121.517,-0.4944728984,12.89671341,0.180432276,-0.06421131716,9.93490921
121.5175,1.336693548,9.539574925,0.4856266837,-0.3694057249,8.714131579
121.518,3.778248809,5.572047624,1.401209907,-2.810960986,7.188159541
121.5185,3.778248809,2.21490914,3.232376353,-4.642127433,4.746604279
121.519,2.557471179,0.6889371012,5.673931615,-4.031738617,1.99985461
121.5195,1.947082363,0.9941315089,6.28432043,-2.810960986,-0.1365062443
121.52,0.4211103247,2.825297955,5.368737207,-2.505766579,-1.052089467
121.5205,-4.767194606,3.740881178,4.453153984,-1.895377763,-1.052089467
121.521,-11.78666598,2.825297955,4.453153984,0.2409830905,-0.7468950597
121.5215,-16.05938769,0.3837426935,4.453153984,2.98773276,-1.357283875
121.522,-16.05938769,-3.583784607,2.927181945,3.903315983,-1.967672691
121.5225,-14.22822125,-8.46689513,1.706404315,2.682538352,-2.883255914
121.523,-12.3970548,-13.35000565,1.401209907,1.156566314,-3.798839137
121.5235,-10.26069394,-17.92792177,0.180432276,1.156566314,-5.324811175
121.524,-8.734721906,-22.81103229,-2.566317393,2.072149537,-5.019616768
121.5245,-9.345110722,-28.30453163,-3.787095024,3.598121575,-2.272867098
121.525,-10.87108276,-31.0512813,-2.261122986,5.734482429,0.1686881634
121.5255,-9.955499537,-28.30453163,-0.7351509471,6.650065652,-0.1365062443
121.526,-7.513944276,-22.20064348,-3.481900616,5.734482429,-3.493644729
121.5265,-6.293166645,-17.31753295,-8.975399955,3.292927168,-7.461172029
121.527,-7.513944276,-15.1811721,-11.41695522,1.461760721,-9.597532883
121.5275,-8.124333091,-13.96039447,-9.890983178,0.8513719059,-10.2079217
121.528,-6.293166645,-12.12922802,-7.449427917,0.2409830905,-9.902727291
121.5285,-4.156805791,-11.2136448,-6.533844693,-0.9797945403,-8.987144068
121.529,-2.325639345,-11.51883921,-5.313067063,-2.505766579,-7.766366437
121.5295,-0.1892784907,-10.90845039,-2.566317393,-2.810960986,-6.240394398
121.53,2.862665586,-8.161700722,-0.4299565394,-1.590183356,-4.409227952
121.5305,7.135387294,-5.109756645,-1.955928578,-0.9797945403,-3.493644729
121.531,12.32369223,-3.278590199,-5.923455878,-2.505766579,-4.104033544
121.5315,17.20680275,-2.057812568,-8.36501114,-4.336933025,-4.104033544
121.532,19.3431636,0.07854828584,-6.533844693,-4.336933025,-2.272867098
121.5325,15.98602512,1.299325917,-2.261122986,-3.116155394,1.389465794
121.533,11.408109,1.909714732,-0.1247621317,-2.200572171,4.441409871
121.5335,10.49252578,2.520103547,-1.040345355,-2.810960986,4.746604279
121.534,13.54446986,4.351269994,-4.39748384,-3.421349802,4.136215463
121.5345,14.46005308,7.403214071,-5.923455878,-3.421349802,4.441409871
121.535,11.408109,9.234380517,-4.092289432,-3.116155394,5.662187502
121.5355,6.830192886,9.539574925,-0.7351509471,-2.505766579,5.96738191
121.536,3.778248809,9.539574925,0.7908210914,-1.284988948,5.662187502
121.5365,1.03149914,10.45515815,1.096015499,0.5461774982,5.356993094
121.537,-2.325639345,11.06554696,1.706404315,1.766955129,5.356993094
121.5375,-5.377583422,10.76035256,3.232376353,1.156566314,4.441409871
121.538,-5.987972237,9.844769332,4.453153984,-0.06421131716,2.610243425
121.5385,-5.072389014,8.623991701,5.368737207,-0.06421131716,1.084271386
121.539,-5.072389014,7.708408478,7.505098061,0.5461774982,0.4738825711
121.5395,-5.987972237,6.792825255,11.77781977,1.766955129,0.1686881634
121.54,-6.598361052,5.877242032,16.05054148,2.072149537,-0.1365062443
121.5405,-7.208749868,4.656464401,16.9661247,2.377343944,-1.052089467
121.541,-7.513944276,3.130492363,15.74534707,2.98773276,-1.967672691
121.5415,-6.598361052,0.9941315089,15.44015266,3.903315983,-2.578061506
121.542,-3.546416975,-0.8370349373,16.05054148,4.818899206,-2.883255914
121.5425,1.947082363,-2.973395791,13.91418062,4.818899206,-5.019616768
121.543,8.050970517,-4.49936783,9.336264507,4.208510391,-7.766366437
121.5435,12.62888663,-4.804562237,5.979126022,3.292927168,-9.597532883
121.544,15.07044189,-4.194173422,4.758348392,3.292927168,-9.902727291
121.5445,14.46005308,-4.49936783,3.232376353,4.513704798,-10.81831051
121.545,11.71330341,-6.940923091,-0.1247621317,5.429288021,-12.34428255
121.5455,8.356164925,-9.382478353,-3.787095024,5.734482429,-12.64947696
121.546,6.524998479,-10.29806158,-10.19617759,5.124093614,-10.81831051
121.5465,7.135387294,-9.687672761,-23.01434271,2.682538352,-9.292338475
121.547,9.882136963,-9.382478353,-41.93639599,-0.9797945403,-10.81831051
121.5475,11.408109,-9.077283945,-54.4493667,-4.642127433,-14.175449
121.548,8.661359333,-8.46689513,-48.95586736,-5.862905063,-15.09103222
121.5485,2.252276771,-7.246117499,-28.81303646,-3.421349802,-11.73389374
121.549,-3.241222568,-7.856506314,-8.975399955,-0.6746001326,-7.461172029
121.5495,-6.293166645,-8.772089538,-0.7351509471,-0.06421131716,-4.71442236
121.55,-7.819138683,-8.161700722,-0.4299565394,-1.284988948,-2.578061506
121.5505,-10.56588835,-5.414951053,-0.1247621317,-2.505766579,-0.1365062443
121.551,-14.83861006,-2.363006976,2.621987538,-2.505766579,2.610243425
121.5515,-17.58535973,-0.8370349373,3.842765168,-2.505766579,3.831021056
121.552,-16.66977651,0.07854828584,1.706404315,-3.72654421,3.831021056
121.5525,-13.00744361,0.6889371012,0.180432276,-4.336933025,3.831021056
121.553,-9.345110722,1.299325917,1.401209907,-3.72654421,4.746604279
121.5535,-7.513944276,2.520103547,2.927181945,-2.810960986,5.356993094
121.554,-6.598361052,5.266853217,0.180432276,-3.421349802,4.136215463
121.5545,-5.072389014,8.623991701,-5.923455878,-5.252516248,3.831021056
121.555,-3.241222568,9.844769332,-10.19617759,-5.252516248,6.577770725
121.5555,-2.630833752,8.013602886,-10.19617759,-2.200572171,11.76607566
121.556,-3.546416975,6.18243644,-8.975399955,0.2409830905,15.12321414
121.5565,-2.630833752,7.098019663,-11.11176081,-0.06421131716,14.20763092
121.557,1.641887955,9.844769332,-14.46889929,-2.810960986,10.54529803
121.5575,7.440581702,11.06554696,-13.55331607,-4.336933025,7.188159541
121.558,8.96655374,10.76035256,-7.144233509,-4.031738617,5.051798687
121.5585,5.914609663,9.539574925,0.180432276,-2.810960986,3.22063224
121.559,2.557471179,8.318797294,5.979126022,-1.590183356,1.99985461
121.5595,1.336693548,6.487630848,9.641458915,-0.06421131716,1.99985461
121.56,0.4211103247,4.656464401,12.38820858,1.461760721,1.389465794
121.5605,-0.4944728984,4.656464401,13.30379181,1.156566314,-1.357283875
121.561,-0.4944728984,5.572047624,11.47262536,-0.3694057249,-5.630005583
121.5615,0.115915917,5.572047624,10.25184773,-1.895377763,-7.766366437
121.562,-2.020444937,3.740881178,11.47262536,-0.9797945403,-7.155977621
121.5625,-8.429527499,1.909714732,13.60898621,1.461760721,-6.240394398
121.563,-15.44899888,0.07854828584,13.91418062,4.208510391,-6.545588806
121.5635,-17.58535973,-1.142229345,12.08301418,6.039676837,-7.461172029
121.564,-16.3645821,-2.668201383,9.946653322,6.650065652,-8.376755252
121.5645,-15.75419328,-3.278590199,9.031070099,6.650065652,-9.597532883
121.565,-15.75419328,-3.278590199,8.115486876,6.344871245,-10.81831051
121.5655,-13.31263802,-3.278590199,6.589514838,6.344871245,-11.42869933
121.566,-7.819138683,-4.194173422,5.368737207,5.734482429,-10.51311611
121.5665,-2.93602816,-4.804562237,5.063542799,3.903315983,-10.2079217
121.567,-0.7996673061,-4.804562237,5.063542799,2.377343944,-10.81831051
121.5675,-0.4944728984,-3.888979014,4.147959576,2.682538352,-11.73389374
121.568,0.7263047324,-2.973395791,2.31679313,3.292927168,-11.42869933
121.5685,2.862665586,-2.668201383,0.7908210914,1.156566314,-9.597532883
121.569,4.693832032,-2.363006976,0.180432276,-2.200572171,-8.071560845
121.5695,4.693832032,-2.363006976,0.180432276,-4.031738617,-6.850783214
121.57,4.083443217,-1.75261816,0.180432276,-1.895377763,-5.324811175
121.5705,3.778248809,-0.8370349373,0.4856266837,-0.06421131716,-3.188450321
121.571,3.473054402,0.07854828584,0.180432276,-0.06421131716,-1.052089467
121.5715,4.083443217,0.9941315089,-1.040345355,-1.895377763,0.1686881634
121.572,4.693832032,1.604520324,-2.566317393,-3.116155394,1.694660202
121.5725,4.99902644,3.130492363,-3.481900616,-3.421349802,3.525826648
121.573,4.693832032,4.961658809,-4.092289432,-4.642127433,5.356993094
121.5735,4.693832032,7.098019663,-5.313067063,-5.862905063,7.188159541
121.574,5.304220848,8.013602886,-5.923455878,-5.862905063,9.629714802
121.5745,5.609415256,8.623991701,-4.092289432,-4.642127433,11.46088125
121.575,4.99902644,9.234380517,-0.7351509471,-4.336933025,11.46088125
121.5755,3.167859994,9.539574925,0.180432276,-4.336933025,8.714131579
121.576,1.641887955,9.844769332,-1.345539762,-4.336933025,5.662187502
121.5765,1.03149914,9.539574925,-1.65073417,-3.116155394,4.746604279
121.577,1.336693548,8.929186109,3.842765168,-2.200572171,5.662187502
121.5775,1.947082363,8.013602886,12.9985974,-1.284988948,5.356993094
121.578,2.557471179,7.708408478,19.40767996,0.5461774982,2.610243425
121.5785,4.083443217,7.708408478,19.71287437,2.682538352,0.1686881634
121.579,6.830192886,8.318797294,15.13495825,2.682538352,-0.7468950597
121.5795,9.271748148,9.539574925,7.505098061,0.2409830905,-3.493644729
121.58,9.882136963,9.539574925,-0.7351509471,-1.895377763,-7.766366437
121.5805,8.661359333,6.487630848,-6.533844693,-1.284988948,-9.902727291
121.581,6.830192886,0.9941315089,-7.449427917,0.8513719059,-5.630005583
121.5815,5.304220848,-4.804562237,-3.176706209,3.292927168,3.22063224
121.582,2.557471179,-8.772089538,1.706404315,5.124093614,11.15568684
121.5825,-2.630833752,-11.2136448,4.758348392,7.565648875,13.5972421
121.583,-9.039916314,-12.12922802,4.453153984,9.702009729,10.85049243
121.5835,-11.78666598,-11.2136448,2.011598722,10.61759295,4.441409871
121.584,-9.650305129,-8.46689513,-0.7351509471,9.396815322,-3.493644729
121.5845,-4.767194606,-5.109756645,-3.481900616,8.176037691,-11.42869933
121.585,-0.1892784907,-3.888979014,-5.61826147,6.650065652,-16.00661544
121.5855,2.557471179,-4.49936783,-7.144233509,4.818899206,-17.53258748
121.586,4.388637625,-4.804562237,-7.449427917,2.072149537,-18.75336511
121.5865,4.99902644,-4.49936783,-3.787095024,0.8513719059,-19.66894834
121.587,3.167859994,-4.49936783,2.621987538,0.8513719059,-18.1429763
121.5875,-0.4944728984,-6.635728684,8.420681284,1.766955129,-14.48064341
121.588,-4.156805791,-9.992867168,10.55704214,1.766955129,-11.42869933
121.5885,-4.462000199,-12.12922802,10.86223655,0.8513719059,-9.597532883
121.589,-2.325639345,-13.04481125,12.69340299,0.5461774982,-4.409227952
121.5895,0.115915917,-13.96039447,14.52456944,0.8513719059,6.272576317
121.59,1.03149914,-14.87597769,13.91418062,1.156566314,18.78554703
121.5905,1.641887955,-13.96039447,10.25184773,1.156566314,24.58424078
121.591,3.167859994,-10.60325598,6.894709245,0.8513719059,20.92190789
121.5915,4.99902644,-6.330534276,5.063542799,-0.06421131716,12.37646447
121.592,6.524998479,-2.668201383,2.31679313,-1.284988948,5.662187502
121.5925,6.830192886,0.07854828584,-1.955928578,-3.116155394,2.915437833
121.593,6.524998479,2.21490914,-6.228650286,-4.642127433,2.610243425
121.5935,6.524998479,3.740881178,-7.144233509,-5.557710656,2.305049017
121.594,5.914609663,4.961658809,-6.533844693,-6.168099471,2.305049017
121.5945,4.99902644,6.18243644,-6.533844693,-6.778488287,3.525826648
121.595,2.557471179,8.013602886,-6.839039101,-7.388877102,5.662187502
121.5955,-0.4944728984,9.234380517,-5.923455878,-7.388877102,7.493353948
121.596,-4.156805791,8.929186109,-4.092289432,-6.778488287,8.103742764
121.5965,-6.90355546,8.013602886,-2.261122986,-5.557710656,7.798548356
121.597,-6.90355546,7.098019663,-0.7351509471,-3.421349802,8.103742764
121.5975,-5.987972237,6.18243644,0.4856266837,-0.9797945403,8.408937171
121.598,-5.072389014,4.656464401,2.011598722,0.5461774982,8.408937171
121.5985,-4.767194606,3.435686771,1.706404315,1.156566314,8.408937171
121.599,-4.767194606,3.740881178,0.4856266837,0.8513719059,7.188159541
121.5995,-5.072389014,4.351269994,0.7908210914,0.8513719059,4.746604279
121.6,-7.208749868,3.740881178,2.927181945,0.8513719059,1.694660202
121.6005,-10.56588835,1.909714732,5.063542799,2.072149537,-0.1365062443
121.601,-13.00744361,0.6889371012,5.368737207,3.598121575,-0.1365062443
121.6015,-13.00744361,0.3837426935,4.147959576,4.818899206,0.4738825711
121.602,-13.31263802,-0.8370349373,2.927181945,4.818899206,-0.1365062443
121.6025,-14.83861006,-3.583784607,2.31679313,3.903315983,-1.967672691
121.603,-13.31263802,-5.72014546,1.706404315,2.682538352,-3.798839137
121.6035,-4.462000199,-5.72014546,1.096015499,1.766955129,-5.935199991
121.604,8.96655374,-5.414951053,1.096015499,0.8513719059,-8.987144068
121.6045,19.64835801,-6.025339868,1.401209907,-0.06421131716,-12.03908814
121.605,22.08991327,-7.246117499,2.011598722,-0.06421131716,-13.56506018
121.6055,19.3431636,-8.772089538,2.011598722,0.8513719059,-13.25986578
121.606,16.90160834,-11.2136448,0.180432276,1.156566314,-12.64947696
121.6065,16.90160834,-13.65520006,-2.261122986,0.2409830905,-12.64947696
121.607,17.81719156,-14.57078328,-4.702678247,-0.3694057249,-11.73389374
121.6075,16.59641393,-13.04481125,-5.313067063,-0.3694057249,-9.597532883
121.608,13.54446986,-10.90845039,-5.61826147,-0.9797945403,-7.766366437
121.6085,9.271748148,-10.29806158,-7.144233509,-2.505766579,-6.850783214
121.609,5.304220848,-9.992867168,-9.280594363,-4.031738617,-6.545588806
121.6095,2.862665586,-8.772089538,-11.41695522,-4.031738617,-5.324811175
121.61,1.641887955,-7.246117499,-14.7740937,-3.421349802,-3.798839137
121.6105,1.03149914,-6.025339868,-20.26759304,-4.031738617,-2.272867098
121.611,1.03149914,-4.194173422,-25.76109238,-5.252516248,-1.052089467
121.6115,2.557471179,-1.75261816,-26.37148119,-5.557710656,-0.1365062443
121.612,4.388637625,0.07854828584,-20.87798186,-4.94732184,0.4738825711
121.6125,4.99902644,0.07854828584,-13.55331607,-4.94732184,2.305049017
121.613,3.473054402,0.3837426935,-8.059816732,-5.862905063,4.441409871
121.6135,1.03149914,2.825297955,-3.481900616,-5.862905063,6.272576317
121.614,-0.7996673061,5.572047624,0.4856266837,-4.94732184,7.798548356
121.6145,-3.241222568,6.487630848,2.621987538,-4.336933025,9.324520394
121.615,-5.072389014,6.18243644,3.537570761,-4.94732184,10.24010362
121.6155,-3.851611383,7.098019663,4.453153984,-6.778488287,9.324520394
121.616,0.115915917,9.234380517,4.758348392,-7.999265917,6.577770725
121.6165,3.167859994,9.539574925,1.706404315,-9.220043548,3.525826648
121.617,3.778248809,8.623991701,-5.313067063,-10.13562677,1.694660202
121.6175,2.557471179,8.623991701,-11.72214962,-10.44082118,1.084271386
121.618,1.03149914,9.539574925,-12.94292726,-8.914849141,1.389465794
121.6185,-2.020444937,9.539574925,-9.58578877,-6.168099471,2.915437833
121.619,-9.039916314,7.098019663,-5.007872655,-2.810960986,5.356993094
121.6195,-16.3645821,5.572047624,-0.1247621317,0.5461774982,7.188159541
121.62,-19.11133177,5.572047624,4.453153984,3.292927168,7.188159541
121.6205,-17.58535973,4.961658809,7.810292469,5.734482429,6.882965133
121.621,-15.44899888,1.299325917,7.199903653,7.870843283,7.493353948
121.6215,-14.53341565,-2.668201383,4.453153984,9.702009729,8.103742764
121.622,-13.31263802,-3.888979014,2.927181945,10.31239854,6.272576317
121.6225,-11.78666598,-2.973395791,2.927181945,9.091620914,2.610243425
121.623,-11.17627717,-2.973395791,3.537570761,6.95526006,-0.441700652
121.6235,-11.78666598,-4.194173422,4.147959576,6.039676837,-2.578061506
121.624,-11.78666598,-4.194173422,4.758348392,5.429288021,-4.71442236
121.6245,-10.26069394,-3.888979014,5.368737207,4.208510391,-7.155977621
121.625,-9.345110722,-5.109756645,5.368737207,2.98773276,-8.68194966
121.6255,-10.56588835,-7.856506314,5.673931615,2.682538352,-8.68194966
121.626,-13.00744361,-9.992867168,6.894709245,3.903315983,-7.155977621
121.6265,-13.61783243,-10.29806158,8.420681284,5.734482429,-5.630005583
121.627,-10.87108276,-10.29806158,8.725875692,6.039676837,-4.71442236
121.6275,-6.293166645,-10.29806158,7.505098061,5.124093614,-4.71442236
121.628,-2.020444937,-9.077283945,5.673931615,3.292927168,-6.240394398
121.6285,0.7263047324,-6.330534276,3.842765168,1.156566314,-8.68194966
121.629,3.778248809,-3.888979014,1.401209907,-0.6746001326,-11.73389374
121.6295,8.356164925,-2.668201383,-1.345539762,-2.505766579,-14.48064341
121.63,13.23927545,0.07854828584,-4.092289432,-4.336933025,-16.61700426
121.6305,15.98602512,4.656464401,-5.61826147,-6.168099471,-16.61700426
121.631,14.46005308,8.929186109,-5.313067063,-6.168099471,-14.175449
121.6315,10.79772019,10.76035256,-3.481900616,-5.252516248,-11.12350492
121.632,8.356164925,11.67593578,-1.040345355,-4.642127433,-9.597532883
121.6325,8.356164925,12.28632459,1.096015499,-5.862905063,-8.071560845
121.633,8.96655374,9.844769332,2.011598722,-6.778488287,-4.71442236
121.6335,7.74577611,3.435686771,1.401209907,-5.252516248,1.99985461
121.634,5.609415256,-3.583784607,-0.1247621317,-2.505766579,13.29204769
121.6345,4.083443217,-7.551311907,-0.7351509471,-0.6746001326,28.85696249
121.635,3.473054402,-8.46689513,0.180432276,-0.3694057249,44.72707169
121.6355,2.557471179,-7.551311907,2.621987538,-0.06421131716,51.44134866
121.636,1.947082363,-3.888979014,5.368737207,0.5461774982,44.72707169
121.6365,1.947082363,2.520103547,6.589514838,0.2409830905,29.4673513
121.637,3.167859994,9.539574925,6.894709245,-0.06421131716,16.34399177
121.6375,4.388637625,12.28632459,6.894709245,-0.06421131716,9.324520394
121.638,4.388637625,10.45515815,6.894709245,0.2409830905,5.96738191
121.6385,2.862665586,7.098019663,6.894709245,-0.06421131716,3.22063224
121.639,0.4211103247,4.351269994,6.894709245,-0.06421131716,1.084271386
121.6395,-1.104861714,2.825297955,7.505098061,0.5461774982,0.7790769788
121.64,-2.325639345,1.604520324,7.199903653,1.766955129,1.084271386
121.6405,-3.241222568,0.07854828584,5.063542799,0.2409830905,2.610243425
121.641,-4.462000199,-2.973395791,1.706404315,-2.200572171,7.798548356
121.6415,-5.987972237,-5.72014546,-0.7351509471,-2.505766579,16.03879736
121.642,-6.293166645,-5.72014546,-1.65073417,0.2409830905,20.61671348
121.6425,-5.987972237,-2.973395791,-0.7351509471,2.98773276,17.5647694
121.643,-5.987972237,-0.2266461219,1.096015499,2.98773276,9.93490921
121.6435,-5.987972237,0.07854828584,3.842765168,2.98773276,3.525826648
121.644,-4.767194606,-1.142229345,5.368737207,4.818899206,0.7790769788
121.6445,-2.93602816,-1.447423753,4.758348392,6.650065652,-1.052089467
121.645,-2.325639345,-0.8370349373,2.927181945,6.344871245,-4.104033544
121.6455,-2.630833752,-0.5318405296,1.096015499,4.818899206,-6.545588806
121.646,-2.325639345,-0.8370349373,-0.4299565394,3.598121575,-7.155977621
121.6465,0.115915917,-1.142229345,-1.040345355,2.377343944,-7.461172029
121.647,2.862665586,-1.75261816,-0.1247621317,0.5461774982,-8.376755252
121.6475,4.693832032,-2.668201383,2.927181945,-0.3694057249,-9.597532883
121.648,4.99902644,-2.668201383,4.453153984,-0.6746001326,-10.51311611
121.6485,5.914609663,-0.8370349373,2.31679313,-2.200572171,-10.81831051
121.649,6.830192886,0.6889371012,-1.040345355,-5.557710656,-11.12350492
121.6495,6.524998479,0.9941315089,-2.871511801,-8.914849141,-10.51311611
121.65,4.99902644,1.299325917,-3.481900616,-9.220043548,-8.987144068
121.6505,3.473054402,3.740881178,-5.007872655,-7.69407151,-6.545588806
121.651,1.641887955,6.792825255,-7.144233509,-7.083682694,-4.104033544
121.6515,-1.104861714,7.098019663,-7.754622324,-6.473293879,-1.967672691
121.652,-5.987972237,5.266853217,-6.533844693,-4.94732184,1.084271386
121.6525,-10.26069394,5.266853217,-5.923455878,-2.810960986,5.356993094
121.653,-11.78666598,7.708408478,-4.702678247,-2.505766579,9.93490921
121.6535,-10.56588835,10.14996374,1.096015499,-2.200572171,12.37646447
121.654,-8.429527499,10.14996374,10.55704214,-0.3694057249,12.98685329
121.6545,-6.598361052,10.45515815,16.05054148,2.377343944,12.37646447
121.655,-5.072389014,12.28632459,12.69340299,3.903315983,12.07127006
121.6555,-2.020444937,15.03307426,2.621987538,3.598121575,11.15568684
121.656,2.252276771,16.25385189,-6.228650286,2.377343944,9.629714802
121.6565,7.440581702,17.47462952,-10.19617759,0.8513719059,7.493353948
121.657,11.10291459,21.74735123,-8.36501114,-0.6746001326,5.051798687
121.6575,11.408109,27.85123939,-1.955928578,-1.895377763,3.22063224
121.658,9.271748148,30.90318346,5.368737207,-1.284988948,1.694660202
121.6585,6.219804071,29.07201702,10.25184773,0.8513719059,0.4738825711
121.659,4.693832032,24.79929531,8.115486876,2.072149537,-0.1365062443
121.6595,4.388637625,21.44215682,0.4856266837,1.461760721,-0.7468950597
121.66,5.304220848,18.39021275,-8.36501114,0.2409830905,-1.357283875
121.6605,6.524998479,13.81229663,-15.07928811,-0.3694057249,-2.272867098
121.661,6.830192886,8.013602886,-18.13123219,-0.06421131716,-3.493644729
121.6615,5.304220848,3.130492363,-16.30006574,0.5461774982,-4.71442236
121.662,3.167859994,0.07854828584,-11.11176081,2.377343944,-5.324811175
121.6625,1.641887955,-1.142229345,-5.313067063,3.903315983,-5.630005583
121.663,0.115915917,-2.668201383,-1.040345355,4.208510391,-5.324811175
121.6635,-2.630833752,-5.109756645,1.401209907,4.208510391,-5.324811175
121.664,-5.377583422,-8.772089538,4.453153984,5.124093614,-5.630005583
121.6645,-5.682777829,-12.73961684,6.589514838,6.95526006,-6.240394398
121.665,-3.241222568,-16.40194973,6.589514838,7.870843283,-7.766366437
121.6655,-0.4944728984,-18.53831058,3.842765168,6.95526006,-10.51311611
121.666,1.336693548,-20.36947703,-0.1247621317,5.429288021,-12.64947696
121.6665,3.167859994,-21.89544907,-4.092289432,3.903315983,-12.64947696
121.667,4.693832032,-20.97986585,-8.975399955,2.377343944,-10.51311611
121.6675,5.304220848,-16.70714414,-14.7740937,1.156566314,-8.071560845
121.668,4.99902644,-11.2136448,-20.87798186,1.156566314,-5.630005583
121.6685,3.778248809,-8.772089538,-24.54031475,1.766955129,-3.798839137
121.669,2.557471179,-8.46689513,-21.79356508,1.156566314,-2.272867098
121.6695,1.947082363,-6.940923091,-13.85851048,-0.9797945403,-2.883255914
121.67,1.641887955,-2.973395791,-5.923455878,-3.116155394,-4.71442236
121.6705,1.947082363,0.07854828584,-1.955928578,-3.116155394,-6.240394398
121.671,1.336693548,-0.8370349373,0.4856266837,-1.284988948,-5.019616768
121.6715,-0.7996673061,-2.668201383,4.453153984,0.2409830905,-1.662478283
121.672,-4.156805791,-1.75261816,6.894709245,-0.06421131716,0.7790769788
121.6725,-5.377583422,1.299325917,3.537570761,-2.505766579,2.305049017
121.673,-4.767194606,4.046075586,-3.176706209,-4.94732184,3.22063224
121.6735,-3.851611383,4.656464401,-6.839039101,-5.862905063,4.136215463
121.674,-4.767194606,4.656464401,-5.007872655,-5.252516248,5.051798687
121.6745,-6.293166645,5.572047624,-2.261122986,-4.031738617,5.96738191
121.675,-6.598361052,6.18243644,-1.040345355,-3.72654421,6.577770725
121.6755,-5.987972237,6.792825255,0.180432276,-4.031738617,6.882965133
121.676,-5.072389014,7.708408478,2.927181945,-3.421349802,7.188159541
121.6765,-4.462000199,9.234380517,4.147959576,-1.895377763,7.493353948
121.677,-4.156805791,10.14996374,2.31679313,-0.9797945403,6.577770725
121.6775,-4.767194606,10.14996374,-0.1247621317,-1.590183356,5.051798687
121.678,-5.377583422,9.844769332,0.180432276,-1.895377763,3.22063224
121.6785,-5.377583422,9.539574925,1.706404315,-0.6746001326,2.305049017
121.679,-4.767194606,8.623991701,1.401209907,0.5461774982,1.99985461
121.6795,-4.767194606,6.487630848,0.7908210914,0.8513719059,0.7790769788
121.68,-5.377583422,4.046075586,1.706404315,-0.06421131716,-0.1365062443
121.6805,-5.377583422,2.825297955,2.927181945,-0.06421131716,-0.441700652
121.681,-3.241222568,2.520103547,0.180432276,1.156566314,-0.1365062443
121.6815,-0.7996673061,2.520103547,-5.61826147,1.461760721,-0.441700652
121.682,1.336693548,1.604520324,-9.58578877,0.5461774982,-3.188450321
121.6825,4.693832032,0.9941315089,-8.36501114,-0.06421131716,-6.850783214
121.683,10.18733137,0.3837426935,-6.228650286,-0.06421131716,-9.292338475
121.6835,16.29121953,-0.2266461219,-8.36501114,-0.06421131716,-9.597532883
121.684,19.64835801,-2.363006976,-13.85851048,-1.284988948,-9.597532883
121.6845,19.03796919,-4.804562237,-16.60526015,-2.505766579,-10.2079217
121.685,16.59641393,-7.551311907,-14.46889929,-2.200572171,-11.12350492
121.6855,15.07044189,-9.077283945,-11.11176081,-0.9797945403,-11.42869933
121.686,14.76524749,-10.29806158,-11.41695522,-0.6746001326,-10.81831051
121.6865,14.46005308,-11.2136448,-13.85851048,-0.6746001326,-9.597532883
121.687,13.23927545,-11.82403361,-12.63773285,-0.06421131716,-8.987144068
121.6875,11.408109,-11.51883921,-5.007872655,1.156566314,-9.292338475
121.688,9.576942556,-9.992867168,4.758348392,2.682538352,-9.292338475
121.6885,8.661359333,-7.856506314,13.91418062,3.598121575,-8.987144068
121.689,8.050970517,-6.330534276,21.23884641,4.818899206,-7.155977621
121.6895,6.830192886,-5.109756645,27.03754015,6.344871245,-4.409227952
121.69,4.388637625,-4.194173422,28.8687066,6.650065652,-1.357283875
121.6905,0.4211103247,-3.278590199,23.98559608,4.513704798,1.084271386
121.691,-4.156805791,-1.75261816,14.52456944,1.156566314,2.610243425
121.6915,-8.124333091,0.07854828584,6.894709245,-1.590183356,2.610243425
121.692,-10.56588835,2.520103547,6.28432043,-4.031738617,1.694660202
121.6925,-11.78666598,4.046075586,11.16743095,-5.862905063,1.084271386
121.693,-13.00744361,4.961658809,15.74534707,-6.473293879,1.389465794
121.6935,-13.61783243,5.877242032,16.35573588,-5.557710656,2.610243425
121.694,-12.3970548,6.792825255,14.21937503,-3.72654421,4.441409871
121.6945,-10.56588835,6.487630848,12.08301418,-2.200572171,6.577770725
121.695,-9.650305129,4.656464401,11.77781977,-1.284988948,8.103742764
121.6955,-9.650305129,3.435686771,11.47262536,-0.3694057249,8.714131579
121.696,-7.819138683,4.351269994,9.946653322,-0.06421131716,8.103742764
121.6965,-3.851611383,6.18243644,6.894709245,-0.9797945403,6.882965133
121.697,0.115915917,6.792825255,2.621987538,-2.200572171,5.96738191
121.6975,2.252276771,5.877242032,-1.345539762,-2.810960986,5.662187502
121.698,3.167859994,5.572047624,-4.39748384,-1.590183356,5.356993094
121.6985,4.083443217,6.18243644,-5.923455878,0.5461774982,4.746604279
121.699,5.304220848,6.487630848,-7.144233509,1.766955129,3.525826648
121.6995,5.304220848,5.572047624,-9.58578877,2.072149537,1.99985461
121.7,3.778248809,4.046075586,-14.16370489,2.072149537,0.7790769788
121.7005,2.252276771,2.520103547,-18.13123219,2.377343944,0.7790769788
121.701,0.4211103247,0.3837426935,-17.21564896,3.292927168,0.7790769788
121.7015,-1.410056122,-1.447423753,-11.41695522,3.292927168,0.4738825711
121.702,-4.767194606,-2.973395791,-3.787095024,3.292927168,-0.1365062443
121.7025,-9.345110722,-3.583784607,1.401209907,3.903315983,-1.052089467
121.703,-14.22822125,-5.109756645,3.232376353,4.818899206,-1.967672691
121.7035,-17.58535973,-7.551311907,3.537570761,5.429288021,-2.883255914
121.704,-19.41652618,-9.992867168,3.232376353,5.429288021,-3.798839137
121.7045,-19.72172058,-11.51883921,2.621987538,5.734482429,-4.409227952
121.705,-19.72172058,-12.73961684,2.31679313,6.650065652,-4.409227952
121.7055,-18.19574855,-13.65520006,2.011598722,6.95526006,-4.104033544
121.706,-12.09186039,-13.04481125,1.401209907,5.429288021,-4.104033544
121.7065,-1.410056122,-11.82403361,-0.7351509471,3.903315983,-5.019616768
121.707,10.18733137,-11.2136448,-4.092289432,2.98773276,-6.850783214
121.7075,17.81719156,-12.12922802,-5.923455878,2.98773276,-8.376755252
121.708,19.64835801,-13.04481125,-4.702678247,2.98773276,-8.376755252
121.7085,18.42758038,-13.04481125,-1.65073417,2.377343944,-6.850783214
121.709,17.20680275,-12.12922802,0.4856266837,2.377343944,-4.71442236
121.7095,15.68083071,-11.51883921,1.706404315,2.682538352,-3.188450321
121.71,11.71330341,-10.29806158,2.621987538,2.377343944,-1.967672691
121.7105,7.135387294,-8.161700722,2.927181945,0.8513719059,-0.7468950597
121.711,5.304220848,-5.414951053,2.621987538,-0.6746001326,-0.1365062443
121.7115,7.440581702,-3.888979014,1.401209907,-2.810960986,-0.1365062443
121.712,10.18733137,-3.278590199,-0.1247621317,-5.252516248,-0.1365062443
121.7125,9.882136963,-1.75261816,-1.955928578,-7.388877102,1.084271386
121.713,6.524998479,0.07854828584,-4.092289432,-7.388877102,3.22063224
121.7135,4.083443217,0.3837426935,-5.923455878,-5.252516248,5.356993094
121.714,4.693832032,0.07854828584,-6.228650286,-2.810960986,6.577770725
121.7145,8.356164925,0.9941315089,-5.61826147,-1.895377763,7.188159541
121.715,13.54446986,4.351269994,-4.702678247,-2.810960986,6.577770725
121.7155,16.29121953,7.708408478,-3.176706209,-4.336933025,4.136215463
121.716,13.84966426,8.929186109,0.180432276,-4.031738617,1.99985461
121.7165,5.609415256,7.708408478,5.673931615,-1.284988948,2.610243425
121.717,-2.325639345,6.792825255,10.25184773,2.682538352,5.96738191
121.7175,-5.682777829,6.792825255,12.08301418,5.734482429,7.798548356
121.718,-2.93602816,7.403214071,11.77781977,6.95526006,4.441409871
121.7185,0.7263047324,8.013602886,11.16743095,6.344871245,-1.662478283
121.719,3.167859994,7.098019663,10.55704214,5.734482429,-5.935199991
121.7195,4.693832032,5.877242032,9.641458915,5.734482429,-7.461172029
121.72,6.524998479,4.351269994,7.199903653,5.734482429,-8.68194966
121.7205,7.74577611,3.740881178,4.758348392,4.513704798,-10.51311611
121.721,6.524998479,2.520103547,2.621987538,3.292927168,-11.42869933
121.7215,4.083443217,0.6889371012,0.4856266837,2.682538352,-10.51311611
121.722,2.557471179,-1.75261816,-1.65073417,2.98773276,-10.51311611
121.7225,2.557471179,-4.49936783,-5.007872655,2.98773276,-10.81831051
121.723,2.252276771,-8.161700722,-8.059816732,2.682538352,-6.850783214
121.7235,1.641887955,-13.04481125,-10.19617759,1.156566314,2.915437833
121.724,0.7263047324,-17.92792177,-10.8065664,0.5461774982,14.81801973
121.7245,-0.7996673061,-20.67467144,-10.8065664,1.156566314,20.00632466
121.725,-3.546416975,-20.67467144,-10.19617759,2.98773276,15.42840855
121.7255,-5.072389014,-19.75908821,-8.36501114,3.903315983,6.272576317
121.726,-5.072389014,-18.84350499,-5.007872655,3.903315983,-1.052089467
121.7265,-4.156805791,-17.62272736,-0.1247621317,2.98773276,-4.71442236
121.727,-3.546416975,-16.09675532,1.706404315,2.98773276,-5.630005583
121.7275,-3.241222568,-14.57078328,-1.345539762,2.98773276,-5.324811175
121.728,-1.410056122,-13.65520006,-8.36501114,2.377343944,-5.324811175
121.7285,1.03149914,-12.73961684,-13.85851048,1.461760721,-5.935199991
121.729,1.641887955,-11.2136448,-14.7740937,0.8513719059,-5.630005583
121.7295,-1.410056122,-9.077283945,-11.41695522,0.8513719059,-3.798839137
121.73,-7.513944276,-7.856506314,-5.313067063,0.8513719059,-0.1365062443
121.7305,-12.3970548,-7.246117499,1.706404315,0.2409830905,2.305049017
121.731,-13.00744361,-5.414951053,8.420681284,-0.06421131716,3.525826648
121.7315,-9.650305129,-2.668201383,11.16743095,-1.590183356,3.831021056
121.732,-7.208749868,0.07854828584,10.55704214,-3.116155394,3.831021056
121.7325,-9.345110722,3.435686771,11.77781977,-3.72654421,3.831021056
121.733,-15.14380447,8.318797294,18.49209674,-2.810960986,3.22063224
121.7335,-19.11133177,15.33826867,26.73234575,-2.200572171,1.99985461
121.734,-16.97497091,21.74735123,30.08948423,-2.810960986,1.084271386
121.7345,-12.09186039,23.88371209,26.12195693,-3.421349802,2.305049017
121.735,-10.26069394,20.83176801,18.49209674,-2.200572171,5.051798687
121.7355,-11.78666598,15.94865749,12.08301418,-0.06421131716,6.882965133
121.736,-11.78666598,13.20190782,8.420681284,1.461760721,6.272576317
121.7365,-7.208749868,11.67593578,7.505098061,1.156566314,3.525826648
121.737,-1.715250529,9.539574925,8.115486876,0.5461774982,1.389465794
121.7375,0.4211103247,5.877242032,8.420681284,1.156566314,1.694660202
121.738,-0.4944728984,2.825297955,7.199903653,2.377343944,1.99985461
121.7385,-1.104861714,3.130492363,6.28432043,2.377343944,0.7790769788
121.739,0.7263047324,5.877242032,6.28432043,2.682538352,-1.967672691
121.7395,3.778248809,7.403214071,5.979126022,3.598121575,-4.71442236
121.74,5.609415256,6.487630848,3.232376353,4.513704798,-6.545588806
121.7405,6.219804071,4.351269994,-0.1247621317,4.208510391,-8.071560845
121.741,7.74577611,2.21490914,-1.65073417,3.598121575,-9.597532883
121.7415,9.576942556,-0.2266461219,-2.566317393,2.98773276,-10.2079217
121.742,9.882136963,-5.109756645,-4.092289432,2.072149537,-9.902727291
121.7425,8.356164925,-10.29806158,-6.228650286,0.2409830905,-9.902727291
121.743,7.440581702,-13.04481125,-6.839039101,-0.6746001326,-9.292338475
121.7435,7.74577611,-13.04481125,-5.61826147,-0.6746001326,-8.071560845
121.744,5.914609663,-12.12922802,-3.176706209,-0.06421131716,-7.155977621
121.7445,0.115915917,-10.90845039,0.4856266837,1.156566314,-8.376755252
121.745,-7.513944276,-9.687672761,5.673931615,1.766955129,-9.902727291
121.7455,-13.61783243,-8.772089538,8.420681284,2.377343944,-9.292338475
121.746,-16.05938769,-9.992867168,8.115486876,3.292927168,-5.630005583
121.7465,-15.14380447,-12.12922802,7.199903653,3.903315983,-1.967672691
121.747,-11.48147158,-13.04481125,8.115486876,3.292927168,-1.967672691
121.7475,-5.987972237,-11.51883921,8.115486876,1.766955129,-3.798839137
121.748,-1.410056122,-8.46689513,6.28432043,0.2409830905,-5.324811175
121.7485,-0.1892784907,-5.72014546,5.673931615,-0.06421131716,-6.545588806
121.749,0.115915917,-2.363006976,7.505098061,-0.6746001326,-9.597532883
121.7495,3.473054402,0.3837426935,4.147959576,-2.505766579,-13.25986578
121.75,8.356164925,2.21490914,-10.50137199,-5.557710656,-13.87025459
121.7505,10.79772019,2.520103547,-29.42342527,-8.609654733,-11.42869933
121.751,9.882136963,3.740881178,-41.02081276,-10.44082118,-9.292338475
121.7515,9.576942556,6.792825255,-44.98834006,-11.66159881,-9.292338475
121.752,11.408109,9.539574925,-48.95586736,-12.88237644,-8.376755252
121.7525,11.71330341,10.45515815,-53.53378348,-13.79795966,-5.019616768
121.753,8.96655374,10.14996374,-49.87145059,-12.88237644,-0.1365062443
121.7535,5.609415256,10.45515815,-36.74809106,-10.44082118,3.22063224
121.754,4.083443217,10.14996374,-24.84550916,-8.609654733,7.188159541
121.7545,3.167859994,8.318797294,-20.26759304,-7.999265917,12.68165888
121.755,0.4211103247,7.098019663,-18.13123219,-8.304460325,19.09074144
121.7555,-3.241222568,8.929186109,-12.94292726,-8.304460325,22.14268552
121.756,-7.819138683,12.591519,-4.39748384,-6.473293879,20.92190789
121.7565,-11.48147158,14.72787986,5.063542799,-2.810960986,17.86996381
121.757,-12.09186039,15.03307426,14.52456944,0.2409830905,12.98685329
121.7575,-7.819138683,15.64346308,20.01806878,-0.06421131716,6.272576317
121.758,-0.7996673061,17.77982393,16.9661247,-3.116155394,-0.441700652
121.7585,1.336693548,18.39021275,9.946653322,-4.642127433,-2.883255914
121.759,-3.851611383,15.94865749,8.420681284,-1.590183356,-0.441700652
121.7595,-13.92302684,12.591519,12.69340299,3.292927168,4.136215463
121.76,-19.72172058,10.45515815,12.9985974,4.513704798,6.882965133
121.7605,-18.19574855,9.539574925,5.979126022,2.072149537,5.96738191
121.761,-13.00744361,8.318797294,-0.1247621317,0.5461774982,3.22063224
121.7615,-9.039916314,6.487630848,0.4856266837,1.461760721,0.4738825711
121.762,-6.293166645,5.572047624,2.927181945,2.682538352,-1.662478283
