"type","name","time_units","begin_time","frequency","count","units"
"signal","Ultium EMG-FLEX.CAPR.U RT","s",186.98000,2000,22000,"uV"

"time","value"
186.98000,9.807401701
186.98050,13.774929
186.98100,12.85934578
186.98150,9.807401701
186.98200,8.58662407
186.98250,9.502207293
186.98300,10.11259611
186.98350,8.281429663
186.98400,4.61909677
186.98450,0.9567638778
186.98500,-1.789985791
186.98550,-6.367901907
186.98600,-11.55620684
186.98650,-11.86140125
186.98700,-4.841929869
186.98750,2.482735916
186.98800,2.177541509
186.98850,-4.841929869
186.98900,-9.114651576
186.98950,-5.147124276
186.99000,0.6515694701
186.99050,1.261958286
186.99100,-2.400374607
186.99150,-4.841929869
186.99200,-3.621152238
186.99250,-0.8744025684
186.99300,1.567152693
186.99350,4.924291178
186.99400,7.976235255
186.99450,9.197012886
186.99500,8.281429663
186.99550,5.839874401
186.99600,1.872347101
186.99650,-3.010763422
186.99700,-6.367901907
186.99750,-6.367901907
186.99800,-5.147124276
186.99850,-5.452318684
186.99900,-5.757513092
186.99950,-3.010763422
187.00000,-0.264013753
187.00050,-0.8744025684
187.00100,-3.621152238
187.00150,-2.705569015
187.00200,2.787930324
187.00250,5.534679993
187.00300,0.04118065471
187.00350,-9.419845984
187.00400,-13.38737328
187.00450,-9.419845984
187.00500,-2.400374607
187.00550,0.3463750624
187.00600,-0.8744025684
187.00650,-3.31595783
187.00700,-3.926346645
187.00750,-3.010763422
187.00800,-1.789985791
187.00850,-0.8744025684
187.00900,0.6515694701
187.00950,3.398319139
187.01000,6.145068809
187.01050,7.36584644
187.01100,6.755457624
187.01150,4.61909677
187.01200,1.261958286
187.01250,-0.8744025684
187.01300,0.04118065471
187.01350,2.787930324
187.01400,4.924291178
187.01450,3.703513547
187.01500,1.872347101
187.01550,0.9567638778
187.01600,0.6515694701
187.01650,-0.5692081607
187.01700,-2.705569015
187.01750,-3.621152238
187.01800,-2.400374607
187.01850,-0.5692081607
187.01900,0.04118065471
187.01950,-0.8744025684
187.02000,-3.621152238
187.02050,-5.757513092
187.02100,-4.536735461
187.02150,-0.5692081607
187.02200,2.787930324
187.02250,3.398319139
187.02300,2.177541509
187.02350,1.567152693
187.02400,2.787930324
187.02450,4.008707955
187.02500,4.008707955
187.02550,4.008707955
187.02600,4.008707955
187.02650,3.703513547
187.02700,2.482735916
187.02750,0.3463750624
187.02800,-1.484791384
187.02850,-3.31595783
187.02900,-4.231541053
187.02950,-4.536735461
187.03000,-3.621152238
187.03050,-1.789985791
187.03100,0.9567638778
187.03150,4.008707955
187.03200,5.534679993
187.03250,5.534679993
187.03300,5.229485586
187.03350,4.61909677
187.03400,3.703513547
187.03450,3.398319139
187.03500,4.008707955
187.03550,4.008707955
187.03600,1.872347101
187.03650,-0.8744025684
187.03700,-1.789985791
187.03750,-0.5692081607
187.03800,0.04118065471
187.03850,-0.5692081607
187.03900,-1.789985791
187.03950,-1.179596976
187.04000,0.04118065471
187.04050,0.04118065471
187.04100,0.04118065471
187.04150,0.04118065471
187.04200,0.04118065471
187.04250,0.04118065471
187.04300,-0.5692081607
187.04350,-0.8744025684
187.04400,-1.484791384
187.04450,-2.400374607
187.04500,-2.705569015
187.04550,-1.789985791
187.04600,-0.264013753
187.04650,0.04118065471
187.04700,0.04118065471
187.04750,-0.264013753
187.04800,0.04118065471
187.04850,0.9567638778
187.04900,1.261958286
187.04950,0.6515694701
187.05000,-0.5692081607
187.05050,-2.095180199
187.05100,-2.400374607
187.05150,-1.484791384
187.05200,-1.179596976
187.05250,-1.789985791
187.05300,-2.095180199
187.05350,0.04118065471
187.05400,2.177541509
187.05450,2.177541509
187.05500,0.04118065471
187.05550,-0.5692081607
187.05600,0.3463750624
187.05650,1.261958286
187.05700,0.6515694701
187.05750,0.6515694701
187.05800,2.177541509
187.05850,1.567152693
187.05900,-2.400374607
187.05950,-5.757513092
187.06000,-4.841929869
187.06050,-2.095180199
187.06100,-2.095180199
187.06150,-3.621152238
187.06200,-3.010763422
187.06250,-0.8744025684
187.06300,-0.8744025684
187.06350,-2.095180199
187.06400,-0.5692081607
187.06450,2.482735916
187.06500,3.398319139
187.06550,1.567152693
187.06600,0.3463750624
187.06650,0.04118065471
187.06700,-0.8744025684
187.06750,-1.484791384
187.06800,2.482735916
187.06850,9.197012886
187.06900,9.197012886
187.06950,0.04118065471
187.07000,-8.809457169
187.07050,-8.809457169
187.07100,-3.31595783
187.07150,0.3463750624
187.07200,1.261958286
187.07250,3.093124732
187.07300,5.534679993
187.07350,5.534679993
187.07400,3.703513547
187.07450,2.787930324
187.07500,3.398319139
187.07550,3.093124732
187.07600,1.872347101
187.07650,1.872347101
187.07700,3.093124732
187.07750,3.703513547
187.07800,2.787930324
187.07850,1.567152693
187.07900,0.6515694701
187.07950,0.6515694701
187.08000,0.6515694701
187.08050,0.6515694701
187.08100,0.04118065471
187.08150,-0.8744025684
187.08200,-1.179596976
187.08250,-1.179596976
187.08300,-1.484791384
187.08350,-2.095180199
187.08400,-0.5692081607
187.08450,1.872347101
187.08500,3.398319139
187.08550,2.482735916
187.08600,0.9567638778
187.08650,0.04118065471
187.08700,-0.8744025684
187.08750,-3.010763422
187.08800,-3.31595783
187.08850,-0.264013753
187.08900,3.093124732
187.08950,3.093124732
187.09000,0.04118065471
187.09050,-1.789985791
187.09100,-1.484791384
187.09150,-0.8744025684
187.09200,-0.5692081607
187.09250,-0.5692081607
187.09300,-0.264013753
187.09350,-0.8744025684
187.09400,-2.095180199
187.09450,-1.484791384
187.09500,0.6515694701
187.09550,2.177541509
187.09600,1.872347101
187.09650,1.261958286
187.09700,2.177541509
187.09750,3.703513547
187.09800,4.61909677
187.09850,4.61909677
187.09900,3.398319139
187.09950,0.3463750624
187.10000,-2.095180199
187.10050,-2.095180199
187.10100,0.04118065471
187.10150,0.04118065471
187.10200,-3.010763422
187.10250,-4.231541053
187.10300,0.04118065471
187.10350,4.61909677
187.10400,4.008707955
187.10450,-1.484791384
187.10500,-6.673096315
187.10550,-7.588679538
187.10600,-6.367901907
187.10650,-6.062707499
187.10700,-6.367901907
187.10750,-5.147124276
187.10800,-2.705569015
187.10850,-0.8744025684
187.10900,0.04118065471
187.10950,0.9567638778
187.11000,2.482735916
187.11050,4.313902363
187.11100,5.534679993
187.11150,6.755457624
187.11200,7.671040847
187.11250,6.755457624
187.11300,2.177541509
187.11350,-4.841929869
187.11400,-11.55620684
187.11450,-13.69256769
187.11500,-12.16659565
187.11550,-10.33542921
187.11600,-8.809457169
187.11650,-6.062707499
187.11700,-1.484791384
187.11750,2.482735916
187.11800,4.61909677
187.11850,4.313902363
187.11900,1.872347101
187.11950,-2.095180199
187.12000,-4.841929869
187.12050,-3.010763422
187.12100,1.872347101
187.12150,4.61909677
187.12200,2.787930324
187.12250,-0.264013753
187.12300,-0.8744025684
187.12350,0.3463750624
187.12400,0.6515694701
187.12450,-0.8744025684
187.12500,-1.789985791
187.12550,-0.5692081607
187.12600,0.9567638778
187.12650,1.872347101
187.12700,1.872347101
187.12750,1.261958286
187.12800,0.6515694701
187.12850,1.261958286
187.12900,2.482735916
187.12950,3.703513547
187.13000,3.703513547
187.13050,3.093124732
187.13100,2.482735916
187.13150,2.482735916
187.13200,3.093124732
187.13250,3.093124732
187.13300,1.567152693
187.13350,-0.5692081607
187.13400,-3.010763422
187.13450,-4.231541053
187.13500,-4.536735461
187.13550,-3.010763422
187.13600,-0.5692081607
187.13650,2.482735916
187.13700,4.008707955
187.13750,3.093124732
187.13800,1.261958286
187.13850,1.261958286
187.13900,3.398319139
187.13950,4.313902363
187.14000,2.482735916
187.14050,-0.264013753
187.14100,-1.484791384
187.14150,-0.5692081607
187.14200,0.6515694701
187.14250,0.3463750624
187.14300,-0.8744025684
187.14350,-1.789985791
187.14400,-1.179596976
187.14450,-1.179596976
187.14500,-2.705569015
187.14550,-3.926346645
187.14600,-3.010763422
187.14650,-1.484791384
187.14700,-2.095180199
187.14750,-2.705569015
187.14800,-0.5692081607
187.14850,3.093124732
187.14900,3.398319139
187.14950,0.04118065471
187.15000,-1.789985791
187.15050,1.567152693
187.15100,6.755457624
187.15150,6.755457624
187.15200,2.177541509
187.15250,-0.5692081607
187.15300,0.04118065471
187.15350,3.398319139
187.15400,5.534679993
187.15450,4.924291178
187.15500,1.872347101
187.15550,-0.8744025684
187.15600,-1.484791384
187.15650,0.3463750624
187.15700,1.872347101
187.15750,0.04118065471
187.15800,-3.926346645
187.15850,-5.147124276
187.15900,-0.5692081607
187.15950,5.839874401
187.16000,10.72298492
187.16050,11.63856815
187.16100,9.502207293
187.16150,5.839874401
187.16200,2.482735916
187.16250,0.3463750624
187.16300,-1.179596976
187.16350,-2.705569015
187.16400,-2.705569015
187.16450,-1.789985791
187.16500,-0.8744025684
187.16550,-1.484791384
187.16600,-3.31595783
187.16650,-3.926346645
187.16700,-2.705569015
187.16750,-1.789985791
187.16800,-1.484791384
187.16850,-1.179596976
187.16900,-0.264013753
187.16950,0.6515694701
187.17000,0.9567638778
187.17050,0.04118065471
187.17100,-1.484791384
187.17150,-2.400374607
187.17200,-1.179596976
187.17250,0.9567638778
187.17300,2.482735916
187.17350,1.567152693
187.17400,-0.264013753
187.17450,-2.400374607
187.17500,-3.621152238
187.17550,-3.31595783
187.17600,-1.484791384
187.17650,0.3463750624
187.17700,0.9567638778
187.17750,-0.264013753
187.17800,-1.179596976
187.17850,0.3463750624
187.17900,3.398319139
187.17950,4.008707955
187.18000,1.567152693
187.18050,-1.179596976
187.18100,-1.484791384
187.18150,-0.264013753
187.18200,-0.264013753
187.18250,-1.484791384
187.18300,-2.400374607
187.18350,-1.789985791
187.18400,-0.5692081607
187.18450,-0.264013753
187.18500,-0.5692081607
187.18550,-0.264013753
187.18600,0.9567638778
187.18650,2.482735916
187.18700,3.093124732
187.18750,3.398319139
187.18800,4.008707955
187.18850,2.482735916
187.18900,-2.400374607
187.18950,-7.893873946
187.19000,-9.114651576
187.19050,-5.757513092
187.19100,-3.010763422
187.19150,-4.231541053
187.19200,-6.062707499
187.19250,-4.536735461
187.19300,-0.264013753
187.19350,0.9567638778
187.19400,-0.8744025684
187.19450,-3.926346645
187.19500,-5.452318684
187.19550,-5.452318684
187.19600,-5.147124276
187.19650,-5.147124276
187.19700,-4.231541053
187.19750,-2.095180199
187.19800,0.3463750624
187.19850,2.177541509
187.19900,0.3463750624
187.19950,-4.841929869
187.20000,-8.199068353
187.20050,-5.757513092
187.20100,-0.264013753
187.20150,1.261958286
187.20200,-0.8744025684
187.20250,-3.010763422
187.20300,-1.484791384
187.20350,0.9567638778
187.20400,2.482735916
187.20450,4.008707955
187.20500,7.36584644
187.20550,10.72298492
187.20600,11.94376256
187.20650,10.72298492
187.20700,8.891818478
187.20750,5.229485586
187.20800,0.04118065471
187.20850,-4.536735461
187.20900,-5.452318684
187.20950,-3.010763422
187.21000,-0.8744025684
187.21050,0.04118065471
187.21100,0.6515694701
187.21150,0.6515694701
187.21200,0.04118065471
187.21250,0.04118065471
187.21300,2.482735916
187.21350,4.924291178
187.21400,4.313902363
187.21450,1.872347101
187.21500,0.04118065471
187.21550,0.3463750624
187.21600,1.261958286
187.21650,1.567152693
187.21700,1.567152693
187.21750,2.482735916
187.21800,3.093124732
187.21850,3.093124732
187.21900,2.177541509
187.21950,0.3463750624
187.22000,-1.179596976
187.22050,-1.179596976
187.22100,-0.264013753
187.22150,0.04118065471
187.22200,-0.264013753
187.22250,0.04118065471
187.22300,0.3463750624
187.22350,0.04118065471
187.22400,-2.400374607
187.22450,-3.010763422
187.22500,0.3463750624
187.22550,5.839874401
187.22600,8.281429663
187.22650,6.145068809
187.22700,2.482735916
187.22750,-0.264013753
187.22800,-1.484791384
187.22850,-2.400374607
187.22900,-3.010763422
187.22950,-3.926346645
187.23000,-4.231541053
187.23050,-3.010763422
187.23100,-0.5692081607
187.23150,0.04118065471
187.23200,-1.484791384
187.23250,-3.31595783
187.23300,-2.400374607
187.23350,0.04118065471
187.23400,0.6515694701
187.23450,-0.5692081607
187.23500,-1.484791384
187.23550,-0.8744025684
187.23600,0.04118065471
187.23650,0.6515694701
187.23700,3.398319139
187.23750,6.145068809
187.23800,6.450263216
187.23850,2.177541509
187.23900,-1.789985791
187.23950,-3.31595783
187.24000,-3.010763422
187.24050,-3.010763422
187.24100,-2.095180199
187.24150,1.261958286
187.24200,6.145068809
187.24250,7.671040847
187.24300,3.703513547
187.24350,-1.179596976
187.24400,-3.31595783
187.24450,-2.095180199
187.24500,-0.8744025684
187.24550,-1.484791384
187.24600,-3.31595783
187.24650,-4.841929869
187.24700,-5.757513092
187.24750,-5.147124276
187.24800,-2.705569015
187.24850,0.04118065471
187.24900,1.261958286
187.24950,0.04118065471
187.25000,-2.095180199
187.25050,-2.095180199
187.25100,-0.264013753
187.25150,0.9567638778
187.25200,0.9567638778
187.25250,0.6515694701
187.25300,0.04118065471
187.25350,-1.484791384
187.25400,-3.010763422
187.25450,-2.400374607
187.25500,-0.5692081607
187.25550,0.04118065471
187.25600,-1.789985791
187.25650,-3.621152238
187.25700,-3.621152238
187.25750,-2.095180199
187.25800,-0.8744025684
187.25850,0.3463750624
187.25900,2.787930324
187.25950,4.61909677
187.26000,3.398319139
187.26050,0.6515694701
187.26100,-0.8744025684
187.26150,-0.8744025684
187.26200,-0.5692081607
187.26250,-0.8744025684
187.26300,-1.179596976
187.26350,-1.179596976
187.26400,-1.484791384
187.26450,-2.400374607
187.26500,-2.400374607
187.26550,-0.264013753
187.26600,2.482735916
187.26650,4.61909677
187.26700,4.313902363
187.26750,2.482735916
187.26800,0.6515694701
187.26850,0.04118065471
187.26900,-0.264013753
187.26950,-0.8744025684
187.27000,-1.789985791
187.27050,-2.400374607
187.27100,-2.400374607
187.27150,-2.095180199
187.27200,-2.400374607
187.27250,-3.010763422
187.27300,-3.31595783
187.27350,-2.400374607
187.27400,-0.5692081607
187.27450,0.04118065471
187.27500,0.04118065471
187.27550,0.6515694701
187.27600,2.482735916
187.27650,4.313902363
187.27700,4.008707955
187.27750,2.177541509
187.27800,0.04118065471
187.27850,0.04118065471
187.27900,0.04118065471
187.27950,0.3463750624
187.28000,0.3463750624
187.28050,0.6515694701
187.28100,1.261958286
187.28150,1.261958286
187.28200,0.3463750624
187.28250,0.04118065471
187.28300,0.04118065471
187.28350,1.567152693
187.28400,3.093124732
187.28450,3.398319139
187.28500,2.482735916
187.28550,0.9567638778
187.28600,0.9567638778
187.28650,1.872347101
187.28700,1.872347101
187.28750,0.6515694701
187.28800,-0.264013753
187.28850,-0.8744025684
187.28900,-1.484791384
187.28950,-1.179596976
187.29000,1.261958286
187.29050,5.839874401
187.29100,7.36584644
187.29150,4.008707955
187.29200,0.04118065471
187.29250,-0.264013753
187.29300,0.3463750624
187.29350,-2.705569015
187.29400,-9.725040392
187.29450,-13.38737328
187.29500,-10.33542921
187.29550,-3.31595783
187.29600,1.567152693
187.29650,3.398319139
187.29700,2.177541509
187.29750,0.04118065471
187.29800,-1.484791384
187.29850,0.04118065471
187.29900,1.872347101
187.29950,0.6515694701
187.30000,-3.010763422
187.30050,-4.536735461
187.30100,-0.5692081607
187.30150,4.924291178
187.30200,6.755457624
187.30250,5.229485586
187.30300,3.093124732
187.30350,2.482735916
187.30400,2.787930324
187.30450,3.703513547
187.30500,4.008707955
187.30550,2.787930324
187.30600,0.3463750624
187.30650,0.04118065471
187.30700,0.9567638778
187.30750,0.9567638778
187.30800,-1.789985791
187.30850,-6.673096315
187.30900,-10.33542921
187.30950,-10.64062361
187.31000,-8.199068353
187.31050,-3.31595783
187.31100,0.9567638778
187.31150,3.093124732
187.31200,2.787930324
187.31250,1.567152693
187.31300,1.567152693
187.31350,2.787930324
187.31400,4.008707955
187.31450,4.008707955
187.31500,0.9567638778
187.31550,-2.400374607
187.31600,-2.705569015
187.31650,0.04118065471
187.31700,2.482735916
187.31750,3.093124732
187.31800,4.313902363
187.31850,7.976235255
187.31900,9.807401701
187.31950,7.060652032
187.32000,1.567152693
187.32050,-1.789985791
187.32100,-2.705569015
187.32150,-3.31595783
187.32200,-3.31595783
187.32250,-2.400374607
187.32300,-2.095180199
187.32350,-3.31595783
187.32400,-1.484791384
187.32450,4.924291178
187.32500,10.11259611
187.32550,7.671040847
187.32600,1.261958286
187.32650,0.04118065471
187.32700,4.924291178
187.32750,7.36584644
187.32800,2.787930324
187.32850,-3.010763422
187.32900,-4.536735461
187.32950,-2.705569015
187.33000,-0.8744025684
187.33050,-0.264013753
187.33100,-0.8744025684
187.33150,-2.095180199
187.33200,-3.31595783
187.33250,-3.31595783
187.33300,-0.8744025684
187.33350,1.567152693
187.33400,3.703513547
187.33450,5.534679993
187.33500,6.145068809
187.33550,4.61909677
187.33600,2.177541509
187.33650,1.567152693
187.33700,2.482735916
187.33750,2.482735916
187.33800,0.3463750624
187.33850,-2.095180199
187.33900,-3.010763422
187.33950,-3.010763422
187.34000,-2.400374607
187.34050,-1.179596976
187.34100,0.6515694701
187.34150,0.9567638778
187.34200,-1.179596976
187.34250,-4.231541053
187.34300,-3.926346645
187.34350,-0.5692081607
187.34400,1.567152693
187.34450,1.261958286
187.34500,-0.5692081607
187.34550,-2.705569015
187.34600,-4.231541053
187.34650,-4.536735461
187.34700,-1.484791384
187.34750,4.61909677
187.34800,10.41779052
187.34850,12.55415137
187.34900,9.807401701
187.34950,3.703513547
187.35000,-2.705569015
187.35050,-6.673096315
187.35100,-6.978290722
187.35150,-5.147124276
187.35200,-3.926346645
187.35250,-3.621152238
187.35300,-2.705569015
187.35350,-0.5692081607
187.35400,0.6515694701
187.35450,0.6515694701
187.35500,0.04118065471
187.35550,0.04118065471
187.35600,-0.264013753
187.35650,-1.484791384
187.35700,-2.400374607
187.35750,-3.31595783
187.35800,-4.231541053
187.35850,-3.621152238
187.35900,-0.8744025684
187.35950,2.787930324
187.36000,4.008707955
187.36050,2.177541509
187.36100,0.3463750624
187.36150,0.3463750624
187.36200,0.04118065471
187.36250,-1.484791384
187.36300,-3.621152238
187.36350,-3.926346645
187.36400,-3.31595783
187.36450,-2.705569015
187.36500,-2.705569015
187.36550,-2.400374607
187.36600,-2.705569015
187.36650,-2.705569015
187.36700,-0.8744025684
187.36750,2.177541509
187.36800,3.703513547
187.36850,0.6515694701
187.36900,-3.621152238
187.36950,-6.062707499
187.37000,-5.757513092
187.37050,-4.231541053
187.37100,-2.095180199
187.37150,1.567152693
187.37200,4.924291178
187.37250,4.61909677
187.37300,1.872347101
187.37350,0.3463750624
187.37400,1.567152693
187.37450,3.093124732
187.37500,3.093124732
187.37550,4.008707955
187.37600,5.534679993
187.37650,5.534679993
187.37700,2.482735916
187.37750,-0.5692081607
187.37800,-1.484791384
187.37850,0.3463750624
187.37900,2.787930324
187.37950,3.703513547
187.38000,3.703513547
187.38050,3.398319139
187.38100,3.093124732
187.38150,2.482735916
187.38200,1.872347101
187.38250,0.9567638778
187.38300,-0.264013753
187.38350,-2.095180199
187.38400,-2.095180199
187.38450,-0.8744025684
187.38500,-0.8744025684
187.38550,-2.705569015
187.38600,-3.31595783
187.38650,-0.264013753
187.38700,2.787930324
187.38750,1.872347101
187.38800,-2.705569015
187.38850,-5.757513092
187.38900,-3.31595783
187.38950,2.482735916
187.39000,7.36584644
187.39050,8.58662407
187.39100,7.36584644
187.39150,4.313902363
187.39200,0.9567638778
187.39250,-0.5692081607
187.39300,-0.8744025684
187.39350,-2.095180199
187.39400,-6.062707499
187.39450,-9.725040392
187.39500,-10.0302348
187.39550,-7.28348513
187.39600,-4.536735461
187.39650,-3.926346645
187.39700,-3.926346645
187.39750,-3.621152238
187.39800,-2.400374607
187.39850,-0.8744025684
187.39900,-0.264013753
187.39950,-0.8744025684
187.40000,-1.789985791
187.40050,-1.789985791
187.40100,-0.264013753
187.40150,0.3463750624
187.40200,-0.8744025684
187.40250,-2.095180199
187.40300,0.04118065471
187.40350,4.008707955
187.40400,4.313902363
187.40450,0.3463750624
187.40500,-3.31595783
187.40550,-3.010763422
187.40600,-0.8744025684
187.40650,-0.5692081607
187.40700,-1.789985791
187.40750,-1.484791384
187.40800,0.3463750624
187.40850,1.567152693
187.40900,1.567152693
187.40950,1.567152693
187.41000,4.008707955
187.41050,8.281429663
187.41100,11.02817933
187.41150,7.976235255
187.41200,-0.5692081607
187.41250,-8.809457169
187.41300,-9.114651576
187.41350,-1.789985791
187.41400,3.703513547
187.41450,3.703513547
187.41500,1.872347101
187.41550,4.61909677
187.41600,8.281429663
187.41650,6.145068809
187.41700,-0.5692081607
187.41750,-4.536735461
187.41800,-1.789985791
187.41850,0.9567638778
187.41900,-0.264013753
187.41950,-4.231541053
187.42000,-5.452318684
187.42050,-3.926346645
187.42100,-2.095180199
187.42150,-1.179596976
187.42200,-0.5692081607
187.42250,0.04118065471
187.42300,0.04118065471
187.42350,0.04118065471
187.42400,0.3463750624
187.42450,0.3463750624
187.42500,0.04118065471
187.42550,0.04118065471
187.42600,0.04118065471
187.42650,-0.5692081607
187.42700,-0.5692081607
187.42750,0.04118065471
187.42800,1.261958286
187.42850,2.177541509
187.42900,2.482735916
187.42950,3.093124732
187.43000,3.398319139
187.43050,2.482735916
187.43100,2.482735916
187.43150,5.229485586
187.43200,7.060652032
187.43250,2.177541509
187.43300,-8.199068353
187.43350,-15.21853973
187.43400,-13.08217888
187.43450,-6.673096315
187.43500,-2.095180199
187.43550,-1.484791384
187.43600,-2.095180199
187.43650,-1.789985791
187.43700,-1.179596976
187.43750,-1.179596976
187.43800,-0.8744025684
187.43850,-0.5692081607
187.43900,-0.5692081607
187.43950,-0.8744025684
187.44000,-1.484791384
187.44050,-2.705569015
187.44100,-3.926346645
187.44150,-4.536735461
187.44200,-5.757513092
187.44250,-6.978290722
187.44300,-6.978290722
187.44350,-4.536735461
187.44400,-2.095180199
187.44450,-2.400374607
187.44500,-2.400374607
187.44550,0.04118065471
187.44600,3.398319139
187.44650,2.177541509
187.44700,-0.8744025684
187.44750,-0.264013753
187.44800,3.398319139
187.44850,3.398319139
187.44900,-2.400374607
187.44950,-6.673096315
187.45000,-3.010763422
187.45050,4.313902363
187.45100,8.281429663
187.45150,9.197012886
187.45200,11.63856815
187.45250,15.30090104
187.45300,14.69051222
187.45350,10.11259611
187.45400,6.755457624
187.45450,7.060652032
187.45500,7.671040847
187.45550,7.060652032
187.45600,6.450263216
187.45650,6.450263216
187.45700,5.534679993
187.45750,2.177541509
187.45800,-0.8744025684
187.45850,-1.789985791
187.45900,-0.8744025684
187.45950,0.04118065471
187.46000,0.04118065471
187.46050,0.6515694701
187.46100,1.872347101
187.46150,1.261958286
187.46200,-1.484791384
187.46250,-4.841929869
187.46300,-5.757513092
187.46350,-5.452318684
187.46400,-4.841929869
187.46450,-4.536735461
187.46500,-4.231541053
187.46550,-3.926346645
187.46600,-4.841929869
187.46650,-5.147124276
187.46700,-4.841929869
187.46750,-4.841929869
187.46800,-5.147124276
187.46850,-4.536735461
187.46900,-2.400374607
187.46950,0.3463750624
187.47000,1.872347101
187.47050,1.567152693
187.47100,0.6515694701
187.47150,-0.264013753
187.47200,-1.789985791
187.47250,-1.789985791
187.47300,0.04118065471
187.47350,2.482735916
187.47400,4.008707955
187.47450,3.398319139
187.47500,2.177541509
187.47550,0.6515694701
187.47600,-1.484791384
187.47650,-4.536735461
187.47700,-5.452318684
187.47750,-3.621152238
187.47800,-1.484791384
187.47850,-0.5692081607
187.47900,-1.179596976
187.47950,-2.400374607
187.48000,-3.31595783
187.48050,-3.621152238
187.48100,-2.400374607
187.48150,-0.5692081607
187.48200,0.04118065471
187.48250,-0.264013753
187.48300,-1.179596976
187.48350,-1.179596976
187.48400,-0.5692081607
187.48450,0.3463750624
187.48500,1.261958286
187.48550,1.872347101
187.48600,1.567152693
187.48650,0.9567638778
187.48700,0.04118065471
187.48750,-0.8744025684
187.48800,-1.484791384
187.48850,-0.8744025684
187.48900,0.04118065471
187.48950,0.6515694701
187.49000,0.3463750624
187.49050,-0.264013753
187.49100,0.04118065471
187.49150,0.04118065471
187.49200,0.04118065471
187.49250,-0.8744025684
187.49300,-1.179596976
187.49350,-0.5692081607
187.49400,0.04118065471
187.49450,0.9567638778
187.49500,3.093124732
187.49550,6.145068809
187.49600,7.976235255
187.49650,6.755457624
187.49700,4.924291178
187.49750,5.229485586
187.49800,6.145068809
187.49850,6.145068809
187.49900,4.924291178
187.49950,4.61909677
187.50000,5.229485586
187.50050,5.534679993
187.50100,5.534679993
187.50150,5.534679993
187.50200,4.924291178
187.50250,3.703513547
187.50300,3.093124732
187.50350,4.313902363
187.50400,5.229485586
187.50450,2.787930324
187.50500,-0.264013753
187.50550,-0.264013753
187.50600,3.398319139
187.50650,5.534679993
187.50700,1.261958286
187.50750,-5.147124276
187.50800,-8.809457169
187.50850,-8.504262761
187.50900,-6.978290722
187.50950,-5.452318684
187.51000,-3.31595783
187.51050,-0.5692081607
187.51100,0.04118065471
187.51150,0.04118065471
187.51200,0.04118065471
187.51250,0.3463750624
187.51300,0.6515694701
187.51350,0.9567638778
187.51400,1.872347101
187.51450,3.398319139
187.51500,2.787930324
187.51550,0.3463750624
187.51600,-1.484791384
187.51650,-2.095180199
187.51700,-2.095180199
187.51750,-2.400374607
187.51800,-2.095180199
187.51850,-0.5692081607
187.51900,-0.264013753
187.51950,-2.400374607
187.52000,-4.536735461
187.52050,-4.231541053
187.52100,-2.400374607
187.52150,-2.400374607
187.52200,-3.621152238
187.52250,-3.010763422
187.52300,0.04118065471
187.52350,2.482735916
187.52400,3.398319139
187.52450,1.872347101
187.52500,-1.484791384
187.52550,-5.147124276
187.52600,-5.757513092
187.52650,-1.179596976
187.52700,3.703513547
187.52750,4.313902363
187.52800,0.9567638778
187.52850,-1.179596976
187.52900,-0.264013753
187.52950,0.04118065471
187.53000,-0.264013753
187.53050,0.04118065471
187.53100,3.093124732
187.53150,3.703513547
187.53200,-0.5692081607
187.53250,-6.673096315
187.53300,-6.978290722
187.53350,-2.095180199
187.53400,2.177541509
187.53450,3.398319139
187.53500,2.787930324
187.53550,0.6515694701
187.53600,-2.705569015
187.53650,-6.978290722
187.53700,-8.199068353
187.53750,-5.757513092
187.53800,-2.400374607
187.53850,0.04118065471
187.53900,3.703513547
187.53950,8.891818478
187.54000,12.85934578
187.54050,13.16454019
187.54100,11.33337374
187.54150,10.41779052
187.54200,10.41779052
187.54250,8.281429663
187.54300,4.008707955
187.54350,0.3463750624
187.54400,-0.8744025684
187.54450,-2.400374607
187.54500,-5.452318684
187.54550,-8.504262761
187.54600,-8.809457169
187.54650,-7.28348513
187.54700,-6.367901907
187.54750,-5.757513092
187.54800,-4.231541053
187.54850,-2.095180199
187.54900,-1.179596976
187.54950,-1.179596976
187.55000,0.04118065471
187.55050,1.261958286
187.55100,0.04118065471
187.55150,-3.31595783
187.55200,-4.841929869
187.55250,-3.926346645
187.55300,-3.010763422
187.55350,-3.621152238
187.55400,-2.705569015
187.55450,2.482735916
187.55500,9.502207293
187.55550,13.774929
187.55600,14.99570663
187.55650,16.52167867
187.55700,16.82687308
187.55750,12.85934578
187.55800,3.093124732
187.55850,-6.062707499
187.55900,-10.0302348
187.55950,-7.893873946
187.56000,-4.536735461
187.56050,-3.010763422
187.56100,-3.31595783
187.56150,-3.010763422
187.56200,-2.705569015
187.56250,-3.010763422
187.56300,-3.31595783
187.56350,-2.095180199
187.56400,0.3463750624
187.56450,1.567152693
187.56500,0.04118065471
187.56550,-1.484791384
187.56600,-2.095180199
187.56650,-2.705569015
187.56700,-4.231541053
187.56750,-4.536735461
187.56800,-2.705569015
187.56850,-1.179596976
187.56900,-3.010763422
187.56950,-5.757513092
187.57000,-5.757513092
187.57050,-3.926346645
187.57100,-3.926346645
187.57150,-4.536735461
187.57200,-1.484791384
187.57250,3.703513547
187.57300,6.450263216
187.57350,3.093124732
187.57400,-1.789985791
187.57450,-3.621152238
187.57500,-2.705569015
187.57550,-1.179596976
187.57600,-0.5692081607
187.57650,-0.5692081607
187.57700,-0.5692081607
187.57750,-0.5692081607
187.57800,-0.8744025684
187.57850,-1.484791384
187.57900,-2.095180199
187.57950,-2.400374607
187.58000,-2.095180199
187.58050,-0.8744025684
187.58100,0.9567638778
187.58150,3.093124732
187.58200,4.313902363
187.58250,3.398319139
187.58300,1.261958286
187.58350,0.3463750624
187.58400,1.261958286
187.58450,1.872347101
187.58500,1.261958286
187.58550,0.04118065471
187.58600,-0.5692081607
187.58650,-2.095180199
187.58700,-3.010763422
187.58750,-2.705569015
187.58800,-1.179596976
187.58850,-0.8744025684
187.58900,-2.400374607
187.58950,-2.705569015
187.59000,-2.095180199
187.59050,-2.095180199
187.59100,-3.31595783
187.59150,-3.926346645
187.59200,-3.621152238
187.59250,-3.31595783
187.59300,-2.400374607
187.59350,1.872347101
187.59400,8.58662407
187.59450,11.02817933
187.59500,7.36584644
187.59550,3.093124732
187.59600,4.008707955
187.59650,6.755457624
187.59700,6.145068809
187.59750,2.482735916
187.59800,0.04118065471
187.59850,0.3463750624
187.59900,1.261958286
187.59950,1.872347101
187.60000,3.703513547
187.60050,6.145068809
187.60100,5.534679993
187.60150,0.9567638778
187.60200,-4.231541053
187.60250,-7.588679538
187.60300,-8.199068353
187.60350,-6.978290722
187.60400,-4.536735461
187.60450,-1.789985791
187.60500,-0.8744025684
187.60550,-0.8744025684
187.60600,0.04118065471
187.60650,4.008707955
187.60700,7.976235255
187.60750,8.281429663
187.60800,4.924291178
187.60850,1.872347101
187.60900,1.261958286
187.60950,1.567152693
187.61000,0.9567638778
187.61050,0.04118065471
187.61100,-0.264013753
187.61150,-0.5692081607
187.61200,-1.484791384
187.61250,-2.095180199
187.61300,-1.484791384
187.61350,-0.264013753
187.61400,0.04118065471
187.61450,-0.5692081607
187.61500,-1.789985791
187.61550,-2.400374607
187.61600,-2.705569015
187.61650,-2.095180199
187.61700,-0.8744025684
187.61750,0.3463750624
187.61800,1.567152693
187.61850,2.482735916
187.61900,3.703513547
187.61950,4.313902363
187.62000,3.398319139
187.62050,1.567152693
187.62100,0.3463750624
187.62150,0.3463750624
187.62200,0.6515694701
187.62250,0.9567638778
187.62300,0.3463750624
187.62350,-0.5692081607
187.62400,-2.705569015
187.62450,-4.536735461
187.62500,-4.841929869
187.62550,-3.621152238
187.62600,-1.179596976
187.62650,0.04118065471
187.62700,0.3463750624
187.62750,0.6515694701
187.62800,0.6515694701
187.62850,0.04118065471
187.62900,-1.179596976
187.62950,-2.705569015
187.63000,-3.010763422
187.63050,-2.400374607
187.63100,-1.484791384
187.63150,-1.179596976
187.63200,-1.179596976
187.63250,-1.484791384
187.63300,-2.095180199
187.63350,-2.705569015
187.63400,-2.400374607
187.63450,-0.8744025684
187.63500,0.9567638778
187.63550,1.872347101
187.63600,1.872347101
187.63650,2.482735916
187.63700,4.008707955
187.63750,4.924291178
187.63800,4.008707955
187.63850,0.9567638778
187.63900,-1.484791384
187.63950,-3.010763422
187.64000,-3.621152238
187.64050,-3.31595783
187.64100,-2.095180199
187.64150,0.04118065471
187.64200,1.872347101
187.64250,2.482735916
187.64300,1.261958286
187.64350,0.3463750624
187.64400,0.04118065471
187.64450,-1.484791384
187.64500,-5.147124276
187.64550,-7.893873946
187.64600,-5.452318684
187.64650,0.9567638778
187.64700,5.839874401
187.64750,5.534679993
187.64800,2.482735916
187.64850,2.177541509
187.64900,4.924291178
187.64950,6.450263216
187.65000,3.093124732
187.65050,-1.484791384
187.65100,-3.31595783
187.65150,-1.179596976
187.65200,0.04118065471
187.65250,-1.484791384
187.65300,-3.926346645
187.65350,-3.010763422
187.65400,1.872347101
187.65450,7.671040847
187.65500,11.02817933
187.65550,11.33337374
187.65600,11.02817933
187.65650,11.02817933
187.65700,9.502207293
187.65750,5.229485586
187.65800,-0.5692081607
187.65850,-5.452318684
187.65900,-6.673096315
187.65950,-5.147124276
187.66000,-4.231541053
187.66050,-5.452318684
187.66100,-6.062707499
187.66150,-2.705569015
187.66200,1.567152693
187.66250,2.787930324
187.66300,-0.264013753
187.66350,-3.926346645
187.66400,-4.231541053
187.66450,-2.400374607
187.66500,-1.179596976
187.66550,0.04118065471
187.66600,2.787930324
187.66650,6.450263216
187.66700,8.281429663
187.66750,6.755457624
187.66800,3.703513547
187.66850,0.9567638778
187.66900,-0.8744025684
187.66950,-2.095180199
187.67000,-3.010763422
187.67050,-4.231541053
187.67100,-5.757513092
187.67150,-5.757513092
187.67200,-3.31595783
187.67250,-1.484791384
187.67300,-3.010763422
187.67350,-6.062707499
187.67400,-6.367901907
187.67450,-4.536735461
187.67500,-3.926346645
187.67550,-4.841929869
187.67600,-2.400374607
187.67650,3.703513547
187.67700,8.58662407
187.67750,7.36584644
187.67800,2.177541509
187.67850,-0.5692081607
187.67900,-0.264013753
187.67950,0.9567638778
187.68000,2.482735916
187.68050,3.703513547
187.68100,4.924291178
187.68150,7.060652032
187.68200,11.02817933
187.68250,14.69051222
187.68300,13.774929
187.68350,8.281429663
187.68400,3.398319139
187.68450,0.6515694701
187.68500,-3.926346645
187.68550,-12.47179006
187.68600,-18.27048381
187.68650,-14.30295651
187.68700,-4.841929869
187.68750,0.3463750624
187.68800,-0.264013753
187.68850,-2.400374607
187.68900,-3.010763422
187.68950,-3.31595783
187.69000,-4.231541053
187.69050,-3.31595783
187.69100,-1.179596976
187.69150,0.04118065471
187.69200,0.04118065471
187.69250,-0.5692081607
187.69300,-1.179596976
187.69350,-2.095180199
187.69400,-1.484791384
187.69450,1.567152693
187.69500,5.839874401
187.69550,7.36584644
187.69600,6.145068809
187.69650,4.008707955
187.69700,3.093124732
187.69750,2.482735916
187.69800,2.482735916
187.69850,2.787930324
187.69900,2.177541509
187.69950,0.3463750624
187.70000,-0.264013753
187.70050,0.6515694701
187.70100,1.261958286
187.70150,-1.179596976
187.70200,-5.147124276
187.70250,-5.147124276
187.70300,-2.705569015
187.70350,-2.400374607
187.70400,-4.841929869
187.70450,-6.062707499
187.70500,-4.231541053
187.70550,-1.789985791
187.70600,-1.484791384
187.70650,-2.705569015
187.70700,-3.621152238
187.70750,-3.621152238
187.70800,-2.095180199
187.70850,0.9567638778
187.70900,4.008707955
187.70950,4.313902363
187.71000,2.177541509
187.71050,0.3463750624
187.71100,0.04118065471
187.71150,0.04118065471
187.71200,0.04118065471
187.71250,0.9567638778
187.71300,2.482735916
187.71350,2.177541509
187.71400,0.9567638778
187.71450,1.872347101
187.71500,4.61909677
187.71550,5.534679993
187.71600,2.177541509
187.71650,-2.095180199
187.71700,-4.536735461
187.71750,-5.147124276
187.71800,-5.147124276
187.71850,-4.841929869
187.71900,-2.705569015
187.71950,-0.5692081607
187.72000,-0.8744025684
187.72050,-2.705569015
187.72100,-2.400374607
187.72150,0.6515694701
187.72200,4.924291178
187.72250,7.060652032
187.72300,7.36584644
187.72350,5.534679993
187.72400,3.093124732
187.72450,0.6515694701
187.72500,0.04118065471
187.72550,0.3463750624
187.72600,0.3463750624
187.72650,-0.264013753
187.72700,0.04118065471
187.72750,1.567152693
187.72800,2.482735916
187.72850,0.6515694701
187.72900,-1.789985791
187.72950,-3.010763422
187.73000,-1.789985791
187.73050,-0.5692081607
187.73100,-0.8744025684
187.73150,-1.789985791
187.73200,-2.095180199
187.73250,-2.705569015
187.73300,-3.31595783
187.73350,-3.621152238
187.73400,-3.010763422
187.73450,-1.179596976
187.73500,-0.264013753
187.73550,-0.8744025684
187.73600,-2.095180199
187.73650,-1.789985791
187.73700,-0.8744025684
187.73750,-1.179596976
187.73800,-2.705569015
187.73850,-3.31595783
187.73900,-2.095180199
187.73950,0.3463750624
187.74000,1.872347101
187.74050,2.787930324
187.74100,3.703513547
187.74150,4.313902363
187.74200,3.398319139
187.74250,0.04118065471
187.74300,-2.095180199
187.74350,-1.789985791
187.74400,0.6515694701
187.74450,2.482735916
187.74500,0.3463750624
187.74550,-3.31595783
187.74600,-5.452318684
187.74650,-3.621152238
187.74700,0.3463750624
187.74750,3.398319139
187.74800,3.093124732
187.74850,0.6515694701
187.74900,-2.095180199
187.74950,-3.621152238
187.75000,-2.705569015
187.75050,0.04118065471
187.75100,2.787930324
187.75150,3.703513547
187.75200,4.008707955
187.75250,5.229485586
187.75300,6.145068809
187.75350,3.398319139
187.75400,-2.400374607
187.75450,-7.893873946
187.75500,-8.504262761
187.75550,-4.536735461
187.75600,-0.264013753
187.75650,1.261958286
187.75700,0.3463750624
187.75750,-1.179596976
187.75800,-1.484791384
187.75850,0.04118065471
187.75900,3.703513547
187.75950,6.145068809
187.76000,5.839874401
187.76050,3.093124732
187.76100,0.3463750624
187.76150,-0.264013753
187.76200,-0.264013753
187.76250,-0.5692081607
187.76300,-1.484791384
187.76350,-2.705569015
187.76400,-2.705569015
187.76450,-2.095180199
187.76500,-3.010763422
187.76550,-5.452318684
187.76600,-7.28348513
187.76650,-3.926346645
187.76700,2.787930324
187.76750,7.671040847
187.76800,4.61909677
187.76850,-1.484791384
187.76900,-4.231541053
187.76950,-1.179596976
187.77000,1.567152693
187.77050,0.3463750624
187.77100,-3.31595783
187.77150,-6.062707499
187.77200,-6.673096315
187.77250,-6.367901907
187.77300,-4.841929869
187.77350,-1.789985791
187.77400,1.567152693
187.77450,4.313902363
187.77500,6.145068809
187.77550,7.060652032
187.77600,6.145068809
187.77650,4.008707955
187.77700,3.093124732
187.77750,4.61909677
187.77800,5.839874401
187.77850,4.61909677
187.77900,1.872347101
187.77950,0.6515694701
187.78000,1.567152693
187.78050,3.093124732
187.78100,4.313902363
187.78150,4.61909677
187.78200,4.008707955
187.78250,3.093124732
187.78300,2.177541509
187.78350,0.6515694701
187.78400,-0.8744025684
187.78450,-2.095180199
187.78500,0.3463750624
187.78550,5.229485586
187.78600,7.671040847
187.78650,4.008707955
187.78700,-0.8744025684
187.78750,-2.400374607
187.78800,0.04118065471
187.78850,0.9567638778
187.78900,-0.264013753
187.78950,-1.179596976
187.79000,0.3463750624
187.79050,2.177541509
187.79100,1.567152693
187.79150,0.04118065471
187.79200,0.3463750624
187.79250,2.177541509
187.79300,1.872347101
187.79350,0.04118065471
187.79400,0.6515694701
187.79450,5.839874401
187.79500,9.502207293
187.79550,4.008707955
187.79600,-6.978290722
187.79650,-13.38737328
187.79700,-10.33542921
187.79750,-4.536735461
187.79800,-3.621152238
187.79850,-5.452318684
187.79900,-4.841929869
187.79950,-0.5692081607
187.80000,2.482735916
187.80050,1.872347101
187.80100,0.6515694701
187.80150,0.9567638778
187.80200,0.6515694701
187.80250,-1.484791384
187.80300,-4.231541053
187.80350,-4.841929869
187.80400,-3.010763422
187.80450,-0.5692081607
187.80500,0.3463750624
187.80550,0.04118065471
187.80600,-1.484791384
187.80650,-2.095180199
187.80700,-2.095180199
187.80750,-2.095180199
187.80800,-2.400374607
187.80850,-2.095180199
187.80900,-1.179596976
187.80950,-1.179596976
187.81000,-2.095180199
187.81050,-2.705569015
187.81100,-1.789985791
187.81150,0.04118065471
187.81200,0.9567638778
187.81250,2.177541509
187.81300,4.008707955
187.81350,4.008707955
187.81400,0.6515694701
187.81450,-2.705569015
187.81500,-1.484791384
187.81550,3.398319139
187.81600,6.145068809
187.81650,3.398319139
187.81700,-0.264013753
187.81750,-0.264013753
187.81800,1.872347101
187.81850,1.872347101
187.81900,0.04118065471
187.81950,-0.264013753
187.82000,1.567152693
187.82050,3.093124732
187.82100,2.482735916
187.82150,0.6515694701
187.82200,-0.5692081607
187.82250,-1.789985791
187.82300,-3.31595783
187.82350,-3.010763422
187.82400,-1.789985791
187.82450,-0.8744025684
187.82500,-1.789985791
187.82550,-2.705569015
187.82600,-2.095180199
187.82650,-0.8744025684
187.82700,-0.5692081607
187.82750,0.04118065471
187.82800,1.261958286
187.82850,2.177541509
187.82900,0.6515694701
187.82950,0.04118065471
187.83000,1.872347101
187.83050,5.534679993
187.83100,6.145068809
187.83150,2.482735916
187.83200,0.04118065471
187.83250,0.9567638778
187.83300,1.872347101
187.83350,0.04118065471
187.83400,-2.705569015
187.83450,-2.400374607
187.83500,0.04118065471
187.83550,1.261958286
187.83600,0.3463750624
187.83650,0.9567638778
187.83700,3.398319139
187.83750,4.008707955
187.83800,1.261958286
187.83850,-1.484791384
187.83900,-1.789985791
187.83950,0.04118065471
187.84000,1.261958286
187.84050,2.482735916
187.84100,4.008707955
187.84150,4.61909677
187.84200,2.787930324
187.84250,0.04118065471
187.84300,-1.179596976
187.84350,-0.8744025684
187.84400,-0.264013753
187.84450,-0.8744025684
187.84500,-1.789985791
187.84550,-2.705569015
187.84600,-3.621152238
187.84650,-4.231541053
187.84700,-3.926346645
187.84750,-2.705569015
187.84800,-1.179596976
187.84850,-0.8744025684
187.84900,-2.095180199
187.84950,-4.536735461
187.85000,-5.757513092
187.85050,-4.841929869
187.85100,-2.705569015
187.85150,-1.179596976
187.85200,-1.179596976
187.85250,-2.705569015
187.85300,-3.926346645
187.85350,-3.926346645
187.85400,-2.705569015
187.85450,-0.5692081607
187.85500,1.261958286
187.85550,2.482735916
187.85600,2.177541509
187.85650,1.872347101
187.85700,1.872347101
187.85750,1.567152693
187.85800,0.6515694701
187.85850,0.04118065471
187.85900,0.04118065471
187.85950,0.04118065471
187.86000,-0.264013753
187.86050,-0.8744025684
187.86100,-1.179596976
187.86150,-0.264013753
187.86200,0.6515694701
187.86250,2.177541509
187.86300,4.61909677
187.86350,6.755457624
187.86400,6.450263216
187.86450,3.398319139
187.86500,-0.8744025684
187.86550,-3.926346645
187.86600,-4.231541053
187.86650,-1.789985791
187.86700,0.3463750624
187.86750,0.9567638778
187.86800,0.04118065471
187.86850,-1.484791384
187.86900,-2.095180199
187.86950,-1.179596976
187.87000,0.04118065471
187.87050,1.567152693
187.87100,1.567152693
187.87150,0.04118065471
187.87200,-1.179596976
187.87250,-0.5692081607
187.87300,1.872347101
187.87350,2.787930324
187.87400,0.04118065471
187.87450,-3.926346645
187.87500,-5.757513092
187.87550,-5.452318684
187.87600,-3.621152238
187.87650,-1.179596976
187.87700,1.261958286
187.87750,1.261958286
187.87800,-1.484791384
187.87850,-2.400374607
187.87900,1.567152693
187.87950,7.36584644
187.88000,9.197012886
187.88050,7.36584644
187.88100,6.755457624
187.88150,7.060652032
187.88200,4.61909677
187.88250,0.9567638778
187.88300,0.04118065471
187.88350,1.872347101
187.88400,0.9567638778
187.88450,-2.400374607
187.88500,-2.095180199
187.88550,3.703513547
187.88600,8.281429663
187.88650,6.450263216
187.88700,2.787930324
187.88750,2.482735916
187.88800,4.61909677
187.88850,4.924291178
187.88900,2.787930324
187.88950,1.567152693
187.89000,0.9567638778
187.89050,0.6515694701
187.89100,0.9567638778
187.89150,1.872347101
187.89200,0.6515694701
187.89250,-3.621152238
187.89300,-7.893873946
187.89350,-8.199068353
187.89400,-5.147124276
187.89450,-3.010763422
187.89500,-3.621152238
187.89550,-4.536735461
187.89600,-4.231541053
187.89650,-2.095180199
187.89700,2.177541509
187.89750,7.36584644
187.89800,9.807401701
187.89850,7.36584644
187.89900,2.787930324
187.89950,-0.264013753
187.90000,-1.179596976
187.90050,-1.484791384
187.90100,-3.010763422
187.90150,-3.926346645
187.90200,-3.926346645
187.90250,-3.621152238
187.90300,-3.31595783
187.90350,-2.705569015
187.90400,-1.179596976
187.90450,0.6515694701
187.90500,4.008707955
187.90550,7.060652032
187.90600,9.197012886
187.90650,9.197012886
187.90700,7.36584644
187.90750,4.008707955
187.90800,0.04118065471
187.90850,-3.31595783
187.90900,-4.536735461
187.90950,-3.31595783
187.91000,-2.095180199
187.91050,-1.789985791
187.91100,-1.789985791
187.91150,-1.484791384
187.91200,-2.095180199
187.91250,-3.010763422
187.91300,-3.621152238
187.91350,-3.010763422
187.91400,-1.789985791
187.91450,-1.179596976
187.91500,-0.5692081607
187.91550,0.6515694701
187.91600,0.9567638778
187.91650,-0.264013753
187.91700,-1.179596976
187.91750,0.04118065471
187.91800,2.177541509
187.91850,1.567152693
187.91900,-0.5692081607
187.91950,-0.5692081607
187.92000,2.482735916
187.92050,6.145068809
187.92100,6.450263216
187.92150,4.008707955
187.92200,1.872347101
187.92250,0.9567638778
187.92300,1.872347101
187.92350,2.177541509
187.92400,0.04118065471
187.92450,-4.536735461
187.92500,-8.504262761
187.92550,-7.28348513
187.92600,-2.705569015
187.92650,0.04118065471
187.92700,-0.5692081607
187.92750,-3.010763422
187.92800,-3.010763422
187.92850,-1.789985791
187.92900,0.04118065471
187.92950,2.177541509
187.93000,4.924291178
187.93050,4.008707955
187.93100,-2.400374607
187.93150,-10.94581802
187.93200,-14.30295651
187.93250,-10.0302348
187.93300,-3.621152238
187.93350,-0.5692081607
187.93400,-0.8744025684
187.93450,-2.705569015
187.93500,-3.926346645
187.93550,-4.841929869
187.93600,-4.231541053
187.93650,-2.705569015
187.93700,-1.484791384
187.93750,-0.8744025684
187.93800,0.3463750624
187.93850,2.177541509
187.93900,1.872347101
187.93950,-0.8744025684
187.94000,-3.010763422
187.94050,-0.5692081607
187.94100,4.008707955
187.94150,6.450263216
187.94200,5.839874401
187.94250,5.229485586
187.94300,5.534679993
187.94350,4.008707955
187.94400,0.3463750624
187.94450,-2.705569015
187.94500,-3.31595783
187.94550,-2.400374607
187.94600,-1.484791384
187.94650,-0.8744025684
187.94700,-0.8744025684
187.94750,-1.484791384
187.94800,-3.31595783
187.94850,-5.147124276
187.94900,-5.757513092
187.94950,-5.147124276
187.95000,-2.400374607
187.95050,1.261958286
187.95100,4.008707955
187.95150,3.398319139
187.95200,0.04118065471
187.95250,-2.705569015
187.95300,-2.400374607
187.95350,0.04118065471
187.95400,2.482735916
187.95450,4.61909677
187.95500,6.145068809
187.95550,6.145068809
187.95600,5.534679993
187.95650,4.924291178
187.95700,4.924291178
187.95750,5.534679993
187.95800,5.534679993
187.95850,4.008707955
187.95900,0.9567638778
187.95950,-1.179596976
187.96000,-1.484791384
187.96050,0.04118065471
187.96100,0.04118065471
187.96150,-1.179596976
187.96200,-2.705569015
187.96250,-3.010763422
187.96300,-2.705569015
187.96350,-2.400374607
187.96400,-1.789985791
187.96450,-0.8744025684
187.96500,0.04118065471
187.96550,0.04118065471
187.96600,0.04118065471
187.96650,-0.264013753
187.96700,-0.5692081607
187.96750,0.04118065471
187.96800,1.261958286
187.96850,1.261958286
187.96900,-1.484791384
187.96950,-4.841929869
187.97000,-5.452318684
187.97050,-3.010763422
187.97100,-0.8744025684
187.97150,-0.5692081607
187.97200,-1.179596976
187.97250,-1.789985791
187.97300,-2.705569015
187.97350,-3.010763422
187.97400,-1.484791384
187.97450,0.04118065471
187.97500,0.3463750624
187.97550,-0.264013753
187.97600,0.3463750624
187.97650,3.093124732
187.97700,4.61909677
187.97750,3.703513547
187.97800,3.093124732
187.97850,3.703513547
187.97900,4.61909677
187.97950,4.61909677
187.98000,3.703513547
187.98050,2.482735916
187.98100,1.261958286
187.98150,0.9567638778
187.98200,3.398319139
187.98250,5.229485586
187.98300,3.093124732
187.98350,-1.789985791
187.98400,-4.231541053
187.98450,-3.010763422
187.98500,-0.8744025684
187.98550,-0.8744025684
187.98600,-2.095180199
187.98650,-2.400374607
187.98700,-1.789985791
187.98750,-1.179596976
187.98800,0.04118065471
187.98850,0.6515694701
187.98900,0.04118065471
187.98950,-1.179596976
187.99000,0.3463750624
187.99050,4.61909677
187.99100,6.755457624
187.99150,4.924291178
187.99200,1.567152693
187.99250,0.04118065471
187.99300,-0.5692081607
187.99350,-0.8744025684
187.99400,-0.5692081607
187.99450,-1.484791384
187.99500,-4.231541053
187.99550,-6.367901907
187.99600,-4.231541053
187.99650,0.3463750624
187.99700,2.482735916
187.99750,0.3463750624
187.99800,-0.5692081607
187.99850,1.567152693
187.99900,2.787930324
187.99950,-0.264013753
188.00000,-5.147124276
188.00050,-5.452318684
188.00100,-2.095180199
188.00150,-0.264013753
188.00200,-2.095180199
188.00250,-3.926346645
188.00300,-3.31595783
188.00350,-1.789985791
188.00400,-1.789985791
188.00450,-2.400374607
188.00500,-2.095180199
188.00550,-0.264013753
188.00600,0.04118065471
188.00650,-1.179596976
188.00700,-2.705569015
188.00750,-1.179596976
188.00800,1.567152693
188.00850,2.482735916
188.00900,0.04118065471
188.00950,-3.31595783
188.01000,-4.841929869
188.01050,-4.536735461
188.01100,-3.621152238
188.01150,-1.179596976
188.01200,2.787930324
188.01250,6.755457624
188.01300,7.671040847
188.01350,5.534679993
188.01400,2.177541509
188.01450,-1.179596976
188.01500,-3.31595783
188.01550,-3.31595783
188.01600,-1.484791384
188.01650,-0.264013753
188.01700,-1.179596976
188.01750,-1.484791384
188.01800,0.6515694701
188.01850,3.398319139
188.01900,2.787930324
188.01950,0.3463750624
188.02000,0.3463750624
188.02050,4.008707955
188.02100,7.36584644
188.02150,7.36584644
188.02200,5.229485586
188.02250,3.703513547
188.02300,3.398319139
188.02350,3.093124732
188.02400,2.787930324
188.02450,1.872347101
188.02500,0.9567638778
188.02550,0.3463750624
188.02600,0.04118065471
188.02650,-1.484791384
188.02700,-3.926346645
188.02750,-5.452318684
188.02800,-5.147124276
188.02850,-4.841929869
188.02900,-5.452318684
188.02950,-5.757513092
188.03000,-4.536735461
188.03050,-2.400374607
188.03100,-1.179596976
188.03150,0.6515694701
188.03200,4.61909677
188.03250,7.976235255
188.03300,7.060652032
188.03350,2.177541509
188.03400,-1.484791384
188.03450,-2.095180199
188.03500,-0.5692081607
188.03550,0.04118065471
188.03600,0.3463750624
188.03650,1.872347101
188.03700,4.313902363
188.03750,5.839874401
188.03800,4.008707955
188.03850,0.3463750624
188.03900,-3.010763422
188.03950,-3.621152238
188.04000,-2.095180199
188.04050,0.04118065471
188.04100,0.9567638778
188.04150,0.9567638778
188.04200,0.3463750624
188.04250,-0.264013753
188.04300,-0.8744025684
188.04350,-1.484791384
188.04400,-1.179596976
188.04450,0.04118065471
188.04500,1.261958286
188.04550,1.872347101
188.04600,0.9567638778
188.04650,-0.5692081607
188.04700,-0.8744025684
188.04750,-0.5692081607
188.04800,-1.179596976
188.04850,-3.010763422
188.04900,-3.31595783
188.04950,-1.484791384
188.05000,0.04118065471
188.05050,-0.5692081607
188.05100,-2.400374607
188.05150,-2.400374607
188.05200,-0.5692081607
188.05250,0.04118065471
188.05300,0.04118065471
188.05350,0.9567638778
188.05400,2.787930324
188.05450,2.482735916
188.05500,0.9567638778
188.05550,0.3463750624
188.05600,2.177541509
188.05650,2.787930324
188.05700,0.6515694701
188.05750,-1.179596976
188.05800,-1.484791384
188.05850,-0.5692081607
188.05900,-0.5692081607
188.05950,-1.179596976
188.06000,-0.8744025684
188.06050,0.04118065471
188.06100,0.3463750624
188.06150,0.04118065471
188.06200,-0.8744025684
188.06250,-2.095180199
188.06300,-3.010763422
188.06350,-2.705569015
188.06400,-0.8744025684
188.06450,0.9567638778
188.06500,2.482735916
188.06550,2.787930324
188.06600,1.872347101
188.06650,0.3463750624
188.06700,-0.264013753
188.06750,2.787930324
188.06800,9.502207293
188.06850,14.38531782
188.06900,12.85934578
188.06950,5.839874401
188.07000,-1.179596976
188.07050,-4.841929869
188.07100,-5.147124276
188.07150,-3.31595783
188.07200,-0.5692081607
188.07250,0.9567638778
188.07300,0.04118065471
188.07350,-3.010763422
188.07400,-5.147124276
188.07450,-3.31595783
188.07500,1.261958286
188.07550,4.313902363
188.07600,4.313902363
188.07650,3.093124732
188.07700,2.177541509
188.07750,1.872347101
188.07800,2.177541509
188.07850,3.703513547
188.07900,5.229485586
188.07950,5.534679993
188.08000,4.008707955
188.08050,3.093124732
188.08100,2.787930324
188.08150,2.482735916
188.08200,1.261958286
188.08250,0.3463750624
188.08300,0.3463750624
188.08350,-0.264013753
188.08400,-2.400374607
188.08450,-3.926346645
188.08500,-3.31595783
188.08550,-3.31595783
188.08600,-4.841929869
188.08650,-5.757513092
188.08700,-2.400374607
188.08750,2.177541509
188.08800,2.177541509
188.08850,-1.789985791
188.08900,-4.231541053
188.08950,-1.484791384
188.09000,2.177541509
188.09050,1.567152693
188.09100,-1.484791384
188.09150,-3.010763422
188.09200,-0.5692081607
188.09250,2.177541509
188.09300,2.787930324
188.09350,1.567152693
188.09400,1.261958286
188.09450,1.872347101
188.09500,2.177541509
188.09550,0.9567638778
188.09600,-0.5692081607
188.09650,-0.8744025684
188.09700,0.6515694701
188.09750,3.398319139
188.09800,4.924291178
188.09850,3.398319139
188.09900,-0.5692081607
188.09950,-4.536735461
188.10000,-5.452318684
188.10050,-4.536735461
188.10100,-3.926346645
188.10150,-4.841929869
188.10200,-5.452318684
188.10250,-3.926346645
188.10300,-1.179596976
188.10350,1.261958286
188.10400,2.177541509
188.10450,1.261958286
188.10500,-1.179596976
188.10550,-3.621152238
188.10600,-4.536735461
188.10650,-2.400374607
188.10700,0.6515694701
188.10750,3.093124732
188.10800,2.787930324
188.10850,0.04118065471
188.10900,-3.621152238
188.10950,-6.062707499
188.11000,-6.367901907
188.11050,-6.673096315
188.11100,-7.28348513
188.11150,-5.757513092
188.11200,-1.179596976
188.11250,3.093124732
188.11300,4.008707955
188.11350,2.177541509
188.11400,0.9567638778
188.11450,1.261958286
188.11500,0.9567638778
188.11550,-0.8744025684
188.11600,-1.179596976
188.11650,2.787930324
188.11700,7.36584644
188.11750,7.976235255
188.11800,4.61909677
188.11850,2.787930324
188.11900,5.839874401
188.11950,10.11259611
188.12000,10.41779052
188.12050,5.534679993
188.12100,-1.179596976
188.12150,-5.452318684
188.12200,-5.452318684
188.12250,-2.705569015
188.12300,0.04118065471
188.12350,0.6515694701
188.12400,-1.179596976
188.12450,-5.452318684
188.12500,-7.28348513
188.12550,-3.621152238
188.12600,1.872347101
188.12650,5.534679993
188.12700,4.61909677
188.12750,2.787930324
188.12800,3.093124732
188.12850,4.008707955
188.12900,3.093124732
188.12950,0.6515694701
188.13000,-1.789985791
188.13050,-3.31595783
188.13100,-4.231541053
188.13150,-4.231541053
188.13200,-3.010763422
188.13250,-1.179596976
188.13300,0.6515694701
188.13350,3.093124732
188.13400,4.61909677
188.13450,4.008707955
188.13500,1.872347101
188.13550,0.3463750624
188.13600,0.04118065471
188.13650,-0.8744025684
188.13700,-1.179596976
188.13750,0.04118065471
188.13800,2.787930324
188.13850,2.787930324
188.13900,-0.5692081607
188.13950,-2.400374607
188.14000,-0.264013753
188.14050,1.872347101
188.14100,1.261958286
188.14150,0.9567638778
188.14200,3.398319139
188.14250,5.534679993
188.14300,3.703513547
188.14350,0.6515694701
188.14400,0.3463750624
188.14450,1.261958286
188.14500,-2.095180199
188.14550,-9.114651576
188.14600,-12.47179006
188.14650,-9.419845984
188.14700,-3.926346645
188.14750,-1.789985791
188.14800,-3.010763422
188.14850,-4.841929869
188.14900,-5.147124276
188.14950,-3.926346645
188.15000,-2.095180199
188.15050,-1.484791384
188.15100,-2.095180199
188.15150,-2.400374607
188.15200,-1.789985791
188.15250,-1.179596976
188.15300,-1.789985791
188.15350,-3.31595783
188.15400,-3.926346645
188.15450,-4.231541053
188.15500,-4.841929869
188.15550,-5.147124276
188.15600,-3.926346645
188.15650,-2.705569015
188.15700,-2.400374607
188.15750,-2.705569015
188.15800,-2.705569015
188.15850,-3.621152238
188.15900,-6.367901907
188.15950,-6.978290722
188.16000,-1.789985791
188.16050,6.145068809
188.16100,10.72298492
188.16150,9.502207293
188.16200,5.839874401
188.16250,4.924291178
188.16300,7.36584644
188.16350,10.11259611
188.16400,10.11259611
188.16450,8.281429663
188.16500,5.534679993
188.16550,3.398319139
188.16600,2.177541509
188.16650,0.9567638778
188.16700,0.3463750624
188.16750,1.261958286
188.16800,2.787930324
188.16850,1.567152693
188.16900,-2.095180199
188.16950,-5.147124276
188.17000,-4.536735461
188.17050,-2.705569015
188.17100,-1.789985791
188.17150,-2.095180199
188.17200,-1.789985791
188.17250,-2.095180199
188.17300,-3.926346645
188.17350,-3.926346645
188.17400,0.04118065471
188.17450,4.313902363
188.17500,4.61909677
188.17550,1.261958286
188.17600,-0.5692081607
188.17650,0.04118065471
188.17700,0.3463750624
188.17750,0.04118065471
188.17800,-0.8744025684
188.17850,0.04118065471
188.17900,1.567152693
188.17950,2.482735916
188.18000,4.008707955
188.18050,7.060652032
188.18100,9.502207293
188.18150,9.502207293
188.18200,6.145068809
188.18250,0.6515694701
188.18300,-6.367901907
188.18350,-12.77698447
188.18400,-14.91334532
188.18450,-11.86140125
188.18500,-6.978290722
188.18550,-4.536735461
188.18600,-3.926346645
188.18650,-3.010763422
188.18700,-1.179596976
188.18750,-0.264013753
188.18800,-1.179596976
188.18850,-3.31595783
188.18900,-4.841929869
188.18950,-3.621152238
188.19000,0.3463750624
188.19050,6.145068809
188.19100,9.197012886
188.19150,6.755457624
188.19200,1.567152693
188.19250,-1.484791384
188.19300,-1.484791384
188.19350,-0.8744025684
188.19400,-0.264013753
188.19450,1.261958286
188.19500,3.703513547
188.19550,4.61909677
188.19600,1.261958286
188.19650,-2.705569015
188.19700,-3.31595783
188.19750,0.04118065471
188.19800,2.787930324
188.19850,1.567152693
188.19900,-1.484791384
188.19950,-2.400374607
188.20000,-0.8744025684
188.20050,0.3463750624
188.20100,0.04118065471
188.20150,0.04118065471
188.20200,1.872347101
188.20250,4.008707955
188.20300,4.313902363
188.20350,4.008707955
188.20400,4.924291178
188.20450,6.450263216
188.20500,6.145068809
188.20550,5.534679993
188.20600,5.229485586
188.20650,4.61909677
188.20700,2.177541509
188.20750,0.04118065471
188.20800,0.9567638778
188.20850,2.787930324
188.20900,0.04118065471
188.20950,-7.28348513
188.21000,-13.38737328
188.21050,-13.69256769
188.21100,-9.725040392
188.21150,-5.452318684
188.21200,-0.8744025684
188.21250,3.398319139
188.21300,4.924291178
188.21350,3.093124732
188.21400,1.872347101
188.21450,3.703513547
188.21500,5.229485586
188.21550,3.093124732
188.21600,-0.264013753
188.21650,-0.8744025684
188.21700,0.9567638778
188.21750,2.177541509
188.21800,1.872347101
188.21850,1.872347101
188.21900,2.787930324
188.21950,2.177541509
188.22000,0.6515694701
188.22050,0.04118065471
188.22100,0.9567638778
188.22150,0.6515694701
188.22200,-1.789985791
188.22250,-4.841929869
188.22300,-5.452318684
188.22350,-3.621152238
188.22400,-1.789985791
188.22450,-0.8744025684
188.22500,-0.264013753
188.22550,0.04118065471
188.22600,0.04118065471
188.22650,0.9567638778
188.22700,2.787930324
188.22750,3.093124732
188.22800,0.6515694701
188.22850,-2.705569015
188.22900,-3.926346645
188.22950,-1.179596976
188.23000,2.787930324
188.23050,4.008707955
188.23100,2.177541509
188.23150,0.9567638778
188.23200,4.313902363
188.23250,10.41779052
188.23300,14.08012341
188.23350,10.11259611
188.23400,0.04118065471
188.23450,-9.725040392
188.23500,-12.47179006
188.23550,-7.588679538
188.23600,-0.8744025684
188.23650,0.3463750624
188.23700,-2.400374607
188.23750,-4.536735461
188.23800,-1.179596976
188.23850,3.703513547
188.23900,5.839874401
188.23950,4.008707955
188.24000,0.9567638778
188.24050,-1.179596976
188.24100,-2.705569015
188.24150,-3.010763422
188.24200,-2.095180199
188.24250,-1.484791384
188.24300,-2.400374607
188.24350,-3.621152238
188.24400,-1.179596976
188.24450,2.787930324
188.24500,5.229485586
188.24550,4.924291178
188.24600,4.313902363
188.24650,4.924291178
188.24700,4.924291178
188.24750,3.093124732
188.24800,0.9567638778
188.24850,-0.264013753
188.24900,-2.095180199
188.24950,-3.621152238
188.25000,-3.010763422
188.25050,-0.5692081607
188.25100,0.9567638778
188.25150,0.6515694701
188.25200,0.04118065471
188.25250,1.261958286
188.25300,2.482735916
188.25350,0.9567638778
188.25400,-1.179596976
188.25450,-2.095180199
188.25500,0.04118065471
188.25550,3.398319139
188.25600,5.534679993
188.25650,4.313902363
188.25700,0.04118065471
188.25750,-4.231541053
188.25800,-5.147124276
188.25850,-3.621152238
188.25900,-3.31595783
188.25950,-5.147124276
188.26000,-5.757513092
188.26050,-2.095180199
188.26100,4.008707955
188.26150,8.281429663
188.26200,7.671040847
188.26250,3.703513547
188.26300,-0.8744025684
188.26350,-4.231541053
188.26400,-5.757513092
188.26450,-5.757513092
188.26500,-4.841929869
188.26550,-3.010763422
188.26600,-0.8744025684
188.26650,-0.264013753
188.26700,-1.789985791
188.26750,-3.621152238
188.26800,-3.926346645
188.26850,-3.31595783
188.26900,-3.31595783
188.26950,-3.621152238
188.27000,-2.400374607
188.27050,-0.5692081607
188.27100,-0.264013753
188.27150,-2.095180199
188.27200,-4.841929869
188.27250,-5.452318684
188.27300,-3.010763422
188.27350,0.9567638778
188.27400,4.313902363
188.27450,4.008707955
188.27500,1.261958286
188.27550,-0.264013753
188.27600,-0.5692081607
188.27650,-0.8744025684
188.27700,-3.010763422
188.27750,-3.31595783
188.27800,0.04118065471
188.27850,3.703513547
188.27900,4.008707955
188.27950,0.9567638778
188.28000,-0.5692081607
188.28050,0.9567638778
188.28100,4.008707955
188.28150,4.61909677
188.28200,3.398319139
188.28250,1.872347101
188.28300,0.9567638778
188.28350,0.04118065471
188.28400,-0.264013753
188.28450,0.04118065471
188.28500,1.261958286
188.28550,1.567152693
188.28600,0.04118065471
188.28650,-1.179596976
188.28700,-1.484791384
188.28750,-0.5692081607
188.28800,-0.8744025684
188.28850,-2.400374607
188.28900,-3.926346645
188.28950,-4.231541053
188.29000,-3.621152238
188.29050,-2.095180199
188.29100,-0.5692081607
188.29150,0.3463750624
188.29200,0.04118065471
188.29250,-1.179596976
188.29300,-1.484791384
188.29350,-1.484791384
188.29400,-2.400374607
188.29450,-4.536735461
188.29500,-6.062707499
188.29550,-6.062707499
188.29600,-4.841929869
188.29650,-3.31595783
188.29700,-1.484791384
188.29750,0.9567638778
188.29800,2.787930324
188.29850,2.482735916
188.29900,1.567152693
188.29950,2.177541509
188.30000,4.924291178
188.30050,7.060652032
188.30100,6.450263216
188.30150,4.008707955
188.30200,1.872347101
188.30250,0.9567638778
188.30300,0.9567638778
188.30350,0.6515694701
188.30400,0.9567638778
188.30450,1.872347101
188.30500,2.787930324
188.30550,2.482735916
188.30600,1.567152693
188.30650,1.567152693
188.30700,1.872347101
188.30750,0.6515694701
188.30800,-1.179596976
188.30850,-2.400374607
188.30900,-2.400374607
188.30950,-2.095180199
188.31000,-2.400374607
188.31050,-0.264013753
188.31100,3.398319139
188.31150,4.61909677
188.31200,0.6515694701
188.31250,-4.536735461
188.31300,-6.062707499
188.31350,-2.705569015
188.31400,0.6515694701
188.31450,2.177541509
188.31500,3.093124732
188.31550,5.839874401
188.31600,7.976235255
188.31650,7.060652032
188.31700,4.924291178
188.31750,4.313902363
188.31800,4.924291178
188.31850,4.924291178
188.31900,3.703513547
188.31950,3.093124732
188.32000,4.313902363
188.32050,4.61909677
188.32100,0.9567638778
188.32150,-3.926346645
188.32200,-5.757513092
188.32250,-2.400374607
188.32300,2.177541509
188.32350,3.093124732
188.32400,0.6515694701
188.32450,-2.095180199
188.32500,-3.010763422
188.32550,-2.705569015
188.32600,-1.789985791
188.32650,0.04118065471
188.32700,1.872347101
188.32750,2.482735916
188.32800,0.9567638778
188.32850,-0.264013753
188.32900,0.04118065471
188.32950,0.6515694701
188.33000,0.3463750624
188.33050,-0.264013753
188.33100,0.04118065471
188.33150,1.567152693
188.33200,2.787930324
188.33250,2.482735916
188.33300,1.567152693
188.33350,0.9567638778
188.33400,0.6515694701
188.33450,0.3463750624
188.33500,-0.264013753
188.33550,-1.484791384
188.33600,-2.400374607
188.33650,-3.31595783
188.33700,-3.621152238
188.33750,-3.31595783
188.33800,-1.789985791
188.33850,0.3463750624
188.33900,2.177541509
188.33950,2.787930324
188.34000,2.787930324
188.34050,3.093124732
188.34100,3.398319139
188.34150,2.177541509
188.34200,0.04118065471
188.34250,-1.179596976
188.34300,-0.8744025684
188.34350,0.9567638778
188.34400,2.482735916
188.34450,2.787930324
188.34500,0.6515694701
188.34550,-2.705569015
188.34600,-3.926346645
188.34650,-1.179596976
188.34700,1.872347101
188.34750,0.3463750624
188.34800,-5.452318684
188.34850,-9.725040392
188.34900,-8.809457169
188.34950,-6.367901907
188.35000,-6.367901907
188.35050,-5.757513092
188.35100,-0.264013753
188.35150,7.671040847
188.35200,12.24895696
188.35250,10.72298492
188.35300,6.450263216
188.35350,3.093124732
188.35400,0.6515694701
188.35450,-1.484791384
188.35500,-2.400374607
188.35550,-0.264013753
188.35600,3.703513547
188.35650,7.976235255
188.35700,9.197012886
188.35750,6.755457624
188.35800,1.567152693
188.35850,-3.010763422
188.35900,-5.147124276
188.35950,-4.536735461
188.36000,-2.705569015
188.36050,-1.484791384
188.36100,-0.8744025684
188.36150,0.04118065471
188.36200,0.3463750624
188.36250,0.04118065471
188.36300,-1.179596976
188.36350,-1.789985791
188.36400,-1.484791384
188.36450,-0.8744025684
188.36500,-0.5692081607
188.36550,0.04118065471
188.36600,0.3463750624
188.36650,0.3463750624
188.36700,-0.5692081607
188.36750,-1.179596976
188.36800,-0.8744025684
188.36850,-1.789985791
188.36900,-4.841929869
188.36950,-7.893873946
188.37000,-7.28348513
188.37050,-3.926346645
188.37100,-1.789985791
188.37150,-2.095180199
188.37200,-2.400374607
188.37250,-0.8744025684
188.37300,0.3463750624
188.37350,0.04118065471
188.37400,-1.484791384
188.37450,-1.179596976
188.37500,0.04118065471
188.37550,1.567152693
188.37600,2.482735916
188.37650,4.61909677
188.37700,6.145068809
188.37750,5.839874401
188.37800,3.703513547
188.37850,2.482735916
188.37900,2.482735916
188.37950,3.093124732
188.38000,2.482735916
188.38050,1.872347101
188.38100,0.9567638778
188.38150,0.3463750624
188.38200,0.04118065471
188.38250,0.04118065471
188.38300,0.04118065471
188.38350,0.04118065471
188.38400,-0.264013753
188.38450,-1.484791384
188.38500,-3.926346645
188.38550,-5.757513092
188.38600,-5.147124276
188.38650,-2.400374607
188.38700,-0.8744025684
188.38750,-2.400374607
188.38800,-4.231541053
188.38850,-3.621152238
188.38900,-1.484791384
188.38950,-0.8744025684
188.39000,-1.789985791
188.39050,-2.400374607
188.39100,-2.400374607
188.39150,-1.789985791
188.39200,0.04118065471
188.39250,2.177541509
188.39300,4.008707955
188.39350,4.924291178
188.39400,4.61909677
188.39450,3.093124732
188.39500,1.261958286
188.39550,0.3463750624
188.39600,2.482735916
188.39650,4.61909677
188.39700,3.093124732
188.39750,-1.484791384
188.39800,-5.147124276
188.39850,-5.147124276
188.39900,-3.621152238
188.39950,-3.621152238
188.40000,-3.31595783
188.40050,-1.484791384
188.40100,0.3463750624
188.40150,2.177541509
188.40200,3.093124732
188.40250,4.313902363
188.40300,4.924291178
188.40350,4.008707955
188.40400,1.567152693
188.40450,0.04118065471
188.40500,-0.8744025684
188.40550,-0.264013753
188.40600,1.261958286
188.40650,2.482735916
188.40700,1.567152693
188.40750,-0.264013753
188.40800,-1.484791384
188.40850,-1.789985791
188.40900,-2.400374607
188.40950,-3.010763422
188.41000,-3.926346645
188.41050,-4.841929869
188.41100,-5.757513092
188.41150,-5.452318684
188.41200,-2.400374607
188.41250,0.04118065471
188.41300,0.04118065471
188.41350,-1.484791384
188.41400,-2.095180199
188.41450,-0.8744025684
188.41500,1.261958286
188.41550,3.093124732
188.41600,4.008707955
188.41650,3.093124732
188.41700,1.872347101
188.41750,2.177541509
188.41800,3.398319139
188.41850,3.398319139
188.41900,2.482735916
188.41950,1.567152693
188.42000,1.567152693
188.42050,1.567152693
188.42100,0.9567638778
188.42150,0.6515694701
188.42200,0.9567638778
188.42250,0.04118065471
188.42300,-2.095180199
188.42350,-2.705569015
188.42400,-1.789985791
188.42450,-1.789985791
188.42500,-3.010763422
188.42550,-2.705569015
188.42600,0.3463750624
188.42650,2.482735916
188.42700,0.9567638778
188.42750,-1.789985791
188.42800,-2.400374607
188.42850,-1.179596976
188.42900,-1.789985791
188.42950,-3.621152238
188.43000,-4.841929869
188.43050,-4.841929869
188.43100,-5.757513092
188.43150,-7.28348513
188.43200,-7.28348513
188.43250,-4.536735461
188.43300,-0.5692081607
188.43350,2.177541509
188.43400,3.398319139
188.43450,2.787930324
188.43500,0.9567638778
188.43550,-1.179596976
188.43600,-2.400374607
188.43650,-2.400374607
188.43700,-1.179596976
188.43750,-0.264013753
188.43800,0.04118065471
188.43850,1.261958286
188.43900,4.008707955
188.43950,7.36584644
188.44000,8.891818478
188.44050,6.450263216
188.44100,1.567152693
188.44150,-2.095180199
188.44200,-3.31595783
188.44250,-3.010763422
188.44300,-2.400374607
188.44350,-0.8744025684
188.44400,0.9567638778
188.44450,1.567152693
188.44500,0.3463750624
188.44550,-0.8744025684
188.44600,-0.8744025684
188.44650,0.04118065471
188.44700,0.3463750624
188.44750,-0.264013753
188.44800,-1.179596976
188.44850,-1.179596976
188.44900,-0.5692081607
188.44950,0.04118065471
188.45000,0.04118065471
188.45050,-0.264013753
188.45100,-1.789985791
188.45150,-3.621152238
188.45200,-5.147124276
188.45250,-4.536735461
188.45300,-2.400374607
188.45350,-0.264013753
188.45400,0.04118065471
188.45450,-0.5692081607
188.45500,-0.264013753
188.45550,0.6515694701
188.45600,0.3463750624
188.45650,-2.095180199
188.45700,-3.926346645
188.45750,-2.400374607
188.45800,0.04118065471
188.45850,0.04118065471
188.45900,-3.926346645
188.45950,-6.978290722
188.46000,-5.147124276
188.46050,0.04118065471
188.46100,6.145068809
188.46150,11.02817933
188.46200,13.16454019
188.46250,13.16454019
188.46300,11.02817933
188.46350,8.281429663
188.46400,4.924291178
188.46450,2.482735916
188.46500,2.482735916
188.46550,4.313902363
188.46600,5.229485586
188.46650,1.872347101
188.46700,-3.010763422
188.46750,-5.452318684
188.46800,-3.31595783
188.46850,-0.5692081607
188.46900,-0.264013753
188.46950,-0.264013753
188.47000,1.261958286
188.47050,3.398319139
188.47100,3.398319139
188.47150,1.872347101
188.47200,1.261958286
188.47250,0.9567638778
188.47300,-0.8744025684
188.47350,-5.452318684
188.47400,-8.504262761
188.47450,-7.588679538
188.47500,-4.231541053
188.47550,-1.179596976
188.47600,-0.264013753
188.47650,0.04118065471
188.47700,1.872347101
188.47750,4.313902363
188.47800,5.229485586
188.47850,4.313902363
188.47900,2.787930324
188.47950,2.787930324
188.48000,3.093124732
188.48050,3.093124732
188.48100,2.482735916
188.48150,2.482735916
188.48200,2.787930324
188.48250,2.177541509
188.48300,0.3463750624
188.48350,-1.179596976
188.48400,-2.400374607
188.48450,-3.010763422
188.48500,-3.010763422
188.48550,-2.400374607
188.48600,-1.789985791
188.48650,-1.179596976
188.48700,-0.8744025684
188.48750,-0.264013753
188.48800,0.04118065471
188.48850,-0.8744025684
188.48900,-2.705569015
188.48950,-3.621152238
188.49000,-3.010763422
188.49050,-1.484791384
188.49100,0.04118065471
188.49150,0.9567638778
188.49200,0.04118065471
188.49250,-1.789985791
188.49300,-2.400374607
188.49350,0.04118065471
188.49400,3.398319139
188.49450,5.534679993
188.49500,5.534679993
188.49550,5.229485586
188.49600,4.924291178
188.49650,3.703513547
188.49700,2.482735916
188.49750,3.398319139
188.49800,5.839874401
188.49850,6.450263216
188.49900,4.924291178
188.49950,3.703513547
188.50000,4.61909677
188.50050,5.229485586
188.50100,3.398319139
188.50150,0.9567638778
188.50200,0.3463750624
188.50250,1.261958286
188.50300,1.872347101
188.50350,1.261958286
188.50400,0.3463750624
188.50450,0.3463750624
188.50500,0.3463750624
188.50550,0.04118065471
188.50600,-1.179596976
188.50650,-3.621152238
188.50700,-6.062707499
188.50750,-7.588679538
188.50800,-7.28348513
188.50850,-5.757513092
188.50900,-4.231541053
188.50950,-3.621152238
188.51000,-3.31595783
188.51050,-3.010763422
188.51100,-3.621152238
188.51150,-4.536735461
188.51200,-3.31595783
188.51250,-0.264013753
188.51300,2.177541509
188.51350,2.177541509
188.51400,1.567152693
188.51450,2.787930324
188.51500,4.924291178
188.51550,4.61909677
188.51600,2.787930324
188.51650,2.177541509
188.51700,1.872347101
188.51750,0.04118065471
188.51800,-2.400374607
188.51850,-0.5692081607
188.51900,5.229485586
188.51950,9.197012886
188.52000,6.755457624
188.52050,1.872347101
188.52100,0.3463750624
188.52150,1.567152693
188.52200,0.9567638778
188.52250,-0.5692081607
188.52300,-1.179596976
188.52350,-0.8744025684
188.52400,-2.400374607
188.52450,-5.452318684
188.52500,-6.367901907
188.52550,-4.536735461
188.52600,-1.789985791
188.52650,0.04118065471
188.52700,0.3463750624
188.52750,0.04118065471
188.52800,-2.400374607
188.52850,-3.926346645
188.52900,-3.621152238
188.52950,-3.926346645
188.53000,-7.28348513
188.53050,-9.725040392
188.53100,-6.978290722
188.53150,-1.789985791
188.53200,-1.789985791
188.53250,-7.588679538
188.53300,-9.725040392
188.53350,-3.31595783
188.53400,5.534679993
188.53450,9.807401701
188.53500,7.976235255
188.53550,5.839874401
188.53600,5.229485586
188.53650,3.703513547
188.53700,0.6515694701
188.53750,-0.5692081607
188.53800,-0.264013753
188.53850,0.04118065471
188.53900,-0.264013753
188.53950,-2.095180199
188.54000,-3.010763422
188.54050,-3.010763422
188.54100,-2.400374607
188.54150,-1.179596976
188.54200,-0.5692081607
188.54250,-1.484791384
188.54300,-3.31595783
188.54350,-3.621152238
188.54400,-1.484791384
188.54450,0.9567638778
188.54500,1.261958286
188.54550,0.04118065471
188.54600,0.04118065471
188.54650,1.872347101
188.54700,4.008707955
188.54750,4.313902363
188.54800,4.313902363
188.54850,5.839874401
188.54900,7.36584644
188.54950,6.450263216
188.55000,3.398319139
188.55050,1.567152693
188.55100,1.872347101
188.55150,1.567152693
188.55200,0.3463750624
188.55250,-0.264013753
188.55300,0.3463750624
188.55350,0.6515694701
188.55400,0.04118065471
188.55450,-0.5692081607
188.55500,0.04118065471
188.55550,0.3463750624
188.55600,0.6515694701
188.55650,1.567152693
188.55700,3.398319139
188.55750,3.703513547
188.55800,2.177541509
188.55850,1.872347101
188.55900,3.093124732
188.55950,3.093124732
188.56000,0.04118065471
188.56050,-3.010763422
188.56100,-2.705569015
188.56150,0.6515694701
188.56200,3.093124732
188.56250,2.787930324
188.56300,1.261958286
188.56350,0.04118065471
188.56400,-0.8744025684
188.56450,-2.400374607
188.56500,-4.231541053
188.56550,-5.452318684
188.56600,-5.757513092
188.56650,-5.452318684
188.56700,-5.452318684
188.56750,-5.452318684
188.56800,-5.452318684
188.56850,-5.147124276
188.56900,-5.147124276
188.56950,-4.536735461
188.57000,-2.705569015
188.57050,0.04118065471
188.57100,0.6515694701
188.57150,-0.264013753
188.57200,-0.5692081607
188.57250,0.6515694701
188.57300,0.3463750624
188.57350,-2.095180199
188.57400,-3.926346645
188.57450,-1.179596976
188.57500,3.093124732
188.57550,3.703513547
188.57600,0.6515694701
188.57650,-0.264013753
188.57700,1.261958286
188.57750,3.398319139
188.57800,3.093124732
188.57850,0.9567638778
188.57900,-0.264013753
188.57950,-0.264013753
188.58000,0.9567638778
188.58050,2.787930324
188.58100,3.703513547
188.58150,1.567152693
188.58200,-1.789985791
188.58250,-3.31595783
188.58300,-1.789985791
188.58350,0.6515694701
188.58400,1.567152693
188.58450,0.9567638778
188.58500,0.04118065471
188.58550,-0.264013753
188.58600,0.9567638778
188.58650,3.398319139
188.58700,4.61909677
188.58750,3.703513547
188.58800,1.567152693
188.58850,0.6515694701
188.58900,0.9567638778
188.58950,1.261958286
188.59000,0.3463750624
188.59050,0.04118065471
188.59100,0.9567638778
188.59150,2.787930324
188.59200,3.703513547
188.59250,2.787930324
188.59300,1.567152693
188.59350,0.6515694701
188.59400,-0.264013753
188.59450,-1.789985791
188.59500,-3.621152238
188.59550,-4.536735461
188.59600,-4.231541053
188.59650,-2.705569015
188.59700,0.04118065471
188.59750,4.313902363
188.59800,8.281429663
188.59850,7.976235255
188.59900,4.008707955
188.59950,0.04118065471
188.60000,-1.179596976
188.60050,-0.5692081607
188.60100,-0.5692081607
188.60150,-1.789985791
188.60200,-3.010763422
188.60250,-3.010763422
188.60300,-1.484791384
188.60350,0.3463750624
188.60400,0.9567638778
188.60450,-1.179596976
188.60500,-4.231541053
188.60550,-3.31595783
188.60600,2.787930324
188.60650,8.58662407
188.60700,8.891818478
188.60750,5.534679993
188.60800,1.872347101
188.60850,-0.8744025684
188.60900,-3.926346645
188.60950,-4.841929869
188.61000,-1.789985791
188.61050,1.872347101
188.61100,1.567152693
188.61150,-1.789985791
188.61200,-4.231541053
188.61250,-3.621152238
188.61300,-3.31595783
188.61350,-3.926346645
188.61400,-3.31595783
188.61450,-0.8744025684
188.61500,0.04118065471
188.61550,-2.705569015
188.61600,-5.147124276
188.61650,-4.536735461
188.61700,-2.705569015
188.61750,-2.095180199
188.61800,-3.010763422
188.61850,-3.010763422
188.61900,-2.095180199
188.61950,-0.8744025684
188.62000,-0.8744025684
188.62050,-1.789985791
188.62100,-2.705569015
188.62150,-1.179596976
188.62200,3.398319139
188.62250,7.36584644
188.62300,7.36584644
188.62350,4.313902363
188.62400,1.567152693
188.62450,0.04118065471
188.62500,-0.8744025684
188.62550,-2.400374607
188.62600,-1.789985791
188.62650,-2.400374607
188.62700,-7.28348513
188.62750,-13.69256769
188.62800,-13.9977621
188.62850,-7.28348513
188.62900,-1.179596976
188.62950,-1.484791384
188.63000,-3.621152238
188.63050,-1.179596976
188.63100,1.567152693
188.63150,0.9567638778
188.63200,-1.484791384
188.63250,-1.484791384
188.63300,-0.264013753
188.63350,-1.179596976
188.63400,-3.31595783
188.63450,-2.400374607
188.63500,0.9567638778
188.63550,2.787930324
188.63600,2.482735916
188.63650,4.61909677
188.63700,8.891818478
188.63750,10.11259611
188.63800,7.060652032
188.63850,3.093124732
188.63900,1.872347101
188.63950,1.261958286
188.64000,-0.264013753
188.64050,-1.484791384
188.64100,-1.179596976
188.64150,-1.484791384
188.64200,-2.400374607
188.64250,-1.789985791
188.64300,0.9567638778
188.64350,3.093124732
188.64400,0.04118065471
188.64450,-6.673096315
188.64500,-11.55620684
188.64550,-11.25101243
188.64600,-6.673096315
188.64650,-1.179596976
188.64700,2.482735916
188.64750,3.398319139
188.64800,1.567152693
188.64850,-0.8744025684
188.64900,-2.400374607
188.64950,-2.400374607
188.65000,-1.789985791
188.65050,-1.484791384
188.65100,0.04118065471
188.65150,2.787930324
188.65200,4.924291178
188.65250,4.924291178
188.65300,4.924291178
188.65350,7.060652032
188.65400,9.502207293
188.65450,8.891818478
188.65500,5.534679993
188.65550,2.482735916
188.65600,0.6515694701
188.65650,-1.179596976
188.65700,-4.841929869
188.65750,-6.367901907
188.65800,-3.010763422
188.65850,1.567152693
188.65900,3.398319139
188.65950,1.261958286
188.66000,-0.5692081607
188.66050,0.6515694701
188.66100,4.313902363
188.66150,6.450263216
188.66200,5.839874401
188.66250,4.008707955
188.66300,2.787930324
188.66350,1.872347101
188.66400,0.3463750624
188.66450,-0.5692081607
188.66500,-0.264013753
188.66550,0.6515694701
188.66600,1.567152693
188.66650,1.261958286
188.66700,0.9567638778
188.66750,0.3463750624
188.66800,-0.264013753
188.66850,-1.789985791
188.66900,-3.31595783
188.66950,-3.010763422
188.67000,-1.789985791
188.67050,-1.179596976
188.67100,-2.095180199
188.67150,-3.31595783
188.67200,-3.31595783
188.67250,-0.5692081607
188.67300,3.703513547
188.67350,6.755457624
188.67400,6.450263216
188.67450,3.398319139
188.67500,0.9567638778
188.67550,0.9567638778
188.67600,2.787930324
188.67650,3.093124732
188.67700,1.261958286
188.67750,-0.5692081607
188.67800,-0.8744025684
188.67850,0.04118065471
188.67900,0.04118065471
188.67950,-1.179596976
188.68000,-2.400374607
188.68050,-3.31595783
188.68100,-4.536735461
188.68150,-4.231541053
188.68200,-0.5692081607
188.68250,3.398319139
188.68300,3.703513547
188.68350,0.04118065471
188.68400,-2.705569015
188.68450,-1.789985791
188.68500,0.04118065471
188.68550,0.3463750624
188.68600,0.04118065471
188.68650,1.261958286
188.68700,3.398319139
188.68750,3.093124732
188.68800,0.3463750624
188.68850,-1.179596976
188.68900,-2.095180199
188.68950,-3.621152238
188.69000,-4.841929869
188.69050,-3.621152238
188.69100,-0.264013753
188.69150,0.9567638778
188.69200,-0.264013753
188.69250,-1.789985791
188.69300,-1.484791384
188.69350,0.04118065471
188.69400,2.177541509
188.69450,5.534679993
188.69500,7.36584644
188.69550,5.534679993
188.69600,0.6515694701
188.69650,-2.095180199
188.69700,-1.789985791
188.69750,-0.264013753
188.69800,0.3463750624
188.69850,1.261958286
188.69900,2.482735916
188.69950,2.177541509
188.70000,0.04118065471
188.70050,-2.400374607
188.70100,-3.31595783
188.70150,-3.621152238
188.70200,-3.31595783
188.70250,-1.484791384
188.70300,0.9567638778
188.70350,0.9567638778
188.70400,-3.010763422
188.70450,-5.757513092
188.70500,-2.095180199
188.70550,6.450263216
188.70600,13.16454019
188.70650,14.69051222
188.70700,11.63856815
188.70750,7.060652032
188.70800,2.177541509
188.70850,-2.095180199
188.70900,-4.536735461
188.70950,-4.231541053
188.71000,-3.010763422
188.71050,-1.789985791
188.71100,-1.789985791
188.71150,-2.705569015
188.71200,-3.926346645
188.71250,-3.31595783
188.71300,-0.5692081607
188.71350,2.482735916
188.71400,3.398319139
188.71450,1.872347101
188.71500,0.04118065471
188.71550,-1.484791384
188.71600,-2.705569015
188.71650,-3.621152238
188.71700,-3.621152238
188.71750,-0.8744025684
188.71800,3.398319139
188.71850,7.671040847
188.71900,9.197012886
188.71950,7.060652032
188.72000,3.703513547
188.72050,0.9567638778
188.72100,0.3463750624
188.72150,0.9567638778
188.72200,1.261958286
188.72250,0.04118065471
188.72300,-1.179596976
188.72350,-2.705569015
188.72400,-4.231541053
188.72450,-4.841929869
188.72500,-4.536735461
188.72550,-3.621152238
188.72600,-3.010763422
188.72650,-3.926346645
188.72700,-4.841929869
188.72750,-4.841929869
188.72800,-3.621152238
188.72850,-2.400374607
188.72900,-2.705569015
188.72950,-3.621152238
188.73000,-2.705569015
188.73050,0.3463750624
188.73100,3.703513547
188.73150,3.093124732
188.73200,-3.010763422
188.73250,-9.725040392
188.73300,-10.33542921
188.73350,-4.536735461
188.73400,1.261958286
188.73450,1.872347101
188.73500,-0.5692081607
188.73550,-0.264013753
188.73600,3.398319139
188.73650,5.229485586
188.73700,3.093124732
188.73750,1.567152693
188.73800,5.229485586
188.73850,8.281429663
188.73900,4.313902363
188.73950,-3.621152238
188.74000,-6.978290722
188.74050,-3.621152238
188.74100,-0.8744025684
188.74150,-2.705569015
188.74200,-4.231541053
188.74250,-2.095180199
188.74300,0.04118065471
188.74350,-1.179596976
188.74400,-2.705569015
188.74450,0.3463750624
188.74500,5.229485586
188.74550,6.145068809
188.74600,3.093124732
188.74650,0.3463750624
188.74700,-0.8744025684
188.74750,-3.621152238
188.74800,-6.978290722
188.74850,-6.978290722
188.74900,-2.705569015
188.74950,2.177541509
188.75000,4.008707955
188.75050,3.703513547
188.75100,4.008707955
188.75150,6.755457624
188.75200,10.41779052
188.75250,13.16454019
188.75300,12.24895696
188.75350,7.671040847
188.75400,0.6515694701
188.75450,-5.757513092
188.75500,-9.725040392
188.75550,-9.725040392
188.75600,-5.757513092
188.75650,-1.179596976
188.75700,0.04118065471
188.75750,-0.264013753
188.75800,-0.5692081607
188.75850,0.04118065471
188.75900,0.04118065471
188.75950,-0.5692081607
188.76000,-1.484791384
188.76050,-1.789985791
188.76100,-2.095180199
188.76150,-0.8744025684
188.76200,3.093124732
188.76250,8.58662407
188.76300,10.41779052
188.76350,6.145068809
188.76400,-0.5692081607
188.76450,-4.536735461
188.76500,-4.536735461
188.76550,-3.010763422
188.76600,-1.789985791
188.76650,-1.179596976
188.76700,-0.5692081607
188.76750,0.04118065471
188.76800,2.177541509
188.76850,4.313902363
188.76900,4.008707955
188.76950,0.04118065471
188.77000,-6.062707499
188.77050,-9.114651576
188.77100,-6.978290722
188.77150,-2.400374607
188.77200,0.3463750624
188.77250,0.3463750624
188.77300,0.04118065471
188.77350,2.177541509
188.77400,8.281429663
188.77450,13.46973459
188.77500,13.774929
188.77550,9.502207293
188.77600,3.703513547
188.77650,-0.8744025684
188.77700,-3.926346645
188.77750,-4.231541053
188.77800,-2.095180199
188.77850,0.3463750624
188.77900,0.9567638778
188.77950,0.6515694701
188.78000,1.567152693
188.78050,3.398319139
188.78100,3.703513547
188.78150,1.567152693
188.78200,0.3463750624
188.78250,0.9567638778
188.78300,1.567152693
188.78350,0.04118065471
188.78400,-1.484791384
188.78450,-2.095180199
188.78500,-2.095180199
188.78550,-2.705569015
188.78600,-3.010763422
188.78650,-1.789985791
188.78700,-1.179596976
188.78750,-2.400374607
188.78800,-3.926346645
188.78850,-3.621152238
188.78900,-1.484791384
188.78950,-0.264013753
188.79000,-1.179596976
188.79050,-1.789985791
188.79100,-0.8744025684
188.79150,0.04118065471
188.79200,0.04118065471
188.79250,-0.5692081607
188.79300,-0.8744025684
188.79350,-0.5692081607
188.79400,-0.5692081607
188.79450,-0.264013753
188.79500,-0.5692081607
188.79550,-1.789985791
188.79600,-2.095180199
188.79650,0.9567638778
188.79700,6.145068809
188.79750,7.36584644
188.79800,2.177541509
188.79850,-3.31595783
188.79900,-3.621152238
188.79950,0.3463750624
188.80000,2.177541509
188.80050,-0.5692081607
188.80100,-3.010763422
188.80150,-0.8744025684
188.80200,4.008707955
188.80250,7.36584644
188.80300,7.671040847
188.80350,6.755457624
188.80400,5.229485586
188.80450,2.787930324
188.80500,0.3463750624
188.80550,-0.5692081607
188.80600,0.04118065471
188.80650,0.3463750624
188.80700,0.6515694701
188.80750,0.04118065471
188.80800,-1.789985791
188.80850,-5.452318684
188.80900,-8.199068353
188.80950,-7.893873946
188.81000,-5.147124276
188.81050,-2.705569015
188.81100,-2.705569015
188.81150,-3.010763422
188.81200,-2.400374607
188.81250,-2.095180199
188.81300,-3.010763422
188.81350,-3.621152238
188.81400,-2.400374607
188.81450,-0.264013753
188.81500,-0.264013753
188.81550,-1.179596976
188.81600,-0.5692081607
188.81650,1.872347101
188.81700,3.093124732
188.81750,1.567152693
188.81800,-0.5692081607
188.81850,-1.179596976
188.81900,-0.8744025684
188.81950,-0.5692081607
188.82000,-0.264013753
188.82050,0.9567638778
188.82100,1.261958286
188.82150,0.04118065471
188.82200,-1.789985791
188.82250,-1.179596976
188.82300,1.261958286
188.82350,3.703513547
188.82400,4.924291178
188.82450,6.145068809
188.82500,8.281429663
188.82550,9.197012886
188.82600,7.060652032
188.82650,1.567152693
188.82700,-6.062707499
188.82750,-12.77698447
188.82800,-14.30295651
188.82850,-9.114651576
188.82900,-1.484791384
188.82950,2.787930324
188.83000,2.482735916
188.83050,0.3463750624
188.83100,-1.789985791
188.83150,-3.621152238
188.83200,-5.452318684
188.83250,-5.452318684
188.83300,-3.31595783
188.83350,-0.5692081607
188.83400,0.04118065471
188.83450,0.04118065471
188.83500,0.04118065471
188.83550,-0.5692081607
188.83600,-3.010763422
188.83650,-5.452318684
188.83700,-6.062707499
188.83750,-4.536735461
188.83800,-3.010763422
188.83850,-1.484791384
188.83900,-0.264013753
188.83950,0.3463750624
188.84000,0.3463750624
188.84050,1.567152693
188.84100,5.839874401
188.84150,10.41779052
188.84200,11.63856815
188.84250,9.807401701
188.84300,8.891818478
188.84350,9.502207293
188.84400,9.197012886
188.84450,5.229485586
188.84500,0.6515694701
188.84550,-1.789985791
188.84600,-2.705569015
188.84650,-2.705569015
188.84700,-1.179596976
188.84750,0.9567638778
188.84800,2.177541509
188.84850,0.9567638778
188.84900,-0.5692081607
188.84950,-2.095180199
188.85000,-3.926346645
188.85050,-6.367901907
188.85100,-6.978290722
188.85150,-5.452318684
188.85200,-4.536735461
188.85250,-5.757513092
188.85300,-6.062707499
188.85350,-2.705569015
188.85400,2.177541509
188.85450,4.924291178
188.85500,4.008707955
188.85550,1.261958286
188.85600,-0.5692081607
188.85650,-0.5692081607
188.85700,1.261958286
188.85750,3.703513547
188.85800,3.398319139
188.85850,0.6515694701
188.85900,-0.8744025684
188.85950,-0.8744025684
188.86000,-0.264013753
188.86050,-0.264013753
188.86100,-0.264013753
188.86150,0.04118065471
188.86200,-0.264013753
188.86250,-0.5692081607
188.86300,1.567152693
188.86350,5.229485586
188.86400,5.534679993
188.86450,0.9567638778
188.86500,-3.010763422
188.86550,-3.010763422
188.86600,0.6515694701
188.86650,4.313902363
188.86700,6.755457624
188.86750,8.58662407
188.86800,8.58662407
188.86850,5.229485586
188.86900,0.04118065471
188.86950,-3.926346645
188.87000,-4.536735461
188.87050,-3.31595783
188.87100,-2.705569015
188.87150,-1.789985791
188.87200,-0.5692081607
188.87250,0.04118065471
188.87300,-0.264013753
188.87350,-0.5692081607
188.87400,1.261958286
188.87450,4.924291178
188.87500,6.450263216
188.87550,3.093124732
188.87600,-2.095180199
188.87650,-4.536735461
188.87700,-3.010763422
188.87750,-0.8744025684
188.87800,-1.484791384
188.87850,-4.841929869
188.87900,-7.893873946
188.87950,-8.199068353
188.88000,-5.147124276
188.88050,-1.484791384
188.88100,0.04118065471
188.88150,-0.8744025684
188.88200,-2.095180199
188.88250,-1.484791384
188.88300,0.04118065471
188.88350,1.261958286
188.88400,1.261958286
188.88450,0.6515694701
188.88500,0.04118065471
188.88550,-1.179596976
188.88600,-1.789985791
188.88650,-1.484791384
188.88700,-0.264013753
188.88750,0.04118065471
188.88800,-0.264013753
188.88850,-1.484791384
188.88900,-2.095180199
188.88950,-2.400374607
188.89000,-1.789985791
188.89050,-1.179596976
188.89100,-1.484791384
188.89150,-2.095180199
188.89200,-1.179596976
188.89250,0.6515694701
188.89300,1.567152693
188.89350,0.6515694701
188.89400,1.872347101
188.89450,5.534679993
188.89500,7.671040847
188.89550,4.61909677
188.89600,-0.264013753
188.89650,-2.095180199
188.89700,-0.8744025684
188.89750,0.04118065471
188.89800,0.04118065471
188.89850,2.177541509
188.89900,5.839874401
188.89950,7.060652032
188.90000,4.313902363
188.90050,1.567152693
188.90100,1.872347101
188.90150,3.398319139
188.90200,3.398319139
188.90250,2.787930324
188.90300,3.093124732
188.90350,3.093124732
188.90400,1.872347101
188.90450,0.6515694701
188.90500,0.6515694701
188.90550,0.9567638778
188.90600,-0.264013753
188.90650,-2.400374607
188.90700,-2.705569015
188.90750,-0.8744025684
188.90800,-0.264013753
188.90850,-0.8744025684
188.90900,-1.179596976
188.90950,0.04118065471
188.91000,1.567152693
188.91050,2.787930324
188.91100,3.703513547
188.91150,5.229485586
188.91200,5.229485586
188.91250,2.482735916
188.91300,-1.179596976
188.91350,-4.231541053
188.91400,-4.841929869
188.91450,-3.926346645
188.91500,-2.705569015
188.91550,-1.789985791
188.91600,-1.789985791
188.91650,-2.400374607
188.91700,-2.705569015
188.91750,-2.095180199
188.91800,0.04118065471
188.91850,2.177541509
188.91900,3.093124732
188.91950,2.482735916
188.92000,1.261958286
188.92050,0.04118065471
188.92100,0.04118065471
188.92150,0.04118065471
188.92200,0.04118065471
188.92250,-0.5692081607
188.92300,-0.8744025684
188.92350,0.04118065471
188.92400,2.482735916
188.92450,3.093124732
188.92500,2.177541509
188.92550,0.3463750624
188.92600,-1.179596976
188.92650,-3.926346645
188.92700,-5.757513092
188.92750,-3.926346645
188.92800,0.3463750624
188.92850,4.008707955
188.92900,3.398319139
188.92950,0.04118065471
188.93000,-2.705569015
188.93050,-2.400374607
188.93100,-0.264013753
188.93150,1.567152693
188.93200,3.398319139
188.93250,3.703513547
188.93300,1.872347101
188.93350,-0.5692081607
188.93400,-1.789985791
188.93450,0.04118065471
188.93500,4.008707955
188.93550,5.839874401
188.93600,4.924291178
188.93650,2.482735916
188.93700,1.261958286
188.93750,1.567152693
188.93800,2.177541509
188.93850,3.093124732
188.93900,3.398319139
188.93950,2.482735916
188.94000,0.04118065471
188.94050,-1.179596976
188.94100,-0.8744025684
188.94150,0.04118065471
188.94200,-0.5692081607
188.94250,-3.010763422
188.94300,-4.231541053
188.94350,-3.621152238
188.94400,-3.621152238
188.94450,-5.147124276
188.94500,-5.147124276
188.94550,-2.095180199
188.94600,0.9567638778
188.94650,0.04118065471
188.94700,-5.757513092
188.94750,-10.64062361
188.94800,-10.33542921
188.94850,-6.978290722
188.94900,-3.31595783
188.94950,-0.5692081607
188.95000,1.872347101
188.95050,4.008707955
188.95100,3.703513547
188.95150,1.872347101
188.95200,0.9567638778
188.95250,2.177541509
188.95300,2.787930324
188.95350,0.6515694701
188.95400,-3.621152238
188.95450,-8.809457169
188.95500,-13.38737328
188.95550,-15.52373414
188.95600,-14.30295651
188.95650,-9.725040392
188.95700,-4.536735461
188.95750,-0.8744025684
188.95800,0.3463750624
188.95850,2.177541509
188.95900,6.145068809
188.95950,11.02817933
188.96000,14.08012341
188.96050,13.46973459
188.96100,10.11259611
188.96150,6.145068809
188.96200,3.398319139
188.96250,1.872347101
188.96300,0.3463750624
188.96350,-1.179596976
188.96400,-2.095180199
188.96450,-2.705569015
188.96500,-3.621152238
188.96550,-4.536735461
188.96600,-3.621152238
188.96650,-0.264013753
188.96700,3.398319139
188.96750,4.61909677
188.96800,2.177541509
188.96850,-1.179596976
188.96900,-3.010763422
188.96950,-2.095180199
188.97000,0.04118065471
188.97050,1.872347101
188.97100,1.261958286
188.97150,-0.264013753
188.97200,-0.8744025684
188.97250,1.872347101
188.97300,5.839874401
188.97350,7.976235255
188.97400,6.755457624
188.97450,2.177541509
188.97500,-3.621152238
188.97550,-8.199068353
188.97600,-9.419845984
188.97650,-6.978290722
188.97700,-4.231541053
188.97750,-3.31595783
188.97800,-3.621152238
188.97850,-2.705569015
188.97900,0.6515694701
188.97950,4.313902363
188.98000,5.229485586
188.98050,2.787930324
188.98100,0.04118065471
188.98150,0.04118065471
188.98200,0.9567638778
188.98250,-0.5692081607
188.98300,-6.673096315
188.98350,-11.86140125
188.98400,-11.55620684
188.98450,-8.199068353
188.98500,-6.062707499
188.98550,-5.147124276
188.98600,-2.095180199
188.98650,2.482735916
188.98700,4.61909677
188.98750,3.398319139
188.98800,2.482735916
188.98850,5.229485586
188.98900,8.891818478
188.98950,9.197012886
188.99000,6.755457624
188.99050,4.61909677
188.99100,4.313902363
188.99150,3.398319139
188.99200,2.177541509
188.99250,1.872347101
188.99300,1.567152693
188.99350,0.3463750624
188.99400,-0.264013753
188.99450,1.567152693
188.99500,5.229485586
188.99550,5.839874401
188.99600,2.177541509
188.99650,-1.484791384
188.99700,-2.705569015
188.99750,-2.400374607
188.99800,-2.705569015
188.99850,-1.484791384
188.99900,2.177541509
188.99950,5.839874401
189.00000,5.534679993
189.00050,2.787930324
189.00100,2.787930324
189.00150,5.229485586
189.00200,6.145068809
189.00250,3.398319139
189.00300,-0.264013753
189.00350,-1.789985791
189.00400,-1.484791384
189.00450,-0.264013753
189.00500,1.567152693
189.00550,3.398319139
189.00600,3.093124732
189.00650,1.261958286
189.00700,0.6515694701
189.00750,1.567152693
189.00800,0.9567638778
189.00850,-1.789985791
189.00900,-4.841929869
189.00950,-4.536735461
189.01000,-1.789985791
189.01050,0.04118065471
189.01100,0.3463750624
189.01150,0.04118065471
189.01200,-0.264013753
189.01250,-0.264013753
189.01300,0.04118065471
189.01350,0.3463750624
189.01400,0.04118065471
189.01450,-0.8744025684
189.01500,-1.789985791
189.01550,-1.179596976
189.01600,0.04118065471
189.01650,0.9567638778
189.01700,0.6515694701
189.01750,0.04118065471
189.01800,-0.8744025684
189.01850,-0.8744025684
189.01900,0.3463750624
189.01950,1.872347101
189.02000,1.567152693
189.02050,0.6515694701
189.02100,0.3463750624
189.02150,1.567152693
189.02200,3.093124732
189.02250,3.703513547
189.02300,3.093124732
189.02350,1.872347101
189.02400,0.6515694701
189.02450,-0.264013753
189.02500,-1.179596976
189.02550,-2.095180199
189.02600,-3.010763422
189.02650,-3.926346645
189.02700,-4.841929869
189.02750,-5.147124276
189.02800,-5.147124276
189.02850,-5.757513092
189.02900,-7.28348513
189.02950,-8.809457169
189.03000,-7.893873946
189.03050,-3.010763422
189.03100,3.398319139
189.03150,8.891818478
189.03200,11.02817933
189.03250,9.807401701
189.03300,6.450263216
189.03350,2.787930324
189.03400,0.9567638778
189.03450,0.04118065471
189.03500,-0.264013753
189.03550,-1.484791384
189.03600,-2.705569015
189.03650,-2.705569015
189.03700,-1.484791384
189.03750,-0.264013753
189.03800,0.3463750624
189.03850,1.261958286
189.03900,1.567152693
189.03950,0.9567638778
189.04000,0.04118065471
189.04050,-1.179596976
189.04100,-0.8744025684
189.04150,0.3463750624
189.04200,1.872347101
189.04250,2.482735916
189.04300,1.872347101
189.04350,0.9567638778
189.04400,0.3463750624
189.04450,0.04118065471
189.04500,0.04118065471
189.04550,1.567152693
189.04600,4.924291178
189.04650,7.671040847
189.04700,7.36584644
189.04750,4.313902363
189.04800,1.261958286
189.04850,0.04118065471
189.04900,-0.5692081607
189.04950,-0.8744025684
189.05000,-1.179596976
189.05050,-1.484791384
189.05100,-1.789985791
189.05150,-1.789985791
189.05200,-2.095180199
189.05250,-2.400374607
189.05300,-2.400374607
189.05350,-1.484791384
189.05400,-0.264013753
189.05450,-0.5692081607
189.05500,-2.400374607
189.05550,-4.231541053
189.05600,-4.841929869
189.05650,-4.841929869
189.05700,-5.147124276
189.05750,-5.147124276
189.05800,-4.231541053
189.05850,-2.400374607
189.05900,-0.5692081607
189.05950,0.9567638778
189.06000,1.261958286
189.06050,0.04118065471
189.06100,-1.789985791
189.06150,-1.484791384
189.06200,1.567152693
189.06250,4.924291178
189.06300,5.229485586
189.06350,2.177541509
189.06400,-0.264013753
189.06450,-1.484791384
189.06500,-2.705569015
189.06550,-3.926346645
189.06600,-5.452318684
189.06650,-5.757513092
189.06700,-5.147124276
189.06750,-3.926346645
189.06800,-3.010763422
189.06850,-4.536735461
189.06900,-7.588679538
189.06950,-8.809457169
189.07000,-6.367901907
189.07050,-1.789985791
189.07100,0.9567638778
189.07150,2.177541509
189.07200,3.398319139
189.07250,5.229485586
189.07300,6.450263216
189.07350,6.450263216
189.07400,6.450263216
189.07450,5.534679993
189.07500,3.093124732
189.07550,0.6515694701
189.07600,0.04118065471
189.07650,-0.264013753
189.07700,-3.31595783
189.07750,-6.978290722
189.07800,-8.199068353
189.07850,-5.147124276
189.07900,-0.8744025684
189.07950,2.177541509
189.08000,3.398319139
189.08050,2.482735916
189.08100,0.04118065471
189.08150,-1.789985791
189.08200,-1.789985791
189.08250,-1.179596976
189.08300,-2.095180199
189.08350,-3.010763422
189.08400,-1.179596976
189.08450,3.398319139
189.08500,7.671040847
189.08550,8.891818478
189.08600,7.060652032
189.08650,3.703513547
189.08700,1.872347101
189.08750,3.093124732
189.08800,5.839874401
189.08850,5.229485586
189.08900,0.6515694701
189.08950,-3.31595783
189.09000,-3.621152238
189.09050,-1.789985791
189.09100,-1.484791384
189.09150,-2.400374607
189.09200,-3.31595783
189.09250,-4.841929869
189.09300,-6.978290722
189.09350,-8.199068353
189.09400,-6.673096315
189.09450,-3.926346645
189.09500,-2.705569015
189.09550,-3.31595783
189.09600,-4.536735461
189.09650,-6.673096315
189.09700,-7.28348513
189.09750,-2.400374607
189.09800,7.671040847
189.09850,17.13206749
189.09900,20.18401156
189.09950,17.7424563
189.10000,12.24895696
189.10050,5.534679993
189.10100,-0.8744025684
189.10150,-3.926346645
189.10200,-2.400374607
189.10250,-0.264013753
189.10300,-1.179596976
189.10350,-3.010763422
189.10400,-2.400374607
189.10450,-1.789985791
189.10500,-4.231541053
189.10550,-6.978290722
189.10600,-5.452318684
189.10650,-1.179596976
189.10700,0.9567638778
189.10750,0.9567638778
189.10800,2.177541509
189.10850,6.450263216
189.10900,10.72298492
189.10950,12.85934578
189.11000,12.24895696
189.11050,9.807401701
189.11100,4.924291178
189.11150,-0.264013753
189.11200,-2.705569015
189.11250,-2.705569015
189.11300,-3.010763422
189.11350,-3.31595783
189.11400,-2.095180199
189.11450,0.3463750624
189.11500,1.872347101
189.11550,0.9567638778
189.11600,0.04118065471
189.11650,0.04118065471
189.11700,0.3463750624
189.11750,0.9567638778
189.11800,1.261958286
189.11850,1.567152693
189.11900,1.872347101
189.11950,2.787930324
189.12000,5.229485586
189.12050,7.060652032
189.12100,4.61909677
189.12150,-0.264013753
189.12200,-3.926346645
189.12250,-4.536735461
189.12300,-3.31595783
189.12350,-2.400374607
189.12400,-1.179596976
189.12450,0.3463750624
189.12500,0.9567638778
189.12550,0.3463750624
189.12600,0.3463750624
189.12650,0.9567638778
189.12700,0.9567638778
189.12750,-0.8744025684
189.12800,-2.400374607
189.12850,-1.789985791
189.12900,-0.5692081607
189.12950,-0.8744025684
189.13000,-1.789985791
189.13050,-1.484791384
189.13100,-0.264013753
189.13150,-0.264013753
189.13200,-1.179596976
189.13250,-1.484791384
189.13300,-0.8744025684
189.13350,-1.789985791
189.13400,-4.536735461
189.13450,-7.28348513
189.13500,-6.978290722
189.13550,-4.536735461
189.13600,-2.400374607
189.13650,-1.484791384
189.13700,-0.8744025684
189.13750,-0.5692081607
189.13800,-0.5692081607
189.13850,-0.8744025684
189.13900,-0.8744025684
189.13950,-0.8744025684
189.14000,0.04118065471
189.14050,0.6515694701
189.14100,1.261958286
189.14150,0.6515694701
189.14200,0.04118065471
189.14250,0.6515694701
189.14300,3.093124732
189.14350,4.924291178
189.14400,5.534679993
189.14450,6.755457624
189.14500,9.807401701
189.14550,10.11259611
189.14600,3.398319139
189.14650,-6.367901907
189.14700,-12.77698447
189.14750,-12.16659565
189.14800,-9.114651576
189.14850,-6.978290722
189.14900,-5.452318684
189.14950,-3.010763422
189.15000,-1.179596976
189.15050,-2.400374607
189.15100,-5.147124276
189.15150,-4.841929869
189.15200,-1.179596976
189.15250,2.787930324
189.15300,4.008707955
189.15350,2.177541509
189.15400,-0.264013753
189.15450,-3.010763422
189.15500,-4.231541053
189.15550,-3.621152238
189.15600,-1.484791384
189.15650,0.04118065471
189.15700,1.261958286
189.15750,1.567152693
189.15800,2.177541509
189.15850,2.787930324
189.15900,2.482735916
189.15950,1.872347101
189.16000,1.261958286
189.16050,1.261958286
189.16100,1.872347101
189.16150,2.177541509
189.16200,1.567152693
189.16250,0.6515694701
189.16300,0.9567638778
189.16350,1.261958286
189.16400,0.3463750624
189.16450,-1.789985791
189.16500,-3.010763422
189.16550,-1.789985791
189.16600,0.6515694701
189.16650,1.872347101
189.16700,0.3463750624
189.16750,-2.400374607
189.16800,-6.062707499
189.16850,-8.809457169
189.16900,-9.114651576
189.16950,-5.757513092
189.17000,0.04118065471
189.17050,5.839874401
189.17100,8.58662407
189.17150,8.58662407
189.17200,5.839874401
189.17250,1.261958286
189.17300,-1.789985791
189.17350,-1.484791384
189.17400,1.261958286
189.17450,4.008707955
189.17500,3.703513547
189.17550,2.482735916
189.17600,1.567152693
189.17650,1.261958286
189.17700,0.6515694701
189.17750,1.261958286
189.17800,3.398319139
189.17850,5.839874401
189.17900,5.534679993
189.17950,2.787930324
189.18000,0.6515694701
189.18050,1.261958286
189.18100,1.872347101
189.18150,-0.264013753
189.18200,-3.926346645
189.18250,-4.536735461
189.18300,0.04118065471
189.18350,5.839874401
189.18400,8.58662407
189.18450,8.891818478
189.18500,9.502207293
189.18550,11.33337374
189.18600,11.33337374
189.18650,7.36584644
189.18700,1.567152693
189.18750,-1.484791384
189.18800,-1.789985791
189.18850,-2.095180199
189.18900,-2.705569015
189.18950,-2.400374607
189.19000,-0.5692081607
189.19050,0.04118065471
189.19100,-1.179596976
189.19150,-3.621152238
189.19200,-4.841929869
189.19250,-4.231541053
189.19300,-3.010763422
189.19350,-2.400374607
189.19400,-3.31595783
189.19450,-5.147124276
189.19500,-5.452318684
189.19550,-3.010763422
189.19600,1.261958286
189.19650,3.703513547
189.19700,3.093124732
189.19750,1.567152693
189.19800,0.3463750624
189.19850,-1.484791384
189.19900,-3.621152238
189.19950,-2.400374607
189.20000,2.177541509
189.20050,4.61909677
189.20100,1.872347101
189.20150,-1.789985791
189.20200,-1.484791384
189.20250,1.567152693
189.20300,2.177541509
189.20350,-0.264013753
189.20400,-1.179596976
189.20450,0.04118065471
189.20500,1.567152693
189.20550,1.872347101
189.20600,1.872347101
189.20650,1.567152693
189.20700,-0.5692081607
189.20750,-4.231541053
189.20800,-5.757513092
189.20850,-3.621152238
189.20900,-1.179596976
189.20950,-1.789985791
189.21000,-4.536735461
189.21050,-6.367901907
189.21100,-5.757513092
189.21150,-3.926346645
189.21200,-2.400374607
189.21250,-0.8744025684
189.21300,-0.5692081607
189.21350,-0.8744025684
189.21400,-1.484791384
189.21450,-1.484791384
189.21500,-0.5692081607
189.21550,0.3463750624
189.21600,1.261958286
189.21650,0.9567638778
189.21700,0.6515694701
189.21750,0.04118065471
189.21800,-0.264013753
189.21850,-0.5692081607
189.21900,0.04118065471
189.21950,0.6515694701
189.22000,0.9567638778
189.22050,0.3463750624
189.22100,0.3463750624
189.22150,1.567152693
189.22200,1.872347101
189.22250,-0.5692081607
189.22300,-4.841929869
189.22350,-6.673096315
189.22400,-4.536735461
189.22450,-2.095180199
189.22500,-2.095180199
189.22550,-2.705569015
189.22600,-1.179596976
189.22650,0.6515694701
189.22700,0.3463750624
189.22750,-2.095180199
189.22800,-3.31595783
189.22850,-1.484791384
189.22900,0.9567638778
189.22950,2.177541509
189.23000,0.9567638778
189.23050,-1.179596976
189.23100,-3.31595783
189.23150,-3.31595783
189.23200,-0.5692081607
189.23250,3.093124732
189.23300,4.61909677
189.23350,3.703513547
189.23400,1.261958286
189.23450,-0.5692081607
189.23500,-1.789985791
189.23550,-1.789985791
189.23600,-0.264013753
189.23650,0.6515694701
189.23700,-0.264013753
189.23750,-1.789985791
189.23800,-0.8744025684
189.23850,2.787930324
189.23900,5.839874401
189.23950,5.839874401
189.24000,4.61909677
189.24050,4.313902363
189.24100,3.398319139
189.24150,0.6515694701
189.24200,-1.484791384
189.24250,-0.5692081607
189.24300,1.261958286
189.24350,1.567152693
189.24400,0.3463750624
189.24450,0.3463750624
189.24500,2.482735916
189.24550,2.177541509
189.24600,-1.484791384
189.24650,-4.841929869
189.24700,-4.231541053
189.24750,-1.484791384
189.24800,-0.5692081607
189.24850,-1.484791384
189.24900,-2.095180199
189.24950,-1.179596976
189.25000,-1.179596976
189.25050,-2.400374607
189.25100,-3.31595783
189.25150,-3.621152238
189.25200,-4.231541053
189.25250,-4.841929869
189.25300,-4.231541053
189.25350,-1.484791384
189.25400,0.04118065471
189.25450,-0.8744025684
189.25500,-1.789985791
189.25550,0.3463750624
189.25600,7.36584644
189.25650,14.38531782
189.25700,17.13206749
189.25750,15.60609545
189.25800,12.55415137
189.25850,10.11259611
189.25900,7.060652032
189.25950,0.9567638778
189.26000,-6.978290722
189.26050,-12.16659565
189.26100,-9.419845984
189.26150,-0.8744025684
189.26200,6.145068809
189.26250,7.36584644
189.26300,4.008707955
189.26350,1.567152693
189.26400,3.398319139
189.26450,5.839874401
189.26500,5.229485586
189.26550,2.177541509
189.26600,2.482735916
189.26650,7.36584644
189.26700,8.58662407
189.26750,0.04118065471
189.26800,-13.9977621
189.26850,-21.01723348
189.26900,-16.74451177
189.26950,-9.419845984
189.27000,-6.673096315
189.27050,-6.978290722
189.27100,-4.231541053
189.27150,0.9567638778
189.27200,3.093124732
189.27250,0.04118065471
189.27300,-3.010763422
189.27350,-2.705569015
189.27400,-0.5692081607
189.27450,-0.264013753
189.27500,-0.264013753
189.27550,0.6515694701
189.27600,1.872347101
189.27650,0.3463750624
189.27700,-1.179596976
189.27750,1.261958286
189.27800,8.58662407
189.27850,13.774929
189.27900,13.16454019
189.27950,7.976235255
189.28000,3.398319139
189.28050,0.6515694701
189.28100,-0.5692081607
189.28150,-1.484791384
189.28200,-0.8744025684
189.28250,0.04118065471
189.28300,0.3463750624
189.28350,-0.8744025684
189.28400,-2.400374607
189.28450,-2.705569015
189.28500,-1.179596976
189.28550,0.9567638778
189.28600,1.872347101
189.28650,0.9567638778
189.28700,-0.5692081607
189.28750,-1.179596976
189.28800,-0.264013753
189.28850,0.6515694701
189.28900,1.261958286
189.28950,0.6515694701
189.29000,-1.179596976
189.29050,-3.621152238
189.29100,-5.147124276
189.29150,-5.147124276
189.29200,-5.147124276
189.29250,-4.536735461
189.29300,-1.179596976
189.29350,4.924291178
189.29400,11.02817933
189.29450,12.55415137
189.29500,9.807401701
189.29550,7.36584644
189.29600,7.060652032
189.29650,5.229485586
189.29700,0.04118065471
189.29750,-6.367901907
189.29800,-8.809457169
189.29850,-7.28348513
189.29900,-4.841929869
189.29950,-2.095180199
189.30000,0.9567638778
189.30050,3.703513547
189.30100,3.703513547
189.30150,1.261958286
189.30200,-1.179596976
189.30250,-2.400374607
189.30300,-2.705569015
189.30350,-2.400374607
189.30400,-1.789985791
189.30450,-0.8744025684
189.30500,0.04118065471
189.30550,0.6515694701
189.30600,0.04118065471
189.30650,-0.5692081607
189.30700,-0.5692081607
189.30750,0.3463750624
189.30800,0.9567638778
189.30850,0.3463750624
189.30900,-0.5692081607
189.30950,-1.484791384
189.31000,-1.789985791
189.31050,-2.095180199
189.31100,-0.8744025684
189.31150,2.482735916
189.31200,6.145068809
189.31250,7.060652032
189.31300,4.924291178
189.31350,2.177541509
189.31400,0.6515694701
189.31450,0.04118065471
189.31500,-0.264013753
189.31550,-0.8744025684
189.31600,-1.789985791
189.31650,-2.705569015
189.31700,-2.705569015
189.31750,-1.789985791
189.31800,-0.8744025684
189.31850,-0.5692081607
189.31900,-0.264013753
189.31950,1.261958286
189.32000,3.093124732
189.32050,4.008707955
189.32100,3.093124732
189.32150,0.9567638778
189.32200,-1.789985791
189.32250,-4.841929869
189.32300,-4.841929869
189.32350,-2.705569015
189.32400,-2.095180199
189.32450,-4.536735461
189.32500,-6.978290722
189.32550,-6.062707499
189.32600,-2.095180199
189.32650,0.04118065471
189.32700,-1.179596976
189.32750,-2.400374607
189.32800,-2.095180199
189.32850,-0.5692081607
189.32900,0.04118065471
189.32950,0.3463750624
189.33000,0.3463750624
189.33050,-0.5692081607
189.33100,-2.705569015
189.33150,-3.621152238
189.33200,-2.705569015
189.33250,-0.264013753
189.33300,2.177541509
189.33350,5.229485586
189.33400,7.060652032
189.33450,6.755457624
189.33500,4.61909677
189.33550,0.9567638778
189.33600,-3.31595783
189.33650,-6.673096315
189.33700,-6.978290722
189.33750,-4.231541053
189.33800,-2.400374607
189.33850,-3.010763422
189.33900,-3.926346645
189.33950,-3.010763422
189.34000,-1.484791384
189.34050,-1.789985791
189.34100,-2.705569015
189.34150,-1.484791384
189.34200,1.261958286
189.34250,3.703513547
189.34300,5.839874401
189.34350,8.281429663
189.34400,9.197012886
189.34450,5.229485586
189.34500,-0.5692081607
189.34550,-2.705569015
189.34600,-0.264013753
189.34650,2.177541509
189.34700,2.177541509
189.34750,0.3463750624
189.34800,-0.5692081607
189.34850,-1.179596976
189.34900,-1.179596976
189.34950,0.3463750624
189.35000,3.093124732
189.35050,3.398319139
189.35100,1.872347101
189.35150,0.3463750624
189.35200,0.3463750624
189.35250,0.3463750624
189.35300,-0.264013753
189.35350,0.3463750624
189.35400,1.872347101
189.35450,1.567152693
189.35500,-0.8744025684
189.35550,-3.31595783
189.35600,-2.705569015
189.35650,-1.179596976
189.35700,-0.5692081607
189.35750,-0.5692081607
189.35800,0.04118065471
189.35850,0.04118065471
189.35900,-1.484791384
189.35950,-2.095180199
189.36000,-0.8744025684
189.36050,0.6515694701
189.36100,0.6515694701
189.36150,-0.8744025684
189.36200,-2.400374607
189.36250,-2.095180199
189.36300,-1.789985791
189.36350,-2.705569015
189.36400,-3.31595783
189.36450,-3.621152238
189.36500,-4.536735461
189.36550,-6.062707499
189.36600,-6.367901907
189.36650,-3.010763422
189.36700,1.872347101
189.36750,4.61909677
189.36800,4.008707955
189.36850,1.567152693
189.36900,0.04118065471
189.36950,-0.8744025684
189.37000,-2.095180199
189.37050,-3.926346645
189.37100,-4.536735461
189.37150,-3.31595783
189.37200,-0.5692081607
189.37250,2.177541509
189.37300,3.703513547
189.37350,2.787930324
189.37400,0.3463750624
189.37450,-0.5692081607
189.37500,0.04118065471
189.37550,1.261958286
189.37600,3.703513547
189.37650,6.450263216
189.37700,7.671040847
189.37750,6.145068809
189.37800,3.093124732
189.37850,1.872347101
189.37900,3.703513547
189.37950,4.61909677
189.38000,1.872347101
189.38050,-0.5692081607
189.38100,-0.264013753
189.38150,1.567152693
189.38200,2.177541509
189.38250,0.9567638778
189.38300,0.6515694701
189.38350,1.261958286
189.38400,0.3463750624
189.38450,-2.400374607
189.38500,-5.147124276
189.38550,-5.147124276
189.38600,-3.31595783
189.38650,-2.400374607
189.38700,-3.926346645
189.38750,-5.147124276
189.38800,-3.621152238
189.38850,0.04118065471
189.38900,3.093124732
189.38950,2.482735916
189.39000,0.6515694701
189.39050,0.3463750624
189.39100,1.567152693
189.39150,1.872347101
189.39200,1.872347101
189.39250,5.229485586
189.39300,11.33337374
189.39350,14.38531782
189.39400,9.197012886
189.39450,-0.8744025684
189.39500,-10.0302348
189.39550,-13.38737328
189.39600,-11.55620684
189.39650,-6.367901907
189.39700,-0.5692081607
189.39750,1.872347101
189.39800,0.9567638778
189.39850,-0.5692081607
189.39900,-0.8744025684
189.39950,-0.5692081607
189.40000,-0.5692081607
189.40050,-0.264013753
189.40100,0.6515694701
189.40150,1.567152693
189.40200,0.04118065471
189.40250,-2.705569015
189.40300,-3.31595783
189.40350,-0.264013753
189.40400,4.008707955
189.40450,6.145068809
189.40500,4.924291178
189.40550,2.482735916
189.40600,0.6515694701
189.40650,0.6515694701
189.40700,1.261958286
189.40750,0.6515694701
189.40800,-1.484791384
189.40850,-3.621152238
189.40900,-2.400374607
189.40950,0.9567638778
189.41000,2.787930324
189.41050,1.872347101
189.41100,-0.264013753
189.41150,-1.179596976
189.41200,0.04118065471
189.41250,2.787930324
189.41300,6.145068809
189.41350,8.281429663
189.41400,7.671040847
189.41450,3.093124732
189.41500,-2.095180199
189.41550,-5.452318684
189.41600,-4.536735461
189.41650,-1.484791384
189.41700,0.9567638778
189.41750,2.482735916
189.41800,3.398319139
189.41850,3.093124732
189.41900,0.6515694701
189.41950,-2.400374607
189.42000,-4.231541053
189.42050,-3.010763422
189.42100,0.04118065471
189.42150,1.872347101
189.42200,3.093124732
189.42250,2.482735916
189.42300,0.04118065471
189.42350,-2.705569015
189.42400,-3.926346645
189.42450,-2.705569015
189.42500,0.04118065471
189.42550,2.787930324
189.42600,5.839874401
189.42650,8.891818478
189.42700,9.197012886
189.42750,5.534679993
189.42800,0.3463750624
189.42850,-2.400374607
189.42900,-3.621152238
189.42950,-4.536735461
189.43000,-5.452318684
189.43050,-4.841929869
189.43100,-2.705569015
189.43150,-1.179596976
189.43200,-0.8744025684
189.43250,-0.8744025684
189.43300,-0.5692081607
189.43350,-0.264013753
189.43400,-0.5692081607
189.43450,-0.5692081607
189.43500,0.6515694701
189.43550,1.872347101
189.43600,0.6515694701
189.43650,-1.789985791
189.43700,-3.31595783
189.43750,-2.095180199
189.43800,0.6515694701
189.43850,2.787930324
189.43900,1.872347101
189.43950,-0.264013753
189.44000,-1.789985791
189.44050,-2.095180199
189.44100,-1.484791384
189.44150,-0.5692081607
189.44200,0.3463750624
189.44250,1.872347101
189.44300,2.177541509
189.44350,0.6515694701
189.44400,-1.179596976
189.44450,-2.400374607
189.44500,-3.010763422
189.44550,-3.31595783
189.44600,-3.31595783
189.44650,-2.400374607
189.44700,-1.789985791
189.44750,-1.789985791
189.44800,-2.095180199
189.44850,-1.484791384
189.44900,-1.179596976
189.44950,-1.789985791
189.45000,-2.095180199
189.45050,-1.179596976
189.45100,0.6515694701
189.45150,1.872347101
189.45200,1.261958286
189.45250,0.6515694701
189.45300,1.261958286
189.45350,1.872347101
189.45400,1.261958286
189.45450,-0.264013753
189.45500,-1.789985791
189.45550,-2.400374607
189.45600,-1.789985791
189.45650,-1.179596976
189.45700,-1.484791384
189.45750,-1.484791384
189.45800,-1.484791384
189.45850,-0.8744025684
189.45900,-0.8744025684
189.45950,-0.8744025684
189.46000,0.04118065471
189.46050,3.398319139
189.46100,6.450263216
189.46150,7.36584644
189.46200,4.924291178
189.46250,1.261958286
189.46300,0.04118065471
189.46350,0.04118065471
189.46400,0.9567638778
189.46450,0.3463750624
189.46500,-0.8744025684
189.46550,-2.095180199
189.46600,-1.789985791
189.46650,-1.484791384
189.46700,-2.095180199
189.46750,-2.705569015
189.46800,-3.010763422
189.46850,-3.621152238
189.46900,-5.452318684
189.46950,-6.062707499
189.47000,-3.010763422
189.47050,1.567152693
189.47100,3.398319139
189.47150,1.872347101
189.47200,0.9567638778
189.47250,3.398319139
189.47300,7.060652032
189.47350,6.450263216
189.47400,2.482735916
189.47450,-0.8744025684
189.47500,-0.5692081607
189.47550,0.9567638778
189.47600,2.177541509
189.47650,2.482735916
189.47700,3.093124732
189.47750,4.008707955
189.47800,3.398319139
189.47850,1.261958286
189.47900,0.04118065471
189.47950,0.04118065471
189.48000,0.04118065471
189.48050,-1.179596976
189.48100,-3.31595783
189.48150,-4.536735461
189.48200,-4.231541053
189.48250,-3.621152238
189.48300,-3.010763422
189.48350,-1.179596976
189.48400,1.872347101
189.48450,5.229485586
189.48500,7.976235255
189.48550,8.891818478
189.48600,6.450263216
189.48650,2.787930324
189.48700,0.9567638778
189.48750,2.482735916
189.48800,4.313902363
189.48850,3.703513547
189.48900,2.482735916
189.48950,3.398319139
189.49000,3.703513547
189.49050,0.04118065471
189.49100,-5.452318684
189.49150,-5.757513092
189.49200,-0.8744025684
189.49250,2.482735916
189.49300,0.04118065471
189.49350,-5.757513092
189.49400,-9.114651576
189.49450,-8.809457169
189.49500,-6.367901907
189.49550,-3.010763422
189.49600,-1.179596976
189.49650,-3.010763422
189.49700,-6.978290722
189.49750,-8.199068353
189.49800,-5.452318684
189.49850,-2.400374607
189.49900,-2.095180199
189.49950,-1.789985791
189.50000,0.9567638778
189.50050,4.61909677
189.50100,5.534679993
189.50150,4.924291178
189.50200,4.61909677
189.50250,4.313902363
189.50300,3.093124732
189.50350,1.567152693
189.50400,0.3463750624
189.50450,0.04118065471
189.50500,-0.8744025684
189.50550,-0.8744025684
189.50600,-0.264013753
189.50650,-0.264013753
189.50700,-1.179596976
189.50750,-1.179596976
189.50800,0.9567638778
189.50850,2.482735916
189.50900,1.567152693
189.50950,-0.264013753
189.51000,-0.5692081607
189.51050,0.04118065471
189.51100,0.04118065471
189.51150,-1.179596976
189.51200,-0.5692081607
189.51250,0.6515694701
189.51300,0.6515694701
189.51350,-1.179596976
189.51400,-2.400374607
189.51450,-1.789985791
189.51500,-0.8744025684
189.51550,-2.095180199
189.51600,-3.926346645
189.51650,-4.536735461
189.51700,-4.536735461
189.51750,-4.231541053
189.51800,-3.010763422
189.51850,-1.789985791
189.51900,-1.484791384
189.51950,-2.400374607
189.52000,-1.179596976
189.52050,3.703513547
189.52100,10.41779052
189.52150,14.08012341
189.52200,13.774929
189.52250,10.72298492
189.52300,7.060652032
189.52350,3.398319139
189.52400,0.9567638778
189.52450,0.04118065471
189.52500,0.3463750624
189.52550,0.04118065471
189.52600,0.04118065471
189.52650,1.261958286
189.52700,1.872347101
189.52750,0.3463750624
189.52800,-2.095180199
189.52850,-2.705569015
189.52900,-1.484791384
189.52950,-0.5692081607
189.53000,-0.5692081607
189.53050,-0.264013753
189.53100,-0.264013753
189.53150,-2.095180199
189.53200,-4.536735461
189.53250,-5.147124276
189.53300,-4.231541053
189.53350,-3.926346645
189.53400,-3.621152238
189.53450,-1.484791384
189.53500,1.872347101
189.53550,3.093124732
189.53600,0.3463750624
189.53650,-2.095180199
189.53700,-1.789985791
189.53750,0.04118065471
189.53800,0.6515694701
189.53850,2.177541509
189.53900,5.839874401
189.53950,8.891818478
189.54000,6.450263216
189.54050,0.04118065471
189.54100,-3.010763422
189.54150,-1.484791384
189.54200,-0.264013753
189.54250,-2.400374607
189.54300,-3.31595783
189.54350,0.04118065471
189.54400,4.924291178
189.54450,3.093124732
189.54500,-4.536735461
189.54550,-9.725040392
189.54600,-7.28348513
189.54650,-2.095180199
189.54700,-0.8744025684
189.54750,-1.179596976
189.54800,0.9567638778
189.54850,4.924291178
189.54900,3.703513547
189.54950,-2.705569015
189.55000,-7.28348513
189.55050,-5.757513092
189.55100,-2.705569015
189.55150,-2.705569015
189.55200,-4.231541053
189.55250,-3.926346645
189.55300,-3.010763422
189.55350,-3.926346645
189.55400,-4.231541053
189.55450,-0.264013753
189.55500,4.61909677
189.55550,4.924291178
189.55600,0.3463750624
189.55650,-2.705569015
189.55700,-0.8744025684
189.55750,2.482735916
189.55800,4.008707955
189.55850,4.008707955
189.55900,4.313902363
189.55950,4.313902363
189.56000,1.872347101
189.56050,-0.5692081607
189.56100,-0.5692081607
189.56150,2.177541509
189.56200,5.839874401
189.56250,7.36584644
189.56300,6.450263216
189.56350,4.313902363
189.56400,2.787930324
189.56450,1.567152693
189.56500,0.04118065471
189.56550,-2.095180199
189.56600,-3.31595783
189.56650,-3.010763422
189.56700,-2.400374607
189.56750,-2.095180199
189.56800,-0.8744025684
189.56850,2.177541509
189.56900,4.924291178
189.56950,4.008707955
189.57000,1.261958286
189.57050,0.04118065471
189.57100,1.261958286
189.57150,1.261958286
189.57200,-0.8744025684
189.57250,-3.010763422
189.57300,-2.400374607
189.57350,0.3463750624
189.57400,4.313902363
189.57450,6.755457624
189.57500,6.755457624
189.57550,3.398319139
189.57600,-0.8744025684
189.57650,-3.621152238
189.57700,-3.926346645
189.57750,-3.010763422
189.57800,-2.095180199
189.57850,-1.179596976
189.57900,0.04118065471
189.57950,0.04118065471
189.58000,-1.789985791
189.58050,-3.31595783
189.58100,-1.789985791
189.58150,0.04118065471
189.58200,-0.5692081607
189.58250,-2.400374607
189.58300,-1.789985791
189.58350,0.3463750624
189.58400,0.3463750624
189.58450,-2.400374607
189.58500,-4.231541053
189.58550,-2.400374607
189.58600,0.3463750624
189.58650,1.567152693
189.58700,1.261958286
189.58750,1.261958286
189.58800,1.261958286
189.58850,0.04118065471
189.58900,-0.5692081607
189.58950,0.9567638778
189.59000,3.093124732
189.59050,2.482735916
189.59100,0.04118065471
189.59150,-0.5692081607
189.59200,0.3463750624
189.59250,0.04118065471
189.59300,-3.926346645
189.59350,-6.673096315
189.59400,-5.452318684
189.59450,-1.789985791
189.59500,0.3463750624
189.59550,0.9567638778
189.59600,1.261958286
189.59650,0.3463750624
189.59700,-2.400374607
189.59750,-5.147124276
189.59800,-4.841929869
189.59850,-1.179596976
189.59900,2.787930324
189.59950,5.534679993
189.60000,6.145068809
189.60050,4.924291178
189.60100,2.177541509
189.60150,-0.5692081607
189.60200,-1.789985791
189.60250,-0.8744025684
189.60300,0.3463750624
189.60350,1.567152693
189.60400,1.567152693
189.60450,1.261958286
189.60500,1.261958286
189.60550,2.177541509
189.60600,3.703513547
189.60650,4.313902363
189.60700,2.177541509
189.60750,-0.264013753
189.60800,-1.789985791
189.60850,-2.095180199
189.60900,-2.400374607
189.60950,-3.010763422
189.61000,-2.705569015
189.61050,-0.8744025684
189.61100,0.6515694701
189.61150,2.177541509
189.61200,3.093124732
189.61250,3.703513547
189.61300,3.703513547
